Data from Location2.07152019.Energy5.Lamp.07192019.3%Agarose_HRD10591_14-57-04-359.txt Node
Date: Fri Jul 19 14:57:04 EDT 2019
User: cochatt
Spectrometer: HR+D1059
Trigger mode: 1
Integration Time (sec): 1.000000E-1
Scans to average: 1
Electric dark correction enabled: true
Nonlinearity correction enabled: false
Boxcar width: 0
XAxis mode: Wavelengths
Number of Pixels in Spectrum: 2048
>>>>>Begin Spectral Data<<<<<
223.165	-4.81
223.4	-4.81
223.635	-4.81
223.869	-23.81
224.104	-30.81
224.338	-12.81
224.573	-13.81
224.808	-12.81
225.042	-12.81
225.277	-16.81
225.511	0.19
225.746	3.19
225.98	15.19
226.215	23.19
226.449	21.19
226.683	12.19
226.918	18.19
227.152	35.19
227.387	35.19
227.621	39.19
227.856	59.19
228.09	39.19
228.324	44.19
228.559	60.19
228.793	42.19
229.027	55.19
229.262	62.19
229.496	71.19
229.73	59.19
229.964	69.19
230.199	88.19
230.433	72.19
230.667	86.19
230.901	79.19
231.136	68.19
231.37	79.19
231.604	59.19
231.838	83.19
232.072	88.19
232.306	84.19
232.541	84.19
232.775	72.19
233.009	76.19
233.243	75.19
233.477	83.19
233.711	73.19
233.945	91.19
234.179	85.19
234.413	86.19
234.647	82.19
234.881	71.19
235.115	81.19
235.349	75.19
235.583	82.19
235.817	84.19
236.051	67.19
236.285	77.19
236.519	83.19
236.753	86.19
236.987	73.19
237.221	84.19
237.455	74.19
237.689	76.19
237.922	83.19
238.156	80.19
238.39	76.19
238.624	64.19
238.858	73.19
239.091	78.19
239.325	74.19
239.559	76.19
239.793	81.19
240.027	79.19
240.26	83.19
240.494	67.19
240.728	74.19
240.961	74.19
241.195	66.19
241.429	78.19
241.662	63.19
241.896	62.19
242.13	80.19
242.363	82.19
242.597	87.19
242.83	63.19
243.064	56.19
243.298	65.19
243.531	83.19
243.765	81.19
243.998	70.19
244.232	71.19
244.465	78.19
244.699	72.19
244.932	75.19
245.166	73.19
245.399	76.19
245.633	71.19
245.866	78.19
246.099	86.19
246.333	91.19
246.566	82.19
246.8	74.19
247.033	65.19
247.266	67.19
247.5	78.19
247.733	79.19
247.966	68.19
248.2	64.19
248.433	75.19
248.666	81.19
248.899	80.19
249.133	75.19
249.366	80.19
249.599	78.19
249.832	75.19
250.066	82.19
250.299	81.19
250.532	79.19
250.765	75.19
250.998	85.19
251.231	86.19
251.465	79.19
251.698	81.19
251.931	78.19
252.164	76.19
252.397	70.19
252.63	88.19
252.863	73.19
253.096	82.19
253.329	84.19
253.562	61.19
253.795	74.19
254.028	95.19
254.261	84.19
254.494	73.19
254.727	88.19
254.96	87.19
255.193	99.19
255.426	82.19
255.659	88.19
255.892	77.19
256.124	73.19
256.357	107.19
256.59	70.19
256.823	82.19
257.056	73.19
257.289	88.19
257.521	91.19
257.754	74.19
257.987	81.19
258.22	91.19
258.452	87.19
258.685	73.19
258.918	99.19
259.151	74.19
259.383	76.19
259.616	79.19
259.849	64.19
260.081	76.19
260.314	75.19
260.547	89.19
260.779	75.19
261.012	73.19
261.244	61.19
261.477	83.19
261.71	75.19
261.942	65.19
262.175	78.19
262.407	93.19
262.64	85.19
262.872	66.19
263.105	74.19
263.337	79.19
263.57	87.19
263.802	91.19
264.035	82.19
264.267	81.19
264.499	80.19
264.732	88.19
264.964	88.19
265.197	86.19
265.429	79.19
265.661	84.19
265.894	88.19
266.126	91.19
266.358	84.19
266.591	85.19
266.823	73.19
267.055	79.19
267.287	75.19
267.52	84.19
267.752	94.19
267.984	88.19
268.216	84.19
268.448	94.19
268.681	70.19
268.913	82.19
269.145	74.19
269.377	82.19
269.609	76.19
269.841	73.19
270.073	77.19
270.306	83.19
270.538	81.19
270.77	91.19
271.002	83.19
271.234	74.19
271.466	92.19
271.698	83.19
271.93	77.19
272.162	74.19
272.394	78.19
272.626	83.19
272.858	80.19
273.09	72.19
273.322	92.19
273.553	79.19
273.785	91.19
274.017	67.19
274.249	88.19
274.481	82.19
274.713	79.19
274.945	77.19
275.176	83.19
275.408	79.19
275.64	90.19
275.872	82.19
276.104	96.19
276.335	80.19
276.567	68.19
276.799	84.19
277.031	75.19
277.262	95.19
277.494	92.19
277.726	91.19
277.957	89.19
278.189	76.19
278.421	71.19
278.652	85.19
278.884	77.19
279.115	83.19
279.347	79.19
279.579	70.19
279.81	83.19
280.042	89.19
280.273	64.19
280.505	82.19
280.736	86.19
280.968	87.19
281.199	91.19
281.431	92.19
281.662	88.19
281.894	87.19
282.125	85.19
282.356	82.19
282.588	96.19
282.819	80.19
283.051	81.19
283.282	89.19
283.513	95.19
283.745	92.19
283.976	92.19
284.207	96.19
284.439	75.19
284.67	70.19
284.901	76.19
285.132	75.19
285.364	80.19
285.595	95.19
285.826	79.19
286.057	85.19
286.288	83.19
286.52	106.19
286.751	84.19
286.982	70.19
287.213	83.19
287.444	81.19
287.675	82.19
287.906	80.19
288.138	95.19
288.369	89.19
288.6	75.19
288.831	88.19
289.062	75.19
289.293	73.19
289.524	76.19
289.755	81.19
289.986	68.19
290.217	84.19
290.448	98.19
290.679	78.19
290.91	89.19
291.141	69.19
291.371	82.19
291.602	65.19
291.833	89.19
292.064	80.19
292.295	71.19
292.526	88.19
292.757	75.19
292.987	90.19
293.218	83.19
293.449	76.19
293.68	84.19
293.91	70.19
294.141	83.19
294.372	82.19
294.603	82.19
294.833	83.19
295.064	74.19
295.295	76.19
295.525	73.19
295.756	95.19
295.987	85.19
296.217	84.19
296.448	86.19
296.679	69.19
296.909	86.19
297.14	91.19
297.37	91.19
297.601	82.19
297.831	94.19
298.062	79.19
298.292	90.19
298.523	69.19
298.753	66.19
298.984	83.19
299.214	94.19
299.445	91.19
299.675	86.19
299.905	84.19
300.136	78.19
300.366	76.19
300.597	89.19
300.827	78.19
301.057	94.19
301.288	81.19
301.518	81.19
301.748	74.19
301.979	90.19
302.209	98.19
302.439	102.19
302.669	86.19
302.9	63.19
303.13	82.19
303.36	81.19
303.59	100.19
303.82	91.19
304.051	79.19
304.281	84.19
304.511	86.19
304.741	84.19
304.971	80.19
305.201	88.19
305.431	77.19
305.661	83.19
305.891	86.19
306.121	94.19
306.352	100.19
306.582	86.19
306.812	83.19
307.042	94.19
307.272	95.19
307.502	76.19
307.731	85.19
307.961	89.19
308.191	88.19
308.421	85.19
308.651	87.19
308.881	80.19
309.111	84.19
309.341	84.19
309.571	89.19
309.8	86.19
310.03	74.19
310.26	83.19
310.49	84.19
310.72	86.19
310.949	87.19
311.179	94.19
311.409	75.19
311.639	89.19
311.868	84.19
312.098	77.19
312.328	80.19
312.557	86.19
312.787	86.19
313.017	89.19
313.246	84.19
313.476	82.19
313.706	73.19
313.935	92.19
314.165	88.19
314.394	97.19
314.624	94.19
314.853	83.19
315.083	82.19
315.312	98.19
315.542	85.19
315.771	92.19
316.001	67.19
316.23	84.19
316.46	81.19
316.689	82.19
316.919	84.19
317.148	70.19
317.377	95.19
317.607	87.19
317.836	96.19
318.065	103.19
318.295	86.19
318.524	84.19
318.753	76.19
318.983	89.19
319.212	88.19
319.441	77.19
319.67	80.19
319.9	94.19
320.129	80.19
320.358	94.19
320.587	88.19
320.816	72.19
321.046	80.19
321.275	83.19
321.504	86.19
321.733	72.19
321.962	87.19
322.191	87.19
322.42	73.19
322.649	82.19
322.878	91.19
323.108	92.19
323.337	88.19
323.566	85.19
323.795	86.19
324.024	84.19
324.253	91.19
324.482	77.19
324.71	99.19
324.939	86.19
325.168	88.19
325.397	81.19
325.626	85.19
325.855	79.19
326.084	88.19
326.313	95.19
326.542	97.19
326.77	87.19
326.999	86.19
327.228	78.19
327.457	78.19
327.686	89.19
327.914	82.19
328.143	77.19
328.372	91.19
328.6	79.19
328.829	60.19
329.058	86.19
329.287	97.19
329.515	83.19
329.744	69.19
329.972	84.19
330.201	79.19
330.43	76.19
330.658	78.19
330.887	75.19
331.115	79.19
331.344	94.19
331.572	85.19
331.801	86.19
332.03	89.19
332.258	85.19
332.486	91.19
332.715	82.19
332.943	81.19
333.172	84.19
333.4	87.19
333.629	94.19
333.857	82.19
334.085	89.19
334.314	82.19
334.542	81.19
334.771	86.19
334.999	85.19
335.227	95.19
335.455	82.19
335.684	92.19
335.912	86.19
336.14	86.19
336.369	75.19
336.597	87.19
336.825	77.19
337.053	91.19
337.281	99.19
337.51	85.19
337.738	86.19
337.966	88.19
338.194	83.19
338.422	86.19
338.65	83.19
338.878	90.19
339.106	94.19
339.334	96.19
339.562	83.19
339.79	87.19
340.018	86.19
340.246	80.19
340.474	80.19
340.702	84.19
340.93	96.19
341.158	87.19
341.386	77.19
341.614	92.19
341.842	72.19
342.07	70.19
342.298	89.19
342.526	72.19
342.754	86.19
342.981	86.19
343.209	81.19
343.437	90.19
343.665	83.19
343.893	82.19
344.12	97.19
344.348	87.19
344.576	92.19
344.804	80.19
345.031	87.19
345.259	81.19
345.487	73.19
345.714	70.19
345.942	82.19
346.17	89.19
346.397	89.19
346.625	83.19
346.853	88.19
347.08	85.19
347.308	89.19
347.535	72.19
347.763	86.19
347.99	91.19
348.218	107.19
348.445	89.19
348.673	76.19
348.9	101.19
349.128	86.19
349.355	89.19
349.583	77.19
349.81	95.19
350.037	78.19
350.265	84.19
350.492	87.19
350.72	92.19
350.947	94.19
351.174	91.19
351.402	82.19
351.629	72.19
351.856	93.19
352.083	92.19
352.311	86.19
352.538	80.19
352.765	85.19
352.992	91.19
353.22	91.19
353.447	98.19
353.674	91.19
353.901	81.19
354.128	87.19
354.355	88.19
354.583	88.19
354.81	70.19
355.037	83.19
355.264	79.19
355.491	75.19
355.718	86.19
355.945	77.19
356.172	82.19
356.399	92.19
356.626	77.19
356.853	79.19
357.08	76.19
357.307	82.19
357.534	86.19
357.761	85.19
357.988	70.19
358.215	76.19
358.441	76.19
358.668	91.19
358.895	95.19
359.122	89.19
359.349	72.19
359.576	77.19
359.802	78.19
360.029	81.19
360.256	83.19
360.483	98.19
360.709	89.19
360.936	89.19
361.163	71.19
361.39	66.19
361.616	74.19
361.843	79.19
362.07	86.19
362.296	92.19
362.523	75.19
362.749	71.19
362.976	79.19
363.203	90.19
363.429	75.19
363.656	89.19
363.882	83.19
364.109	89.19
364.335	91.19
364.562	95.19
364.788	95.19
365.015	90.19
365.241	82.19
365.468	92.19
365.694	86.19
365.92	77.19
366.147	88.19
366.373	96.19
366.599	83.19
366.826	90.19
367.052	96.19
367.278	87.19
367.505	87.19
367.731	91.19
367.957	102.19
368.184	90.19
368.41	96.19
368.636	95.19
368.862	95.19
369.089	93.19
369.315	88.19
369.541	86.19
369.767	87.19
369.993	87.19
370.219	89.19
370.445	106.19
370.672	98.19
370.898	91.19
371.124	85.19
371.35	80.19
371.576	98.19
371.802	102.19
372.028	94.19
372.254	111.19
372.48	92.19
372.706	99.19
372.932	87.19
373.158	92.19
373.384	101.19
373.61	86.19
373.835	88.19
374.061	88.19
374.287	92.19
374.513	93.19
374.739	96.19
374.965	81.19
375.191	92.19
375.416	92.19
375.642	87.19
375.868	94.19
376.094	88.19
376.319	90.19
376.545	100.19
376.771	90.19
376.997	76.19
377.222	91.19
377.448	97.19
377.674	88.19
377.899	84.19
378.125	96.19
378.35	87.19
378.576	94.19
378.802	94.19
379.027	85.19
379.253	94.19
379.478	107.19
379.704	110.19
379.929	92.19
380.155	95.19
380.38	99.19
380.606	104.19
380.831	106.19
381.057	102.19
381.282	83.19
381.507	95.19
381.733	98.19
381.958	94.19
382.184	98.19
382.409	99.19
382.634	99.19
382.86	97.19
383.085	106.19
383.31	96.19
383.535	94.19
383.761	96.19
383.986	98.19
384.211	93.19
384.436	103.19
384.662	94.19
384.887	82.19
385.112	83.19
385.337	87.19
385.562	102.19
385.787	100.19
386.013	98.19
386.238	87.19
386.463	95.19
386.688	94.19
386.913	105.19
387.138	91.19
387.363	88.19
387.588	104.19
387.813	105.19
388.038	105.19
388.263	107.19
388.488	99.19
388.713	114.19
388.938	111.19
389.163	106.19
389.387	96.19
389.612	102.19
389.837	111.19
390.062	101.19
390.287	102.19
390.512	98.19
390.736	110.19
390.961	126.19
391.186	95.19
391.411	100.19
391.636	111.19
391.86	116.19
392.085	105.19
392.31	114.19
392.534	101.19
392.759	84.19
392.984	97.19
393.208	93.19
393.433	98.19
393.658	85.19
393.882	100.19
394.107	100.19
394.331	98.19
394.556	118.19
394.78	108.19
395.005	97.19
395.229	115.19
395.454	101.19
395.678	102.19
395.903	112.19
396.127	110.19
396.352	120.19
396.576	116.19
396.801	91.19
397.025	105.19
397.249	99.19
397.474	103.19
397.698	113.19
397.922	112.19
398.147	115.19
398.371	112.19
398.595	106.19
398.82	108.19
399.044	115.19
399.268	101.19
399.492	92.19
399.717	113.19
399.941	99.19
400.165	126.19
400.389	122.19
400.613	113.19
400.837	110.19
401.062	107.19
401.286	112.19
401.51	118.19
401.734	114.19
401.958	103.19
402.182	104.19
402.406	110.19
402.63	116.19
402.854	118.19
403.078	124.19
403.302	112.19
403.526	98.19
403.75	120.19
403.974	97.19
404.198	119.19
404.422	116.19
404.645	107.19
404.869	118.19
405.093	117.19
405.317	119.19
405.541	120.19
405.765	103.19
405.988	103.19
406.212	119.19
406.436	110.19
406.66	115.19
406.883	119.19
407.107	116.19
407.331	112.19
407.555	107.19
407.778	118.19
408.002	124.19
408.226	136.19
408.449	125.19
408.673	116.19
408.896	129.19
409.12	128.19
409.344	121.19
409.567	124.19
409.791	122.19
410.014	107.19
410.238	113.19
410.461	122.19
410.685	119.19
410.908	121.19
411.132	122.19
411.355	119.19
411.578	123.19
411.802	127.19
412.025	117.19
412.249	110.19
412.472	108.19
412.695	122.19
412.919	112.19
413.142	126.19
413.365	124.19
413.589	119.19
413.812	119.19
414.035	125.19
414.258	112.19
414.482	111.19
414.705	122.19
414.928	116.19
415.151	121.19
415.374	107.19
415.597	134.19
415.821	132.19
416.044	114.19
416.267	117.19
416.49	127.19
416.713	121.19
416.936	122.19
417.159	121.19
417.382	121.19
417.605	127.19
417.828	123.19
418.051	137.19
418.274	132.19
418.497	126.19
418.72	124.19
418.943	129.19
419.166	147.19
419.389	119.19
419.611	132.19
419.834	146.19
420.057	132.19
420.28	135.19
420.503	126.19
420.726	134.19
420.948	130.19
421.171	125.19
421.394	144.19
421.617	131.19
421.839	138.19
422.062	135.19
422.285	130.19
422.507	135.19
422.73	122.19
422.953	140.19
423.175	105.19
423.398	123.19
423.621	130.19
423.843	123.19
424.066	130.19
424.288	140.19
424.511	138.19
424.733	156.19
424.956	124.19
425.178	130.19
425.401	143.19
425.623	119.19
425.846	130.19
426.068	132.19
426.291	102.19
426.513	131.19
426.735	121.19
426.958	129.19
427.18	153.19
427.402	140.19
427.625	118.19
427.847	125.19
428.069	141.19
428.292	131.19
428.514	127.19
428.736	115.19
428.958	123.19
429.181	125.19
429.403	134.19
429.625	130.19
429.847	135.19
430.069	120.19
430.292	116.19
430.514	144.19
430.736	120.19
430.958	114.19
431.18	131.19
431.402	143.19
431.624	106.19
431.846	107.19
432.068	94.19
432.29	100.19
432.512	118.19
432.734	133.19
432.956	126.19
433.178	136.19
433.4	137.19
433.622	133.19
433.844	122.19
434.066	121.19
434.287	106.19
434.509	87.19
434.731	94.19
434.953	114.19
435.175	130.19
435.397	139.19
435.618	122.19
435.84	119.19
436.062	113.19
436.284	120.19
436.505	126.19
436.727	122.19
436.949	127.19
437.17	121.19
437.392	117.19
437.614	125.19
437.835	123.19
438.057	96.19
438.278	115.19
438.5	132.19
438.721	128.19
438.943	140.19
439.165	129.19
439.386	138.19
439.608	132.19
439.829	153.19
440.05	130.19
440.272	143.19
440.493	130.19
440.715	150.19
440.936	134.19
441.158	118.19
441.379	137.19
441.6	138.19
441.822	161.19
442.043	157.19
442.264	139.19
442.486	132.19
442.707	146.19
442.928	115.19
443.149	131.19
443.371	143.19
443.592	127.19
443.813	134.19
444.034	148.19
444.255	146.19
444.476	140.19
444.698	145.19
444.919	159.19
445.14	266.19
445.361	203.19
445.582	144.19
445.803	148.19
446.024	148.19
446.245	149.19
446.466	150.19
446.687	152.19
446.908	128.19
447.129	151.19
447.35	152.19
447.571	135.19
447.792	141.19
448.013	145.19
448.234	136.19
448.455	132.19
448.675	144.19
448.896	142.19
449.117	137.19
449.338	145.19
449.559	149.19
449.779	120.19
450	134.19
450.221	145.19
450.442	132.19
450.662	128.19
450.883	135.19
451.104	127.19
451.324	126.19
451.545	131.19
451.766	131.19
451.986	121.19
452.207	126.19
452.428	135.19
452.648	117.19
452.869	127.19
453.089	114.19
453.31	105.19
453.53	123.19
453.751	104.19
453.971	121.19
454.192	99.19
454.412	82.19
454.633	112.19
454.853	110.19
455.073	116.19
455.294	129.19
455.514	122.19
455.734	113.19
455.955	118.19
456.175	122.19
456.395	106.19
456.616	96.19
456.836	95.19
457.056	114.19
457.276	118.19
457.497	112.19
457.717	112.19
457.937	105.19
458.157	107.19
458.377	119.19
458.598	98.19
458.818	108.19
459.038	99.19
459.258	80.19
459.478	83.19
459.698	95.19
459.918	87.19
460.138	102.19
460.358	109.19
460.578	126.19
460.798	107.19
461.018	99.19
461.238	107.19
461.458	121.19
461.678	118.19
461.898	116.19
462.118	115.19
462.338	100.19
462.558	100.19
462.777	112.19
462.997	127.19
463.217	103.19
463.437	108.19
463.657	117.19
463.876	113.19
464.096	106.19
464.316	115.19
464.536	108.19
464.755	114.19
464.975	120.19
465.195	124.19
465.414	126.19
465.634	113.19
465.854	122.19
466.073	119.19
466.293	114.19
466.512	120.19
466.732	121.19
466.951	125.19
467.171	124.19
467.391	132.19
467.61	140.19
467.829	132.19
468.049	123.19
468.268	127.19
468.488	131.19
468.707	135.19
468.927	138.19
469.146	138.19
469.365	145.19
469.585	140.19
469.804	127.19
470.023	135.19
470.243	135.19
470.462	142.19
470.681	126.19
470.901	150.19
471.12	147.19
471.339	149.19
471.558	133.19
471.777	148.19
471.997	136.19
472.216	122.19
472.435	118.19
472.654	102.19
472.873	103.19
473.092	108.19
473.311	102.19
473.53	121.19
473.749	117.19
473.968	120.19
474.187	114.19
474.406	127.19
474.625	111.19
474.844	123.19
475.063	129.19
475.282	123.19
475.501	113.19
475.72	116.19
475.939	107.19
476.158	130.19
476.377	118.19
476.596	136.19
476.814	118.19
477.033	104.19
477.252	118.19
477.471	117.19
477.69	126.19
477.908	124.19
478.127	139.19
478.346	113.19
478.564	128.19
478.783	135.19
479.002	135.19
479.22	138.19
479.439	131.19
479.658	126.19
479.876	120.19
480.095	104.19
480.313	99.19
480.532	100.19
480.751	106.19
480.969	106.19
481.188	84.19
481.406	102.19
481.624	79.19
481.843	88.19
482.061	92.19
482.28	100.19
482.498	110.19
482.717	102.19
482.935	118.19
483.153	132.19
483.372	150.19
483.59	163.19
483.808	136.19
484.027	135.19
484.245	132.19
484.463	154.19
484.681	159.19
484.9	140.19
485.118	121.19
485.336	114.19
485.554	108.19
485.772	117.19
485.99	98.19
486.209	100.19
486.427	103.19
486.645	118.19
486.863	130.19
487.081	134.19
487.299	130.19
487.517	132.19
487.735	152.19
487.953	179.19
488.171	156.19
488.389	162.19
488.607	163.19
488.825	142.19
489.043	139.19
489.261	153.19
489.479	128.19
489.696	154.19
489.914	143.19
490.132	150.19
490.35	158.19
490.568	160.19
490.786	165.19
491.003	169.19
491.221	168.19
491.439	173.19
491.657	191.19
491.874	211.19
492.092	229.19
492.31	247.19
492.527	228.19
492.745	199.19
492.963	190.19
493.18	181.19
493.398	167.19
493.615	169.19
493.833	180.19
494.05	158.19
494.268	185.19
494.485	168.19
494.703	179.19
494.92	168.19
495.138	168.19
495.355	178.19
495.573	164.19
495.79	186.19
496.008	179.19
496.225	166.19
496.442	154.19
496.66	167.19
496.877	153.19
497.094	143.19
497.312	169.19
497.529	165.19
497.746	154.19
497.963	148.19
498.181	143.19
498.398	117.19
498.615	116.19
498.832	113.19
499.049	103.19
499.267	112.19
499.484	114.19
499.701	116.19
499.918	132.19
500.135	130.19
500.352	133.19
500.569	137.19
500.786	156.19
501.003	139.19
501.22	141.19
501.437	130.19
501.654	129.19
501.871	141.19
502.088	126.19
502.305	125.19
502.522	137.19
502.739	132.19
502.956	133.19
503.172	119.19
503.389	104.19
503.606	104.19
503.823	111.19
504.04	118.19
504.256	121.19
504.473	106.19
504.69	98.19
504.907	98.19
505.123	131.19
505.34	128.19
505.557	126.19
505.773	119.19
505.99	125.19
506.207	116.19
506.423	112.19
506.64	123.19
506.856	118.19
507.073	122.19
507.289	110.19
507.506	135.19
507.722	110.19
507.939	118.19
508.155	113.19
508.372	98.19
508.588	113.19
508.805	108.19
509.021	118.19
509.238	100.19
509.454	91.19
509.67	94.19
509.887	102.19
510.103	101.19
510.319	101.19
510.536	81.19
510.752	86.19
510.968	77.19
511.184	87.19
511.401	93.19
511.617	87.19
511.833	98.19
512.049	91.19
512.265	80.19
512.481	103.19
512.698	93.19
512.914	95.19
513.13	80.19
513.346	78.19
513.562	88.19
513.778	82.19
513.994	84.19
514.21	97.19
514.426	95.19
514.642	96.19
514.858	79.19
515.074	80.19
515.29	87.19
515.506	93.19
515.721	85.19
515.937	85.19
516.153	90.19
516.369	84.19
516.585	90.19
516.801	93.19
517.016	85.19
517.232	85.19
517.448	91.19
517.664	89.19
517.879	95.19
518.095	103.19
518.311	82.19
518.527	98.19
518.742	111.19
518.958	103.19
519.173	87.19
519.389	108.19
519.605	97.19
519.82	112.19
520.036	110.19
520.251	99.19
520.467	97.19
520.682	98.19
520.898	96.19
521.113	89.19
521.329	90.19
521.544	95.19
521.76	96.19
521.975	95.19
522.19	90.19
522.406	106.19
522.621	110.19
522.836	104.19
523.052	104.19
523.267	101.19
523.482	97.19
523.698	110.19
523.913	124.19
524.128	111.19
524.343	119.19
524.559	117.19
524.774	124.19
524.989	131.19
525.204	116.19
525.419	127.19
525.634	112.19
525.849	96.19
526.064	116.19
526.28	106.19
526.495	94.19
526.71	77.19
526.925	84.19
527.14	90.19
527.355	76.19
527.57	83.19
527.785	87.19
527.999	101.19
528.214	104.19
528.429	113.19
528.644	124.19
528.859	122.19
529.074	147.19
529.289	154.19
529.503	158.19
529.718	138.19
529.933	120.19
530.148	116.19
530.363	94.19
530.577	82.19
530.792	79.19
531.007	81.19
531.221	77.19
531.436	80.19
531.651	91.19
531.865	72.19
532.08	83.19
532.295	86.19
532.509	88.19
532.724	87.19
532.938	89.19
533.153	94.19
533.367	120.19
533.582	109.19
533.796	125.19
534.011	108.19
534.225	102.19
534.44	87.19
534.654	103.19
534.868	90.19
535.083	95.19
535.297	102.19
535.511	106.19
535.726	124.19
535.94	110.19
536.154	99.19
536.369	82.19
536.583	89.19
536.797	84.19
537.011	96.19
537.225	98.19
537.44	100.19
537.654	111.19
537.868	98.19
538.082	77.19
538.296	98.19
538.51	92.19
538.724	113.19
538.938	130.19
539.153	133.19
539.367	123.19
539.581	107.19
539.795	120.19
540.009	90.19
540.222	93.19
540.436	105.19
540.65	135.19
540.864	138.19
541.078	132.19
541.292	164.19
541.506	157.19
541.72	181.19
541.934	169.19
542.147	175.19
542.361	174.19
542.575	164.19
542.789	153.19
543.002	135.19
543.216	126.19
543.43	119.19
543.644	140.19
543.857	145.19
544.071	147.19
544.285	167.19
544.498	150.19
544.712	148.19
544.925	163.19
545.139	154.19
545.352	152.19
545.566	166.19
545.779	148.19
545.993	169.19
546.206	164.19
546.42	162.19
546.633	150.19
546.847	166.19
547.06	160.19
547.274	167.19
547.487	176.19
547.7	175.19
547.914	174.19
548.127	167.19
548.34	167.19
548.554	159.19
548.767	154.19
548.98	156.19
549.193	165.19
549.407	163.19
549.62	150.19
549.833	160.19
550.046	151.19
550.259	146.19
550.473	152.19
550.686	145.19
550.899	160.19
551.112	149.19
551.325	160.19
551.538	133.19
551.751	122.19
551.964	124.19
552.177	135.19
552.39	146.19
552.603	142.19
552.816	136.19
553.029	159.19
553.242	161.19
553.455	152.19
553.667	150.19
553.88	160.19
554.093	147.19
554.306	158.19
554.519	149.19
554.732	156.19
554.944	144.19
555.157	139.19
555.37	147.19
555.583	147.19
555.795	144.19
556.008	123.19
556.221	122.19
556.433	127.19
556.646	132.19
556.859	135.19
557.071	147.19
557.284	153.19
557.496	135.19
557.709	135.19
557.921	149.19
558.134	144.19
558.346	154.19
558.559	138.19
558.771	129.19
558.984	121.19
559.196	148.19
559.409	118.19
559.621	137.19
559.833	123.19
560.046	114.19
560.258	114.19
560.47	140.19
560.683	130.19
560.895	132.19
561.107	153.19
561.32	116.19
561.532	130.19
561.744	138.19
561.956	130.19
562.168	132.19
562.381	130.19
562.593	125.19
562.805	134.19
563.017	129.19
563.229	123.19
563.441	120.19
563.653	123.19
563.865	117.19
564.077	124.19
564.289	119.19
564.501	123.19
564.713	124.19
564.925	130.19
565.137	117.19
565.349	108.19
565.561	102.19
565.773	122.19
565.985	124.19
566.197	123.19
566.408	132.19
566.62	122.19
566.832	110.19
567.044	116.19
567.255	128.19
567.467	115.19
567.679	120.19
567.891	120.19
568.102	107.19
568.314	94.19
568.526	83.19
568.737	86.19
568.949	84.19
569.161	85.19
569.372	81.19
569.584	91.19
569.795	88.19
570.007	83.19
570.218	89.19
570.43	92.19
570.641	86.19
570.853	102.19
571.064	100.19
571.276	116.19
571.487	104.19
571.698	113.19
571.91	105.19
572.121	116.19
572.333	116.19
572.544	98.19
572.755	93.19
572.966	93.19
573.178	88.19
573.389	86.19
573.6	91.19
573.811	92.19
574.023	83.19
574.234	89.19
574.445	79.19
574.656	83.19
574.867	103.19
575.078	94.19
575.289	97.19
575.501	83.19
575.712	90.19
575.923	84.19
576.134	100.19
576.345	103.19
576.556	104.19
576.767	107.19
576.978	104.19
577.188	110.19
577.399	96.19
577.61	105.19
577.821	94.19
578.032	88.19
578.243	107.19
578.454	105.19
578.665	82.19
578.875	91.19
579.086	98.19
579.297	86.19
579.508	87.19
579.718	82.19
579.929	86.19
580.14	91.19
580.35	110.19
580.561	100.19
580.772	85.19
580.982	96.19
581.193	92.19
581.403	95.19
581.614	86.19
581.825	97.19
582.035	95.19
582.246	84.19
582.456	86.19
582.667	95.19
582.877	83.19
583.087	98.19
583.298	92.19
583.508	91.19
583.719	88.19
583.929	84.19
584.139	82.19
584.35	80.19
584.56	95.19
584.77	108.19
584.981	100.19
585.191	112.19
585.401	81.19
585.611	104.19
585.821	104.19
586.032	100.19
586.242	76.19
586.452	83.19
586.662	87.19
586.872	89.19
587.082	94.19
587.292	82.19
587.502	97.19
587.713	87.19
587.923	82.19
588.133	98.19
588.343	79.19
588.553	95.19
588.762	81.19
588.972	77.19
589.182	82.19
589.392	76.19
589.602	84.19
589.812	84.19
590.022	91.19
590.232	95.19
590.441	83.19
590.651	93.19
590.861	87.19
591.071	95.19
591.281	83.19
591.49	85.19
591.7	87.19
591.91	77.19
592.119	87.19
592.329	90.19
592.539	87.19
592.748	88.19
592.958	84.19
593.167	81.19
593.377	89.19
593.587	100.19
593.796	89.19
594.006	70.19
594.215	76.19
594.424	93.19
594.634	90.19
594.843	84.19
595.053	85.19
595.262	112.19
595.472	100.19
595.681	97.19
595.89	78.19
596.1	84.19
596.309	99.19
596.518	96.19
596.727	91.19
596.937	92.19
597.146	99.19
597.355	79.19
597.564	103.19
597.774	85.19
597.983	76.19
598.192	83.19
598.401	91.19
598.61	98.19
598.819	96.19
599.028	97.19
599.237	97.19
599.446	101.19
599.655	84.19
599.864	91.19
600.073	112.19
600.282	90.19
600.491	114.19
600.7	101.19
600.909	97.19
601.118	96.19
601.327	97.19
601.536	106.19
601.745	116.19
601.953	114.19
602.162	99.19
602.371	122.19
602.58	102.19
602.789	115.19
602.997	110.19
603.206	113.19
603.415	115.19
603.623	120.19
603.832	96.19
604.041	104.19
604.249	101.19
604.458	105.19
604.666	105.19
604.875	106.19
605.084	100.19
605.292	106.19
605.501	119.19
605.709	110.19
605.918	113.19
606.126	121.19
606.334	115.19
606.543	115.19
606.751	122.19
606.96	116.19
607.168	121.19
607.376	100.19
607.585	117.19
607.793	113.19
608.001	97.19
608.21	116.19
608.418	118.19
608.626	111.19
608.834	117.19
609.043	119.19
609.251	121.19
609.459	105.19
609.667	118.19
609.875	119.19
610.083	119.19
610.291	116.19
610.499	126.19
610.707	110.19
610.916	105.19
611.124	118.19
611.332	116.19
611.54	114.19
611.748	118.19
611.955	109.19
612.163	114.19
612.371	101.19
612.579	116.19
612.787	102.19
612.995	114.19
613.203	100.19
613.411	115.19
613.618	106.19
613.826	114.19
614.034	114.19
614.242	123.19
614.449	112.19
614.657	107.19
614.865	115.19
615.072	111.19
615.28	122.19
615.488	115.19
615.695	105.19
615.903	126.19
616.111	119.19
616.318	114.19
616.526	122.19
616.733	119.19
616.941	115.19
617.148	120.19
617.356	107.19
617.563	108.19
617.771	111.19
617.978	104.19
618.185	115.19
618.393	107.19
618.6	114.19
618.807	115.19
619.015	118.19
619.222	96.19
619.429	100.19
619.637	99.19
619.844	80.19
620.051	114.19
620.258	119.19
620.466	123.19
620.673	123.19
620.88	99.19
621.087	106.19
621.294	85.19
621.501	97.19
621.708	119.19
621.915	110.19
622.122	112.19
622.329	108.19
622.536	101.19
622.743	88.19
622.95	110.19
623.157	118.19
623.364	106.19
623.571	117.19
623.778	124.19
623.985	111.19
624.192	103.19
624.399	105.19
624.606	125.19
624.812	115.19
625.019	107.19
625.226	97.19
625.433	99.19
625.639	107.19
625.846	98.19
626.053	102.19
626.259	96.19
626.466	97.19
626.673	98.19
626.879	81.19
627.086	98.19
627.293	98.19
627.499	102.19
627.706	113.19
627.912	119.19
628.119	106.19
628.325	119.19
628.532	108.19
628.738	100.19
628.945	103.19
629.151	99.19
629.357	101.19
629.564	107.19
629.77	110.19
629.976	112.19
630.183	101.19
630.389	110.19
630.595	103.19
630.802	102.19
631.008	102.19
631.214	99.19
631.42	100.19
631.627	88.19
631.833	96.19
632.039	98.19
632.245	100.19
632.451	98.19
632.657	102.19
632.863	94.19
633.069	99.19
633.275	94.19
633.481	82.19
633.688	108.19
633.893	93.19
634.099	89.19
634.305	96.19
634.511	97.19
634.717	98.19
634.923	98.19
635.129	92.19
635.335	89.19
635.541	97.19
635.747	86.19
635.952	108.19
636.158	110.19
636.364	104.19
636.57	101.19
636.775	97.19
636.981	104.19
637.187	103.19
637.392	107.19
637.598	98.19
637.804	104.19
638.009	96.19
638.215	88.19
638.421	111.19
638.626	92.19
638.832	100.19
639.037	95.19
639.243	90.19
639.448	93.19
639.654	94.19
639.859	80.19
640.065	85.19
640.27	91.19
640.475	91.19
640.681	99.19
640.886	93.19
641.091	103.19
641.297	111.19
641.502	106.19
641.707	119.19
641.913	102.19
642.118	104.19
642.323	92.19
642.528	106.19
642.733	113.19
642.939	95.19
643.144	108.19
643.349	89.19
643.554	103.19
643.759	93.19
643.964	101.19
644.169	96.19
644.374	100.19
644.579	99.19
644.784	107.19
644.989	103.19
645.194	96.19
645.399	102.19
645.604	94.19
645.809	111.19
646.014	98.19
646.219	95.19
646.423	104.19
646.628	85.19
646.833	98.19
647.038	114.19
647.243	102.19
647.447	94.19
647.652	76.19
647.857	99.19
648.062	85.19
648.266	70.19
648.471	96.19
648.676	90.19
648.88	96.19
649.085	94.19
649.289	108.19
649.494	101.19
649.698	116.19
649.903	75.19
650.107	106.19
650.312	98.19
650.516	96.19
650.721	97.19
650.925	97.19
651.13	82.19
651.334	91.19
651.539	109.19
651.743	81.19
651.947	87.19
652.152	97.19
652.356	96.19
652.56	107.19
652.764	90.19
652.969	99.19
653.173	98.19
653.377	88.19
653.581	84.19
653.785	98.19
653.99	98.19
654.194	98.19
654.398	104.19
654.602	89.19
654.806	90.19
655.01	98.19
655.214	101.19
655.418	76.19
655.622	81.19
655.826	94.19
656.03	84.19
656.234	89.19
656.438	84.19
656.642	98.19
656.846	97.19
657.049	77.19
657.253	100.19
657.457	90.19
657.661	62.19
657.865	86.19
658.068	90.19
658.272	78.19
658.476	110.19
658.68	80.19
658.883	94.19
659.087	81.19
659.291	96.19
659.494	81.19
659.698	75.19
659.901	79.19
660.105	78.19
660.309	88.19
660.512	87.19
660.716	93.19
660.919	74.19
661.123	88.19
661.326	78.19
661.53	98.19
661.733	73.19
661.936	87.19
662.14	81.19
662.343	88.19
662.546	83.19
662.75	71.19
662.953	86.19
663.156	80.19
663.36	88.19
663.563	83.19
663.766	82.19
663.969	95.19
664.173	74.19
664.376	90.19
664.579	80.19
664.782	85.19
664.985	79.19
665.188	75.19
665.391	65.19
665.594	89.19
665.797	80.19
666	90.19
666.203	90.19
666.406	77.19
666.609	79.19
666.812	95.19
667.015	71.19
667.218	77.19
667.421	80.19
667.624	86.19
667.827	87.19
668.03	67.19
668.232	79.19
668.435	87.19
668.638	72.19
668.841	74.19
669.043	75.19
669.246	86.19
669.449	71.19
669.651	87.19
669.854	74.19
670.057	87.19
670.259	87.19
670.462	79.19
670.665	78.19
670.867	84.19
671.07	92.19
671.272	93.19
671.475	89.19
671.677	79.19
671.88	86.19
672.082	78.19
672.284	78.19
672.487	78.19
672.689	82.19
672.892	80.19
