Data from Location2.07152019.Energy5.Lamp.07192019.3%Agarose_HRD10591_14-58-12-359.txt Node
Date: Fri Jul 19 14:58:12 EDT 2019
User: cochatt
Spectrometer: HR+D1059
Trigger mode: 1
Integration Time (sec): 1.000000E-1
Scans to average: 1
Electric dark correction enabled: true
Nonlinearity correction enabled: false
Boxcar width: 0
XAxis mode: Wavelengths
Number of Pixels in Spectrum: 2048
>>>>>Begin Spectral Data<<<<<
223.165	-0.81
223.4	-0.81
223.635	-0.81
223.869	-19.81
224.104	-23.81
224.338	-12.81
224.573	-24.81
224.808	1.19
225.042	-7.81
225.277	-5.81
225.511	4.19
225.746	-4.81
225.98	6.19
226.215	0.19
226.449	-4.81
226.683	20.19
226.918	29.19
227.152	44.19
227.387	44.19
227.621	34.19
227.856	30.19
228.09	44.19
228.324	48.19
228.559	50.19
228.793	55.19
229.027	50.19
229.262	50.19
229.496	56.19
229.73	59.19
229.964	73.19
230.199	60.19
230.433	65.19
230.667	65.19
230.901	78.19
231.136	80.19
231.37	59.19
231.604	62.19
231.838	80.19
232.072	78.19
232.306	80.19
232.541	82.19
232.775	78.19
233.009	77.19
233.243	78.19
233.477	83.19
233.711	77.19
233.945	80.19
234.179	78.19
234.413	78.19
234.647	75.19
234.881	68.19
235.115	89.19
235.349	74.19
235.583	85.19
235.817	80.19
236.051	93.19
236.285	67.19
236.519	78.19
236.753	76.19
236.987	83.19
237.221	77.19
237.455	82.19
237.689	58.19
237.922	78.19
238.156	66.19
238.39	69.19
238.624	73.19
238.858	68.19
239.091	82.19
239.325	78.19
239.559	77.19
239.793	86.19
240.027	57.19
240.26	83.19
240.494	60.19
240.728	68.19
240.961	74.19
241.195	70.19
241.429	82.19
241.662	69.19
241.896	60.19
242.13	72.19
242.363	71.19
242.597	82.19
242.83	75.19
243.064	64.19
243.298	71.19
243.531	71.19
243.765	72.19
243.998	73.19
244.232	79.19
244.465	69.19
244.699	74.19
244.932	69.19
245.166	74.19
245.399	67.19
245.633	60.19
245.866	72.19
246.099	77.19
246.333	78.19
246.566	66.19
246.8	79.19
247.033	86.19
247.266	84.19
247.5	65.19
247.733	66.19
247.966	57.19
248.2	79.19
248.433	70.19
248.666	74.19
248.899	90.19
249.133	89.19
249.366	84.19
249.599	81.19
249.832	74.19
250.066	77.19
250.299	64.19
250.532	71.19
250.765	77.19
250.998	75.19
251.231	78.19
251.465	76.19
251.698	80.19
251.931	68.19
252.164	71.19
252.397	79.19
252.63	71.19
252.863	65.19
253.096	93.19
253.329	75.19
253.562	77.19
253.795	74.19
254.028	54.19
254.261	87.19
254.494	77.19
254.727	65.19
254.96	69.19
255.193	77.19
255.426	64.19
255.659	72.19
255.892	86.19
256.124	73.19
256.357	64.19
256.59	61.19
256.823	89.19
257.056	87.19
257.289	79.19
257.521	77.19
257.754	68.19
257.987	81.19
258.22	76.19
258.452	80.19
258.685	87.19
258.918	64.19
259.151	62.19
259.383	85.19
259.616	86.19
259.849	89.19
260.081	77.19
260.314	67.19
260.547	75.19
260.779	74.19
261.012	78.19
261.244	64.19
261.477	75.19
261.71	73.19
261.942	84.19
262.175	69.19
262.407	83.19
262.64	71.19
262.872	69.19
263.105	70.19
263.337	79.19
263.57	81.19
263.802	85.19
264.035	69.19
264.267	74.19
264.499	62.19
264.732	86.19
264.964	78.19
265.197	65.19
265.429	81.19
265.661	72.19
265.894	83.19
266.126	81.19
266.358	77.19
266.591	68.19
266.823	80.19
267.055	80.19
267.287	82.19
267.52	86.19
267.752	83.19
267.984	73.19
268.216	76.19
268.448	84.19
268.681	84.19
268.913	84.19
269.145	75.19
269.377	82.19
269.609	82.19
269.841	76.19
270.073	83.19
270.306	71.19
270.538	62.19
270.77	82.19
271.002	70.19
271.234	78.19
271.466	91.19
271.698	84.19
271.93	85.19
272.162	85.19
272.394	77.19
272.626	60.19
272.858	72.19
273.09	91.19
273.322	77.19
273.553	81.19
273.785	94.19
274.017	76.19
274.249	65.19
274.481	71.19
274.713	90.19
274.945	79.19
275.176	77.19
275.408	94.19
275.64	73.19
275.872	74.19
276.104	71.19
276.335	74.19
276.567	82.19
276.799	68.19
277.031	72.19
277.262	87.19
277.494	90.19
277.726	90.19
277.957	74.19
278.189	76.19
278.421	86.19
278.652	73.19
278.884	90.19
279.115	90.19
279.347	82.19
279.579	84.19
279.81	82.19
280.042	79.19
280.273	80.19
280.505	106.19
280.736	68.19
280.968	82.19
281.199	87.19
281.431	79.19
281.662	70.19
281.894	90.19
282.125	71.19
282.356	74.19
282.588	77.19
282.819	66.19
283.051	78.19
283.282	81.19
283.513	87.19
283.745	78.19
283.976	73.19
284.207	68.19
284.439	73.19
284.67	92.19
284.901	84.19
285.132	86.19
285.364	83.19
285.595	72.19
285.826	87.19
286.057	84.19
286.288	82.19
286.52	88.19
286.751	95.19
286.982	79.19
287.213	78.19
287.444	78.19
287.675	77.19
287.906	82.19
288.138	75.19
288.369	96.19
288.6	66.19
288.831	75.19
289.062	85.19
289.293	89.19
289.524	94.19
289.755	81.19
289.986	79.19
290.217	78.19
290.448	62.19
290.679	93.19
290.91	80.19
291.141	76.19
291.371	64.19
291.602	64.19
291.833	83.19
292.064	78.19
292.295	78.19
292.526	71.19
292.757	89.19
292.987	83.19
293.218	78.19
293.449	85.19
293.68	81.19
293.91	77.19
294.141	77.19
294.372	88.19
294.603	93.19
294.833	91.19
295.064	83.19
295.295	78.19
295.525	79.19
295.756	80.19
295.987	85.19
296.217	73.19
296.448	86.19
296.679	98.19
296.909	91.19
297.14	88.19
297.37	90.19
297.601	83.19
297.831	80.19
298.062	85.19
298.292	88.19
298.523	79.19
298.753	94.19
298.984	80.19
299.214	76.19
299.445	85.19
299.675	82.19
299.905	65.19
300.136	88.19
300.366	74.19
300.597	78.19
300.827	83.19
301.057	68.19
301.288	78.19
301.518	62.19
301.748	83.19
301.979	99.19
302.209	80.19
302.439	74.19
302.669	76.19
302.9	72.19
303.13	76.19
303.36	84.19
303.59	80.19
303.82	79.19
304.051	82.19
304.281	80.19
304.511	73.19
304.741	80.19
304.971	77.19
305.201	81.19
305.431	87.19
305.661	90.19
305.891	74.19
306.121	84.19
306.352	98.19
306.582	85.19
306.812	83.19
307.042	75.19
307.272	78.19
307.502	73.19
307.731	68.19
307.961	87.19
308.191	66.19
308.421	83.19
308.651	83.19
308.881	92.19
309.111	84.19
309.341	76.19
309.571	88.19
309.8	79.19
310.03	97.19
310.26	76.19
310.49	97.19
310.72	93.19
310.949	70.19
311.179	78.19
311.409	76.19
311.639	74.19
311.868	76.19
312.098	72.19
312.328	67.19
312.557	72.19
312.787	82.19
313.017	89.19
313.246	80.19
313.476	81.19
313.706	73.19
313.935	86.19
314.165	76.19
314.394	82.19
314.624	73.19
314.853	87.19
315.083	87.19
315.312	88.19
315.542	95.19
315.771	72.19
316.001	73.19
316.23	87.19
316.46	84.19
316.689	81.19
316.919	80.19
317.148	95.19
317.377	85.19
317.607	90.19
317.836	81.19
318.065	85.19
318.295	87.19
318.524	77.19
318.753	85.19
318.983	70.19
319.212	73.19
319.441	82.19
319.67	89.19
319.9	84.19
320.129	84.19
320.358	82.19
320.587	96.19
320.816	88.19
321.046	83.19
321.275	89.19
321.504	70.19
321.733	73.19
321.962	75.19
322.191	81.19
322.42	90.19
322.649	92.19
322.878	82.19
323.108	81.19
323.337	92.19
323.566	85.19
323.795	94.19
324.024	82.19
324.253	88.19
324.482	82.19
324.71	70.19
324.939	80.19
325.168	84.19
325.397	87.19
325.626	85.19
325.855	74.19
326.084	74.19
326.313	85.19
326.542	94.19
326.77	73.19
326.999	84.19
327.228	71.19
327.457	76.19
327.686	72.19
327.914	80.19
328.143	71.19
328.372	91.19
328.6	82.19
328.829	98.19
329.058	75.19
329.287	77.19
329.515	69.19
329.744	64.19
329.972	78.19
330.201	81.19
330.43	79.19
330.658	89.19
330.887	73.19
331.115	81.19
331.344	86.19
331.572	85.19
331.801	82.19
332.03	82.19
332.258	89.19
332.486	84.19
332.715	88.19
332.943	74.19
333.172	72.19
333.4	71.19
333.629	94.19
333.857	83.19
334.085	88.19
334.314	85.19
334.542	78.19
334.771	85.19
334.999	81.19
335.227	83.19
335.455	83.19
335.684	70.19
335.912	77.19
336.14	72.19
336.369	78.19
336.597	91.19
336.825	88.19
337.053	83.19
337.281	90.19
337.51	80.19
337.738	87.19
337.966	92.19
338.194	65.19
338.422	80.19
338.65	66.19
338.878	67.19
339.106	88.19
339.334	86.19
339.562	78.19
339.79	80.19
340.018	74.19
340.246	94.19
340.474	84.19
340.702	67.19
340.93	87.19
341.158	89.19
341.386	86.19
341.614	85.19
341.842	79.19
342.07	96.19
342.298	84.19
342.526	84.19
342.754	84.19
342.981	73.19
343.209	83.19
343.437	75.19
343.665	94.19
343.893	65.19
344.12	99.19
344.348	87.19
344.576	82.19
344.804	81.19
345.031	90.19
345.259	72.19
345.487	76.19
345.714	83.19
345.942	72.19
346.17	73.19
346.397	73.19
346.625	75.19
346.853	86.19
347.08	82.19
347.308	77.19
347.535	90.19
347.763	80.19
347.99	84.19
348.218	85.19
348.445	89.19
348.673	88.19
348.9	91.19
349.128	86.19
349.355	79.19
349.583	81.19
349.81	70.19
350.037	76.19
350.265	86.19
350.492	78.19
350.72	100.19
350.947	88.19
351.174	87.19
351.402	77.19
351.629	92.19
351.856	82.19
352.083	75.19
352.311	87.19
352.538	82.19
352.765	87.19
352.992	76.19
353.22	69.19
353.447	84.19
353.674	70.19
353.901	72.19
354.128	77.19
354.355	66.19
354.583	74.19
354.81	73.19
355.037	81.19
355.264	81.19
355.491	79.19
355.718	81.19
355.945	82.19
356.172	73.19
356.399	82.19
356.626	85.19
356.853	87.19
357.08	85.19
357.307	76.19
357.534	73.19
357.761	83.19
357.988	82.19
358.215	85.19
358.441	93.19
358.668	86.19
358.895	75.19
359.122	78.19
359.349	76.19
359.576	91.19
359.802	77.19
360.029	70.19
360.256	84.19
360.483	96.19
360.709	78.19
360.936	92.19
361.163	85.19
361.39	85.19
361.616	91.19
361.843	73.19
362.07	74.19
362.296	97.19
362.523	81.19
362.749	86.19
362.976	80.19
363.203	85.19
363.429	83.19
363.656	79.19
363.882	79.19
364.109	89.19
364.335	87.19
364.562	82.19
364.788	71.19
365.015	96.19
365.241	95.19
365.468	94.19
365.694	85.19
365.92	78.19
366.147	63.19
366.373	78.19
366.599	75.19
366.826	84.19
367.052	99.19
367.278	73.19
367.505	78.19
367.731	72.19
367.957	72.19
368.184	61.19
368.41	87.19
368.636	81.19
368.862	85.19
369.089	89.19
369.315	76.19
369.541	79.19
369.767	82.19
369.993	68.19
370.219	80.19
370.445	92.19
370.672	85.19
370.898	88.19
371.124	87.19
371.35	87.19
371.576	78.19
371.802	96.19
372.028	79.19
372.254	90.19
372.48	94.19
372.706	87.19
372.932	87.19
373.158	98.19
373.384	90.19
373.61	88.19
373.835	91.19
374.061	73.19
374.287	93.19
374.513	90.19
374.739	80.19
374.965	90.19
375.191	90.19
375.416	98.19
375.642	81.19
375.868	91.19
376.094	94.19
376.319	77.19
376.545	91.19
376.771	88.19
376.997	82.19
377.222	91.19
377.448	94.19
377.674	95.19
377.899	82.19
378.125	98.19
378.35	94.19
378.576	97.19
378.802	96.19
379.027	90.19
379.253	93.19
379.478	74.19
379.704	82.19
379.929	95.19
380.155	76.19
380.38	89.19
380.606	91.19
380.831	81.19
381.057	77.19
381.282	80.19
381.507	86.19
381.733	89.19
381.958	95.19
382.184	90.19
382.409	104.19
382.634	101.19
382.86	93.19
383.085	83.19
383.31	85.19
383.535	102.19
383.761	94.19
383.986	91.19
384.211	97.19
384.436	85.19
384.662	95.19
384.887	88.19
385.112	87.19
385.337	104.19
385.562	79.19
385.787	87.19
386.013	99.19
386.238	93.19
386.463	107.19
386.688	93.19
386.913	100.19
387.138	94.19
387.363	88.19
387.588	100.19
387.813	104.19
388.038	94.19
388.263	86.19
388.488	87.19
388.713	101.19
388.938	103.19
389.163	92.19
389.387	99.19
389.612	103.19
389.837	83.19
390.062	100.19
390.287	100.19
390.512	98.19
390.736	92.19
390.961	125.19
391.186	102.19
391.411	105.19
391.636	103.19
391.86	90.19
392.085	111.19
392.31	96.19
392.534	93.19
392.759	100.19
392.984	100.19
393.208	101.19
393.433	97.19
393.658	107.19
393.882	117.19
394.107	104.19
394.331	101.19
394.556	98.19
394.78	107.19
395.005	107.19
395.229	104.19
395.454	109.19
395.678	90.19
395.903	94.19
396.127	91.19
396.352	103.19
396.576	109.19
396.801	99.19
397.025	97.19
397.249	98.19
397.474	106.19
397.698	99.19
397.922	86.19
398.147	104.19
398.371	102.19
398.595	96.19
398.82	109.19
399.044	120.19
399.268	120.19
399.492	104.19
399.717	111.19
399.941	120.19
400.165	125.19
400.389	89.19
400.613	108.19
400.837	105.19
401.062	108.19
401.286	120.19
401.51	107.19
401.734	100.19
401.958	96.19
402.182	109.19
402.406	101.19
402.63	105.19
402.854	108.19
403.078	111.19
403.302	100.19
403.526	108.19
403.75	103.19
403.974	112.19
404.198	108.19
404.422	116.19
404.645	108.19
404.869	102.19
405.093	114.19
405.317	96.19
405.541	115.19
405.765	110.19
405.988	120.19
406.212	107.19
406.436	105.19
406.66	112.19
406.883	106.19
407.107	103.19
407.331	109.19
407.555	112.19
407.778	101.19
408.002	120.19
408.226	126.19
408.449	97.19
408.673	112.19
408.896	130.19
409.12	131.19
409.344	117.19
409.567	115.19
409.791	120.19
410.014	110.19
410.238	109.19
410.461	113.19
410.685	109.19
410.908	116.19
411.132	111.19
411.355	100.19
411.578	104.19
411.802	120.19
412.025	122.19
412.249	111.19
412.472	121.19
412.695	120.19
412.919	112.19
413.142	118.19
413.365	120.19
413.589	122.19
413.812	112.19
414.035	113.19
414.258	113.19
414.482	119.19
414.705	113.19
414.928	121.19
415.151	116.19
415.374	120.19
415.597	129.19
415.821	112.19
416.044	118.19
416.267	117.19
416.49	113.19
416.713	120.19
416.936	111.19
417.159	113.19
417.382	133.19
417.605	114.19
417.828	119.19
418.051	122.19
418.274	127.19
418.497	118.19
418.72	129.19
418.943	112.19
419.166	121.19
419.389	138.19
419.611	127.19
419.834	124.19
420.057	102.19
420.28	123.19
420.503	132.19
420.726	113.19
420.948	124.19
421.171	128.19
421.394	118.19
421.617	124.19
421.839	142.19
422.062	132.19
422.285	132.19
422.507	130.19
422.73	116.19
422.953	110.19
423.175	120.19
423.398	124.19
423.621	121.19
423.843	131.19
424.066	124.19
424.288	128.19
424.511	146.19
424.733	142.19
424.956	147.19
425.178	125.19
425.401	130.19
425.623	128.19
425.846	117.19
426.068	134.19
426.291	125.19
426.513	125.19
426.735	140.19
426.958	139.19
427.18	127.19
427.402	132.19
427.625	113.19
427.847	140.19
428.069	133.19
428.292	124.19
428.514	124.19
428.736	120.19
428.958	124.19
429.181	127.19
429.403	122.19
429.625	119.19
429.847	128.19
430.069	129.19
430.292	120.19
430.514	117.19
430.736	136.19
430.958	126.19
431.18	124.19
431.402	125.19
431.624	117.19
431.846	110.19
432.068	113.19
432.29	105.19
432.512	104.19
432.734	127.19
432.956	113.19
433.178	126.19
433.4	128.19
433.622	130.19
433.844	142.19
434.066	134.19
434.287	100.19
434.509	95.19
434.731	110.19
434.953	114.19
435.175	124.19
435.397	121.19
435.618	109.19
435.84	114.19
436.062	119.19
436.284	120.19
436.505	118.19
436.727	119.19
436.949	128.19
437.17	127.19
437.392	118.19
437.614	115.19
437.835	116.19
438.057	109.19
438.278	114.19
438.5	113.19
438.721	129.19
438.943	126.19
439.165	126.19
439.386	130.19
439.608	135.19
439.829	156.19
440.05	140.19
440.272	152.19
440.493	135.19
440.715	132.19
440.936	134.19
441.158	132.19
441.379	124.19
441.6	148.19
441.822	149.19
442.043	144.19
442.264	124.19
442.486	120.19
442.707	126.19
442.928	145.19
443.149	132.19
443.371	140.19
443.592	142.19
443.813	126.19
444.034	134.19
444.255	145.19
444.476	136.19
444.698	133.19
444.919	142.19
445.14	260.19
445.361	192.19
445.582	150.19
445.803	148.19
446.024	143.19
446.245	153.19
446.466	147.19
446.687	136.19
446.908	134.19
447.129	138.19
447.35	150.19
447.571	131.19
447.792	140.19
448.013	121.19
448.234	140.19
448.455	140.19
448.675	137.19
448.896	136.19
449.117	137.19
449.338	116.19
449.559	131.19
449.779	133.19
450	135.19
450.221	121.19
450.442	119.19
450.662	128.19
450.883	122.19
451.104	141.19
451.324	127.19
451.545	124.19
451.766	141.19
451.986	133.19
452.207	110.19
452.428	115.19
452.648	120.19
452.869	116.19
453.089	110.19
453.31	93.19
453.53	94.19
453.751	95.19
453.971	109.19
454.192	96.19
454.412	99.19
454.633	112.19
454.853	114.19
455.073	128.19
455.294	109.19
455.514	119.19
455.734	118.19
455.955	108.19
456.175	102.19
456.395	98.19
456.616	86.19
456.836	104.19
457.056	98.19
457.276	112.19
457.497	107.19
457.717	101.19
457.937	111.19
458.157	109.19
458.377	101.19
458.598	94.19
458.818	95.19
459.038	88.19
459.258	105.19
459.478	80.19
459.698	102.19
459.918	103.19
460.138	94.19
460.358	124.19
460.578	125.19
460.798	123.19
461.018	102.19
461.238	92.19
461.458	105.19
461.678	105.19
461.898	120.19
462.118	119.19
462.338	121.19
462.558	100.19
462.777	104.19
462.997	114.19
463.217	90.19
463.437	108.19
463.657	95.19
463.876	103.19
464.096	99.19
464.316	109.19
464.536	110.19
464.755	110.19
464.975	110.19
465.195	113.19
465.414	129.19
465.634	120.19
465.854	112.19
466.073	110.19
466.293	121.19
466.512	123.19
466.732	129.19
466.951	113.19
467.171	123.19
467.391	122.19
467.61	140.19
467.829	141.19
468.049	139.19
468.268	122.19
468.488	121.19
468.707	125.19
468.927	131.19
469.146	132.19
469.365	137.19
469.585	133.19
469.804	130.19
470.023	136.19
470.243	132.19
470.462	130.19
470.681	141.19
470.901	135.19
471.12	132.19
471.339	135.19
471.558	120.19
471.777	143.19
471.997	136.19
472.216	141.19
472.435	113.19
472.654	109.19
472.873	108.19
473.092	103.19
473.311	107.19
473.53	114.19
473.749	126.19
473.968	123.19
474.187	112.19
474.406	103.19
474.625	121.19
474.844	124.19
475.063	126.19
475.282	116.19
475.501	105.19
475.72	124.19
475.939	124.19
476.158	120.19
476.377	112.19
476.596	125.19
476.814	110.19
477.033	100.19
477.252	99.19
477.471	109.19
477.69	137.19
477.908	140.19
478.127	124.19
478.346	135.19
478.564	118.19
478.783	124.19
479.002	140.19
479.22	142.19
479.439	120.19
479.658	126.19
479.876	114.19
480.095	98.19
480.313	117.19
480.532	118.19
480.751	118.19
480.969	86.19
481.188	90.19
481.406	83.19
481.624	94.19
481.843	87.19
482.061	97.19
482.28	98.19
482.498	114.19
482.717	114.19
482.935	105.19
483.153	126.19
483.372	125.19
483.59	145.19
483.808	125.19
484.027	134.19
484.245	136.19
484.463	143.19
484.681	158.19
484.9	137.19
485.118	124.19
485.336	140.19
485.554	110.19
485.772	104.19
485.99	102.19
486.209	103.19
486.427	110.19
486.645	108.19
486.863	133.19
487.081	139.19
487.299	118.19
487.517	134.19
487.735	152.19
487.953	169.19
488.171	168.19
488.389	174.19
488.607	144.19
488.825	145.19
489.043	118.19
489.261	143.19
489.479	140.19
489.696	136.19
489.914	140.19
490.132	137.19
490.35	150.19
490.568	160.19
490.786	162.19
491.003	162.19
491.221	176.19
491.439	170.19
491.657	188.19
491.874	186.19
492.092	203.19
492.31	236.19
492.527	217.19
492.745	201.19
492.963	194.19
493.18	216.19
493.398	168.19
493.615	189.19
493.833	172.19
494.05	170.19
494.268	165.19
494.485	173.19
494.703	155.19
494.92	172.19
495.138	155.19
495.355	180.19
495.573	169.19
495.79	160.19
496.008	164.19
496.225	161.19
496.442	165.19
496.66	160.19
496.877	144.19
497.094	161.19
497.312	145.19
497.529	160.19
497.746	152.19
497.963	139.19
498.181	131.19
498.398	118.19
498.615	125.19
498.832	126.19
499.049	94.19
499.267	118.19
499.484	124.19
499.701	126.19
499.918	133.19
500.135	137.19
500.352	122.19
500.569	141.19
500.786	156.19
501.003	127.19
501.22	141.19
501.437	149.19
501.654	125.19
501.871	128.19
502.088	119.19
502.305	112.19
502.522	128.19
502.739	125.19
502.956	115.19
503.172	111.19
503.389	116.19
503.606	102.19
503.823	128.19
504.04	120.19
504.256	110.19
504.473	122.19
504.69	112.19
504.907	124.19
505.123	129.19
505.34	116.19
505.557	120.19
505.773	122.19
505.99	114.19
506.207	115.19
506.423	114.19
506.64	105.19
506.856	119.19
507.073	112.19
507.289	123.19
507.506	111.19
507.722	125.19
507.939	113.19
508.155	133.19
508.372	106.19
508.588	105.19
508.805	115.19
509.021	100.19
509.238	106.19
509.454	97.19
509.67	87.19
509.887	93.19
510.103	88.19
510.319	96.19
510.536	86.19
510.752	92.19
510.968	84.19
511.184	87.19
511.401	83.19
511.617	86.19
511.833	94.19
512.049	106.19
512.265	93.19
512.481	95.19
512.698	100.19
512.914	81.19
513.13	82.19
513.346	77.19
513.562	88.19
513.778	94.19
513.994	73.19
514.21	91.19
514.426	96.19
514.642	97.19
514.858	98.19
515.074	88.19
515.29	85.19
515.506	92.19
515.721	88.19
515.937	82.19
516.153	73.19
516.369	89.19
516.585	72.19
516.801	82.19
517.016	85.19
517.232	79.19
517.448	94.19
517.664	95.19
517.879	88.19
518.095	95.19
518.311	93.19
518.527	79.19
518.742	89.19
518.958	92.19
519.173	102.19
519.389	103.19
519.605	96.19
519.82	95.19
520.036	104.19
520.251	95.19
520.467	87.19
520.682	92.19
520.898	91.19
521.113	93.19
521.329	103.19
521.544	81.19
521.76	91.19
521.975	96.19
522.19	87.19
522.406	101.19
522.621	97.19
522.836	105.19
523.052	92.19
523.267	106.19
523.482	120.19
523.698	110.19
523.913	108.19
524.128	111.19
524.343	117.19
524.559	108.19
524.774	118.19
524.989	117.19
525.204	115.19
525.419	111.19
525.634	119.19
525.849	100.19
526.064	98.19
526.28	98.19
526.495	86.19
526.71	83.19
526.925	95.19
527.14	93.19
527.355	79.19
527.57	80.19
527.785	87.19
527.999	97.19
528.214	106.19
528.429	109.19
528.644	114.19
528.859	125.19
529.074	142.19
529.289	154.19
529.503	138.19
529.718	129.19
529.933	112.19
530.148	99.19
530.363	96.19
530.577	87.19
530.792	88.19
531.007	81.19
531.221	85.19
531.436	78.19
531.651	75.19
531.865	90.19
532.08	87.19
532.295	89.19
532.509	83.19
532.724	79.19
532.938	99.19
533.153	82.19
533.367	93.19
533.582	122.19
533.796	98.19
534.011	110.19
534.225	97.19
534.44	86.19
534.654	89.19
534.868	98.19
535.083	90.19
535.297	94.19
535.511	89.19
535.726	99.19
535.94	107.19
536.154	106.19
536.369	86.19
536.583	84.19
536.797	70.19
537.011	93.19
537.225	85.19
537.44	74.19
537.654	88.19
537.868	87.19
538.082	92.19
538.296	95.19
538.51	106.19
538.724	125.19
538.938	114.19
539.153	126.19
539.367	126.19
539.581	104.19
539.795	92.19
540.009	109.19
540.222	84.19
540.436	103.19
540.65	102.19
540.864	125.19
541.078	138.19
541.292	137.19
541.506	152.19
541.72	162.19
541.934	188.19
542.147	208.19
542.361	182.19
542.575	158.19
542.789	136.19
543.002	129.19
543.216	121.19
543.43	114.19
543.644	132.19
543.857	143.19
544.071	170.19
544.285	149.19
544.498	146.19
544.712	156.19
544.925	159.19
545.139	151.19
545.352	149.19
545.566	157.19
545.779	152.19
545.993	146.19
546.206	168.19
546.42	163.19
546.633	158.19
546.847	149.19
547.06	158.19
547.274	166.19
547.487	166.19
547.7	172.19
547.914	176.19
548.127	167.19
548.34	152.19
548.554	144.19
548.767	145.19
548.98	159.19
549.193	143.19
549.407	151.19
549.62	142.19
549.833	148.19
550.046	131.19
550.259	158.19
550.473	148.19
550.686	143.19
550.899	141.19
551.112	154.19
551.325	138.19
551.538	128.19
551.751	128.19
551.964	128.19
552.177	141.19
552.39	124.19
552.603	121.19
552.816	143.19
553.029	148.19
553.242	153.19
553.455	159.19
553.667	167.19
553.88	150.19
554.093	143.19
554.306	140.19
554.519	139.19
554.732	149.19
554.944	132.19
555.157	134.19
555.37	152.19
555.583	128.19
555.795	148.19
556.008	137.19
556.221	129.19
556.433	128.19
556.646	141.19
556.859	143.19
557.071	127.19
557.284	139.19
557.496	130.19
557.709	131.19
557.921	142.19
558.134	145.19
558.346	134.19
558.559	136.19
558.771	120.19
558.984	112.19
559.196	130.19
559.409	105.19
559.621	110.19
559.833	124.19
560.046	146.19
560.258	136.19
560.47	127.19
560.683	138.19
560.895	122.19
561.107	134.19
561.32	132.19
561.532	122.19
561.744	115.19
561.956	117.19
562.168	146.19
562.381	146.19
562.593	127.19
562.805	126.19
563.017	124.19
563.229	112.19
563.441	116.19
563.653	128.19
563.865	112.19
564.077	121.19
564.289	113.19
564.501	110.19
564.713	105.19
564.925	115.19
565.137	112.19
565.349	125.19
565.561	110.19
565.773	108.19
565.985	124.19
566.197	116.19
566.408	116.19
566.62	111.19
566.832	117.19
567.044	129.19
567.255	122.19
567.467	97.19
567.679	103.19
567.891	104.19
568.102	105.19
568.314	89.19
568.526	100.19
568.737	89.19
568.949	97.19
569.161	83.19
569.372	88.19
569.584	77.19
569.795	76.19
570.007	73.19
570.218	86.19
570.43	82.19
570.641	80.19
570.853	89.19
571.064	102.19
571.276	94.19
571.487	97.19
571.698	102.19
571.91	101.19
572.121	112.19
572.333	102.19
572.544	101.19
572.755	98.19
572.966	88.19
573.178	90.19
573.389	97.19
573.6	84.19
573.811	88.19
574.023	82.19
574.234	97.19
574.445	90.19
574.656	78.19
574.867	92.19
575.078	86.19
575.289	87.19
575.501	112.19
575.712	95.19
575.923	86.19
576.134	80.19
576.345	78.19
576.556	98.19
576.767	108.19
576.978	108.19
577.188	94.19
577.399	84.19
577.61	88.19
577.821	87.19
578.032	96.19
578.243	70.19
578.454	80.19
578.665	81.19
578.875	78.19
579.086	94.19
579.297	79.19
579.508	81.19
579.718	95.19
579.929	85.19
580.14	93.19
580.35	84.19
580.561	73.19
580.772	77.19
580.982	84.19
581.193	101.19
581.403	103.19
581.614	87.19
581.825	79.19
582.035	91.19
582.246	71.19
582.456	72.19
582.667	89.19
582.877	100.19
583.087	77.19
583.298	79.19
583.508	85.19
583.719	93.19
583.929	92.19
584.139	78.19
584.35	97.19
584.56	87.19
584.77	87.19
584.981	84.19
585.191	97.19
585.401	79.19
585.611	75.19
585.821	88.19
586.032	84.19
586.242	77.19
586.452	85.19
586.662	86.19
586.872	77.19
587.082	95.19
587.292	93.19
587.502	72.19
587.713	78.19
587.923	75.19
588.133	97.19
588.343	78.19
588.553	81.19
588.762	85.19
588.972	102.19
589.182	75.19
589.392	92.19
589.602	89.19
589.812	86.19
590.022	84.19
590.232	96.19
590.441	77.19
590.651	81.19
590.861	67.19
591.071	85.19
591.281	92.19
591.49	79.19
591.7	82.19
591.91	77.19
592.119	90.19
592.329	89.19
592.539	74.19
592.748	82.19
592.958	88.19
593.167	85.19
593.377	87.19
593.587	90.19
593.796	91.19
594.006	80.19
594.215	68.19
594.424	71.19
594.634	79.19
594.843	100.19
595.053	76.19
595.262	83.19
595.472	92.19
595.681	98.19
595.89	99.19
596.1	87.19
596.309	81.19
596.518	88.19
596.727	101.19
596.937	86.19
597.146	85.19
597.355	96.19
597.564	97.19
597.774	96.19
597.983	82.19
598.192	96.19
598.401	93.19
598.61	98.19
598.819	80.19
599.028	80.19
599.237	81.19
599.446	101.19
599.655	88.19
599.864	86.19
600.073	68.19
600.282	91.19
600.491	89.19
600.7	74.19
600.909	98.19
601.118	85.19
601.327	89.19
601.536	111.19
601.745	102.19
601.953	114.19
602.162	113.19
602.371	88.19
602.58	102.19
602.789	111.19
602.997	112.19
603.206	104.19
603.415	94.19
603.623	106.19
603.832	100.19
604.041	102.19
604.249	96.19
604.458	102.19
604.666	92.19
604.875	87.19
605.084	108.19
605.292	92.19
605.501	116.19
605.709	112.19
605.918	106.19
606.126	104.19
606.334	117.19
606.543	105.19
606.751	110.19
606.96	98.19
607.168	106.19
607.376	105.19
607.585	102.19
607.793	100.19
608.001	109.19
608.21	103.19
608.418	114.19
608.626	106.19
608.834	117.19
609.043	98.19
609.251	116.19
609.459	113.19
609.667	114.19
609.875	100.19
610.083	112.19
610.291	110.19
610.499	126.19
610.707	107.19
610.916	116.19
611.124	99.19
611.332	112.19
611.54	106.19
611.748	119.19
611.955	104.19
612.163	114.19
612.371	122.19
612.579	110.19
612.787	110.19
612.995	112.19
613.203	95.19
613.411	113.19
613.618	114.19
613.826	103.19
614.034	114.19
614.242	92.19
614.449	112.19
614.657	112.19
614.865	106.19
615.072	106.19
615.28	109.19
615.488	91.19
615.695	102.19
615.903	114.19
616.111	113.19
616.318	115.19
616.526	128.19
616.733	98.19
616.941	114.19
617.148	110.19
617.356	105.19
617.563	106.19
617.771	99.19
617.978	104.19
618.185	109.19
618.393	110.19
618.6	100.19
618.807	112.19
619.015	110.19
619.222	105.19
619.429	110.19
619.637	101.19
619.844	95.19
620.051	103.19
620.258	109.19
620.466	94.19
620.673	96.19
620.88	118.19
621.087	113.19
621.294	110.19
621.501	97.19
621.708	102.19
621.915	109.19
622.122	96.19
622.329	91.19
622.536	105.19
622.743	112.19
622.95	96.19
623.157	108.19
623.364	117.19
623.571	110.19
623.778	111.19
623.985	98.19
624.192	120.19
624.399	100.19
624.606	111.19
624.812	95.19
625.019	97.19
625.226	95.19
625.433	104.19
625.639	98.19
625.846	92.19
626.053	83.19
626.259	84.19
626.466	96.19
626.673	86.19
626.879	82.19
627.086	94.19
627.293	95.19
627.499	102.19
627.706	84.19
627.912	117.19
628.119	98.19
628.325	105.19
628.532	105.19
628.738	99.19
628.945	102.19
629.151	93.19
629.357	93.19
629.564	99.19
629.77	107.19
629.976	110.19
630.183	105.19
630.389	87.19
630.595	91.19
630.802	103.19
631.008	99.19
631.214	102.19
631.42	96.19
631.627	99.19
631.833	90.19
632.039	101.19
632.245	105.19
632.451	105.19
632.657	104.19
632.863	93.19
633.069	101.19
633.275	98.19
633.481	88.19
633.688	93.19
633.893	90.19
634.099	85.19
634.305	94.19
634.511	96.19
634.717	75.19
634.923	97.19
635.129	101.19
635.335	93.19
635.541	100.19
635.747	87.19
635.952	93.19
636.158	89.19
636.364	110.19
636.57	89.19
636.775	89.19
636.981	96.19
637.187	100.19
637.392	89.19
637.598	80.19
637.804	96.19
638.009	108.19
638.215	97.19
638.421	98.19
638.626	113.19
638.832	96.19
639.037	102.19
639.243	92.19
639.448	96.19
639.654	101.19
639.859	103.19
640.065	97.19
640.27	103.19
640.475	88.19
640.681	113.19
640.886	98.19
641.091	106.19
641.297	104.19
641.502	93.19
641.707	93.19
641.913	103.19
642.118	113.19
642.323	91.19
642.528	95.19
642.733	95.19
642.939	89.19
643.144	84.19
643.349	95.19
643.554	89.19
643.759	98.19
643.964	86.19
644.169	104.19
644.374	85.19
644.579	98.19
644.784	100.19
644.989	98.19
645.194	90.19
645.399	92.19
645.604	93.19
645.809	84.19
646.014	98.19
646.219	94.19
646.423	85.19
646.628	99.19
646.833	92.19
647.038	80.19
647.243	112.19
647.447	90.19
647.652	92.19
647.857	90.19
648.062	92.19
648.266	84.19
648.471	81.19
648.676	93.19
648.88	78.19
649.085	87.19
649.289	98.19
649.494	86.19
649.698	88.19
649.903	72.19
650.107	102.19
650.312	102.19
650.516	81.19
650.721	71.19
650.925	97.19
651.13	79.19
651.334	86.19
651.539	84.19
651.743	84.19
651.947	95.19
652.152	93.19
652.356	80.19
652.56	97.19
652.764	92.19
652.969	82.19
653.173	84.19
653.377	97.19
653.581	89.19
653.785	98.19
653.99	94.19
654.194	93.19
654.398	79.19
654.602	84.19
654.806	82.19
655.01	82.19
655.214	94.19
655.418	83.19
655.622	84.19
655.826	76.19
656.03	70.19
656.234	82.19
656.438	84.19
656.642	90.19
656.846	73.19
657.049	82.19
657.253	81.19
657.457	83.19
657.661	92.19
657.865	80.19
658.068	65.19
658.272	83.19
658.476	80.19
658.68	66.19
658.883	69.19
659.087	81.19
659.291	78.19
659.494	86.19
659.698	96.19
659.901	74.19
660.105	78.19
660.309	85.19
660.512	86.19
660.716	96.19
660.919	74.19
661.123	88.19
661.326	79.19
661.53	83.19
661.733	89.19
661.936	74.19
662.14	83.19
662.343	76.19
662.546	70.19
662.75	77.19
662.953	84.19
663.156	87.19
663.36	83.19
663.563	90.19
663.766	72.19
663.969	68.19
664.173	73.19
664.376	65.19
664.579	70.19
664.782	89.19
664.985	73.19
665.188	73.19
665.391	84.19
665.594	74.19
665.797	76.19
666	82.19
666.203	80.19
666.406	70.19
666.609	73.19
666.812	67.19
667.015	82.19
667.218	68.19
667.421	71.19
667.624	86.19
667.827	77.19
668.03	89.19
668.232	82.19
668.435	83.19
668.638	82.19
668.841	75.19
669.043	87.19
669.246	80.19
669.449	90.19
669.651	84.19
669.854	77.19
670.057	83.19
670.259	70.19
670.462	82.19
670.665	81.19
670.867	92.19
671.07	87.19
671.272	77.19
671.475	78.19
671.677	74.19
671.88	77.19
672.082	69.19
672.284	87.19
672.487	84.19
672.689	66.19
672.892	74.19
