Data from Location6.07152019.Energy5.Lamp.07192019.3%Agarose_HRD10591_16-13-07-395.txt Node
Date: Fri Jul 19 16:13:07 EDT 2019
User: cochatt
Spectrometer: HR+D1059
Trigger mode: 1
Integration Time (sec): 1.000000E-1
Scans to average: 1
Electric dark correction enabled: true
Nonlinearity correction enabled: false
Boxcar width: 0
XAxis mode: Wavelengths
Number of Pixels in Spectrum: 2048
>>>>>Begin Spectral Data<<<<<
223.165	-19.88
223.4	-19.88
223.635	-19.88
223.869	-19.88
224.104	-20.88
224.338	2.12
224.573	-16.88
224.808	-19.88
225.042	-8.88
225.277	-10.88
225.511	-15.88
225.746	12.12
225.98	8.12
226.215	2.12
226.449	25.12
226.683	31.12
226.918	23.12
227.152	29.12
227.387	20.12
227.621	41.12
227.856	35.12
228.09	55.12
228.324	55.12
228.559	63.12
228.793	53.12
229.027	64.12
229.262	64.12
229.496	73.12
229.73	81.12
229.964	67.12
230.199	68.12
230.433	66.12
230.667	71.12
230.901	74.12
231.136	80.12
231.37	83.12
231.604	72.12
231.838	83.12
232.072	90.12
232.306	89.12
232.541	90.12
232.775	76.12
233.009	79.12
233.243	71.12
233.477	86.12
233.711	76.12
233.945	87.12
234.179	81.12
234.413	75.12
234.647	82.12
234.881	91.12
235.115	85.12
235.349	75.12
235.583	67.12
235.817	86.12
236.051	80.12
236.285	76.12
236.519	82.12
236.753	84.12
236.987	86.12
237.221	71.12
237.455	85.12
237.689	70.12
237.922	85.12
238.156	83.12
238.39	76.12
238.624	69.12
238.858	74.12
239.091	89.12
239.325	76.12
239.559	80.12
239.793	76.12
240.027	81.12
240.26	77.12
240.494	80.12
240.728	76.12
240.961	71.12
241.195	75.12
241.429	69.12
241.662	77.12
241.896	85.12
242.13	72.12
242.363	80.12
242.597	76.12
242.83	81.12
243.064	83.12
243.298	76.12
243.531	85.12
243.765	79.12
243.998	81.12
244.232	83.12
244.465	75.12
244.699	68.12
244.932	77.12
245.166	93.12
245.399	86.12
245.633	92.12
245.866	86.12
246.099	86.12
246.333	84.12
246.566	69.12
246.8	90.12
247.033	78.12
247.266	83.12
247.5	79.12
247.733	78.12
247.966	91.12
248.2	72.12
248.433	78.12
248.666	72.12
248.899	85.12
249.133	71.12
249.366	89.12
249.599	83.12
249.832	90.12
250.066	81.12
250.299	74.12
250.532	72.12
250.765	82.12
250.998	77.12
251.231	70.12
251.465	80.12
251.698	83.12
251.931	74.12
252.164	83.12
252.397	89.12
252.63	68.12
252.863	72.12
253.096	91.12
253.329	76.12
253.562	82.12
253.795	77.12
254.028	86.12
254.261	90.12
254.494	83.12
254.727	88.12
254.96	80.12
255.193	57.12
255.426	65.12
255.659	62.12
255.892	92.12
256.124	77.12
256.357	69.12
256.59	86.12
256.823	80.12
257.056	78.12
257.289	79.12
257.521	77.12
257.754	83.12
257.987	90.12
258.22	75.12
258.452	82.12
258.685	87.12
258.918	78.12
259.151	77.12
259.383	73.12
259.616	99.12
259.849	93.12
260.081	76.12
260.314	92.12
260.547	80.12
260.779	89.12
261.012	81.12
261.244	88.12
261.477	72.12
261.71	79.12
261.942	81.12
262.175	79.12
262.407	73.12
262.64	88.12
262.872	94.12
263.105	85.12
263.337	70.12
263.57	82.12
263.802	75.12
264.035	94.12
264.267	86.12
264.499	82.12
264.732	85.12
264.964	98.12
265.197	82.12
265.429	80.12
265.661	70.12
265.894	82.12
266.126	86.12
266.358	82.12
266.591	85.12
266.823	92.12
267.055	87.12
267.287	79.12
267.52	73.12
267.752	71.12
267.984	72.12
268.216	86.12
268.448	84.12
268.681	85.12
268.913	82.12
269.145	92.12
269.377	77.12
269.609	83.12
269.841	93.12
270.073	77.12
270.306	71.12
270.538	97.12
270.77	92.12
271.002	72.12
271.234	75.12
271.466	96.12
271.698	71.12
271.93	87.12
272.162	79.12
272.394	78.12
272.626	78.12
272.858	84.12
273.09	81.12
273.322	82.12
273.553	78.12
273.785	80.12
274.017	88.12
274.249	77.12
274.481	77.12
274.713	80.12
274.945	95.12
275.176	87.12
275.408	93.12
275.64	75.12
275.872	91.12
276.104	76.12
276.335	82.12
276.567	87.12
276.799	86.12
277.031	91.12
277.262	88.12
277.494	99.12
277.726	90.12
277.957	94.12
278.189	81.12
278.421	76.12
278.652	79.12
278.884	75.12
279.115	92.12
279.347	90.12
279.579	85.12
279.81	88.12
280.042	83.12
280.273	77.12
280.505	95.12
280.736	78.12
280.968	79.12
281.199	85.12
281.431	91.12
281.662	95.12
281.894	80.12
282.125	84.12
282.356	83.12
282.588	88.12
282.819	85.12
283.051	76.12
283.282	94.12
283.513	84.12
283.745	86.12
283.976	77.12
284.207	95.12
284.439	88.12
284.67	78.12
284.901	66.12
285.132	96.12
285.364	69.12
285.595	81.12
285.826	85.12
286.057	82.12
286.288	77.12
286.52	94.12
286.751	79.12
286.982	86.12
287.213	84.12
287.444	89.12
287.675	70.12
287.906	85.12
288.138	89.12
288.369	87.12
288.6	84.12
288.831	87.12
289.062	79.12
289.293	80.12
289.524	78.12
289.755	85.12
289.986	76.12
290.217	69.12
290.448	77.12
290.679	88.12
290.91	76.12
291.141	82.12
291.371	95.12
291.602	85.12
291.833	93.12
292.064	77.12
292.295	86.12
292.526	106.12
292.757	85.12
292.987	83.12
293.218	86.12
293.449	79.12
293.68	88.12
293.91	89.12
294.141	97.12
294.372	89.12
294.603	101.12
294.833	82.12
295.064	93.12
295.295	93.12
295.525	81.12
295.756	97.12
295.987	93.12
296.217	92.12
296.448	89.12
296.679	83.12
296.909	77.12
297.14	93.12
297.37	98.12
297.601	83.12
297.831	84.12
298.062	91.12
298.292	87.12
298.523	92.12
298.753	89.12
298.984	84.12
299.214	79.12
299.445	85.12
299.675	74.12
299.905	76.12
300.136	98.12
300.366	87.12
300.597	83.12
300.827	87.12
301.057	81.12
301.288	88.12
301.518	87.12
301.748	89.12
301.979	77.12
302.209	75.12
302.439	78.12
302.669	78.12
302.9	96.12
303.13	81.12
303.36	83.12
303.59	87.12
303.82	88.12
304.051	89.12
304.281	99.12
304.511	85.12
304.741	89.12
304.971	80.12
305.201	95.12
305.431	89.12
305.661	97.12
305.891	75.12
306.121	83.12
306.352	91.12
306.582	89.12
306.812	88.12
307.042	90.12
307.272	90.12
307.502	85.12
307.731	88.12
307.961	67.12
308.191	80.12
308.421	92.12
308.651	91.12
308.881	77.12
309.111	97.12
309.341	96.12
309.571	81.12
309.8	83.12
310.03	75.12
310.26	91.12
310.49	98.12
310.72	80.12
310.949	88.12
311.179	95.12
311.409	86.12
311.639	89.12
311.868	90.12
312.098	70.12
312.328	84.12
312.557	70.12
312.787	87.12
313.017	77.12
313.246	83.12
313.476	90.12
313.706	85.12
313.935	77.12
314.165	79.12
314.394	79.12
314.624	97.12
314.853	79.12
315.083	80.12
315.312	75.12
315.542	68.12
315.771	83.12
316.001	80.12
316.23	88.12
316.46	79.12
316.689	83.12
316.919	83.12
317.148	88.12
317.377	84.12
317.607	90.12
317.836	84.12
318.065	79.12
318.295	86.12
318.524	98.12
318.753	99.12
318.983	89.12
319.212	78.12
319.441	91.12
319.67	65.12
319.9	75.12
320.129	78.12
320.358	85.12
320.587	81.12
320.816	89.12
321.046	96.12
321.275	77.12
321.504	84.12
321.733	91.12
321.962	78.12
322.191	83.12
322.42	85.12
322.649	91.12
322.878	91.12
323.108	83.12
323.337	78.12
323.566	78.12
323.795	84.12
324.024	95.12
324.253	92.12
324.482	85.12
324.71	77.12
324.939	97.12
325.168	103.12
325.397	95.12
325.626	92.12
325.855	82.12
326.084	90.12
326.313	83.12
326.542	88.12
326.77	81.12
326.999	76.12
327.228	88.12
327.457	72.12
327.686	80.12
327.914	80.12
328.143	86.12
328.372	78.12
328.6	80.12
328.829	88.12
329.058	85.12
329.287	85.12
329.515	86.12
329.744	74.12
329.972	83.12
330.201	81.12
330.43	84.12
330.658	73.12
330.887	77.12
331.115	90.12
331.344	79.12
331.572	87.12
331.801	87.12
332.03	78.12
332.258	83.12
332.486	89.12
332.715	83.12
332.943	84.12
333.172	85.12
333.4	88.12
333.629	80.12
333.857	74.12
334.085	79.12
334.314	89.12
334.542	82.12
334.771	69.12
334.999	71.12
335.227	75.12
335.455	84.12
335.684	81.12
335.912	87.12
336.14	90.12
336.369	79.12
336.597	81.12
336.825	96.12
337.053	91.12
337.281	82.12
337.51	90.12
337.738	100.12
337.966	101.12
338.194	98.12
338.422	76.12
338.65	94.12
338.878	96.12
339.106	80.12
339.334	84.12
339.562	85.12
339.79	84.12
340.018	91.12
340.246	89.12
340.474	77.12
340.702	77.12
340.93	89.12
341.158	73.12
341.386	98.12
341.614	102.12
341.842	78.12
342.07	80.12
342.298	81.12
342.526	80.12
342.754	75.12
342.981	83.12
343.209	97.12
343.437	101.12
343.665	91.12
343.893	76.12
344.12	76.12
344.348	83.12
344.576	87.12
344.804	80.12
345.031	84.12
345.259	83.12
345.487	84.12
345.714	96.12
345.942	93.12
346.17	87.12
346.397	87.12
346.625	79.12
346.853	87.12
347.08	75.12
347.308	80.12
347.535	85.12
347.763	72.12
347.99	82.12
348.218	73.12
348.445	98.12
348.673	84.12
348.9	81.12
349.128	84.12
349.355	80.12
349.583	85.12
349.81	97.12
350.037	89.12
350.265	88.12
350.492	76.12
350.72	68.12
350.947	93.12
351.174	79.12
351.402	74.12
351.629	100.12
351.856	75.12
352.083	85.12
352.311	88.12
352.538	84.12
352.765	76.12
352.992	72.12
353.22	92.12
353.447	81.12
353.674	95.12
353.901	89.12
354.128	85.12
354.355	96.12
354.583	90.12
354.81	90.12
355.037	80.12
355.264	72.12
355.491	84.12
355.718	76.12
355.945	89.12
356.172	98.12
356.399	91.12
356.626	73.12
356.853	84.12
357.08	92.12
357.307	88.12
357.534	97.12
357.761	80.12
357.988	88.12
358.215	78.12
358.441	90.12
358.668	89.12
358.895	88.12
359.122	88.12
359.349	72.12
359.576	77.12
359.802	72.12
360.029	83.12
360.256	85.12
360.483	84.12
360.709	82.12
360.936	92.12
361.163	79.12
361.39	72.12
361.616	85.12
361.843	83.12
362.07	88.12
362.296	80.12
362.523	79.12
362.749	86.12
362.976	80.12
363.203	88.12
363.429	92.12
363.656	91.12
363.882	90.12
364.109	70.12
364.335	81.12
364.562	68.12
364.788	76.12
365.015	105.12
365.241	85.12
365.468	83.12
365.694	79.12
365.92	85.12
366.147	83.12
366.373	81.12
366.599	85.12
366.826	83.12
367.052	107.12
367.278	91.12
367.505	85.12
367.731	95.12
367.957	96.12
368.184	96.12
368.41	88.12
368.636	96.12
368.862	107.12
369.089	91.12
369.315	91.12
369.541	93.12
369.767	105.12
369.993	102.12
370.219	85.12
370.445	101.12
370.672	97.12
370.898	93.12
371.124	93.12
371.35	96.12
371.576	89.12
371.802	89.12
372.028	88.12
372.254	98.12
372.48	102.12
372.706	98.12
372.932	104.12
373.158	89.12
373.384	87.12
373.61	92.12
373.835	93.12
374.061	80.12
374.287	88.12
374.513	101.12
374.739	101.12
374.965	98.12
375.191	90.12
375.416	84.12
375.642	102.12
375.868	110.12
376.094	86.12
376.319	85.12
376.545	96.12
376.771	94.12
376.997	82.12
377.222	93.12
377.448	92.12
377.674	86.12
377.899	95.12
378.125	98.12
378.35	88.12
378.576	92.12
378.802	93.12
379.027	87.12
379.253	104.12
379.478	102.12
379.704	100.12
379.929	93.12
380.155	92.12
380.38	104.12
380.606	102.12
380.831	96.12
381.057	113.12
381.282	95.12
381.507	93.12
381.733	99.12
381.958	101.12
382.184	113.12
382.409	82.12
382.634	99.12
382.86	115.12
383.085	107.12
383.31	88.12
383.535	83.12
383.761	107.12
383.986	92.12
384.211	90.12
384.436	90.12
384.662	96.12
384.887	106.12
385.112	110.12
385.337	104.12
385.562	101.12
385.787	98.12
386.013	92.12
386.238	106.12
386.463	101.12
386.688	103.12
386.913	105.12
387.138	87.12
387.363	118.12
387.588	116.12
387.813	108.12
388.038	92.12
388.263	99.12
388.488	103.12
388.713	91.12
388.938	93.12
389.163	118.12
389.387	119.12
389.612	93.12
389.837	92.12
390.062	105.12
390.287	113.12
390.512	107.12
390.736	104.12
390.961	91.12
391.186	108.12
391.411	106.12
391.636	100.12
391.86	94.12
392.085	95.12
392.31	103.12
392.534	116.12
392.759	97.12
392.984	96.12
393.208	97.12
393.433	114.12
393.658	100.12
393.882	107.12
394.107	109.12
394.331	100.12
394.556	112.12
394.78	101.12
395.005	119.12
395.229	112.12
395.454	124.12
395.678	108.12
395.903	105.12
396.127	101.12
396.352	111.12
396.576	104.12
396.801	106.12
397.025	123.12
397.249	113.12
397.474	113.12
397.698	108.12
397.922	119.12
398.147	103.12
398.371	107.12
398.595	113.12
398.82	108.12
399.044	109.12
399.268	101.12
399.492	117.12
399.717	120.12
399.941	92.12
400.165	105.12
400.389	95.12
400.613	103.12
400.837	119.12
401.062	109.12
401.286	125.12
401.51	132.12
401.734	121.12
401.958	108.12
402.182	121.12
402.406	129.12
402.63	132.12
402.854	128.12
403.078	113.12
403.302	140.12
403.526	121.12
403.75	114.12
403.974	113.12
404.198	121.12
404.422	119.12
404.645	108.12
404.869	127.12
405.093	115.12
405.317	115.12
405.541	141.12
405.765	127.12
405.988	130.12
406.212	128.12
406.436	117.12
406.66	132.12
406.883	131.12
407.107	140.12
407.331	124.12
407.555	117.12
407.778	105.12
408.002	135.12
408.226	118.12
408.449	127.12
408.673	126.12
408.896	104.12
409.12	113.12
409.344	127.12
409.567	129.12
409.791	122.12
410.014	117.12
410.238	120.12
410.461	133.12
410.685	130.12
410.908	125.12
411.132	127.12
411.355	129.12
411.578	126.12
411.802	130.12
412.025	127.12
412.249	115.12
412.472	131.12
412.695	107.12
412.919	121.12
413.142	125.12
413.365	114.12
413.589	127.12
413.812	132.12
414.035	137.12
414.258	121.12
414.482	125.12
414.705	122.12
414.928	126.12
415.151	129.12
415.374	122.12
415.597	133.12
415.821	123.12
416.044	122.12
416.267	128.12
416.49	138.12
416.713	121.12
416.936	130.12
417.159	139.12
417.382	123.12
417.605	129.12
417.828	128.12
418.051	122.12
418.274	131.12
418.497	131.12
418.72	123.12
418.943	130.12
419.166	145.12
419.389	137.12
419.611	126.12
419.834	139.12
420.057	130.12
420.28	141.12
420.503	136.12
420.726	151.12
420.948	138.12
421.171	128.12
421.394	140.12
421.617	146.12
421.839	134.12
422.062	145.12
422.285	138.12
422.507	139.12
422.73	134.12
422.953	132.12
423.175	138.12
423.398	124.12
423.621	143.12
423.843	141.12
424.066	139.12
424.288	140.12
424.511	141.12
424.733	156.12
424.956	149.12
425.178	148.12
425.401	158.12
425.623	149.12
425.846	148.12
426.068	133.12
426.291	141.12
426.513	148.12
426.735	134.12
426.958	135.12
427.18	136.12
427.402	131.12
427.625	146.12
427.847	134.12
428.069	131.12
428.292	125.12
428.514	133.12
428.736	123.12
428.958	141.12
429.181	123.12
429.403	126.12
429.625	126.12
429.847	134.12
430.069	136.12
430.292	140.12
430.514	140.12
430.736	124.12
430.958	121.12
431.18	118.12
431.402	146.12
431.624	116.12
431.846	88.12
432.068	91.12
432.29	100.12
432.512	120.12
432.734	122.12
432.956	142.12
433.178	145.12
433.4	141.12
433.622	155.12
433.844	131.12
434.066	131.12
434.287	119.12
434.509	100.12
434.731	108.12
434.953	105.12
435.175	125.12
435.397	114.12
435.618	133.12
435.84	114.12
436.062	116.12
436.284	148.12
436.505	120.12
436.727	142.12
436.949	131.12
437.17	140.12
437.392	134.12
437.614	127.12
437.835	116.12
438.057	125.12
438.278	128.12
438.5	113.12
438.721	140.12
438.943	132.12
439.165	148.12
439.386	150.12
439.608	145.12
439.829	153.12
440.05	146.12
440.272	146.12
440.493	161.12
440.715	153.12
440.936	156.12
441.158	152.12
441.379	148.12
441.6	152.12
441.822	151.12
442.043	164.12
442.264	142.12
442.486	138.12
442.707	147.12
442.928	149.12
443.149	147.12
443.371	135.12
443.592	139.12
443.813	142.12
444.034	128.12
444.255	152.12
444.476	134.12
444.698	161.12
444.919	157.12
445.14	278.12
445.361	217.12
445.582	153.12
445.803	150.12
446.024	141.12
446.245	165.12
446.466	165.12
446.687	147.12
446.908	160.12
447.129	169.12
447.35	151.12
447.571	149.12
447.792	140.12
448.013	152.12
448.234	154.12
448.455	139.12
448.675	155.12
448.896	149.12
449.117	130.12
449.338	147.12
449.559	147.12
449.779	135.12
450	136.12
450.221	155.12
450.442	138.12
450.662	135.12
450.883	139.12
451.104	127.12
451.324	146.12
451.545	135.12
451.766	136.12
451.986	142.12
452.207	129.12
452.428	139.12
452.648	131.12
452.869	118.12
453.089	117.12
453.31	113.12
453.53	115.12
453.751	99.12
453.971	113.12
454.192	114.12
454.412	112.12
454.633	116.12
454.853	116.12
455.073	120.12
455.294	133.12
455.514	140.12
455.734	126.12
455.955	123.12
456.175	134.12
456.395	123.12
456.616	97.12
456.836	106.12
457.056	117.12
457.276	112.12
457.497	112.12
457.717	106.12
457.937	120.12
458.157	106.12
458.377	95.12
458.598	114.12
458.818	115.12
459.038	97.12
459.258	84.12
459.478	97.12
459.698	86.12
459.918	97.12
460.138	100.12
460.358	128.12
460.578	127.12
460.798	131.12
461.018	135.12
461.238	117.12
461.458	116.12
461.678	119.12
461.898	122.12
462.118	120.12
462.338	133.12
462.558	106.12
462.777	124.12
462.997	135.12
463.217	103.12
463.437	102.12
463.657	112.12
463.876	114.12
464.096	119.12
464.316	108.12
464.536	123.12
464.755	131.12
464.975	120.12
465.195	116.12
465.414	124.12
465.634	117.12
465.854	105.12
466.073	129.12
466.293	128.12
466.512	139.12
466.732	131.12
466.951	141.12
467.171	148.12
467.391	141.12
467.61	133.12
467.829	143.12
468.049	136.12
468.268	141.12
468.488	148.12
468.707	141.12
468.927	156.12
469.146	142.12
469.365	150.12
469.585	153.12
469.804	146.12
470.023	137.12
470.243	148.12
470.462	158.12
470.681	144.12
470.901	144.12
471.12	146.12
471.339	152.12
471.558	139.12
471.777	143.12
471.997	143.12
472.216	135.12
472.435	128.12
472.654	111.12
472.873	106.12
473.092	120.12
473.311	129.12
473.53	132.12
473.749	123.12
473.968	135.12
474.187	131.12
474.406	131.12
474.625	127.12
474.844	147.12
475.063	123.12
475.282	122.12
475.501	118.12
475.72	106.12
475.939	136.12
476.158	139.12
476.377	138.12
476.596	114.12
476.814	116.12
477.033	120.12
477.252	115.12
477.471	116.12
477.69	142.12
477.908	140.12
478.127	157.12
478.346	133.12
478.564	135.12
478.783	131.12
479.002	138.12
479.22	138.12
479.439	141.12
479.658	134.12
479.876	126.12
480.095	117.12
480.313	127.12
480.532	135.12
480.751	109.12
480.969	103.12
481.188	100.12
481.406	92.12
481.624	81.12
481.843	96.12
482.061	117.12
482.28	131.12
482.498	123.12
482.717	121.12
482.935	129.12
483.153	142.12
483.372	151.12
483.59	143.12
483.808	134.12
484.027	133.12
484.245	143.12
484.463	162.12
484.681	163.12
484.9	172.12
485.118	153.12
485.336	133.12
485.554	119.12
485.772	111.12
485.99	104.12
486.209	111.12
486.427	115.12
486.645	134.12
486.863	152.12
487.081	158.12
487.299	138.12
487.517	146.12
487.735	187.12
487.953	207.12
488.171	195.12
488.389	199.12
488.607	167.12
488.825	146.12
489.043	153.12
489.261	132.12
489.479	145.12
489.696	132.12
489.914	136.12
490.132	150.12
490.35	169.12
490.568	157.12
490.786	180.12
491.003	185.12
491.221	176.12
491.439	180.12
491.657	196.12
491.874	204.12
492.092	231.12
492.31	257.12
492.527	232.12
492.745	207.12
492.963	204.12
493.18	215.12
493.398	191.12
493.615	172.12
493.833	168.12
494.05	194.12
494.268	179.12
494.485	178.12
494.703	185.12
494.92	189.12
495.138	190.12
495.355	191.12
495.573	182.12
495.79	169.12
496.008	167.12
496.225	159.12
496.442	176.12
496.66	175.12
496.877	181.12
497.094	168.12
497.312	183.12
497.529	165.12
497.746	151.12
497.963	146.12
498.181	130.12
498.398	148.12
498.615	128.12
498.832	135.12
499.049	119.12
499.267	119.12
499.484	132.12
499.701	137.12
499.918	129.12
500.135	135.12
500.352	128.12
500.569	151.12
500.786	164.12
501.003	151.12
501.22	141.12
501.437	132.12
501.654	140.12
501.871	137.12
502.088	138.12
502.305	138.12
502.522	133.12
502.739	148.12
502.956	137.12
503.172	129.12
503.389	137.12
503.606	120.12
503.823	127.12
504.04	118.12
504.256	137.12
504.473	127.12
504.69	130.12
504.907	111.12
505.123	120.12
505.34	143.12
505.557	132.12
505.773	134.12
505.99	111.12
506.207	115.12
506.423	117.12
506.64	124.12
506.856	121.12
507.073	120.12
507.289	129.12
507.506	124.12
507.722	124.12
507.939	129.12
508.155	134.12
508.372	114.12
508.588	118.12
508.805	127.12
509.021	117.12
509.238	113.12
509.454	124.12
509.67	106.12
509.887	96.12
510.103	92.12
510.319	104.12
510.536	108.12
510.752	88.12
510.968	86.12
511.184	77.12
511.401	85.12
511.617	89.12
511.833	98.12
512.049	92.12
512.265	106.12
512.481	101.12
512.698	108.12
512.914	89.12
513.13	103.12
513.346	94.12
513.562	90.12
513.778	95.12
513.994	115.12
514.21	102.12
514.426	98.12
514.642	96.12
514.858	84.12
515.074	95.12
515.29	91.12
515.506	93.12
515.721	100.12
515.937	106.12
516.153	66.12
516.369	84.12
516.585	99.12
516.801	87.12
517.016	87.12
517.232	100.12
517.448	92.12
517.664	92.12
517.879	98.12
518.095	108.12
518.311	107.12
518.527	94.12
518.742	93.12
518.958	107.12
519.173	114.12
519.389	111.12
519.605	132.12
519.82	115.12
520.036	97.12
520.251	96.12
520.467	97.12
520.682	100.12
520.898	109.12
521.113	84.12
521.329	94.12
521.544	82.12
521.76	83.12
521.975	94.12
522.19	90.12
522.406	99.12
522.621	100.12
522.836	121.12
523.052	95.12
523.267	99.12
523.482	117.12
523.698	113.12
523.913	107.12
524.128	117.12
524.343	127.12
524.559	125.12
524.774	136.12
524.989	115.12
525.204	125.12
525.419	133.12
525.634	127.12
525.849	121.12
526.064	108.12
526.28	105.12
526.495	87.12
526.71	79.12
526.925	81.12
527.14	87.12
527.355	74.12
527.57	92.12
527.785	90.12
527.999	99.12
528.214	108.12
528.429	121.12
528.644	117.12
528.859	141.12
529.074	178.12
529.289	183.12
529.503	175.12
529.718	163.12
529.933	126.12
530.148	111.12
530.363	107.12
530.577	96.12
530.792	95.12
531.007	67.12
531.221	75.12
531.436	99.12
531.651	90.12
531.865	86.12
532.08	92.12
532.295	100.12
532.509	93.12
532.724	84.12
532.938	88.12
533.153	113.12
533.367	107.12
533.582	111.12
533.796	122.12
534.011	128.12
534.225	99.12
534.44	86.12
534.654	91.12
534.868	106.12
535.083	92.12
535.297	105.12
535.511	105.12
535.726	119.12
535.94	109.12
536.154	96.12
536.369	83.12
536.583	92.12
536.797	93.12
537.011	81.12
537.225	76.12
537.44	95.12
537.654	97.12
537.868	84.12
538.082	80.12
538.296	96.12
538.51	100.12
538.724	107.12
538.938	136.12
539.153	120.12
539.367	108.12
539.581	135.12
539.795	117.12
540.009	104.12
540.222	86.12
540.436	103.12
540.65	115.12
540.864	119.12
541.078	146.12
541.292	141.12
541.506	163.12
541.72	188.12
541.934	187.12
542.147	228.12
542.361	212.12
542.575	174.12
542.789	154.12
543.002	141.12
543.216	141.12
543.43	129.12
543.644	138.12
543.857	162.12
544.071	164.12
544.285	170.12
544.498	160.12
544.712	171.12
544.925	159.12
545.139	175.12
545.352	159.12
545.566	170.12
545.779	164.12
545.993	171.12
546.206	176.12
546.42	196.12
546.633	176.12
546.847	153.12
547.06	168.12
547.274	167.12
547.487	195.12
547.7	173.12
547.914	177.12
548.127	159.12
548.34	164.12
548.554	159.12
548.767	165.12
548.98	174.12
549.193	165.12
549.407	161.12
549.62	155.12
549.833	167.12
550.046	159.12
550.259	160.12
550.473	151.12
550.686	148.12
550.899	156.12
551.112	142.12
551.325	152.12
551.538	147.12
551.751	130.12
551.964	120.12
552.177	144.12
552.39	139.12
552.603	139.12
552.816	152.12
553.029	143.12
553.242	166.12
553.455	167.12
553.667	168.12
553.88	155.12
554.093	168.12
554.306	155.12
554.519	157.12
554.732	159.12
554.944	157.12
555.157	149.12
555.37	138.12
555.583	126.12
555.795	146.12
556.008	132.12
556.221	128.12
556.433	144.12
556.646	148.12
556.859	138.12
557.071	139.12
557.284	150.12
557.496	139.12
557.709	145.12
557.921	147.12
558.134	133.12
558.346	140.12
558.559	131.12
558.771	147.12
558.984	141.12
559.196	135.12
559.409	135.12
559.621	134.12
559.833	127.12
560.046	131.12
560.258	142.12
560.47	132.12
560.683	125.12
560.895	139.12
561.107	146.12
561.32	145.12
561.532	134.12
561.744	137.12
561.956	124.12
562.168	140.12
562.381	130.12
562.593	124.12
562.805	122.12
563.017	121.12
563.229	131.12
563.441	142.12
563.653	115.12
563.865	120.12
564.077	122.12
564.289	124.12
564.501	124.12
564.713	119.12
564.925	126.12
565.137	137.12
565.349	100.12
565.561	129.12
565.773	121.12
565.985	130.12
566.197	137.12
566.408	106.12
566.62	124.12
566.832	118.12
567.044	116.12
567.255	112.12
567.467	117.12
567.679	112.12
567.891	109.12
568.102	115.12
568.314	105.12
568.526	92.12
568.737	96.12
568.949	85.12
569.161	96.12
569.372	92.12
569.584	83.12
569.795	93.12
570.007	89.12
570.218	86.12
570.43	95.12
570.641	86.12
570.853	105.12
571.064	111.12
571.276	100.12
571.487	114.12
571.698	109.12
571.91	113.12
572.121	101.12
572.333	104.12
572.544	101.12
572.755	95.12
572.966	89.12
573.178	93.12
573.389	93.12
573.6	90.12
573.811	81.12
574.023	86.12
574.234	88.12
574.445	88.12
574.656	89.12
574.867	110.12
575.078	99.12
575.289	106.12
575.501	106.12
575.712	104.12
575.923	101.12
576.134	88.12
576.345	87.12
576.556	97.12
576.767	94.12
576.978	103.12
577.188	102.12
577.399	93.12
577.61	89.12
577.821	84.12
578.032	94.12
578.243	107.12
578.454	98.12
578.665	99.12
578.875	96.12
579.086	87.12
579.297	83.12
579.508	86.12
579.718	84.12
579.929	85.12
580.14	88.12
580.35	97.12
580.561	87.12
580.772	83.12
580.982	92.12
581.193	106.12
581.403	98.12
581.614	85.12
581.825	91.12
582.035	87.12
582.246	80.12
582.456	83.12
582.667	86.12
582.877	102.12
583.087	103.12
583.298	95.12
583.508	99.12
583.719	97.12
583.929	94.12
584.139	90.12
584.35	98.12
584.56	93.12
584.77	100.12
584.981	87.12
585.191	84.12
585.401	103.12
585.611	101.12
585.821	85.12
586.032	85.12
586.242	76.12
586.452	84.12
586.662	93.12
586.872	96.12
587.082	97.12
587.292	76.12
587.502	80.12
587.713	84.12
587.923	85.12
588.133	94.12
588.343	83.12
588.553	93.12
588.762	92.12
588.972	80.12
589.182	77.12
589.392	70.12
589.602	88.12
589.812	90.12
590.022	84.12
590.232	97.12
590.441	81.12
590.651	86.12
590.861	81.12
591.071	90.12
591.281	83.12
591.49	76.12
591.7	72.12
591.91	92.12
592.119	87.12
592.329	89.12
592.539	94.12
592.748	111.12
592.958	89.12
593.167	88.12
593.377	92.12
593.587	89.12
593.796	90.12
594.006	75.12
594.215	94.12
594.424	75.12
594.634	94.12
594.843	102.12
595.053	106.12
595.262	108.12
595.472	98.12
595.681	94.12
595.89	98.12
596.1	98.12
596.309	104.12
596.518	96.12
596.727	105.12
596.937	94.12
597.146	93.12
597.355	103.12
597.564	95.12
597.774	89.12
597.983	94.12
598.192	96.12
598.401	90.12
598.61	106.12
598.819	84.12
599.028	82.12
599.237	83.12
599.446	97.12
599.655	96.12
599.864	95.12
600.073	90.12
600.282	93.12
600.491	93.12
600.7	103.12
600.909	94.12
601.118	97.12
601.327	108.12
601.536	93.12
601.745	97.12
601.953	103.12
602.162	102.12
602.371	116.12
602.58	109.12
602.789	99.12
602.997	130.12
603.206	111.12
603.415	101.12
603.623	119.12
603.832	111.12
604.041	108.12
604.249	103.12
604.458	106.12
604.666	106.12
604.875	111.12
605.084	95.12
605.292	113.12
605.501	121.12
605.709	114.12
605.918	123.12
606.126	124.12
606.334	99.12
606.543	111.12
606.751	117.12
606.96	120.12
607.168	117.12
607.376	119.12
607.585	109.12
607.793	115.12
608.001	122.12
608.21	121.12
608.418	121.12
608.626	117.12
608.834	118.12
609.043	129.12
609.251	105.12
609.459	116.12
609.667	115.12
609.875	114.12
610.083	108.12
610.291	113.12
610.499	119.12
610.707	127.12
610.916	116.12
611.124	119.12
611.332	123.12
611.54	118.12
611.748	118.12
611.955	114.12
612.163	121.12
612.371	114.12
612.579	121.12
612.787	118.12
612.995	124.12
613.203	112.12
613.411	116.12
613.618	111.12
613.826	107.12
614.034	100.12
614.242	114.12
614.449	112.12
614.657	124.12
614.865	115.12
615.072	115.12
615.28	121.12
615.488	122.12
615.695	103.12
615.903	119.12
616.111	105.12
616.318	129.12
616.526	107.12
616.733	117.12
616.941	112.12
617.148	107.12
617.356	116.12
617.563	113.12
617.771	104.12
617.978	116.12
618.185	105.12
618.393	103.12
618.6	108.12
618.807	117.12
619.015	107.12
619.222	116.12
619.429	114.12
619.637	111.12
619.844	102.12
620.051	95.12
620.258	95.12
620.466	115.12
620.673	122.12
620.88	124.12
621.087	119.12
621.294	123.12
621.501	125.12
621.708	115.12
621.915	102.12
622.122	123.12
622.329	94.12
622.536	111.12
622.743	107.12
622.95	103.12
623.157	111.12
623.364	109.12
623.571	96.12
623.778	109.12
623.985	114.12
624.192	101.12
624.399	104.12
624.606	116.12
624.812	115.12
625.019	110.12
625.226	106.12
625.433	112.12
625.639	107.12
625.846	109.12
626.053	87.12
626.259	106.12
626.466	97.12
626.673	106.12
626.879	77.12
627.086	98.12
627.293	112.12
627.499	118.12
627.706	106.12
627.912	108.12
628.119	114.12
628.325	103.12
628.532	105.12
628.738	122.12
628.945	89.12
629.151	103.12
629.357	107.12
629.564	111.12
629.77	101.12
629.976	113.12
630.183	104.12
630.389	118.12
630.595	125.12
630.802	105.12
631.008	116.12
631.214	108.12
631.42	101.12
631.627	122.12
631.833	105.12
632.039	109.12
632.245	102.12
632.451	108.12
632.657	114.12
632.863	92.12
633.069	111.12
633.275	113.12
633.481	104.12
633.688	97.12
633.893	102.12
634.099	113.12
634.305	112.12
634.511	105.12
634.717	97.12
634.923	104.12
635.129	97.12
635.335	111.12
635.541	98.12
635.747	122.12
635.952	91.12
636.158	94.12
636.364	86.12
636.57	101.12
636.775	114.12
636.981	108.12
637.187	93.12
637.392	103.12
637.598	103.12
637.804	103.12
638.009	117.12
638.215	113.12
638.421	114.12
638.626	91.12
638.832	107.12
639.037	98.12
639.243	84.12
639.448	98.12
639.654	95.12
639.859	97.12
640.065	102.12
640.27	107.12
640.475	102.12
640.681	95.12
640.886	95.12
641.091	120.12
641.297	96.12
641.502	101.12
641.707	106.12
641.913	89.12
642.118	102.12
642.323	95.12
642.528	91.12
642.733	95.12
642.939	96.12
643.144	88.12
643.349	98.12
643.554	93.12
643.759	94.12
643.964	105.12
644.169	100.12
644.374	103.12
644.579	105.12
644.784	94.12
644.989	99.12
645.194	111.12
645.399	99.12
645.604	100.12
645.809	97.12
646.014	107.12
646.219	92.12
646.423	93.12
646.628	99.12
646.833	107.12
647.038	102.12
647.243	99.12
647.447	100.12
647.652	99.12
647.857	124.12
648.062	100.12
648.266	102.12
648.471	115.12
648.676	93.12
648.88	90.12
649.085	116.12
649.289	95.12
649.494	94.12
649.698	85.12
649.903	101.12
650.107	103.12
650.312	98.12
650.516	89.12
650.721	96.12
650.925	95.12
651.13	115.12
651.334	96.12
651.539	91.12
651.743	88.12
651.947	105.12
652.152	101.12
652.356	102.12
652.56	99.12
652.764	100.12
652.969	104.12
653.173	89.12
653.377	80.12
653.581	115.12
653.785	102.12
653.99	106.12
654.194	95.12
654.398	97.12
654.602	98.12
654.806	100.12
655.01	87.12
655.214	98.12
655.418	100.12
655.622	98.12
655.826	89.12
656.03	75.12
656.234	77.12
656.438	77.12
656.642	91.12
656.846	91.12
657.049	91.12
657.253	89.12
657.457	106.12
657.661	102.12
657.865	108.12
658.068	91.12
658.272	93.12
658.476	93.12
658.68	103.12
658.883	91.12
659.087	78.12
659.291	77.12
659.494	94.12
659.698	81.12
659.901	91.12
660.105	87.12
660.309	86.12
660.512	78.12
660.716	81.12
660.919	75.12
661.123	84.12
661.326	102.12
661.53	86.12
661.733	83.12
661.936	92.12
662.14	87.12
662.343	78.12
662.546	91.12
662.75	79.12
662.953	79.12
663.156	77.12
663.36	72.12
663.563	80.12
663.766	71.12
663.969	89.12
664.173	84.12
664.376	73.12
664.579	90.12
664.782	71.12
664.985	85.12
665.188	74.12
665.391	88.12
665.594	97.12
665.797	89.12
666	98.12
666.203	84.12
666.406	80.12
666.609	80.12
666.812	81.12
667.015	64.12
667.218	92.12
667.421	67.12
667.624	93.12
667.827	76.12
668.03	76.12
668.232	75.12
668.435	90.12
668.638	83.12
668.841	86.12
669.043	76.12
669.246	90.12
669.449	87.12
669.651	82.12
669.854	89.12
670.057	81.12
670.259	75.12
670.462	76.12
670.665	81.12
670.867	95.12
671.07	68.12
671.272	79.12
671.475	89.12
671.677	90.12
671.88	86.12
672.082	71.12
672.284	87.12
672.487	97.12
672.689	87.12
672.892	91.12
