Data from Location6.07152019.Energy5.Lamp.07192019.3%Agarose_HRD10591_16-10-58-393.txt Node
Date: Fri Jul 19 16:10:58 EDT 2019
User: cochatt
Spectrometer: HR+D1059
Trigger mode: 1
Integration Time (sec): 1.000000E-1
Scans to average: 1
Electric dark correction enabled: true
Nonlinearity correction enabled: false
Boxcar width: 0
XAxis mode: Wavelengths
Number of Pixels in Spectrum: 2048
>>>>>Begin Spectral Data<<<<<
223.165	-11.56
223.4	-11.56
223.635	-11.56
223.869	-12.56
224.104	-24.56
224.338	-9.56
224.573	-12.56
224.808	-11.56
225.042	-8.56
225.277	-19.56
225.511	-5.56
225.746	4.44
225.98	15.44
226.215	10.44
226.449	8.44
226.683	26.44
226.918	20.44
227.152	30.44
227.387	36.44
227.621	46.44
227.856	40.44
228.09	57.44
228.324	47.44
228.559	58.44
228.793	49.44
229.027	55.44
229.262	61.44
229.496	54.44
229.73	62.44
229.964	57.44
230.199	72.44
230.433	69.44
230.667	69.44
230.901	88.44
231.136	79.44
231.37	70.44
231.604	80.44
231.838	76.44
232.072	75.44
232.306	87.44
232.541	70.44
232.775	79.44
233.009	80.44
233.243	69.44
233.477	69.44
233.711	72.44
233.945	72.44
234.179	83.44
234.413	77.44
234.647	85.44
234.881	83.44
235.115	73.44
235.349	71.44
235.583	73.44
235.817	81.44
236.051	76.44
236.285	74.44
236.519	83.44
236.753	59.44
236.987	74.44
237.221	90.44
237.455	85.44
237.689	77.44
237.922	83.44
238.156	75.44
238.39	71.44
238.624	94.44
238.858	84.44
239.091	77.44
239.325	80.44
239.559	83.44
239.793	78.44
240.027	87.44
240.26	67.44
240.494	81.44
240.728	63.44
240.961	80.44
241.195	87.44
241.429	90.44
241.662	75.44
241.896	64.44
242.13	76.44
242.363	80.44
242.597	79.44
242.83	77.44
243.064	84.44
243.298	65.44
243.531	87.44
243.765	68.44
243.998	79.44
244.232	71.44
244.465	61.44
244.699	79.44
244.932	74.44
245.166	82.44
245.399	82.44
245.633	93.44
245.866	82.44
246.099	70.44
246.333	83.44
246.566	78.44
246.8	72.44
247.033	84.44
247.266	76.44
247.5	74.44
247.733	73.44
247.966	80.44
248.2	78.44
248.433	88.44
248.666	76.44
248.899	75.44
249.133	63.44
249.366	81.44
249.599	72.44
249.832	75.44
250.066	84.44
250.299	88.44
250.532	80.44
250.765	74.44
250.998	88.44
251.231	72.44
251.465	84.44
251.698	71.44
251.931	74.44
252.164	84.44
252.397	89.44
252.63	80.44
252.863	71.44
253.096	76.44
253.329	87.44
253.562	85.44
253.795	89.44
254.028	70.44
254.261	73.44
254.494	79.44
254.727	80.44
254.96	87.44
255.193	90.44
255.426	87.44
255.659	69.44
255.892	91.44
256.124	85.44
256.357	76.44
256.59	91.44
256.823	79.44
257.056	83.44
257.289	97.44
257.521	78.44
257.754	85.44
257.987	84.44
258.22	86.44
258.452	98.44
258.685	74.44
258.918	97.44
259.151	91.44
259.383	86.44
259.616	82.44
259.849	83.44
260.081	72.44
260.314	71.44
260.547	93.44
260.779	66.44
261.012	70.44
261.244	85.44
261.477	80.44
261.71	73.44
261.942	76.44
262.175	69.44
262.407	78.44
262.64	82.44
262.872	73.44
263.105	88.44
263.337	82.44
263.57	96.44
263.802	76.44
264.035	76.44
264.267	85.44
264.499	98.44
264.732	87.44
264.964	80.44
265.197	84.44
265.429	83.44
265.661	80.44
265.894	87.44
266.126	99.44
266.358	78.44
266.591	75.44
266.823	80.44
267.055	77.44
267.287	75.44
267.52	81.44
267.752	88.44
267.984	96.44
268.216	75.44
268.448	79.44
268.681	81.44
268.913	83.44
269.145	87.44
269.377	87.44
269.609	77.44
269.841	81.44
270.073	66.44
270.306	88.44
270.538	77.44
270.77	73.44
271.002	95.44
271.234	82.44
271.466	96.44
271.698	69.44
271.93	81.44
272.162	75.44
272.394	88.44
272.626	81.44
272.858	83.44
273.09	86.44
273.322	77.44
273.553	68.44
273.785	70.44
274.017	87.44
274.249	83.44
274.481	74.44
274.713	87.44
274.945	78.44
275.176	80.44
275.408	85.44
275.64	85.44
275.872	86.44
276.104	87.44
276.335	86.44
276.567	88.44
276.799	86.44
277.031	82.44
277.262	83.44
277.494	90.44
277.726	85.44
277.957	70.44
278.189	80.44
278.421	85.44
278.652	80.44
278.884	78.44
279.115	92.44
279.347	73.44
279.579	77.44
279.81	75.44
280.042	90.44
280.273	75.44
280.505	83.44
280.736	80.44
280.968	76.44
281.199	86.44
281.431	90.44
281.662	84.44
281.894	79.44
282.125	85.44
282.356	91.44
282.588	78.44
282.819	79.44
283.051	78.44
283.282	63.44
283.513	77.44
283.745	78.44
283.976	81.44
284.207	99.44
284.439	83.44
284.67	83.44
284.901	67.44
285.132	83.44
285.364	88.44
285.595	83.44
285.826	73.44
286.057	82.44
286.288	73.44
286.52	91.44
286.751	98.44
286.982	70.44
287.213	90.44
287.444	74.44
287.675	74.44
287.906	83.44
288.138	74.44
288.369	90.44
288.6	97.44
288.831	66.44
289.062	90.44
289.293	87.44
289.524	79.44
289.755	77.44
289.986	82.44
290.217	76.44
290.448	79.44
290.679	80.44
290.91	86.44
291.141	86.44
291.371	82.44
291.602	88.44
291.833	82.44
292.064	92.44
292.295	80.44
292.526	73.44
292.757	79.44
292.987	83.44
293.218	80.44
293.449	87.44
293.68	56.44
293.91	79.44
294.141	95.44
294.372	74.44
294.603	73.44
294.833	80.44
295.064	85.44
295.295	71.44
295.525	65.44
295.756	87.44
295.987	88.44
296.217	89.44
296.448	93.44
296.679	85.44
296.909	72.44
297.14	83.44
297.37	85.44
297.601	80.44
297.831	82.44
298.062	79.44
298.292	97.44
298.523	83.44
298.753	80.44
298.984	90.44
299.214	95.44
299.445	72.44
299.675	83.44
299.905	87.44
300.136	79.44
300.366	82.44
300.597	98.44
300.827	74.44
301.057	84.44
301.288	78.44
301.518	83.44
301.748	95.44
301.979	66.44
302.209	74.44
302.439	83.44
302.669	79.44
302.9	60.44
303.13	92.44
303.36	76.44
303.59	84.44
303.82	91.44
304.051	88.44
304.281	79.44
304.511	91.44
304.741	81.44
304.971	76.44
305.201	90.44
305.431	92.44
305.661	86.44
305.891	92.44
306.121	74.44
306.352	100.44
306.582	84.44
306.812	88.44
307.042	84.44
307.272	67.44
307.502	92.44
307.731	82.44
307.961	78.44
308.191	76.44
308.421	87.44
308.651	91.44
308.881	91.44
309.111	79.44
309.341	82.44
309.571	85.44
309.8	92.44
310.03	86.44
310.26	86.44
310.49	80.44
310.72	80.44
310.949	93.44
311.179	72.44
311.409	99.44
311.639	91.44
311.868	93.44
312.098	89.44
312.328	86.44
312.557	71.44
312.787	87.44
313.017	88.44
313.246	82.44
313.476	98.44
313.706	82.44
313.935	82.44
314.165	70.44
314.394	93.44
314.624	81.44
314.853	97.44
315.083	91.44
315.312	86.44
315.542	87.44
315.771	84.44
316.001	86.44
316.23	88.44
316.46	82.44
316.689	66.44
316.919	102.44
317.148	82.44
317.377	90.44
317.607	88.44
317.836	79.44
318.065	81.44
318.295	81.44
318.524	76.44
318.753	75.44
318.983	91.44
319.212	79.44
319.441	82.44
319.67	87.44
319.9	78.44
320.129	78.44
320.358	83.44
320.587	95.44
320.816	71.44
321.046	94.44
321.275	86.44
321.504	74.44
321.733	81.44
321.962	100.44
322.191	73.44
322.42	83.44
322.649	92.44
322.878	80.44
323.108	76.44
323.337	82.44
323.566	92.44
323.795	89.44
324.024	93.44
324.253	76.44
324.482	70.44
324.71	96.44
324.939	78.44
325.168	71.44
325.397	77.44
325.626	90.44
325.855	85.44
326.084	75.44
326.313	96.44
326.542	82.44
326.77	90.44
326.999	71.44
327.228	90.44
327.457	88.44
327.686	70.44
327.914	98.44
328.143	80.44
328.372	87.44
328.6	103.44
328.829	91.44
329.058	88.44
329.287	76.44
329.515	76.44
329.744	99.44
329.972	88.44
330.201	87.44
330.43	89.44
330.658	91.44
330.887	83.44
331.115	91.44
331.344	88.44
331.572	91.44
331.801	79.44
332.03	98.44
332.258	82.44
332.486	68.44
332.715	69.44
332.943	78.44
333.172	79.44
333.4	90.44
333.629	79.44
333.857	86.44
334.085	70.44
334.314	85.44
334.542	72.44
334.771	82.44
334.999	79.44
335.227	83.44
335.455	67.44
335.684	74.44
335.912	75.44
336.14	79.44
336.369	84.44
336.597	85.44
336.825	83.44
337.053	86.44
337.281	86.44
337.51	65.44
337.738	100.44
337.966	100.44
338.194	74.44
338.422	74.44
338.65	85.44
338.878	98.44
339.106	92.44
339.334	80.44
339.562	92.44
339.79	78.44
340.018	75.44
340.246	90.44
340.474	84.44
340.702	79.44
340.93	89.44
341.158	81.44
341.386	71.44
341.614	72.44
341.842	88.44
342.07	97.44
342.298	78.44
342.526	96.44
342.754	67.44
342.981	81.44
343.209	81.44
343.437	82.44
343.665	92.44
343.893	81.44
344.12	84.44
344.348	89.44
344.576	70.44
344.804	70.44
345.031	70.44
345.259	80.44
345.487	79.44
345.714	80.44
345.942	61.44
346.17	84.44
346.397	76.44
346.625	83.44
346.853	89.44
347.08	84.44
347.308	88.44
347.535	84.44
347.763	82.44
347.99	80.44
348.218	85.44
348.445	92.44
348.673	75.44
348.9	89.44
349.128	97.44
349.355	70.44
349.583	82.44
349.81	86.44
350.037	89.44
350.265	93.44
350.492	77.44
350.72	84.44
350.947	88.44
351.174	79.44
351.402	77.44
351.629	69.44
351.856	76.44
352.083	73.44
352.311	78.44
352.538	101.44
352.765	70.44
352.992	87.44
353.22	84.44
353.447	88.44
353.674	71.44
353.901	90.44
354.128	89.44
354.355	93.44
354.583	77.44
354.81	76.44
355.037	84.44
355.264	74.44
355.491	96.44
355.718	74.44
355.945	90.44
356.172	89.44
356.399	85.44
356.626	78.44
356.853	83.44
357.08	84.44
357.307	80.44
357.534	81.44
357.761	78.44
357.988	84.44
358.215	79.44
358.441	80.44
358.668	75.44
358.895	92.44
359.122	86.44
359.349	91.44
359.576	89.44
359.802	71.44
360.029	76.44
360.256	82.44
360.483	69.44
360.709	97.44
360.936	84.44
361.163	85.44
361.39	80.44
361.616	88.44
361.843	83.44
362.07	79.44
362.296	95.44
362.523	66.44
362.749	87.44
362.976	85.44
363.203	85.44
363.429	79.44
363.656	78.44
363.882	80.44
364.109	86.44
364.335	90.44
364.562	83.44
364.788	76.44
365.015	95.44
365.241	88.44
365.468	100.44
365.694	94.44
365.92	77.44
366.147	87.44
366.373	95.44
366.599	86.44
366.826	83.44
367.052	86.44
367.278	82.44
367.505	87.44
367.731	102.44
367.957	92.44
368.184	98.44
368.41	91.44
368.636	95.44
368.862	96.44
369.089	84.44
369.315	98.44
369.541	98.44
369.767	89.44
369.993	92.44
370.219	90.44
370.445	100.44
370.672	91.44
370.898	84.44
371.124	88.44
371.35	92.44
371.576	88.44
371.802	87.44
372.028	88.44
372.254	80.44
372.48	94.44
372.706	82.44
372.932	98.44
373.158	75.44
373.384	96.44
373.61	91.44
373.835	88.44
374.061	102.44
374.287	96.44
374.513	100.44
374.739	93.44
374.965	92.44
375.191	90.44
375.416	97.44
375.642	86.44
375.868	103.44
376.094	88.44
376.319	83.44
376.545	79.44
376.771	82.44
376.997	102.44
377.222	89.44
377.448	106.44
377.674	99.44
377.899	89.44
378.125	97.44
378.35	97.44
378.576	87.44
378.802	101.44
379.027	108.44
379.253	97.44
379.478	95.44
379.704	93.44
379.929	101.44
380.155	107.44
380.38	104.44
380.606	86.44
380.831	98.44
381.057	97.44
381.282	92.44
381.507	105.44
381.733	112.44
381.958	90.44
382.184	90.44
382.409	86.44
382.634	98.44
382.86	107.44
383.085	90.44
383.31	80.44
383.535	92.44
383.761	97.44
383.986	106.44
384.211	79.44
384.436	107.44
384.662	97.44
384.887	91.44
385.112	80.44
385.337	89.44
385.562	98.44
385.787	105.44
386.013	110.44
386.238	99.44
386.463	105.44
386.688	106.44
386.913	107.44
387.138	92.44
387.363	107.44
387.588	116.44
387.813	100.44
388.038	101.44
388.263	91.44
388.488	94.44
388.713	113.44
388.938	112.44
389.163	118.44
389.387	107.44
389.612	100.44
389.837	83.44
390.062	111.44
390.287	95.44
390.512	104.44
390.736	116.44
390.961	119.44
391.186	105.44
391.411	101.44
391.636	100.44
391.86	106.44
392.085	101.44
392.31	106.44
392.534	115.44
392.759	105.44
392.984	119.44
393.208	113.44
393.433	110.44
393.658	102.44
393.882	118.44
394.107	107.44
394.331	115.44
394.556	98.44
394.78	102.44
395.005	109.44
395.229	96.44
395.454	104.44
395.678	117.44
395.903	96.44
396.127	106.44
396.352	85.44
396.576	118.44
396.801	100.44
397.025	96.44
397.249	96.44
397.474	122.44
397.698	102.44
397.922	115.44
398.147	107.44
398.371	104.44
398.595	107.44
398.82	107.44
399.044	103.44
399.268	102.44
399.492	107.44
399.717	118.44
399.941	102.44
400.165	113.44
400.389	110.44
400.613	120.44
400.837	112.44
401.062	107.44
401.286	108.44
401.51	106.44
401.734	114.44
401.958	126.44
402.182	109.44
402.406	121.44
402.63	98.44
402.854	122.44
403.078	108.44
403.302	108.44
403.526	115.44
403.75	114.44
403.974	134.44
404.198	122.44
404.422	126.44
404.645	126.44
404.869	129.44
405.093	126.44
405.317	118.44
405.541	108.44
405.765	126.44
405.988	142.44
406.212	124.44
406.436	129.44
406.66	130.44
406.883	122.44
407.107	108.44
407.331	122.44
407.555	114.44
407.778	118.44
408.002	114.44
408.226	124.44
408.449	133.44
408.673	123.44
408.896	131.44
409.12	117.44
409.344	110.44
409.567	123.44
409.791	123.44
410.014	133.44
410.238	131.44
410.461	124.44
410.685	119.44
410.908	126.44
411.132	136.44
411.355	122.44
411.578	139.44
411.802	124.44
412.025	128.44
412.249	107.44
412.472	122.44
412.695	122.44
412.919	121.44
413.142	134.44
413.365	124.44
413.589	120.44
413.812	120.44
414.035	115.44
414.258	126.44
414.482	129.44
414.705	123.44
414.928	124.44
415.151	128.44
415.374	122.44
415.597	121.44
415.821	125.44
416.044	112.44
416.267	122.44
416.49	134.44
416.713	124.44
416.936	118.44
417.159	113.44
417.382	135.44
417.605	134.44
417.828	135.44
418.051	137.44
418.274	144.44
418.497	125.44
418.72	138.44
418.943	132.44
419.166	145.44
419.389	134.44
419.611	142.44
419.834	138.44
420.057	142.44
420.28	144.44
420.503	126.44
420.726	137.44
420.948	117.44
421.171	142.44
421.394	142.44
421.617	150.44
421.839	144.44
422.062	132.44
422.285	136.44
422.507	139.44
422.73	122.44
422.953	124.44
423.175	134.44
423.398	124.44
423.621	130.44
423.843	132.44
424.066	130.44
424.288	135.44
424.511	134.44
424.733	148.44
424.956	130.44
425.178	147.44
425.401	136.44
425.623	132.44
425.846	155.44
426.068	132.44
426.291	132.44
426.513	138.44
426.735	127.44
426.958	138.44
427.18	142.44
427.402	135.44
427.625	146.44
427.847	132.44
428.069	150.44
428.292	130.44
428.514	118.44
428.736	120.44
428.958	130.44
429.181	130.44
429.403	134.44
429.625	131.44
429.847	135.44
430.069	134.44
430.292	140.44
430.514	125.44
430.736	144.44
430.958	143.44
431.18	148.44
431.402	129.44
431.624	111.44
431.846	96.44
432.068	102.44
432.29	93.44
432.512	116.44
432.734	134.44
432.956	131.44
433.178	145.44
433.4	153.44
433.622	137.44
433.844	143.44
434.066	126.44
434.287	112.44
434.509	90.44
434.731	100.44
434.953	125.44
435.175	134.44
435.397	134.44
435.618	108.44
435.84	118.44
436.062	94.44
436.284	112.44
436.505	118.44
436.727	128.44
436.949	123.44
437.17	121.44
437.392	133.44
437.614	130.44
437.835	109.44
438.057	110.44
438.278	90.44
438.5	127.44
438.721	126.44
438.943	154.44
439.165	144.44
439.386	149.44
439.608	138.44
439.829	139.44
440.05	136.44
440.272	144.44
440.493	159.44
440.715	149.44
440.936	138.44
441.158	150.44
441.379	140.44
441.6	156.44
441.822	136.44
442.043	148.44
442.264	148.44
442.486	141.44
442.707	150.44
442.928	139.44
443.149	126.44
443.371	137.44
443.592	150.44
443.813	146.44
444.034	134.44
444.255	135.44
444.476	149.44
444.698	145.44
444.919	152.44
445.14	278.44
445.361	214.44
445.582	148.44
445.803	144.44
446.024	156.44
446.245	175.44
446.466	159.44
446.687	165.44
446.908	164.44
447.129	165.44
447.35	140.44
447.571	153.44
447.792	152.44
448.013	151.44
448.234	155.44
448.455	143.44
448.675	167.44
448.896	145.44
449.117	151.44
449.338	132.44
449.559	140.44
449.779	131.44
450	138.44
450.221	144.44
450.442	141.44
450.662	134.44
450.883	139.44
451.104	139.44
451.324	131.44
451.545	127.44
451.766	129.44
451.986	134.44
452.207	146.44
452.428	125.44
452.648	136.44
452.869	113.44
453.089	136.44
453.31	106.44
453.53	107.44
453.751	107.44
453.971	114.44
454.192	122.44
454.412	103.44
454.633	105.44
454.853	129.44
455.073	137.44
455.294	139.44
455.514	128.44
455.734	124.44
455.955	126.44
456.175	122.44
456.395	113.44
456.616	106.44
456.836	98.44
457.056	110.44
457.276	95.44
457.497	119.44
457.717	116.44
457.937	115.44
458.157	97.44
458.377	97.44
458.598	110.44
458.818	107.44
459.038	86.44
459.258	88.44
459.478	87.44
459.698	92.44
459.918	101.44
460.138	114.44
460.358	124.44
460.578	123.44
460.798	120.44
461.018	114.44
461.238	121.44
461.458	123.44
461.678	119.44
461.898	124.44
462.118	123.44
462.338	111.44
462.558	115.44
462.777	113.44
462.997	103.44
463.217	101.44
463.437	116.44
463.657	102.44
463.876	116.44
464.096	120.44
464.316	110.44
464.536	119.44
464.755	103.44
464.975	111.44
465.195	118.44
465.414	115.44
465.634	114.44
465.854	124.44
466.073	110.44
466.293	127.44
466.512	130.44
466.732	149.44
466.951	131.44
467.171	129.44
467.391	134.44
467.61	137.44
467.829	126.44
468.049	134.44
468.268	135.44
468.488	128.44
468.707	145.44
468.927	148.44
469.146	155.44
469.365	135.44
469.585	141.44
469.804	140.44
470.023	135.44
470.243	150.44
470.462	144.44
470.681	154.44
470.901	146.44
471.12	144.44
471.339	148.44
471.558	150.44
471.777	134.44
471.997	141.44
472.216	130.44
472.435	130.44
472.654	100.44
472.873	113.44
473.092	117.44
473.311	125.44
473.53	134.44
473.749	133.44
473.968	144.44
474.187	132.44
474.406	124.44
474.625	124.44
474.844	124.44
475.063	132.44
475.282	118.44
475.501	120.44
475.72	119.44
475.939	126.44
476.158	118.44
476.377	116.44
476.596	128.44
476.814	120.44
477.033	100.44
477.252	115.44
477.471	105.44
477.69	130.44
477.908	147.44
478.127	139.44
478.346	142.44
478.564	132.44
478.783	130.44
479.002	135.44
479.22	147.44
479.439	128.44
479.658	132.44
479.876	114.44
480.095	110.44
480.313	111.44
480.532	128.44
480.751	106.44
480.969	98.44
481.188	84.44
481.406	86.44
481.624	88.44
481.843	83.44
482.061	104.44
482.28	115.44
482.498	119.44
482.717	107.44
482.935	134.44
483.153	160.44
483.372	148.44
483.59	168.44
483.808	140.44
484.027	137.44
484.245	134.44
484.463	158.44
484.681	168.44
484.9	160.44
485.118	148.44
485.336	121.44
485.554	108.44
485.772	104.44
485.99	118.44
486.209	104.44
486.427	115.44
486.645	122.44
486.863	132.44
487.081	161.44
487.299	147.44
487.517	147.44
487.735	172.44
487.953	184.44
488.171	196.44
488.389	185.44
488.607	180.44
488.825	154.44
489.043	132.44
489.261	155.44
489.479	144.44
489.696	148.44
489.914	143.44
490.132	141.44
490.35	161.44
490.568	175.44
490.786	192.44
491.003	187.44
491.221	192.44
491.439	195.44
491.657	202.44
491.874	228.44
492.092	235.44
492.31	244.44
492.527	224.44
492.745	206.44
492.963	193.44
493.18	204.44
493.398	195.44
493.615	187.44
493.833	191.44
494.05	192.44
494.268	182.44
494.485	176.44
494.703	185.44
494.92	164.44
495.138	188.44
495.355	186.44
495.573	170.44
495.79	185.44
496.008	174.44
496.225	176.44
496.442	174.44
496.66	170.44
496.877	162.44
497.094	162.44
497.312	157.44
497.529	148.44
497.746	158.44
497.963	148.44
498.181	140.44
498.398	119.44
498.615	128.44
498.832	124.44
499.049	122.44
499.267	125.44
499.484	123.44
499.701	132.44
499.918	141.44
500.135	149.44
500.352	156.44
500.569	164.44
500.786	161.44
501.003	148.44
501.22	141.44
501.437	123.44
501.654	139.44
501.871	142.44
502.088	120.44
502.305	125.44
502.522	120.44
502.739	138.44
502.956	147.44
503.172	131.44
503.389	127.44
503.606	106.44
503.823	126.44
504.04	114.44
504.256	134.44
504.473	122.44
504.69	123.44
504.907	127.44
505.123	134.44
505.34	121.44
505.557	127.44
505.773	130.44
505.99	126.44
506.207	125.44
506.423	122.44
506.64	134.44
506.856	129.44
507.073	133.44
507.289	119.44
507.506	122.44
507.722	124.44
507.939	120.44
508.155	126.44
508.372	118.44
508.588	107.44
508.805	121.44
509.021	97.44
509.238	113.44
509.454	110.44
509.67	115.44
509.887	112.44
510.103	103.44
510.319	91.44
510.536	86.44
510.752	95.44
510.968	85.44
511.184	79.44
511.401	83.44
511.617	95.44
511.833	97.44
512.049	92.44
512.265	89.44
512.481	83.44
512.698	90.44
512.914	87.44
513.13	100.44
513.346	100.44
513.562	68.44
513.778	100.44
513.994	105.44
514.21	94.44
514.426	99.44
514.642	93.44
514.858	96.44
515.074	101.44
515.29	87.44
515.506	92.44
515.721	78.44
515.937	93.44
516.153	78.44
516.369	84.44
516.585	93.44
516.801	88.44
517.016	78.44
517.232	101.44
517.448	88.44
517.664	98.44
517.879	88.44
518.095	107.44
518.311	97.44
518.527	82.44
518.742	100.44
518.958	104.44
519.173	105.44
519.389	94.44
519.605	118.44
519.82	116.44
520.036	118.44
520.251	102.44
520.467	99.44
520.682	92.44
520.898	98.44
521.113	87.44
521.329	85.44
521.544	95.44
521.76	98.44
521.975	99.44
522.19	98.44
522.406	105.44
522.621	95.44
522.836	107.44
523.052	124.44
523.267	93.44
523.482	110.44
523.698	110.44
523.913	123.44
524.128	120.44
524.343	124.44
524.559	126.44
524.774	121.44
524.989	126.44
525.204	128.44
525.419	105.44
525.634	129.44
525.849	111.44
526.064	112.44
526.28	110.44
526.495	92.44
526.71	89.44
526.925	78.44
527.14	71.44
527.355	91.44
527.57	81.44
527.785	87.44
527.999	84.44
528.214	113.44
528.429	116.44
528.644	126.44
528.859	141.44
529.074	147.44
529.289	170.44
529.503	171.44
529.718	137.44
529.933	124.44
530.148	108.44
530.363	95.44
530.577	84.44
530.792	75.44
531.007	85.44
531.221	93.44
531.436	83.44
531.651	80.44
531.865	76.44
532.08	88.44
532.295	90.44
532.509	97.44
532.724	96.44
532.938	94.44
533.153	110.44
533.367	107.44
533.582	122.44
533.796	130.44
534.011	126.44
534.225	98.44
534.44	99.44
534.654	97.44
534.868	97.44
535.083	107.44
535.297	120.44
535.511	86.44
535.726	108.44
535.94	104.44
536.154	99.44
536.369	99.44
536.583	87.44
536.797	93.44
537.011	90.44
537.225	83.44
537.44	83.44
537.654	107.44
537.868	100.44
538.082	87.44
538.296	94.44
538.51	113.44
538.724	113.44
538.938	116.44
539.153	134.44
539.367	116.44
539.581	110.44
539.795	107.44
540.009	100.44
540.222	102.44
540.436	110.44
540.65	121.44
540.864	113.44
541.078	156.44
541.292	147.44
541.506	148.44
541.72	180.44
541.934	185.44
542.147	200.44
542.361	191.44
542.575	172.44
542.789	161.44
543.002	148.44
543.216	140.44
543.43	136.44
543.644	136.44
543.857	153.44
544.071	160.44
544.285	177.44
544.498	162.44
544.712	161.44
544.925	171.44
545.139	163.44
545.352	179.44
545.566	151.44
545.779	157.44
545.993	178.44
546.206	182.44
546.42	193.44
546.633	170.44
546.847	166.44
547.06	181.44
547.274	185.44
547.487	177.44
547.7	199.44
547.914	179.44
548.127	177.44
548.34	166.44
548.554	148.44
548.767	180.44
548.98	170.44
549.193	146.44
549.407	158.44
549.62	163.44
549.833	140.44
550.046	155.44
550.259	159.44
550.473	154.44
550.686	162.44
550.899	174.44
551.112	150.44
551.325	144.44
551.538	144.44
551.751	144.44
551.964	125.44
552.177	136.44
552.39	150.44
552.603	146.44
552.816	149.44
553.029	151.44
553.242	184.44
553.455	158.44
553.667	166.44
553.88	155.44
554.093	145.44
554.306	167.44
554.519	147.44
554.732	151.44
554.944	152.44
555.157	147.44
555.37	146.44
555.583	150.44
555.795	152.44
556.008	132.44
556.221	114.44
556.433	123.44
556.646	139.44
556.859	139.44
557.071	155.44
557.284	137.44
557.496	146.44
557.709	142.44
557.921	143.44
558.134	139.44
558.346	140.44
558.559	143.44
558.771	144.44
558.984	144.44
559.196	148.44
559.409	130.44
559.621	130.44
559.833	146.44
560.046	136.44
560.258	130.44
560.47	136.44
560.683	139.44
560.895	132.44
561.107	132.44
561.32	145.44
561.532	127.44
561.744	138.44
561.956	140.44
562.168	134.44
562.381	138.44
562.593	119.44
562.805	124.44
563.017	138.44
563.229	130.44
563.441	120.44
563.653	120.44
563.865	121.44
564.077	129.44
564.289	142.44
564.501	121.44
564.713	118.44
564.925	107.44
565.137	105.44
565.349	108.44
565.561	117.44
565.773	126.44
565.985	112.44
566.197	122.44
566.408	128.44
566.62	123.44
566.832	127.44
567.044	110.44
567.255	123.44
567.467	121.44
567.679	117.44
567.891	115.44
568.102	104.44
568.314	97.44
568.526	97.44
568.737	93.44
568.949	76.44
569.161	82.44
569.372	101.44
569.584	95.44
569.795	95.44
570.007	84.44
570.218	82.44
570.43	82.44
570.641	86.44
570.853	107.44
571.064	99.44
571.276	95.44
571.487	93.44
571.698	112.44
571.91	96.44
572.121	104.44
572.333	112.44
572.544	102.44
572.755	104.44
572.966	95.44
573.178	82.44
573.389	92.44
573.6	86.44
573.811	84.44
574.023	89.44
574.234	99.44
574.445	86.44
574.656	99.44
574.867	102.44
575.078	100.44
575.289	102.44
575.501	103.44
575.712	97.44
575.923	100.44
576.134	102.44
576.345	96.44
576.556	101.44
576.767	90.44
576.978	107.44
577.188	101.44
577.399	82.44
577.61	91.44
577.821	99.44
578.032	97.44
578.243	89.44
578.454	94.44
578.665	70.44
578.875	95.44
579.086	98.44
579.297	84.44
579.508	85.44
579.718	76.44
579.929	92.44
580.14	74.44
580.35	79.44
580.561	107.44
580.772	98.44
580.982	84.44
581.193	95.44
581.403	82.44
581.614	85.44
581.825	92.44
582.035	85.44
582.246	95.44
582.456	96.44
582.667	92.44
582.877	93.44
583.087	89.44
583.298	90.44
583.508	89.44
583.719	91.44
583.929	79.44
584.139	82.44
584.35	85.44
584.56	85.44
584.77	84.44
584.981	89.44
585.191	83.44
585.401	81.44
585.611	88.44
585.821	82.44
586.032	97.44
586.242	92.44
586.452	83.44
586.662	82.44
586.872	80.44
587.082	91.44
587.292	86.44
587.502	91.44
587.713	84.44
587.923	90.44
588.133	74.44
588.343	68.44
588.553	80.44
588.762	94.44
588.972	89.44
589.182	100.44
589.392	76.44
589.602	88.44
589.812	82.44
590.022	87.44
590.232	91.44
590.441	79.44
590.651	80.44
590.861	98.44
591.071	82.44
591.281	85.44
591.49	83.44
591.7	93.44
591.91	81.44
592.119	85.44
592.329	100.44
592.539	91.44
592.748	92.44
592.958	84.44
593.167	86.44
593.377	81.44
593.587	94.44
593.796	84.44
594.006	89.44
594.215	81.44
594.424	81.44
594.634	81.44
594.843	86.44
595.053	103.44
595.262	88.44
595.472	77.44
595.681	90.44
595.89	84.44
596.1	87.44
596.309	103.44
596.518	91.44
596.727	89.44
596.937	92.44
597.146	93.44
597.355	86.44
597.564	93.44
597.774	91.44
597.983	89.44
598.192	91.44
598.401	96.44
598.61	79.44
598.819	82.44
599.028	84.44
599.237	90.44
599.446	87.44
599.655	80.44
599.864	95.44
600.073	76.44
600.282	97.44
600.491	94.44
600.7	96.44
600.909	84.44
601.118	90.44
601.327	88.44
601.536	105.44
601.745	108.44
601.953	118.44
602.162	116.44
602.371	90.44
602.58	104.44
602.789	96.44
602.997	100.44
603.206	114.44
603.415	115.44
603.623	105.44
603.832	115.44
604.041	92.44
604.249	103.44
604.458	97.44
604.666	110.44
604.875	102.44
605.084	87.44
605.292	111.44
605.501	114.44
605.709	118.44
605.918	112.44
606.126	108.44
606.334	104.44
606.543	117.44
606.751	110.44
606.96	111.44
607.168	121.44
607.376	116.44
607.585	118.44
607.793	116.44
608.001	112.44
608.21	115.44
608.418	112.44
608.626	124.44
608.834	117.44
609.043	113.44
609.251	106.44
609.459	118.44
609.667	120.44
609.875	118.44
610.083	130.44
610.291	118.44
610.499	112.44
610.707	121.44
610.916	120.44
611.124	115.44
611.332	119.44
611.54	113.44
611.748	119.44
611.955	109.44
612.163	114.44
612.371	132.44
612.579	118.44
612.787	102.44
612.995	122.44
613.203	118.44
613.411	106.44
613.618	124.44
613.826	105.44
614.034	126.44
614.242	105.44
614.449	100.44
614.657	114.44
614.865	101.44
615.072	119.44
615.28	120.44
615.488	102.44
615.695	111.44
615.903	112.44
616.111	120.44
616.318	122.44
616.526	109.44
616.733	105.44
616.941	111.44
617.148	122.44
617.356	118.44
617.563	110.44
617.771	112.44
617.978	99.44
618.185	110.44
618.393	122.44
618.6	115.44
618.807	120.44
619.015	97.44
619.222	117.44
619.429	107.44
619.637	116.44
619.844	118.44
620.051	109.44
620.258	112.44
620.466	92.44
620.673	105.44
620.88	99.44
621.087	112.44
621.294	109.44
621.501	102.44
621.708	90.44
621.915	107.44
622.122	115.44
622.329	101.44
622.536	110.44
622.743	108.44
622.95	108.44
623.157	107.44
623.364	100.44
623.571	111.44
623.778	110.44
623.985	101.44
624.192	105.44
624.399	117.44
624.606	107.44
624.812	107.44
625.019	99.44
625.226	92.44
625.433	114.44
625.639	95.44
625.846	102.44
626.053	99.44
626.259	101.44
626.466	97.44
626.673	94.44
626.879	87.44
627.086	96.44
627.293	106.44
627.499	99.44
627.706	105.44
627.912	105.44
628.119	104.44
628.325	95.44
628.532	118.44
628.738	106.44
628.945	104.44
629.151	111.44
629.357	100.44
629.564	119.44
629.77	82.44
629.976	110.44
630.183	111.44
630.389	94.44
630.595	103.44
630.802	110.44
631.008	95.44
631.214	94.44
631.42	92.44
631.627	119.44
631.833	100.44
632.039	92.44
632.245	98.44
632.451	92.44
632.657	102.44
632.863	110.44
633.069	96.44
633.275	103.44
633.481	93.44
633.688	93.44
633.893	94.44
634.099	98.44
634.305	106.44
634.511	100.44
634.717	97.44
634.923	98.44
635.129	108.44
635.335	96.44
635.541	111.44
635.747	101.44
635.952	102.44
636.158	102.44
636.364	93.44
636.57	92.44
636.775	82.44
636.981	92.44
637.187	100.44
637.392	96.44
637.598	116.44
637.804	112.44
638.009	110.44
638.215	94.44
638.421	82.44
638.626	115.44
638.832	103.44
639.037	87.44
639.243	98.44
639.448	103.44
639.654	85.44
639.859	97.44
640.065	110.44
640.27	102.44
640.475	99.44
640.681	99.44
640.886	102.44
641.091	106.44
641.297	119.44
641.502	106.44
641.707	97.44
641.913	94.44
642.118	106.44
642.323	96.44
642.528	102.44
642.733	111.44
642.939	105.44
643.144	94.44
643.349	110.44
643.554	96.44
643.759	95.44
643.964	99.44
644.169	107.44
644.374	103.44
644.579	102.44
644.784	88.44
644.989	92.44
645.194	98.44
645.399	106.44
645.604	119.44
645.809	98.44
646.014	86.44
646.219	105.44
646.423	106.44
646.628	100.44
646.833	86.44
647.038	105.44
647.243	103.44
647.447	104.44
647.652	95.44
647.857	89.44
648.062	89.44
648.266	99.44
648.471	99.44
648.676	96.44
648.88	90.44
649.085	93.44
649.289	105.44
649.494	90.44
649.698	99.44
649.903	96.44
650.107	89.44
650.312	104.44
650.516	112.44
650.721	85.44
650.925	95.44
651.13	101.44
651.334	99.44
651.539	93.44
651.743	89.44
651.947	95.44
652.152	99.44
652.356	114.44
652.56	77.44
652.764	102.44
652.969	105.44
653.173	104.44
653.377	89.44
653.581	86.44
653.785	96.44
653.99	87.44
654.194	85.44
654.398	98.44
654.602	91.44
654.806	86.44
655.01	104.44
655.214	96.44
655.418	87.44
655.622	101.44
655.826	89.44
656.03	95.44
656.234	91.44
656.438	99.44
656.642	98.44
656.846	87.44
657.049	91.44
657.253	94.44
657.457	96.44
657.661	79.44
657.865	94.44
658.068	88.44
658.272	90.44
658.476	91.44
658.68	70.44
658.883	86.44
659.087	91.44
659.291	92.44
659.494	82.44
659.698	86.44
659.901	79.44
660.105	87.44
660.309	84.44
660.512	98.44
660.716	89.44
660.919	85.44
661.123	81.44
661.326	89.44
661.53	88.44
661.733	67.44
661.936	88.44
662.14	84.44
662.343	82.44
662.546	78.44
662.75	82.44
662.953	92.44
663.156	87.44
663.36	86.44
663.563	90.44
663.766	90.44
663.969	82.44
664.173	71.44
664.376	88.44
664.579	85.44
664.782	84.44
664.985	83.44
665.188	83.44
665.391	74.44
665.594	84.44
665.797	98.44
666	87.44
666.203	80.44
666.406	71.44
666.609	80.44
666.812	73.44
667.015	82.44
667.218	92.44
667.421	87.44
667.624	59.44
667.827	80.44
668.03	91.44
668.232	85.44
668.435	84.44
668.638	64.44
668.841	83.44
669.043	80.44
669.246	84.44
669.449	73.44
669.651	87.44
669.854	83.44
670.057	87.44
670.259	77.44
670.462	86.44
670.665	91.44
670.867	88.44
671.07	88.44
671.272	71.44
671.475	98.44
671.677	65.44
671.88	93.44
672.082	74.44
672.284	75.44
672.487	88.44
672.689	77.44
672.892	76.44
