Data from Location6.07152019.Energy5.Lamp.07192019.3%Agarose_HRD10591_16-10-48-395.txt Node
Date: Fri Jul 19 16:10:48 EDT 2019
User: cochatt
Spectrometer: HR+D1059
Trigger mode: 1
Integration Time (sec): 1.000000E-1
Scans to average: 1
Electric dark correction enabled: true
Nonlinearity correction enabled: false
Boxcar width: 0
XAxis mode: Wavelengths
Number of Pixels in Spectrum: 2048
>>>>>Begin Spectral Data<<<<<
223.165	-27.06
223.4	-27.06
223.635	-27.06
223.869	-5.06
224.104	-7.06
224.338	-14.06
224.573	-26.06
224.808	-14.06
225.042	-13.06
225.277	-0.06
225.511	-3.06
225.746	5.94
225.98	10.94
226.215	14.94
226.449	10.94
226.683	12.94
226.918	25.94
227.152	27.94
227.387	37.94
227.621	37.94
227.856	28.94
228.09	53.94
228.324	45.94
228.559	42.94
228.793	61.94
229.027	59.94
229.262	71.94
229.496	67.94
229.73	85.94
229.964	75.94
230.199	71.94
230.433	72.94
230.667	88.94
230.901	77.94
231.136	81.94
231.37	82.94
231.604	89.94
231.838	77.94
232.072	72.94
232.306	73.94
232.541	70.94
232.775	77.94
233.009	83.94
233.243	73.94
233.477	85.94
233.711	89.94
233.945	84.94
234.179	80.94
234.413	84.94
234.647	59.94
234.881	69.94
235.115	72.94
235.349	74.94
235.583	85.94
235.817	78.94
236.051	76.94
236.285	57.94
236.519	80.94
236.753	87.94
236.987	91.94
237.221	73.94
237.455	79.94
237.689	78.94
237.922	76.94
238.156	78.94
238.39	75.94
238.624	72.94
238.858	88.94
239.091	69.94
239.325	90.94
239.559	68.94
239.793	85.94
240.027	69.94
240.26	73.94
240.494	82.94
240.728	69.94
240.961	79.94
241.195	77.94
241.429	79.94
241.662	83.94
241.896	81.94
242.13	82.94
242.363	87.94
242.597	73.94
242.83	93.94
243.064	80.94
243.298	89.94
243.531	82.94
243.765	90.94
243.998	72.94
244.232	87.94
244.465	76.94
244.699	76.94
244.932	75.94
245.166	77.94
245.399	80.94
245.633	80.94
245.866	80.94
246.099	74.94
246.333	74.94
246.566	57.94
246.8	74.94
247.033	88.94
247.266	74.94
247.5	78.94
247.733	83.94
247.966	82.94
248.2	74.94
248.433	76.94
248.666	80.94
248.899	78.94
249.133	91.94
249.366	86.94
249.599	66.94
249.832	85.94
250.066	84.94
250.299	84.94
250.532	91.94
250.765	82.94
250.998	98.94
251.231	73.94
251.465	87.94
251.698	96.94
251.931	86.94
252.164	90.94
252.397	73.94
252.63	84.94
252.863	88.94
253.096	79.94
253.329	75.94
253.562	74.94
253.795	88.94
254.028	86.94
254.261	88.94
254.494	79.94
254.727	92.94
254.96	86.94
255.193	77.94
255.426	88.94
255.659	76.94
255.892	83.94
256.124	85.94
256.357	85.94
256.59	91.94
256.823	81.94
257.056	92.94
257.289	79.94
257.521	98.94
257.754	79.94
257.987	78.94
258.22	80.94
258.452	74.94
258.685	68.94
258.918	85.94
259.151	88.94
259.383	83.94
259.616	82.94
259.849	104.94
260.081	73.94
260.314	83.94
260.547	75.94
260.779	68.94
261.012	76.94
261.244	83.94
261.477	76.94
261.71	67.94
261.942	81.94
262.175	86.94
262.407	79.94
262.64	84.94
262.872	81.94
263.105	92.94
263.337	82.94
263.57	91.94
263.802	86.94
264.035	86.94
264.267	78.94
264.499	79.94
264.732	84.94
264.964	91.94
265.197	83.94
265.429	82.94
265.661	82.94
265.894	86.94
266.126	84.94
266.358	68.94
266.591	85.94
266.823	83.94
267.055	91.94
267.287	77.94
267.52	92.94
267.752	110.94
267.984	80.94
268.216	84.94
268.448	91.94
268.681	92.94
268.913	94.94
269.145	82.94
269.377	86.94
269.609	76.94
269.841	81.94
270.073	88.94
270.306	84.94
270.538	88.94
270.77	77.94
271.002	85.94
271.234	84.94
271.466	77.94
271.698	78.94
271.93	82.94
272.162	86.94
272.394	77.94
272.626	94.94
272.858	78.94
273.09	80.94
273.322	74.94
273.553	78.94
273.785	77.94
274.017	84.94
274.249	96.94
274.481	81.94
274.713	93.94
274.945	92.94
275.176	86.94
275.408	93.94
275.64	93.94
275.872	86.94
276.104	85.94
276.335	85.94
276.567	69.94
276.799	99.94
277.031	89.94
277.262	85.94
277.494	76.94
277.726	89.94
277.957	84.94
278.189	73.94
278.421	90.94
278.652	86.94
278.884	89.94
279.115	84.94
279.347	91.94
279.579	70.94
279.81	84.94
280.042	77.94
280.273	84.94
280.505	76.94
280.736	79.94
280.968	84.94
281.199	81.94
281.431	91.94
281.662	80.94
281.894	86.94
282.125	90.94
282.356	79.94
282.588	93.94
282.819	83.94
283.051	88.94
283.282	86.94
283.513	103.94
283.745	77.94
283.976	80.94
284.207	76.94
284.439	78.94
284.67	89.94
284.901	89.94
285.132	76.94
285.364	85.94
285.595	88.94
285.826	97.94
286.057	87.94
286.288	73.94
286.52	86.94
286.751	81.94
286.982	74.94
287.213	92.94
287.444	77.94
287.675	74.94
287.906	85.94
288.138	87.94
288.369	87.94
288.6	80.94
288.831	89.94
289.062	81.94
289.293	91.94
289.524	86.94
289.755	88.94
289.986	86.94
290.217	81.94
290.448	79.94
290.679	85.94
290.91	66.94
291.141	95.94
291.371	96.94
291.602	88.94
291.833	72.94
292.064	68.94
292.295	83.94
292.526	68.94
292.757	84.94
292.987	82.94
293.218	68.94
293.449	83.94
293.68	73.94
293.91	86.94
294.141	100.94
294.372	83.94
294.603	75.94
294.833	91.94
295.064	77.94
295.295	81.94
295.525	88.94
295.756	93.94
295.987	78.94
296.217	86.94
296.448	97.94
296.679	102.94
296.909	90.94
297.14	67.94
297.37	101.94
297.601	76.94
297.831	91.94
298.062	94.94
298.292	77.94
298.523	82.94
298.753	86.94
298.984	94.94
299.214	95.94
299.445	100.94
299.675	84.94
299.905	74.94
300.136	71.94
300.366	89.94
300.597	89.94
300.827	86.94
301.057	85.94
301.288	90.94
301.518	92.94
301.748	66.94
301.979	76.94
302.209	77.94
302.439	85.94
302.669	85.94
302.9	89.94
303.13	92.94
303.36	72.94
303.59	81.94
303.82	73.94
304.051	88.94
304.281	81.94
304.511	77.94
304.741	79.94
304.971	66.94
305.201	88.94
305.431	86.94
305.661	92.94
305.891	90.94
306.121	87.94
306.352	85.94
306.582	79.94
306.812	91.94
307.042	91.94
307.272	103.94
307.502	89.94
307.731	78.94
307.961	103.94
308.191	88.94
308.421	78.94
308.651	91.94
308.881	73.94
309.111	79.94
309.341	85.94
309.571	98.94
309.8	96.94
310.03	85.94
310.26	66.94
310.49	96.94
310.72	79.94
310.949	96.94
311.179	75.94
311.409	89.94
311.639	84.94
311.868	70.94
312.098	82.94
312.328	83.94
312.557	91.94
312.787	77.94
313.017	85.94
313.246	74.94
313.476	73.94
313.706	92.94
313.935	86.94
314.165	84.94
314.394	91.94
314.624	68.94
314.853	92.94
315.083	93.94
315.312	84.94
315.542	82.94
315.771	81.94
316.001	77.94
316.23	80.94
316.46	84.94
316.689	80.94
316.919	81.94
317.148	78.94
317.377	93.94
317.607	87.94
317.836	97.94
318.065	85.94
318.295	84.94
318.524	89.94
318.753	85.94
318.983	91.94
319.212	92.94
319.441	90.94
319.67	86.94
319.9	76.94
320.129	77.94
320.358	93.94
320.587	80.94
320.816	73.94
321.046	75.94
321.275	89.94
321.504	77.94
321.733	100.94
321.962	92.94
322.191	79.94
322.42	98.94
322.649	91.94
322.878	88.94
323.108	83.94
323.337	88.94
323.566	82.94
323.795	83.94
324.024	74.94
324.253	91.94
324.482	93.94
324.71	90.94
324.939	90.94
325.168	93.94
325.397	81.94
325.626	87.94
325.855	92.94
326.084	90.94
326.313	78.94
326.542	78.94
326.77	86.94
326.999	95.94
327.228	86.94
327.457	93.94
327.686	82.94
327.914	83.94
328.143	75.94
328.372	84.94
328.6	76.94
328.829	80.94
329.058	86.94
329.287	85.94
329.515	81.94
329.744	85.94
329.972	92.94
330.201	83.94
330.43	85.94
330.658	105.94
330.887	83.94
331.115	76.94
331.344	88.94
331.572	94.94
331.801	94.94
332.03	70.94
332.258	96.94
332.486	94.94
332.715	72.94
332.943	82.94
333.172	81.94
333.4	86.94
333.629	82.94
333.857	80.94
334.085	83.94
334.314	83.94
334.542	79.94
334.771	102.94
334.999	86.94
335.227	83.94
335.455	82.94
335.684	96.94
335.912	87.94
336.14	75.94
336.369	76.94
336.597	86.94
336.825	93.94
337.053	76.94
337.281	87.94
337.51	80.94
337.738	96.94
337.966	74.94
338.194	77.94
338.422	93.94
338.65	83.94
338.878	76.94
339.106	93.94
339.334	86.94
339.562	78.94
339.79	89.94
340.018	90.94
340.246	78.94
340.474	82.94
340.702	100.94
340.93	92.94
341.158	86.94
341.386	78.94
341.614	86.94
341.842	90.94
342.07	77.94
342.298	89.94
342.526	92.94
342.754	84.94
342.981	91.94
343.209	85.94
343.437	84.94
343.665	99.94
343.893	91.94
344.12	83.94
344.348	92.94
344.576	86.94
344.804	80.94
345.031	92.94
345.259	86.94
345.487	88.94
345.714	80.94
345.942	89.94
346.17	89.94
346.397	80.94
346.625	79.94
346.853	91.94
347.08	86.94
347.308	87.94
347.535	92.94
347.763	84.94
347.99	91.94
348.218	85.94
348.445	72.94
348.673	88.94
348.9	67.94
349.128	86.94
349.355	80.94
349.583	75.94
349.81	73.94
350.037	77.94
350.265	78.94
350.492	75.94
350.72	89.94
350.947	79.94
351.174	82.94
351.402	82.94
351.629	82.94
351.856	86.94
352.083	91.94
352.311	66.94
352.538	73.94
352.765	91.94
352.992	88.94
353.22	91.94
353.447	91.94
353.674	90.94
353.901	84.94
354.128	99.94
354.355	81.94
354.583	81.94
354.81	100.94
355.037	80.94
355.264	71.94
355.491	82.94
355.718	86.94
355.945	72.94
356.172	90.94
356.399	97.94
356.626	95.94
356.853	81.94
357.08	90.94
357.307	86.94
357.534	76.94
357.761	86.94
357.988	85.94
358.215	82.94
358.441	87.94
358.668	82.94
358.895	84.94
359.122	90.94
359.349	81.94
359.576	88.94
359.802	92.94
360.029	84.94
360.256	80.94
360.483	80.94
360.709	97.94
360.936	89.94
361.163	78.94
361.39	83.94
361.616	86.94
361.843	73.94
362.07	88.94
362.296	74.94
362.523	81.94
362.749	81.94
362.976	91.94
363.203	97.94
363.429	82.94
363.656	93.94
363.882	86.94
364.109	86.94
364.335	73.94
364.562	97.94
364.788	86.94
365.015	99.94
365.241	86.94
365.468	70.94
365.694	75.94
365.92	90.94
366.147	104.94
366.373	90.94
366.599	93.94
366.826	84.94
367.052	85.94
367.278	92.94
367.505	95.94
367.731	105.94
367.957	83.94
368.184	85.94
368.41	82.94
368.636	94.94
368.862	98.94
369.089	89.94
369.315	89.94
369.541	93.94
369.767	87.94
369.993	91.94
370.219	89.94
370.445	108.94
370.672	92.94
370.898	92.94
371.124	90.94
371.35	89.94
371.576	98.94
371.802	76.94
372.028	87.94
372.254	90.94
372.48	105.94
372.706	91.94
372.932	96.94
373.158	72.94
373.384	79.94
373.61	96.94
373.835	91.94
374.061	99.94
374.287	85.94
374.513	88.94
374.739	104.94
374.965	101.94
375.191	101.94
375.416	100.94
375.642	93.94
375.868	90.94
376.094	87.94
376.319	97.94
376.545	90.94
376.771	84.94
376.997	82.94
377.222	100.94
377.448	104.94
377.674	115.94
377.899	93.94
378.125	78.94
378.35	85.94
378.576	94.94
378.802	95.94
379.027	106.94
379.253	105.94
379.478	105.94
379.704	101.94
379.929	97.94
380.155	86.94
380.38	107.94
380.606	93.94
380.831	108.94
381.057	123.94
381.282	88.94
381.507	110.94
381.733	108.94
381.958	106.94
382.184	92.94
382.409	96.94
382.634	100.94
382.86	87.94
383.085	86.94
383.31	97.94
383.535	88.94
383.761	101.94
383.986	97.94
384.211	93.94
384.436	112.94
384.662	101.94
384.887	101.94
385.112	98.94
385.337	91.94
385.562	93.94
385.787	100.94
386.013	100.94
386.238	104.94
386.463	104.94
386.688	87.94
386.913	104.94
387.138	107.94
387.363	94.94
387.588	97.94
387.813	96.94
388.038	113.94
388.263	113.94
388.488	117.94
388.713	105.94
388.938	107.94
389.163	116.94
389.387	100.94
389.612	112.94
389.837	115.94
390.062	100.94
390.287	120.94
390.512	102.94
390.736	101.94
390.961	97.94
391.186	108.94
391.411	101.94
391.636	106.94
391.86	116.94
392.085	113.94
392.31	118.94
392.534	99.94
392.759	106.94
392.984	124.94
393.208	115.94
393.433	111.94
393.658	109.94
393.882	108.94
394.107	101.94
394.331	124.94
394.556	119.94
394.78	113.94
395.005	108.94
395.229	112.94
395.454	112.94
395.678	111.94
395.903	119.94
396.127	119.94
396.352	115.94
396.576	125.94
396.801	121.94
397.025	110.94
397.249	127.94
397.474	113.94
397.698	112.94
397.922	105.94
398.147	123.94
398.371	132.94
398.595	108.94
398.82	98.94
399.044	111.94
399.268	113.94
399.492	135.94
399.717	118.94
399.941	121.94
400.165	105.94
400.389	128.94
400.613	103.94
400.837	118.94
401.062	114.94
401.286	102.94
401.51	109.94
401.734	119.94
401.958	109.94
402.182	126.94
402.406	121.94
402.63	140.94
402.854	116.94
403.078	114.94
403.302	105.94
403.526	124.94
403.75	114.94
403.974	127.94
404.198	120.94
404.422	127.94
404.645	107.94
404.869	126.94
405.093	112.94
405.317	133.94
405.541	119.94
405.765	119.94
405.988	125.94
406.212	136.94
406.436	116.94
406.66	126.94
406.883	141.94
407.107	133.94
407.331	116.94
407.555	124.94
407.778	119.94
408.002	112.94
408.226	126.94
408.449	117.94
408.673	128.94
408.896	118.94
409.12	133.94
409.344	126.94
409.567	125.94
409.791	118.94
410.014	124.94
410.238	130.94
410.461	132.94
410.685	129.94
410.908	122.94
411.132	118.94
411.355	135.94
411.578	130.94
411.802	126.94
412.025	125.94
412.249	132.94
412.472	128.94
412.695	137.94
412.919	124.94
413.142	132.94
413.365	129.94
413.589	124.94
413.812	125.94
414.035	124.94
414.258	119.94
414.482	134.94
414.705	148.94
414.928	125.94
415.151	121.94
415.374	133.94
415.597	115.94
415.821	126.94
416.044	137.94
416.267	118.94
416.49	141.94
416.713	135.94
416.936	116.94
417.159	125.94
417.382	130.94
417.605	139.94
417.828	115.94
418.051	121.94
418.274	135.94
418.497	137.94
418.72	136.94
418.943	135.94
419.166	146.94
419.389	148.94
419.611	149.94
419.834	140.94
420.057	140.94
420.28	146.94
420.503	144.94
420.726	153.94
420.948	135.94
421.171	158.94
421.394	144.94
421.617	141.94
421.839	148.94
422.062	145.94
422.285	143.94
422.507	143.94
422.73	125.94
422.953	126.94
423.175	142.94
423.398	141.94
423.621	136.94
423.843	134.94
424.066	148.94
424.288	140.94
424.511	163.94
424.733	147.94
424.956	156.94
425.178	155.94
425.401	136.94
425.623	147.94
425.846	148.94
426.068	123.94
426.291	130.94
426.513	137.94
426.735	144.94
426.958	138.94
427.18	136.94
427.402	126.94
427.625	138.94
427.847	139.94
428.069	142.94
428.292	131.94
428.514	125.94
428.736	132.94
428.958	129.94
429.181	145.94
429.403	146.94
429.625	132.94
429.847	134.94
430.069	128.94
430.292	139.94
430.514	120.94
430.736	135.94
430.958	137.94
431.18	122.94
431.402	128.94
431.624	120.94
431.846	116.94
432.068	109.94
432.29	85.94
432.512	96.94
432.734	124.94
432.956	138.94
433.178	138.94
433.4	154.94
433.622	156.94
433.844	131.94
434.066	111.94
434.287	125.94
434.509	101.94
434.731	112.94
434.953	116.94
435.175	129.94
435.397	128.94
435.618	106.94
435.84	135.94
436.062	120.94
436.284	142.94
436.505	132.94
436.727	128.94
436.949	147.94
437.17	112.94
437.392	120.94
437.614	113.94
437.835	102.94
438.057	101.94
438.278	109.94
438.5	131.94
438.721	141.94
438.943	147.94
439.165	144.94
439.386	163.94
439.608	152.94
439.829	157.94
440.05	155.94
440.272	150.94
440.493	153.94
440.715	146.94
440.936	161.94
441.158	147.94
441.379	161.94
441.6	169.94
441.822	164.94
442.043	150.94
442.264	151.94
442.486	153.94
442.707	147.94
442.928	146.94
443.149	137.94
443.371	155.94
443.592	144.94
443.813	154.94
444.034	133.94
444.255	144.94
444.476	150.94
444.698	156.94
444.919	151.94
445.14	284.94
445.361	209.94
445.582	158.94
445.803	138.94
446.024	163.94
446.245	169.94
446.466	162.94
446.687	160.94
446.908	170.94
447.129	168.94
447.35	164.94
447.571	156.94
447.792	138.94
448.013	160.94
448.234	147.94
448.455	154.94
448.675	150.94
448.896	148.94
449.117	140.94
449.338	139.94
449.559	141.94
449.779	144.94
450	146.94
450.221	142.94
450.442	139.94
450.662	125.94
450.883	145.94
451.104	147.94
451.324	138.94
451.545	138.94
451.766	141.94
451.986	145.94
452.207	136.94
452.428	136.94
452.648	140.94
452.869	124.94
453.089	131.94
453.31	104.94
453.53	107.94
453.751	112.94
453.971	108.94
454.192	120.94
454.412	108.94
454.633	114.94
454.853	130.94
455.073	129.94
455.294	133.94
455.514	125.94
455.734	116.94
455.955	116.94
456.175	112.94
456.395	114.94
456.616	135.94
456.836	120.94
457.056	122.94
457.276	130.94
457.497	116.94
457.717	112.94
457.937	123.94
458.157	114.94
458.377	105.94
458.598	101.94
458.818	99.94
459.038	101.94
459.258	89.94
459.478	93.94
459.698	93.94
459.918	109.94
460.138	93.94
460.358	116.94
460.578	124.94
460.798	122.94
461.018	110.94
461.238	124.94
461.458	118.94
461.678	121.94
461.898	122.94
462.118	124.94
462.338	112.94
462.558	105.94
462.777	120.94
462.997	107.94
463.217	116.94
463.437	115.94
463.657	102.94
463.876	113.94
464.096	117.94
464.316	118.94
464.536	121.94
464.755	124.94
464.975	112.94
465.195	116.94
465.414	138.94
465.634	132.94
465.854	125.94
466.073	138.94
466.293	141.94
466.512	118.94
466.732	138.94
466.951	132.94
467.171	128.94
467.391	142.94
467.61	152.94
467.829	137.94
468.049	148.94
468.268	125.94
468.488	141.94
468.707	140.94
468.927	152.94
469.146	143.94
469.365	166.94
469.585	149.94
469.804	150.94
470.023	151.94
470.243	149.94
470.462	147.94
470.681	133.94
470.901	161.94
471.12	136.94
471.339	146.94
471.558	144.94
471.777	133.94
471.997	142.94
472.216	143.94
472.435	123.94
472.654	125.94
472.873	100.94
473.092	128.94
473.311	119.94
473.53	132.94
473.749	132.94
473.968	131.94
474.187	133.94
474.406	141.94
474.625	137.94
474.844	131.94
475.063	130.94
475.282	134.94
475.501	116.94
475.72	130.94
475.939	140.94
476.158	140.94
476.377	134.94
476.596	130.94
476.814	139.94
477.033	124.94
477.252	125.94
477.471	134.94
477.69	144.94
477.908	133.94
478.127	136.94
478.346	140.94
478.564	141.94
478.783	130.94
479.002	139.94
479.22	148.94
479.439	136.94
479.658	128.94
479.876	128.94
480.095	105.94
480.313	126.94
480.532	119.94
480.751	118.94
480.969	104.94
481.188	86.94
481.406	105.94
481.624	91.94
481.843	95.94
482.061	100.94
482.28	104.94
482.498	125.94
482.717	114.94
482.935	124.94
483.153	153.94
483.372	154.94
483.59	158.94
483.808	148.94
484.027	139.94
484.245	146.94
484.463	154.94
484.681	176.94
484.9	158.94
485.118	132.94
485.336	126.94
485.554	128.94
485.772	116.94
485.99	112.94
486.209	102.94
486.427	117.94
486.645	121.94
486.863	145.94
487.081	162.94
487.299	135.94
487.517	143.94
487.735	176.94
487.953	190.94
488.171	189.94
488.389	178.94
488.607	166.94
488.825	160.94
489.043	135.94
489.261	142.94
489.479	149.94
489.696	144.94
489.914	145.94
490.132	149.94
490.35	161.94
490.568	164.94
490.786	181.94
491.003	189.94
491.221	192.94
491.439	198.94
491.657	193.94
491.874	232.94
492.092	221.94
492.31	246.94
492.527	238.94
492.745	219.94
492.963	196.94
493.18	204.94
493.398	190.94
493.615	186.94
493.833	198.94
494.05	188.94
494.268	179.94
494.485	165.94
494.703	168.94
494.92	169.94
495.138	174.94
495.355	178.94
495.573	185.94
495.79	186.94
496.008	183.94
496.225	186.94
496.442	187.94
496.66	169.94
496.877	184.94
497.094	166.94
497.312	178.94
497.529	152.94
497.746	152.94
497.963	148.94
498.181	134.94
498.398	129.94
498.615	131.94
498.832	118.94
499.049	116.94
499.267	134.94
499.484	134.94
499.701	133.94
499.918	133.94
500.135	141.94
500.352	140.94
500.569	149.94
500.786	143.94
501.003	147.94
501.22	154.94
501.437	137.94
501.654	147.94
501.871	161.94
502.088	152.94
502.305	132.94
502.522	132.94
502.739	126.94
502.956	132.94
503.172	123.94
503.389	125.94
503.606	122.94
503.823	136.94
504.04	127.94
504.256	125.94
504.473	127.94
504.69	125.94
504.907	130.94
505.123	115.94
505.34	136.94
505.557	133.94
505.773	130.94
505.99	128.94
506.207	120.94
506.423	124.94
506.64	130.94
506.856	128.94
507.073	125.94
507.289	114.94
507.506	119.94
507.722	142.94
507.939	121.94
508.155	125.94
508.372	122.94
508.588	114.94
508.805	126.94
509.021	115.94
509.238	117.94
509.454	111.94
509.67	105.94
509.887	112.94
510.103	116.94
510.319	83.94
510.536	92.94
510.752	92.94
510.968	83.94
511.184	91.94
511.401	87.94
511.617	89.94
511.833	99.94
512.049	94.94
512.265	91.94
512.481	93.94
512.698	96.94
512.914	100.94
513.13	101.94
513.346	97.94
513.562	102.94
513.778	86.94
513.994	91.94
514.21	96.94
514.426	84.94
514.642	99.94
514.858	108.94
515.074	103.94
515.29	97.94
515.506	101.94
515.721	83.94
515.937	97.94
516.153	94.94
516.369	109.94
516.585	89.94
516.801	97.94
517.016	104.94
517.232	98.94
517.448	89.94
517.664	94.94
517.879	107.94
518.095	99.94
518.311	94.94
518.527	88.94
518.742	100.94
518.958	103.94
519.173	114.94
519.389	124.94
519.605	116.94
519.82	103.94
520.036	117.94
520.251	108.94
520.467	112.94
520.682	114.94
520.898	104.94
521.113	91.94
521.329	103.94
521.544	94.94
521.76	101.94
521.975	96.94
522.19	80.94
522.406	89.94
522.621	84.94
522.836	106.94
523.052	115.94
523.267	106.94
523.482	109.94
523.698	121.94
523.913	122.94
524.128	116.94
524.343	122.94
524.559	127.94
524.774	137.94
524.989	124.94
525.204	130.94
525.419	114.94
525.634	124.94
525.849	121.94
526.064	120.94
526.28	118.94
526.495	94.94
526.71	92.94
526.925	90.94
527.14	86.94
527.355	84.94
527.57	78.94
527.785	94.94
527.999	99.94
528.214	119.94
528.429	107.94
528.644	124.94
528.859	139.94
529.074	154.94
529.289	164.94
529.503	162.94
529.718	138.94
529.933	128.94
530.148	98.94
530.363	112.94
530.577	89.94
530.792	66.94
531.007	90.94
531.221	87.94
531.436	86.94
531.651	85.94
531.865	93.94
532.08	94.94
532.295	103.94
532.509	83.94
532.724	89.94
532.938	87.94
533.153	120.94
533.367	107.94
533.582	120.94
533.796	140.94
534.011	111.94
534.225	106.94
534.44	100.94
534.654	104.94
534.868	99.94
535.083	85.94
535.297	97.94
535.511	117.94
535.726	106.94
535.94	116.94
536.154	101.94
536.369	80.94
536.583	93.94
536.797	97.94
537.011	92.94
537.225	85.94
537.44	76.94
537.654	93.94
537.868	88.94
538.082	102.94
538.296	89.94
538.51	104.94
538.724	112.94
538.938	128.94
539.153	125.94
539.367	127.94
539.581	114.94
539.795	97.94
540.009	97.94
540.222	101.94
540.436	107.94
540.65	130.94
540.864	138.94
541.078	134.94
541.292	151.94
541.506	166.94
541.72	178.94
541.934	201.94
542.147	209.94
542.361	179.94
542.575	164.94
542.789	165.94
543.002	144.94
543.216	135.94
543.43	123.94
543.644	147.94
543.857	149.94
544.071	162.94
544.285	162.94
544.498	172.94
544.712	177.94
544.925	154.94
545.139	160.94
545.352	167.94
545.566	166.94
545.779	164.94
545.993	164.94
546.206	161.94
546.42	180.94
546.633	179.94
546.847	176.94
547.06	189.94
547.274	179.94
547.487	186.94
547.7	189.94
547.914	168.94
548.127	174.94
548.34	159.94
548.554	165.94
548.767	167.94
548.98	162.94
549.193	156.94
549.407	175.94
549.62	157.94
549.833	158.94
550.046	143.94
550.259	165.94
550.473	171.94
550.686	156.94
550.899	169.94
551.112	156.94
551.325	136.94
551.538	140.94
551.751	134.94
551.964	130.94
552.177	132.94
552.39	140.94
552.603	136.94
552.816	154.94
553.029	149.94
553.242	161.94
553.455	166.94
553.667	160.94
553.88	153.94
554.093	148.94
554.306	148.94
554.519	158.94
554.732	154.94
554.944	153.94
555.157	148.94
555.37	149.94
555.583	152.94
555.795	144.94
556.008	146.94
556.221	135.94
556.433	138.94
556.646	136.94
556.859	154.94
557.071	140.94
557.284	139.94
557.496	161.94
557.709	151.94
557.921	149.94
558.134	143.94
558.346	155.94
558.559	159.94
558.771	138.94
558.984	133.94
559.196	126.94
559.409	144.94
559.621	150.94
559.833	132.94
560.046	140.94
560.258	132.94
560.47	150.94
560.683	135.94
560.895	127.94
561.107	140.94
561.32	127.94
561.532	138.94
561.744	133.94
561.956	157.94
562.168	130.94
562.381	113.94
562.593	129.94
562.805	140.94
563.017	130.94
563.229	125.94
563.441	148.94
563.653	126.94
563.865	140.94
564.077	136.94
564.289	117.94
564.501	120.94
564.713	123.94
564.925	128.94
565.137	133.94
565.349	130.94
565.561	125.94
565.773	118.94
565.985	117.94
566.197	116.94
566.408	116.94
566.62	106.94
566.832	109.94
567.044	120.94
567.255	120.94
567.467	105.94
567.679	112.94
567.891	103.94
568.102	121.94
568.314	99.94
568.526	104.94
568.737	84.94
568.949	81.94
569.161	90.94
569.372	91.94
569.584	92.94
569.795	89.94
570.007	83.94
570.218	96.94
570.43	96.94
570.641	94.94
570.853	97.94
571.064	117.94
571.276	78.94
571.487	110.94
571.698	105.94
571.91	117.94
572.121	104.94
572.333	112.94
572.544	111.94
572.755	94.94
572.966	101.94
573.178	77.94
573.389	79.94
573.6	85.94
573.811	78.94
574.023	88.94
574.234	83.94
574.445	87.94
574.656	85.94
574.867	93.94
575.078	102.94
575.289	94.94
575.501	92.94
575.712	89.94
575.923	82.94
576.134	90.94
576.345	102.94
576.556	102.94
576.767	104.94
576.978	109.94
577.188	106.94
577.399	91.94
577.61	101.94
577.821	98.94
578.032	109.94
578.243	87.94
578.454	98.94
578.665	86.94
578.875	99.94
579.086	83.94
579.297	86.94
579.508	81.94
579.718	79.94
579.929	98.94
580.14	94.94
580.35	90.94
580.561	101.94
580.772	89.94
580.982	100.94
581.193	96.94
581.403	97.94
581.614	90.94
581.825	90.94
582.035	97.94
582.246	106.94
582.456	96.94
582.667	101.94
582.877	115.94
583.087	87.94
583.298	94.94
583.508	83.94
583.719	79.94
583.929	86.94
584.139	97.94
584.35	84.94
584.56	82.94
584.77	93.94
584.981	95.94
585.191	79.94
585.401	82.94
585.611	85.94
585.821	92.94
586.032	97.94
586.242	87.94
586.452	99.94
586.662	86.94
586.872	88.94
587.082	92.94
587.292	93.94
587.502	88.94
587.713	85.94
587.923	85.94
588.133	88.94
588.343	75.94
588.553	93.94
588.762	74.94
588.972	96.94
589.182	72.94
589.392	77.94
589.602	86.94
589.812	70.94
590.022	97.94
590.232	83.94
590.441	75.94
590.651	88.94
590.861	98.94
591.071	91.94
591.281	82.94
591.49	94.94
591.7	79.94
591.91	87.94
592.119	101.94
592.329	99.94
592.539	84.94
592.748	98.94
592.958	86.94
593.167	96.94
593.377	78.94
593.587	97.94
593.796	88.94
594.006	79.94
594.215	88.94
594.424	97.94
594.634	90.94
594.843	96.94
595.053	106.94
595.262	97.94
595.472	100.94
595.681	94.94
595.89	84.94
596.1	96.94
596.309	92.94
596.518	98.94
596.727	91.94
596.937	105.94
597.146	97.94
597.355	83.94
597.564	90.94
597.774	90.94
597.983	96.94
598.192	95.94
598.401	101.94
598.61	78.94
598.819	100.94
599.028	99.94
599.237	94.94
599.446	93.94
599.655	98.94
599.864	99.94
600.073	90.94
600.282	99.94
600.491	96.94
600.7	79.94
600.909	108.94
601.118	106.94
601.327	92.94
601.536	100.94
601.745	113.94
601.953	112.94
602.162	102.94
602.371	103.94
602.58	105.94
602.789	115.94
602.997	101.94
603.206	112.94
603.415	116.94
603.623	101.94
603.832	120.94
604.041	96.94
604.249	94.94
604.458	100.94
604.666	105.94
604.875	109.94
605.084	98.94
605.292	113.94
605.501	122.94
605.709	109.94
605.918	112.94
606.126	120.94
606.334	108.94
606.543	108.94
606.751	109.94
606.96	120.94
607.168	132.94
607.376	106.94
607.585	101.94
607.793	101.94
608.001	121.94
608.21	123.94
608.418	116.94
608.626	112.94
608.834	123.94
609.043	125.94
609.251	127.94
609.459	126.94
609.667	121.94
609.875	124.94
610.083	113.94
610.291	110.94
610.499	123.94
610.707	125.94
610.916	106.94
611.124	116.94
611.332	123.94
611.54	116.94
611.748	124.94
611.955	121.94
612.163	119.94
612.371	118.94
612.579	114.94
612.787	119.94
612.995	118.94
613.203	107.94
613.411	120.94
613.618	105.94
613.826	122.94
614.034	121.94
614.242	128.94
614.449	114.94
614.657	105.94
614.865	117.94
615.072	102.94
615.28	120.94
615.488	132.94
615.695	127.94
615.903	126.94
616.111	106.94
616.318	119.94
616.526	114.94
616.733	124.94
616.941	119.94
617.148	125.94
617.356	108.94
617.563	116.94
617.771	116.94
617.978	121.94
618.185	122.94
618.393	124.94
618.6	117.94
618.807	120.94
619.015	120.94
619.222	117.94
619.429	117.94
619.637	102.94
619.844	98.94
620.051	106.94
620.258	97.94
620.466	108.94
620.673	106.94
620.88	100.94
621.087	98.94
621.294	96.94
621.501	110.94
621.708	104.94
621.915	104.94
622.122	118.94
622.329	105.94
622.536	112.94
622.743	120.94
622.95	109.94
623.157	103.94
623.364	119.94
623.571	107.94
623.778	118.94
623.985	117.94
624.192	99.94
624.399	116.94
624.606	100.94
624.812	98.94
625.019	95.94
625.226	94.94
625.433	114.94
625.639	111.94
625.846	90.94
626.053	92.94
626.259	89.94
626.466	100.94
626.673	97.94
626.879	80.94
627.086	98.94
627.293	95.94
627.499	119.94
627.706	98.94
627.912	116.94
628.119	98.94
628.325	118.94
628.532	109.94
628.738	123.94
628.945	108.94
629.151	88.94
629.357	113.94
629.564	115.94
629.77	97.94
629.976	93.94
630.183	101.94
630.389	105.94
630.595	111.94
630.802	106.94
631.008	96.94
631.214	106.94
631.42	105.94
631.627	100.94
631.833	117.94
632.039	114.94
632.245	105.94
632.451	124.94
632.657	97.94
632.863	87.94
633.069	100.94
633.275	103.94
633.481	106.94
633.688	107.94
633.893	99.94
634.099	109.94
634.305	109.94
634.511	115.94
634.717	93.94
634.923	92.94
635.129	95.94
635.335	96.94
635.541	99.94
635.747	90.94
635.952	88.94
636.158	109.94
636.364	94.94
636.57	120.94
636.775	99.94
636.981	94.94
637.187	100.94
637.392	101.94
637.598	85.94
637.804	121.94
638.009	99.94
638.215	106.94
638.421	108.94
638.626	101.94
638.832	96.94
639.037	94.94
639.243	116.94
639.448	96.94
639.654	99.94
639.859	98.94
640.065	106.94
640.27	109.94
640.475	110.94
640.681	101.94
640.886	109.94
641.091	104.94
641.297	109.94
641.502	109.94
641.707	110.94
641.913	113.94
642.118	119.94
642.323	107.94
642.528	85.94
642.733	107.94
642.939	116.94
643.144	103.94
643.349	105.94
643.554	113.94
643.759	99.94
643.964	105.94
644.169	113.94
644.374	105.94
644.579	89.94
644.784	104.94
644.989	100.94
645.194	94.94
645.399	107.94
645.604	105.94
645.809	87.94
646.014	93.94
646.219	107.94
646.423	99.94
646.628	108.94
646.833	104.94
647.038	103.94
647.243	87.94
647.447	94.94
647.652	96.94
647.857	88.94
648.062	91.94
648.266	104.94
648.471	98.94
648.676	112.94
648.88	100.94
649.085	97.94
649.289	84.94
649.494	93.94
649.698	99.94
649.903	96.94
650.107	115.94
650.312	89.94
650.516	102.94
650.721	109.94
650.925	106.94
651.13	101.94
651.334	107.94
651.539	94.94
651.743	90.94
651.947	110.94
652.152	116.94
652.356	112.94
652.56	92.94
652.764	92.94
652.969	88.94
653.173	86.94
653.377	95.94
653.581	92.94
653.785	96.94
653.99	91.94
654.194	112.94
654.398	97.94
654.602	91.94
654.806	101.94
655.01	80.94
655.214	77.94
655.418	92.94
655.622	92.94
655.826	106.94
656.03	97.94
656.234	99.94
656.438	93.94
656.642	85.94
656.846	104.94
657.049	88.94
657.253	89.94
657.457	93.94
657.661	85.94
657.865	69.94
658.068	90.94
658.272	87.94
658.476	82.94
658.68	91.94
658.883	92.94
659.087	96.94
659.291	80.94
659.494	92.94
659.698	83.94
659.901	96.94
660.105	84.94
660.309	80.94
660.512	82.94
660.716	95.94
660.919	73.94
661.123	81.94
661.326	95.94
661.53	85.94
661.733	80.94
661.936	71.94
662.14	104.94
662.343	93.94
662.546	88.94
662.75	87.94
662.953	92.94
663.156	81.94
663.36	76.94
663.563	84.94
663.766	84.94
663.969	83.94
664.173	67.94
664.376	77.94
664.579	88.94
664.782	83.94
664.985	84.94
665.188	84.94
665.391	96.94
665.594	91.94
665.797	79.94
666	79.94
666.203	81.94
666.406	80.94
666.609	79.94
666.812	86.94
667.015	71.94
667.218	81.94
667.421	85.94
667.624	96.94
667.827	82.94
668.03	72.94
668.232	71.94
668.435	85.94
668.638	88.94
668.841	81.94
669.043	79.94
669.246	90.94
669.449	82.94
669.651	89.94
669.854	78.94
670.057	80.94
670.259	74.94
670.462	75.94
670.665	80.94
670.867	88.94
671.07	92.94
671.272	93.94
671.475	81.94
671.677	73.94
671.88	82.94
672.082	78.94
672.284	95.94
672.487	86.94
672.689	71.94
672.892	73.94
