Data from Location6.07152019.Energy5.Lamp.07192019.3%Agarose_HRD10591_16-12-21-396.txt Node
Date: Fri Jul 19 16:12:21 EDT 2019
User: cochatt
Spectrometer: HR+D1059
Trigger mode: 1
Integration Time (sec): 1.000000E-1
Scans to average: 1
Electric dark correction enabled: true
Nonlinearity correction enabled: false
Boxcar width: 0
XAxis mode: Wavelengths
Number of Pixels in Spectrum: 2048
>>>>>Begin Spectral Data<<<<<
223.165	-20.5
223.4	-20.5
223.635	-20.5
223.869	-15.5
224.104	-14.5
224.338	-24.5
224.573	-15.5
224.808	-4.5
225.042	-12.5
225.277	-4.5
225.511	-12.5
225.746	8.5
225.98	25.5
226.215	8.5
226.449	13.5
226.683	23.5
226.918	19.5
227.152	25.5
227.387	22.5
227.621	24.5
227.856	42.5
228.09	47.5
228.324	47.5
228.559	54.5
228.793	69.5
229.027	62.5
229.262	59.5
229.496	68.5
229.73	54.5
229.964	80.5
230.199	71.5
230.433	73.5
230.667	75.5
230.901	64.5
231.136	73.5
231.37	84.5
231.604	79.5
231.838	81.5
232.072	86.5
232.306	79.5
232.541	84.5
232.775	77.5
233.009	81.5
233.243	83.5
233.477	80.5
233.711	83.5
233.945	76.5
234.179	97.5
234.413	71.5
234.647	71.5
234.881	74.5
235.115	76.5
235.349	81.5
235.583	91.5
235.817	69.5
236.051	74.5
236.285	78.5
236.519	63.5
236.753	81.5
236.987	80.5
237.221	82.5
237.455	77.5
237.689	75.5
237.922	89.5
238.156	83.5
238.39	75.5
238.624	80.5
238.858	64.5
239.091	78.5
239.325	76.5
239.559	68.5
239.793	81.5
240.027	73.5
240.26	74.5
240.494	92.5
240.728	84.5
240.961	86.5
241.195	86.5
241.429	79.5
241.662	89.5
241.896	72.5
242.13	87.5
242.363	74.5
242.597	88.5
242.83	80.5
243.064	61.5
243.298	84.5
243.531	84.5
243.765	79.5
243.998	64.5
244.232	75.5
244.465	81.5
244.699	67.5
244.932	74.5
245.166	73.5
245.399	69.5
245.633	92.5
245.866	69.5
246.099	77.5
246.333	84.5
246.566	77.5
246.8	82.5
247.033	84.5
247.266	68.5
247.5	66.5
247.733	74.5
247.966	79.5
248.2	87.5
248.433	82.5
248.666	73.5
248.899	76.5
249.133	74.5
249.366	89.5
249.599	84.5
249.832	72.5
250.066	81.5
250.299	79.5
250.532	79.5
250.765	74.5
250.998	76.5
251.231	78.5
251.465	82.5
251.698	103.5
251.931	71.5
252.164	85.5
252.397	70.5
252.63	85.5
252.863	78.5
253.096	75.5
253.329	77.5
253.562	75.5
253.795	71.5
254.028	86.5
254.261	72.5
254.494	84.5
254.727	74.5
254.96	81.5
255.193	75.5
255.426	95.5
255.659	67.5
255.892	73.5
256.124	89.5
256.357	73.5
256.59	83.5
256.823	79.5
257.056	81.5
257.289	86.5
257.521	71.5
257.754	71.5
257.987	82.5
258.22	74.5
258.452	80.5
258.685	88.5
258.918	87.5
259.151	68.5
259.383	92.5
259.616	84.5
259.849	81.5
260.081	83.5
260.314	90.5
260.547	80.5
260.779	75.5
261.012	74.5
261.244	68.5
261.477	81.5
261.71	86.5
261.942	83.5
262.175	81.5
262.407	103.5
262.64	80.5
262.872	85.5
263.105	85.5
263.337	75.5
263.57	87.5
263.802	70.5
264.035	83.5
264.267	76.5
264.499	74.5
264.732	86.5
264.964	86.5
265.197	82.5
265.429	84.5
265.661	81.5
265.894	82.5
266.126	86.5
266.358	77.5
266.591	89.5
266.823	75.5
267.055	79.5
267.287	83.5
267.52	80.5
267.752	79.5
267.984	75.5
268.216	71.5
268.448	87.5
268.681	85.5
268.913	83.5
269.145	80.5
269.377	80.5
269.609	76.5
269.841	71.5
270.073	86.5
270.306	86.5
270.538	69.5
270.77	77.5
271.002	92.5
271.234	87.5
271.466	96.5
271.698	90.5
271.93	78.5
272.162	81.5
272.394	81.5
272.626	101.5
272.858	80.5
273.09	95.5
273.322	88.5
273.553	82.5
273.785	75.5
274.017	85.5
274.249	86.5
274.481	82.5
274.713	89.5
274.945	84.5
275.176	82.5
275.408	89.5
275.64	75.5
275.872	79.5
276.104	93.5
276.335	73.5
276.567	75.5
276.799	77.5
277.031	79.5
277.262	86.5
277.494	69.5
277.726	76.5
277.957	76.5
278.189	96.5
278.421	83.5
278.652	83.5
278.884	76.5
279.115	83.5
279.347	81.5
279.579	72.5
279.81	87.5
280.042	103.5
280.273	89.5
280.505	88.5
280.736	85.5
280.968	93.5
281.199	87.5
281.431	83.5
281.662	85.5
281.894	82.5
282.125	92.5
282.356	84.5
282.588	90.5
282.819	93.5
283.051	85.5
283.282	78.5
283.513	78.5
283.745	87.5
283.976	91.5
284.207	86.5
284.439	77.5
284.67	93.5
284.901	84.5
285.132	91.5
285.364	74.5
285.595	91.5
285.826	77.5
286.057	74.5
286.288	88.5
286.52	89.5
286.751	90.5
286.982	82.5
287.213	74.5
287.444	92.5
287.675	75.5
287.906	72.5
288.138	80.5
288.369	93.5
288.6	81.5
288.831	75.5
289.062	90.5
289.293	86.5
289.524	72.5
289.755	76.5
289.986	97.5
290.217	89.5
290.448	72.5
290.679	97.5
290.91	87.5
291.141	82.5
291.371	83.5
291.602	75.5
291.833	82.5
292.064	82.5
292.295	91.5
292.526	82.5
292.757	82.5
292.987	81.5
293.218	73.5
293.449	98.5
293.68	95.5
293.91	84.5
294.141	85.5
294.372	96.5
294.603	83.5
294.833	75.5
295.064	92.5
295.295	81.5
295.525	92.5
295.756	79.5
295.987	78.5
296.217	80.5
296.448	90.5
296.679	76.5
296.909	102.5
297.14	84.5
297.37	85.5
297.601	88.5
297.831	78.5
298.062	81.5
298.292	82.5
298.523	81.5
298.753	85.5
298.984	92.5
299.214	73.5
299.445	78.5
299.675	77.5
299.905	74.5
300.136	84.5
300.366	82.5
300.597	83.5
300.827	89.5
301.057	88.5
301.288	90.5
301.518	86.5
301.748	75.5
301.979	84.5
302.209	74.5
302.439	91.5
302.669	93.5
302.9	94.5
303.13	73.5
303.36	79.5
303.59	95.5
303.82	82.5
304.051	86.5
304.281	76.5
304.511	96.5
304.741	86.5
304.971	89.5
305.201	87.5
305.431	98.5
305.661	74.5
305.891	84.5
306.121	79.5
306.352	90.5
306.582	89.5
306.812	76.5
307.042	83.5
307.272	94.5
307.502	83.5
307.731	91.5
307.961	87.5
308.191	90.5
308.421	81.5
308.651	89.5
308.881	72.5
309.111	87.5
309.341	87.5
309.571	77.5
309.8	79.5
310.03	82.5
310.26	84.5
310.49	90.5
310.72	82.5
310.949	73.5
311.179	72.5
311.409	75.5
311.639	72.5
311.868	80.5
312.098	83.5
312.328	73.5
312.557	83.5
312.787	81.5
313.017	91.5
313.246	78.5
313.476	68.5
313.706	73.5
313.935	78.5
314.165	82.5
314.394	91.5
314.624	84.5
314.853	93.5
315.083	78.5
315.312	88.5
315.542	95.5
315.771	95.5
316.001	85.5
316.23	76.5
316.46	81.5
316.689	80.5
316.919	82.5
317.148	83.5
317.377	84.5
317.607	84.5
317.836	80.5
318.065	90.5
318.295	83.5
318.524	90.5
318.753	91.5
318.983	86.5
319.212	81.5
319.441	84.5
319.67	91.5
319.9	85.5
320.129	83.5
320.358	100.5
320.587	91.5
320.816	96.5
321.046	79.5
321.275	84.5
321.504	76.5
321.733	89.5
321.962	74.5
322.191	86.5
322.42	86.5
322.649	88.5
322.878	80.5
323.108	86.5
323.337	77.5
323.566	80.5
323.795	82.5
324.024	84.5
324.253	72.5
324.482	77.5
324.71	85.5
324.939	87.5
325.168	87.5
325.397	74.5
325.626	95.5
325.855	74.5
326.084	85.5
326.313	93.5
326.542	89.5
326.77	74.5
326.999	75.5
327.228	78.5
327.457	93.5
327.686	81.5
327.914	90.5
328.143	95.5
328.372	87.5
328.6	75.5
328.829	97.5
329.058	90.5
329.287	91.5
329.515	93.5
329.744	85.5
329.972	95.5
330.201	80.5
330.43	73.5
330.658	86.5
330.887	91.5
331.115	94.5
331.344	80.5
331.572	88.5
331.801	73.5
332.03	76.5
332.258	95.5
332.486	69.5
332.715	98.5
332.943	75.5
333.172	83.5
333.4	76.5
333.629	85.5
333.857	88.5
334.085	76.5
334.314	88.5
334.542	97.5
334.771	79.5
334.999	79.5
335.227	75.5
335.455	94.5
335.684	105.5
335.912	87.5
336.14	86.5
336.369	85.5
336.597	69.5
336.825	72.5
337.053	88.5
337.281	83.5
337.51	89.5
337.738	68.5
337.966	102.5
338.194	79.5
338.422	95.5
338.65	82.5
338.878	88.5
339.106	89.5
339.334	92.5
339.562	85.5
339.79	73.5
340.018	72.5
340.246	73.5
340.474	83.5
340.702	86.5
340.93	86.5
341.158	82.5
341.386	93.5
341.614	94.5
341.842	94.5
342.07	86.5
342.298	80.5
342.526	89.5
342.754	90.5
342.981	95.5
343.209	96.5
343.437	97.5
343.665	84.5
343.893	82.5
344.12	71.5
344.348	85.5
344.576	82.5
344.804	86.5
345.031	95.5
345.259	73.5
345.487	82.5
345.714	84.5
345.942	112.5
346.17	98.5
346.397	73.5
346.625	80.5
346.853	73.5
347.08	81.5
347.308	83.5
347.535	84.5
347.763	89.5
347.99	82.5
348.218	79.5
348.445	91.5
348.673	81.5
348.9	76.5
349.128	79.5
349.355	76.5
349.583	81.5
349.81	96.5
350.037	88.5
350.265	67.5
350.492	86.5
350.72	65.5
350.947	84.5
351.174	90.5
351.402	92.5
351.629	79.5
351.856	80.5
352.083	79.5
352.311	85.5
352.538	87.5
352.765	97.5
352.992	87.5
353.22	95.5
353.447	90.5
353.674	83.5
353.901	85.5
354.128	82.5
354.355	83.5
354.583	82.5
354.81	95.5
355.037	88.5
355.264	88.5
355.491	75.5
355.718	76.5
355.945	96.5
356.172	97.5
356.399	93.5
356.626	86.5
356.853	76.5
357.08	74.5
357.307	82.5
357.534	91.5
357.761	108.5
357.988	95.5
358.215	91.5
358.441	88.5
358.668	83.5
358.895	74.5
359.122	76.5
359.349	77.5
359.576	68.5
359.802	80.5
360.029	81.5
360.256	90.5
360.483	85.5
360.709	78.5
360.936	75.5
361.163	79.5
361.39	81.5
361.616	68.5
361.843	84.5
362.07	84.5
362.296	75.5
362.523	91.5
362.749	90.5
362.976	81.5
363.203	93.5
363.429	77.5
363.656	85.5
363.882	87.5
364.109	85.5
364.335	92.5
364.562	77.5
364.788	78.5
365.015	90.5
365.241	79.5
365.468	72.5
365.694	82.5
365.92	85.5
366.147	76.5
366.373	82.5
366.599	93.5
366.826	94.5
367.052	80.5
367.278	83.5
367.505	87.5
367.731	74.5
367.957	95.5
368.184	78.5
368.41	79.5
368.636	87.5
368.862	83.5
369.089	108.5
369.315	80.5
369.541	93.5
369.767	92.5
369.993	92.5
370.219	89.5
370.445	100.5
370.672	76.5
370.898	85.5
371.124	80.5
371.35	86.5
371.576	77.5
371.802	86.5
372.028	102.5
372.254	95.5
372.48	91.5
372.706	90.5
372.932	89.5
373.158	85.5
373.384	93.5
373.61	96.5
373.835	92.5
374.061	91.5
374.287	92.5
374.513	80.5
374.739	97.5
374.965	101.5
375.191	76.5
375.416	96.5
375.642	98.5
375.868	101.5
376.094	99.5
376.319	81.5
376.545	94.5
376.771	89.5
376.997	93.5
377.222	83.5
377.448	103.5
377.674	86.5
377.899	100.5
378.125	86.5
378.35	107.5
378.576	92.5
378.802	92.5
379.027	98.5
379.253	105.5
379.478	103.5
379.704	89.5
379.929	96.5
380.155	99.5
380.38	90.5
380.606	105.5
380.831	99.5
381.057	98.5
381.282	104.5
381.507	85.5
381.733	85.5
381.958	91.5
382.184	100.5
382.409	103.5
382.634	91.5
382.86	95.5
383.085	106.5
383.31	120.5
383.535	96.5
383.761	96.5
383.986	92.5
384.211	90.5
384.436	101.5
384.662	94.5
384.887	91.5
385.112	88.5
385.337	93.5
385.562	96.5
385.787	95.5
386.013	88.5
386.238	117.5
386.463	115.5
386.688	103.5
386.913	100.5
387.138	113.5
387.363	109.5
387.588	121.5
387.813	96.5
388.038	83.5
388.263	83.5
388.488	93.5
388.713	115.5
388.938	106.5
389.163	87.5
389.387	98.5
389.612	102.5
389.837	98.5
390.062	91.5
390.287	101.5
390.512	99.5
390.736	102.5
390.961	105.5
391.186	109.5
391.411	114.5
391.636	108.5
391.86	105.5
392.085	111.5
392.31	112.5
392.534	105.5
392.759	111.5
392.984	85.5
393.208	91.5
393.433	107.5
393.658	91.5
393.882	105.5
394.107	104.5
394.331	92.5
394.556	100.5
394.78	106.5
395.005	104.5
395.229	104.5
395.454	121.5
395.678	127.5
395.903	111.5
396.127	111.5
396.352	108.5
396.576	115.5
396.801	108.5
397.025	104.5
397.249	113.5
397.474	106.5
397.698	113.5
397.922	118.5
398.147	102.5
398.371	111.5
398.595	113.5
398.82	116.5
399.044	103.5
399.268	113.5
399.492	103.5
399.717	116.5
399.941	123.5
400.165	116.5
400.389	105.5
400.613	104.5
400.837	117.5
401.062	108.5
401.286	112.5
401.51	121.5
401.734	119.5
401.958	112.5
402.182	101.5
402.406	104.5
402.63	123.5
402.854	106.5
403.078	101.5
403.302	117.5
403.526	119.5
403.75	118.5
403.974	114.5
404.198	117.5
404.422	110.5
404.645	116.5
404.869	112.5
405.093	123.5
405.317	105.5
405.541	113.5
405.765	111.5
405.988	111.5
406.212	129.5
406.436	121.5
406.66	126.5
406.883	109.5
407.107	132.5
407.331	131.5
407.555	132.5
407.778	120.5
408.002	114.5
408.226	107.5
408.449	131.5
408.673	110.5
408.896	117.5
409.12	122.5
409.344	141.5
409.567	132.5
409.791	121.5
410.014	123.5
410.238	124.5
410.461	126.5
410.685	125.5
410.908	141.5
411.132	133.5
411.355	118.5
411.578	128.5
411.802	126.5
412.025	123.5
412.249	131.5
412.472	118.5
412.695	118.5
412.919	121.5
413.142	116.5
413.365	133.5
413.589	121.5
413.812	131.5
414.035	129.5
414.258	119.5
414.482	112.5
414.705	118.5
414.928	123.5
415.151	119.5
415.374	125.5
415.597	136.5
415.821	127.5
416.044	132.5
416.267	127.5
416.49	123.5
416.713	130.5
416.936	129.5
417.159	123.5
417.382	129.5
417.605	139.5
417.828	140.5
418.051	143.5
418.274	123.5
418.497	125.5
418.72	130.5
418.943	133.5
419.166	129.5
419.389	135.5
419.611	132.5
419.834	158.5
420.057	146.5
420.28	136.5
420.503	127.5
420.726	133.5
420.948	135.5
421.171	133.5
421.394	132.5
421.617	143.5
421.839	139.5
422.062	149.5
422.285	131.5
422.507	130.5
422.73	121.5
422.953	131.5
423.175	133.5
423.398	139.5
423.621	144.5
423.843	143.5
424.066	134.5
424.288	147.5
424.511	139.5
424.733	143.5
424.956	149.5
425.178	142.5
425.401	129.5
425.623	130.5
425.846	145.5
426.068	135.5
426.291	133.5
426.513	138.5
426.735	137.5
426.958	130.5
427.18	129.5
427.402	127.5
427.625	136.5
427.847	134.5
428.069	125.5
428.292	131.5
428.514	127.5
428.736	136.5
428.958	127.5
429.181	136.5
429.403	129.5
429.625	127.5
429.847	133.5
430.069	139.5
430.292	142.5
430.514	134.5
430.736	134.5
430.958	127.5
431.18	132.5
431.402	121.5
431.624	137.5
431.846	120.5
432.068	95.5
432.29	106.5
432.512	123.5
432.734	127.5
432.956	142.5
433.178	147.5
433.4	144.5
433.622	144.5
433.844	135.5
434.066	127.5
434.287	118.5
434.509	107.5
434.731	99.5
434.953	114.5
435.175	131.5
435.397	137.5
435.618	112.5
435.84	112.5
436.062	115.5
436.284	131.5
436.505	133.5
436.727	123.5
436.949	125.5
437.17	136.5
437.392	131.5
437.614	134.5
437.835	117.5
438.057	104.5
438.278	129.5
438.5	135.5
438.721	143.5
438.943	134.5
439.165	133.5
439.386	144.5
439.608	143.5
439.829	155.5
440.05	150.5
440.272	135.5
440.493	159.5
440.715	162.5
440.936	142.5
441.158	150.5
441.379	156.5
441.6	161.5
441.822	151.5
442.043	150.5
442.264	142.5
442.486	143.5
442.707	141.5
442.928	142.5
443.149	140.5
443.371	153.5
443.592	150.5
443.813	145.5
444.034	142.5
444.255	146.5
444.476	147.5
444.698	140.5
444.919	145.5
445.14	280.5
445.361	217.5
445.582	159.5
445.803	160.5
446.024	152.5
446.245	140.5
446.466	169.5
446.687	170.5
446.908	164.5
447.129	166.5
447.35	159.5
447.571	151.5
447.792	155.5
448.013	148.5
448.234	153.5
448.455	158.5
448.675	149.5
448.896	141.5
449.117	125.5
449.338	141.5
449.559	140.5
449.779	153.5
450	135.5
450.221	152.5
450.442	135.5
450.662	131.5
450.883	132.5
451.104	138.5
451.324	140.5
451.545	130.5
451.766	143.5
451.986	124.5
452.207	146.5
452.428	118.5
452.648	121.5
452.869	127.5
453.089	131.5
453.31	112.5
453.53	101.5
453.751	117.5
453.971	98.5
454.192	100.5
454.412	87.5
454.633	131.5
454.853	115.5
455.073	124.5
455.294	117.5
455.514	126.5
455.734	113.5
455.955	112.5
456.175	117.5
456.395	114.5
456.616	113.5
456.836	120.5
457.056	109.5
457.276	117.5
457.497	97.5
457.717	119.5
457.937	112.5
458.157	115.5
458.377	114.5
458.598	100.5
458.818	93.5
459.038	89.5
459.258	68.5
459.478	100.5
459.698	88.5
459.918	97.5
460.138	118.5
460.358	106.5
460.578	116.5
460.798	142.5
461.018	113.5
461.238	123.5
461.458	117.5
461.678	123.5
461.898	139.5
462.118	125.5
462.338	113.5
462.558	116.5
462.777	112.5
462.997	115.5
463.217	112.5
463.437	102.5
463.657	119.5
463.876	122.5
464.096	104.5
464.316	118.5
464.536	114.5
464.755	112.5
464.975	124.5
465.195	118.5
465.414	103.5
465.634	113.5
465.854	127.5
466.073	123.5
466.293	136.5
466.512	120.5
466.732	125.5
466.951	144.5
467.171	134.5
467.391	136.5
467.61	152.5
467.829	136.5
468.049	124.5
468.268	142.5
468.488	138.5
468.707	131.5
468.927	141.5
469.146	144.5
469.365	131.5
469.585	146.5
469.804	155.5
470.023	152.5
470.243	160.5
470.462	145.5
470.681	146.5
470.901	134.5
471.12	143.5
471.339	151.5
471.558	160.5
471.777	154.5
471.997	129.5
472.216	131.5
472.435	129.5
472.654	127.5
472.873	124.5
473.092	135.5
473.311	127.5
473.53	137.5
473.749	124.5
473.968	135.5
474.187	132.5
474.406	120.5
474.625	135.5
474.844	129.5
475.063	139.5
475.282	129.5
475.501	123.5
475.72	137.5
475.939	123.5
476.158	129.5
476.377	141.5
476.596	141.5
476.814	121.5
477.033	119.5
477.252	113.5
477.471	137.5
477.69	133.5
477.908	141.5
478.127	142.5
478.346	127.5
478.564	132.5
478.783	128.5
479.002	128.5
479.22	125.5
479.439	137.5
479.658	122.5
479.876	107.5
480.095	111.5
480.313	121.5
480.532	109.5
480.751	113.5
480.969	103.5
481.188	93.5
481.406	79.5
481.624	89.5
481.843	88.5
482.061	100.5
482.28	115.5
482.498	116.5
482.717	116.5
482.935	129.5
483.153	149.5
483.372	168.5
483.59	165.5
483.808	134.5
484.027	152.5
484.245	145.5
484.463	172.5
484.681	164.5
484.9	155.5
485.118	147.5
485.336	122.5
485.554	124.5
485.772	114.5
485.99	86.5
486.209	111.5
486.427	124.5
486.645	130.5
486.863	140.5
487.081	151.5
487.299	131.5
487.517	158.5
487.735	178.5
487.953	199.5
488.171	208.5
488.389	183.5
488.607	149.5
488.825	151.5
489.043	130.5
489.261	145.5
489.479	149.5
489.696	144.5
489.914	135.5
490.132	152.5
490.35	163.5
490.568	167.5
490.786	179.5
491.003	193.5
491.221	204.5
491.439	188.5
491.657	197.5
491.874	202.5
492.092	240.5
492.31	275.5
492.527	266.5
492.745	227.5
492.963	191.5
493.18	202.5
493.398	184.5
493.615	192.5
493.833	192.5
494.05	183.5
494.268	175.5
494.485	170.5
494.703	181.5
494.92	174.5
495.138	171.5
495.355	184.5
495.573	177.5
495.79	191.5
496.008	176.5
496.225	160.5
496.442	184.5
496.66	178.5
496.877	192.5
497.094	168.5
497.312	164.5
497.529	159.5
497.746	153.5
497.963	129.5
498.181	141.5
498.398	124.5
498.615	116.5
498.832	128.5
499.049	118.5
499.267	129.5
499.484	117.5
499.701	127.5
499.918	132.5
500.135	135.5
500.352	168.5
500.569	155.5
500.786	150.5
501.003	140.5
501.22	148.5
501.437	142.5
501.654	144.5
501.871	139.5
502.088	123.5
502.305	145.5
502.522	129.5
502.739	129.5
502.956	131.5
503.172	131.5
503.389	142.5
503.606	119.5
503.823	119.5
504.04	123.5
504.256	129.5
504.473	141.5
504.69	123.5
504.907	133.5
505.123	129.5
505.34	135.5
505.557	128.5
505.773	132.5
505.99	127.5
506.207	108.5
506.423	121.5
506.64	119.5
506.856	130.5
507.073	123.5
507.289	120.5
507.506	138.5
507.722	116.5
507.939	117.5
508.155	120.5
508.372	122.5
508.588	122.5
508.805	112.5
509.021	117.5
509.238	112.5
509.454	103.5
509.67	107.5
509.887	102.5
510.103	105.5
510.319	101.5
510.536	92.5
510.752	85.5
510.968	89.5
511.184	94.5
511.401	71.5
511.617	96.5
511.833	91.5
512.049	84.5
512.265	95.5
512.481	90.5
512.698	95.5
512.914	103.5
513.13	98.5
513.346	99.5
513.562	100.5
513.778	87.5
513.994	83.5
514.21	93.5
514.426	82.5
514.642	78.5
514.858	90.5
515.074	103.5
515.29	100.5
515.506	89.5
515.721	90.5
515.937	94.5
516.153	90.5
516.369	79.5
516.585	85.5
516.801	82.5
517.016	90.5
517.232	80.5
517.448	89.5
517.664	86.5
517.879	96.5
518.095	97.5
518.311	95.5
518.527	100.5
518.742	97.5
518.958	89.5
519.173	113.5
519.389	115.5
519.605	114.5
519.82	98.5
520.036	114.5
520.251	93.5
520.467	103.5
520.682	113.5
520.898	95.5
521.113	78.5
521.329	98.5
521.544	94.5
521.76	93.5
521.975	94.5
522.19	101.5
522.406	97.5
522.621	103.5
522.836	108.5
523.052	105.5
523.267	118.5
523.482	116.5
523.698	106.5
523.913	137.5
524.128	123.5
524.343	125.5
524.559	102.5
524.774	111.5
524.989	117.5
525.204	121.5
525.419	136.5
525.634	115.5
525.849	126.5
526.064	111.5
526.28	117.5
526.495	106.5
526.71	90.5
526.925	88.5
527.14	95.5
527.355	85.5
527.57	77.5
527.785	82.5
527.999	92.5
528.214	106.5
528.429	115.5
528.644	139.5
528.859	141.5
529.074	147.5
529.289	167.5
529.503	154.5
529.718	136.5
529.933	124.5
530.148	118.5
530.363	91.5
530.577	84.5
530.792	77.5
531.007	71.5
531.221	79.5
531.436	90.5
531.651	92.5
531.865	74.5
532.08	86.5
532.295	96.5
532.509	93.5
532.724	85.5
532.938	95.5
533.153	109.5
533.367	115.5
533.582	125.5
533.796	125.5
534.011	124.5
534.225	103.5
534.44	98.5
534.654	97.5
534.868	98.5
535.083	97.5
535.297	104.5
535.511	116.5
535.726	106.5
535.94	113.5
536.154	106.5
536.369	105.5
536.583	87.5
536.797	80.5
537.011	81.5
537.225	92.5
537.44	82.5
537.654	93.5
537.868	85.5
538.082	88.5
538.296	101.5
538.51	104.5
538.724	115.5
538.938	140.5
539.153	122.5
539.367	121.5
539.581	124.5
539.795	103.5
540.009	94.5
540.222	110.5
540.436	118.5
540.65	109.5
540.864	139.5
541.078	141.5
541.292	153.5
541.506	165.5
541.72	192.5
541.934	192.5
542.147	208.5
542.361	205.5
542.575	183.5
542.789	157.5
543.002	126.5
543.216	128.5
543.43	118.5
543.644	152.5
543.857	162.5
544.071	169.5
544.285	162.5
544.498	159.5
544.712	170.5
544.925	156.5
545.139	166.5
545.352	163.5
545.566	155.5
545.779	168.5
545.993	164.5
546.206	184.5
546.42	163.5
546.633	163.5
546.847	169.5
547.06	172.5
547.274	187.5
547.487	196.5
547.7	194.5
547.914	157.5
548.127	167.5
548.34	162.5
548.554	168.5
548.767	151.5
548.98	170.5
549.193	159.5
549.407	162.5
549.62	165.5
549.833	156.5
550.046	164.5
550.259	176.5
550.473	157.5
550.686	155.5
550.899	156.5
551.112	146.5
551.325	148.5
551.538	130.5
551.751	122.5
551.964	121.5
552.177	133.5
552.39	135.5
552.603	162.5
552.816	154.5
553.029	180.5
553.242	164.5
553.455	173.5
553.667	163.5
553.88	169.5
554.093	156.5
554.306	150.5
554.519	163.5
554.732	155.5
554.944	150.5
555.157	150.5
555.37	153.5
555.583	146.5
555.795	151.5
556.008	139.5
556.221	135.5
556.433	121.5
556.646	148.5
556.859	125.5
557.071	140.5
557.284	147.5
557.496	140.5
557.709	151.5
557.921	139.5
558.134	145.5
558.346	155.5
558.559	148.5
558.771	122.5
558.984	141.5
559.196	132.5
559.409	134.5
559.621	137.5
559.833	128.5
560.046	131.5
560.258	141.5
560.47	137.5
560.683	122.5
560.895	145.5
561.107	149.5
561.32	137.5
561.532	143.5
561.744	133.5
561.956	137.5
562.168	129.5
562.381	135.5
562.593	138.5
562.805	148.5
563.017	135.5
563.229	139.5
563.441	135.5
563.653	134.5
563.865	136.5
564.077	130.5
564.289	129.5
564.501	131.5
564.713	121.5
564.925	125.5
565.137	125.5
565.349	112.5
565.561	127.5
565.773	115.5
565.985	117.5
566.197	128.5
566.408	125.5
566.62	116.5
566.832	124.5
567.044	132.5
567.255	118.5
567.467	124.5
567.679	114.5
567.891	104.5
568.102	103.5
568.314	108.5
568.526	98.5
568.737	94.5
568.949	81.5
569.161	83.5
569.372	81.5
569.584	87.5
569.795	94.5
570.007	84.5
570.218	82.5
570.43	94.5
570.641	98.5
570.853	110.5
571.064	102.5
571.276	114.5
571.487	120.5
571.698	98.5
571.91	113.5
572.121	100.5
572.333	95.5
572.544	92.5
572.755	103.5
572.966	92.5
573.178	93.5
573.389	90.5
573.6	91.5
573.811	91.5
574.023	73.5
574.234	83.5
574.445	111.5
574.656	80.5
574.867	102.5
575.078	104.5
575.289	93.5
575.501	96.5
575.712	106.5
575.923	98.5
576.134	92.5
576.345	98.5
576.556	91.5
576.767	99.5
576.978	117.5
577.188	104.5
577.399	81.5
577.61	97.5
577.821	96.5
578.032	92.5
578.243	79.5
578.454	103.5
578.665	96.5
578.875	106.5
579.086	75.5
579.297	89.5
579.508	84.5
579.718	77.5
579.929	79.5
580.14	76.5
580.35	92.5
580.561	88.5
580.772	90.5
580.982	97.5
581.193	101.5
581.403	92.5
581.614	103.5
581.825	96.5
582.035	94.5
582.246	97.5
582.456	86.5
582.667	82.5
582.877	88.5
583.087	103.5
583.298	89.5
583.508	89.5
583.719	90.5
583.929	90.5
584.139	79.5
584.35	78.5
584.56	92.5
584.77	91.5
584.981	93.5
585.191	84.5
585.401	96.5
585.611	96.5
585.821	85.5
586.032	71.5
586.242	96.5
586.452	100.5
586.662	75.5
586.872	85.5
587.082	85.5
587.292	74.5
587.502	70.5
587.713	87.5
587.923	90.5
588.133	91.5
588.343	87.5
588.553	69.5
588.762	81.5
588.972	74.5
589.182	80.5
589.392	87.5
589.602	81.5
589.812	83.5
590.022	78.5
590.232	93.5
590.441	74.5
590.651	84.5
590.861	98.5
591.071	98.5
591.281	84.5
591.49	74.5
591.7	80.5
591.91	83.5
592.119	75.5
592.329	86.5
592.539	79.5
592.748	85.5
592.958	71.5
593.167	91.5
593.377	91.5
593.587	88.5
593.796	85.5
594.006	78.5
594.215	84.5
594.424	88.5
594.634	93.5
594.843	84.5
595.053	95.5
595.262	82.5
595.472	86.5
595.681	102.5
595.89	80.5
596.1	71.5
596.309	91.5
596.518	95.5
596.727	100.5
596.937	88.5
597.146	103.5
597.355	98.5
597.564	90.5
597.774	93.5
597.983	96.5
598.192	84.5
598.401	84.5
598.61	94.5
598.819	88.5
599.028	91.5
599.237	83.5
599.446	99.5
599.655	101.5
599.864	94.5
600.073	92.5
600.282	94.5
600.491	100.5
600.7	95.5
600.909	98.5
601.118	97.5
601.327	96.5
601.536	114.5
601.745	117.5
601.953	113.5
602.162	119.5
602.371	102.5
602.58	105.5
602.789	107.5
602.997	96.5
603.206	118.5
603.415	111.5
603.623	105.5
603.832	119.5
604.041	112.5
604.249	99.5
604.458	95.5
604.666	101.5
604.875	103.5
605.084	98.5
605.292	112.5
605.501	119.5
605.709	137.5
605.918	113.5
606.126	100.5
606.334	109.5
606.543	132.5
606.751	121.5
606.96	120.5
607.168	107.5
607.376	111.5
607.585	132.5
607.793	117.5
608.001	110.5
608.21	123.5
608.418	115.5
608.626	121.5
608.834	127.5
609.043	119.5
609.251	117.5
609.459	111.5
609.667	123.5
609.875	109.5
610.083	113.5
610.291	114.5
610.499	106.5
610.707	105.5
610.916	111.5
611.124	117.5
611.332	120.5
611.54	111.5
611.748	121.5
611.955	121.5
612.163	134.5
612.371	120.5
612.579	105.5
612.787	107.5
612.995	125.5
613.203	123.5
613.411	102.5
613.618	127.5
613.826	114.5
614.034	132.5
614.242	117.5
614.449	125.5
614.657	122.5
614.865	107.5
615.072	121.5
615.28	115.5
615.488	121.5
615.695	117.5
615.903	114.5
616.111	116.5
616.318	107.5
616.526	116.5
616.733	100.5
616.941	108.5
617.148	110.5
617.356	112.5
617.563	112.5
617.771	111.5
617.978	116.5
618.185	103.5
618.393	109.5
618.6	100.5
618.807	109.5
619.015	123.5
619.222	98.5
619.429	108.5
619.637	106.5
619.844	104.5
620.051	98.5
620.258	90.5
620.466	109.5
620.673	113.5
620.88	118.5
621.087	119.5
621.294	104.5
621.501	105.5
621.708	95.5
621.915	111.5
622.122	119.5
622.329	119.5
622.536	104.5
622.743	96.5
622.95	108.5
623.157	125.5
623.364	108.5
623.571	113.5
623.778	106.5
623.985	106.5
624.192	102.5
624.399	114.5
624.606	113.5
624.812	111.5
625.019	116.5
625.226	107.5
625.433	97.5
625.639	102.5
625.846	97.5
626.053	104.5
626.259	90.5
626.466	109.5
626.673	93.5
626.879	85.5
627.086	92.5
627.293	117.5
627.499	88.5
627.706	98.5
627.912	125.5
628.119	91.5
628.325	123.5
628.532	107.5
628.738	111.5
628.945	115.5
629.151	119.5
629.357	99.5
629.564	116.5
629.77	105.5
629.976	111.5
630.183	105.5
630.389	115.5
630.595	89.5
630.802	112.5
631.008	101.5
631.214	112.5
631.42	109.5
631.627	101.5
631.833	110.5
632.039	102.5
632.245	105.5
632.451	101.5
632.657	98.5
632.863	101.5
633.069	108.5
633.275	110.5
633.481	90.5
633.688	96.5
633.893	107.5
634.099	104.5
634.305	94.5
634.511	103.5
634.717	93.5
634.923	102.5
635.129	95.5
635.335	97.5
635.541	100.5
635.747	97.5
635.952	98.5
636.158	100.5
636.364	111.5
636.57	95.5
636.775	113.5
636.981	104.5
637.187	114.5
637.392	93.5
637.598	102.5
637.804	112.5
638.009	101.5
638.215	96.5
638.421	99.5
638.626	102.5
638.832	95.5
639.037	98.5
639.243	108.5
639.448	80.5
639.654	119.5
639.859	93.5
640.065	104.5
640.27	98.5
640.475	86.5
640.681	96.5
640.886	97.5
641.091	81.5
641.297	109.5
641.502	109.5
641.707	97.5
641.913	109.5
642.118	117.5
642.323	98.5
642.528	104.5
642.733	97.5
642.939	104.5
643.144	92.5
643.349	99.5
643.554	96.5
643.759	102.5
643.964	106.5
644.169	113.5
644.374	101.5
644.579	111.5
644.784	104.5
644.989	109.5
645.194	99.5
645.399	111.5
645.604	114.5
645.809	102.5
646.014	99.5
646.219	106.5
646.423	95.5
646.628	84.5
646.833	104.5
647.038	108.5
647.243	95.5
647.447	106.5
647.652	97.5
647.857	109.5
648.062	114.5
648.266	106.5
648.471	100.5
648.676	104.5
648.88	107.5
649.085	118.5
649.289	100.5
649.494	97.5
649.698	91.5
649.903	94.5
650.107	103.5
650.312	96.5
650.516	115.5
650.721	103.5
650.925	93.5
651.13	89.5
651.334	89.5
651.539	91.5
651.743	93.5
651.947	92.5
652.152	96.5
652.356	111.5
652.56	99.5
652.764	110.5
652.969	99.5
653.173	97.5
653.377	96.5
653.581	101.5
653.785	100.5
653.99	91.5
654.194	99.5
654.398	96.5
654.602	91.5
654.806	83.5
655.01	106.5
655.214	92.5
655.418	92.5
655.622	91.5
655.826	95.5
656.03	89.5
656.234	94.5
656.438	88.5
656.642	93.5
656.846	100.5
657.049	83.5
657.253	103.5
657.457	84.5
657.661	96.5
657.865	81.5
658.068	77.5
658.272	86.5
658.476	75.5
658.68	100.5
658.883	93.5
659.087	83.5
659.291	86.5
659.494	80.5
659.698	81.5
659.901	77.5
660.105	88.5
660.309	85.5
660.512	97.5
660.716	95.5
660.919	93.5
661.123	82.5
661.326	85.5
661.53	85.5
661.733	81.5
661.936	82.5
662.14	83.5
662.343	76.5
662.546	90.5
662.75	84.5
662.953	97.5
663.156	85.5
663.36	94.5
663.563	77.5
663.766	89.5
663.969	76.5
664.173	87.5
664.376	76.5
664.579	78.5
664.782	78.5
664.985	82.5
665.188	85.5
665.391	79.5
665.594	82.5
665.797	82.5
666	91.5
666.203	70.5
666.406	57.5
666.609	83.5
666.812	91.5
667.015	87.5
667.218	76.5
667.421	84.5
667.624	70.5
667.827	90.5
668.03	66.5
668.232	77.5
668.435	71.5
668.638	85.5
668.841	84.5
669.043	90.5
669.246	76.5
669.449	78.5
669.651	73.5
669.854	97.5
670.057	85.5
670.259	86.5
670.462	81.5
670.665	82.5
670.867	77.5
671.07	87.5
671.272	80.5
671.475	70.5
671.677	90.5
671.88	99.5
672.082	87.5
672.284	90.5
672.487	84.5
672.689	78.5
672.892	72.5
