Data from Location6.07152019.Energy5.Lamp.07192019.3%Agarose_HRD10591_16-13-19-395.txt Node
Date: Fri Jul 19 16:13:19 EDT 2019
User: cochatt
Spectrometer: HR+D1059
Trigger mode: 1
Integration Time (sec): 1.000000E-1
Scans to average: 1
Electric dark correction enabled: true
Nonlinearity correction enabled: false
Boxcar width: 0
XAxis mode: Wavelengths
Number of Pixels in Spectrum: 2048
>>>>>Begin Spectral Data<<<<<
223.165	-6.44
223.4	-6.44
223.635	-6.44
223.869	-12.44
224.104	-15.44
224.338	-11.44
224.573	-16.44
224.808	-17.44
225.042	-15.44
225.277	-9.44
225.511	2.56
225.746	-13.44
225.98	13.56
226.215	8.56
226.449	17.56
226.683	20.56
226.918	30.56
227.152	24.56
227.387	46.56
227.621	18.56
227.856	26.56
228.09	35.56
228.324	62.56
228.559	58.56
228.793	39.56
229.027	63.56
229.262	56.56
229.496	62.56
229.73	64.56
229.964	67.56
230.199	62.56
230.433	77.56
230.667	73.56
230.901	75.56
231.136	82.56
231.37	79.56
231.604	84.56
231.838	80.56
232.072	70.56
232.306	80.56
232.541	87.56
232.775	64.56
233.009	83.56
233.243	70.56
233.477	67.56
233.711	89.56
233.945	82.56
234.179	95.56
234.413	65.56
234.647	78.56
234.881	81.56
235.115	69.56
235.349	69.56
235.583	73.56
235.817	78.56
236.051	64.56
236.285	58.56
236.519	84.56
236.753	73.56
236.987	61.56
237.221	64.56
237.455	80.56
237.689	74.56
237.922	80.56
238.156	76.56
238.39	68.56
238.624	73.56
238.858	82.56
239.091	71.56
239.325	89.56
239.559	71.56
239.793	80.56
240.027	84.56
240.26	72.56
240.494	70.56
240.728	81.56
240.961	69.56
241.195	76.56
241.429	69.56
241.662	63.56
241.896	81.56
242.13	70.56
242.363	65.56
242.597	86.56
242.83	76.56
243.064	73.56
243.298	72.56
243.531	79.56
243.765	63.56
243.998	72.56
244.232	82.56
244.465	76.56
244.699	74.56
244.932	73.56
245.166	70.56
245.399	63.56
245.633	77.56
245.866	71.56
246.099	78.56
246.333	66.56
246.566	82.56
246.8	77.56
247.033	63.56
247.266	76.56
247.5	73.56
247.733	83.56
247.966	77.56
248.2	69.56
248.433	71.56
248.666	80.56
248.899	78.56
249.133	71.56
249.366	98.56
249.599	84.56
249.832	82.56
250.066	77.56
250.299	78.56
250.532	77.56
250.765	71.56
250.998	70.56
251.231	80.56
251.465	89.56
251.698	80.56
251.931	81.56
252.164	78.56
252.397	89.56
252.63	93.56
252.863	80.56
253.096	78.56
253.329	81.56
253.562	96.56
253.795	89.56
254.028	80.56
254.261	68.56
254.494	69.56
254.727	85.56
254.96	78.56
255.193	72.56
255.426	93.56
255.659	74.56
255.892	98.56
256.124	70.56
256.357	79.56
256.59	75.56
256.823	65.56
257.056	70.56
257.289	75.56
257.521	89.56
257.754	78.56
257.987	83.56
258.22	67.56
258.452	78.56
258.685	70.56
258.918	71.56
259.151	83.56
259.383	86.56
259.616	81.56
259.849	89.56
260.081	95.56
260.314	73.56
260.547	74.56
260.779	89.56
261.012	69.56
261.244	79.56
261.477	67.56
261.71	79.56
261.942	87.56
262.175	86.56
262.407	73.56
262.64	64.56
262.872	64.56
263.105	68.56
263.337	76.56
263.57	76.56
263.802	75.56
264.035	88.56
264.267	80.56
264.499	77.56
264.732	67.56
264.964	73.56
265.197	62.56
265.429	89.56
265.661	96.56
265.894	82.56
266.126	96.56
266.358	74.56
266.591	65.56
266.823	61.56
267.055	70.56
267.287	82.56
267.52	78.56
267.752	83.56
267.984	71.56
268.216	78.56
268.448	74.56
268.681	88.56
268.913	69.56
269.145	69.56
269.377	79.56
269.609	82.56
269.841	75.56
270.073	75.56
270.306	86.56
270.538	81.56
270.77	67.56
271.002	82.56
271.234	85.56
271.466	78.56
271.698	71.56
271.93	80.56
272.162	87.56
272.394	86.56
272.626	76.56
272.858	75.56
273.09	81.56
273.322	81.56
273.553	69.56
273.785	78.56
274.017	74.56
274.249	76.56
274.481	73.56
274.713	82.56
274.945	82.56
275.176	74.56
275.408	83.56
275.64	70.56
275.872	72.56
276.104	88.56
276.335	83.56
276.567	73.56
276.799	92.56
277.031	85.56
277.262	85.56
277.494	77.56
277.726	80.56
277.957	74.56
278.189	92.56
278.421	66.56
278.652	72.56
278.884	78.56
279.115	91.56
279.347	75.56
279.579	70.56
279.81	71.56
280.042	71.56
280.273	84.56
280.505	81.56
280.736	77.56
280.968	82.56
281.199	84.56
281.431	65.56
281.662	80.56
281.894	76.56
282.125	92.56
282.356	88.56
282.588	80.56
282.819	86.56
283.051	90.56
283.282	68.56
283.513	81.56
283.745	73.56
283.976	88.56
284.207	83.56
284.439	70.56
284.67	85.56
284.901	79.56
285.132	80.56
285.364	84.56
285.595	64.56
285.826	84.56
286.057	80.56
286.288	72.56
286.52	74.56
286.751	89.56
286.982	67.56
287.213	78.56
287.444	93.56
287.675	80.56
287.906	92.56
288.138	89.56
288.369	88.56
288.6	78.56
288.831	88.56
289.062	73.56
289.293	84.56
289.524	76.56
289.755	77.56
289.986	81.56
290.217	76.56
290.448	80.56
290.679	87.56
290.91	76.56
291.141	83.56
291.371	84.56
291.602	90.56
291.833	68.56
292.064	78.56
292.295	82.56
292.526	84.56
292.757	86.56
292.987	84.56
293.218	70.56
293.449	73.56
293.68	94.56
293.91	83.56
294.141	84.56
294.372	86.56
294.603	94.56
294.833	80.56
295.064	69.56
295.295	71.56
295.525	76.56
295.756	78.56
295.987	83.56
296.217	78.56
296.448	69.56
296.679	74.56
296.909	99.56
297.14	79.56
297.37	82.56
297.601	97.56
297.831	78.56
298.062	83.56
298.292	80.56
298.523	87.56
298.753	83.56
298.984	85.56
299.214	83.56
299.445	92.56
299.675	73.56
299.905	82.56
300.136	74.56
300.366	91.56
300.597	84.56
300.827	80.56
301.057	67.56
301.288	71.56
301.518	88.56
301.748	69.56
301.979	87.56
302.209	73.56
302.439	85.56
302.669	95.56
302.9	70.56
303.13	95.56
303.36	82.56
303.59	98.56
303.82	88.56
304.051	74.56
304.281	92.56
304.511	72.56
304.741	77.56
304.971	74.56
305.201	97.56
305.431	95.56
305.661	87.56
305.891	81.56
306.121	84.56
306.352	80.56
306.582	82.56
306.812	81.56
307.042	99.56
307.272	92.56
307.502	81.56
307.731	81.56
307.961	88.56
308.191	91.56
308.421	75.56
308.651	89.56
308.881	96.56
309.111	78.56
309.341	84.56
309.571	83.56
309.8	88.56
310.03	87.56
310.26	85.56
310.49	74.56
310.72	85.56
310.949	85.56
311.179	78.56
311.409	82.56
311.639	80.56
311.868	87.56
312.098	74.56
312.328	72.56
312.557	76.56
312.787	84.56
313.017	89.56
313.246	85.56
313.476	74.56
313.706	81.56
313.935	75.56
314.165	87.56
314.394	72.56
314.624	81.56
314.853	81.56
315.083	96.56
315.312	76.56
315.542	83.56
315.771	75.56
316.001	70.56
316.23	86.56
316.46	82.56
316.689	85.56
316.919	86.56
317.148	74.56
317.377	88.56
317.607	73.56
317.836	77.56
318.065	74.56
318.295	96.56
318.524	91.56
318.753	82.56
318.983	79.56
319.212	84.56
319.441	81.56
319.67	83.56
319.9	73.56
320.129	93.56
320.358	94.56
320.587	80.56
320.816	66.56
321.046	85.56
321.275	87.56
321.504	76.56
321.733	100.56
321.962	87.56
322.191	76.56
322.42	92.56
322.649	92.56
322.878	89.56
323.108	79.56
323.337	92.56
323.566	62.56
323.795	83.56
324.024	82.56
324.253	84.56
324.482	80.56
324.71	93.56
324.939	90.56
325.168	97.56
325.397	96.56
325.626	90.56
325.855	84.56
326.084	77.56
326.313	84.56
326.542	76.56
326.77	68.56
326.999	73.56
327.228	81.56
327.457	67.56
327.686	96.56
327.914	80.56
328.143	86.56
328.372	78.56
328.6	70.56
328.829	81.56
329.058	69.56
329.287	88.56
329.515	77.56
329.744	81.56
329.972	82.56
330.201	84.56
330.43	79.56
330.658	65.56
330.887	88.56
331.115	71.56
331.344	66.56
331.572	80.56
331.801	89.56
332.03	80.56
332.258	74.56
332.486	70.56
332.715	66.56
332.943	88.56
333.172	84.56
333.4	76.56
333.629	89.56
333.857	74.56
334.085	70.56
334.314	83.56
334.542	80.56
334.771	86.56
334.999	89.56
335.227	74.56
335.455	71.56
335.684	72.56
335.912	80.56
336.14	74.56
336.369	89.56
336.597	79.56
336.825	85.56
337.053	71.56
337.281	77.56
337.51	83.56
337.738	75.56
337.966	79.56
338.194	85.56
338.422	91.56
338.65	98.56
338.878	85.56
339.106	69.56
339.334	60.56
339.562	75.56
339.79	66.56
340.018	85.56
340.246	83.56
340.474	89.56
340.702	84.56
340.93	63.56
341.158	74.56
341.386	71.56
341.614	87.56
341.842	72.56
342.07	80.56
342.298	80.56
342.526	83.56
342.754	73.56
342.981	94.56
343.209	78.56
343.437	93.56
343.665	75.56
343.893	84.56
344.12	76.56
344.348	76.56
344.576	82.56
344.804	74.56
345.031	73.56
345.259	78.56
345.487	86.56
345.714	72.56
345.942	93.56
346.17	78.56
346.397	75.56
346.625	96.56
346.853	87.56
347.08	74.56
347.308	73.56
347.535	69.56
347.763	68.56
347.99	90.56
348.218	89.56
348.445	77.56
348.673	86.56
348.9	74.56
349.128	82.56
349.355	82.56
349.583	83.56
349.81	82.56
350.037	98.56
350.265	80.56
350.492	80.56
350.72	78.56
350.947	98.56
351.174	75.56
351.402	80.56
351.629	91.56
351.856	80.56
352.083	96.56
352.311	75.56
352.538	78.56
352.765	90.56
352.992	76.56
353.22	76.56
353.447	65.56
353.674	86.56
353.901	92.56
354.128	81.56
354.355	83.56
354.583	84.56
354.81	75.56
355.037	78.56
355.264	81.56
355.491	89.56
355.718	84.56
355.945	88.56
356.172	77.56
356.399	79.56
356.626	86.56
356.853	85.56
357.08	77.56
357.307	67.56
357.534	62.56
357.761	61.56
357.988	66.56
358.215	65.56
358.441	77.56
358.668	71.56
358.895	71.56
359.122	68.56
359.349	81.56
359.576	75.56
359.802	82.56
360.029	77.56
360.256	96.56
360.483	92.56
360.709	89.56
360.936	93.56
361.163	88.56
361.39	85.56
361.616	90.56
361.843	89.56
362.07	88.56
362.296	89.56
362.523	73.56
362.749	89.56
362.976	76.56
363.203	93.56
363.429	95.56
363.656	82.56
363.882	80.56
364.109	66.56
364.335	71.56
364.562	83.56
364.788	84.56
365.015	70.56
365.241	84.56
365.468	78.56
365.694	75.56
365.92	72.56
366.147	75.56
366.373	93.56
366.599	85.56
366.826	84.56
367.052	66.56
367.278	73.56
367.505	80.56
367.731	92.56
367.957	101.56
368.184	99.56
368.41	97.56
368.636	85.56
368.862	103.56
369.089	86.56
369.315	103.56
369.541	94.56
369.767	96.56
369.993	99.56
370.219	91.56
370.445	91.56
370.672	87.56
370.898	83.56
371.124	78.56
371.35	101.56
371.576	86.56
371.802	75.56
372.028	72.56
372.254	94.56
372.48	87.56
372.706	98.56
372.932	92.56
373.158	92.56
373.384	95.56
373.61	80.56
373.835	86.56
374.061	89.56
374.287	88.56
374.513	85.56
374.739	89.56
374.965	97.56
375.191	85.56
375.416	101.56
375.642	84.56
375.868	95.56
376.094	93.56
376.319	90.56
376.545	80.56
376.771	80.56
376.997	77.56
377.222	90.56
377.448	86.56
377.674	77.56
377.899	84.56
378.125	90.56
378.35	82.56
378.576	101.56
378.802	87.56
379.027	95.56
379.253	92.56
379.478	83.56
379.704	97.56
379.929	100.56
380.155	95.56
380.38	84.56
380.606	100.56
380.831	96.56
381.057	101.56
381.282	92.56
381.507	105.56
381.733	101.56
381.958	97.56
382.184	106.56
382.409	103.56
382.634	81.56
382.86	89.56
383.085	78.56
383.31	98.56
383.535	84.56
383.761	100.56
383.986	93.56
384.211	84.56
384.436	92.56
384.662	112.56
384.887	78.56
385.112	93.56
385.337	90.56
385.562	102.56
385.787	103.56
386.013	106.56
386.238	98.56
386.463	99.56
386.688	96.56
386.913	100.56
387.138	100.56
387.363	88.56
387.588	105.56
387.813	96.56
388.038	89.56
388.263	94.56
388.488	102.56
388.713	89.56
388.938	102.56
389.163	110.56
389.387	94.56
389.612	101.56
389.837	99.56
390.062	99.56
390.287	92.56
390.512	91.56
390.736	98.56
390.961	92.56
391.186	113.56
391.411	92.56
391.636	92.56
391.86	118.56
392.085	111.56
392.31	122.56
392.534	100.56
392.759	112.56
392.984	110.56
393.208	99.56
393.433	110.56
393.658	110.56
393.882	110.56
394.107	102.56
394.331	108.56
394.556	105.56
394.78	104.56
395.005	97.56
395.229	108.56
395.454	98.56
395.678	92.56
395.903	110.56
396.127	120.56
396.352	104.56
396.576	98.56
396.801	122.56
397.025	109.56
397.249	118.56
397.474	103.56
397.698	90.56
397.922	117.56
398.147	114.56
398.371	108.56
398.595	118.56
398.82	101.56
399.044	108.56
399.268	110.56
399.492	125.56
399.717	118.56
399.941	98.56
400.165	112.56
400.389	120.56
400.613	121.56
400.837	116.56
401.062	114.56
401.286	116.56
401.51	102.56
401.734	121.56
401.958	108.56
402.182	100.56
402.406	122.56
402.63	112.56
402.854	116.56
403.078	117.56
403.302	120.56
403.526	121.56
403.75	105.56
403.974	117.56
404.198	119.56
404.422	113.56
404.645	105.56
404.869	120.56
405.093	124.56
405.317	131.56
405.541	113.56
405.765	131.56
405.988	114.56
406.212	114.56
406.436	113.56
406.66	118.56
406.883	106.56
407.107	119.56
407.331	100.56
407.555	110.56
407.778	109.56
408.002	114.56
408.226	106.56
408.449	108.56
408.673	107.56
408.896	113.56
409.12	117.56
409.344	127.56
409.567	114.56
409.791	107.56
410.014	120.56
410.238	110.56
410.461	121.56
410.685	126.56
410.908	111.56
411.132	127.56
411.355	119.56
411.578	123.56
411.802	118.56
412.025	119.56
412.249	135.56
412.472	129.56
412.695	126.56
412.919	126.56
413.142	114.56
413.365	116.56
413.589	124.56
413.812	120.56
414.035	132.56
414.258	123.56
414.482	105.56
414.705	117.56
414.928	124.56
415.151	118.56
415.374	124.56
415.597	113.56
415.821	123.56
416.044	117.56
416.267	124.56
416.49	135.56
416.713	140.56
416.936	124.56
417.159	99.56
417.382	121.56
417.605	134.56
417.828	131.56
418.051	133.56
418.274	144.56
418.497	128.56
418.72	111.56
418.943	129.56
419.166	128.56
419.389	146.56
419.611	127.56
419.834	130.56
420.057	136.56
420.28	138.56
420.503	119.56
420.726	138.56
420.948	124.56
421.171	133.56
421.394	145.56
421.617	128.56
421.839	134.56
422.062	134.56
422.285	142.56
422.507	136.56
422.73	126.56
422.953	139.56
423.175	134.56
423.398	122.56
423.621	151.56
423.843	127.56
424.066	132.56
424.288	143.56
424.511	131.56
424.733	150.56
424.956	148.56
425.178	136.56
425.401	133.56
425.623	143.56
425.846	140.56
426.068	116.56
426.291	120.56
426.513	121.56
426.735	136.56
426.958	140.56
427.18	125.56
427.402	130.56
427.625	144.56
427.847	130.56
428.069	135.56
428.292	129.56
428.514	121.56
428.736	131.56
428.958	134.56
429.181	137.56
429.403	146.56
429.625	137.56
429.847	126.56
430.069	141.56
430.292	135.56
430.514	135.56
430.736	138.56
430.958	130.56
431.18	116.56
431.402	123.56
431.624	137.56
431.846	112.56
432.068	89.56
432.29	95.56
432.512	119.56
432.734	110.56
432.956	132.56
433.178	133.56
433.4	124.56
433.622	153.56
433.844	133.56
434.066	126.56
434.287	105.56
434.509	99.56
434.731	100.56
434.953	91.56
435.175	137.56
435.397	112.56
435.618	109.56
435.84	120.56
436.062	112.56
436.284	121.56
436.505	121.56
436.727	133.56
436.949	138.56
437.17	122.56
437.392	122.56
437.614	119.56
437.835	122.56
438.057	94.56
438.278	120.56
438.5	129.56
438.721	122.56
438.943	144.56
439.165	137.56
439.386	143.56
439.608	144.56
439.829	131.56
440.05	143.56
440.272	147.56
440.493	147.56
440.715	148.56
440.936	150.56
441.158	150.56
441.379	137.56
441.6	155.56
441.822	145.56
442.043	135.56
442.264	153.56
442.486	135.56
442.707	139.56
442.928	149.56
443.149	144.56
443.371	134.56
443.592	139.56
443.813	120.56
444.034	134.56
444.255	141.56
444.476	132.56
444.698	143.56
444.919	139.56
445.14	288.56
445.361	196.56
445.582	148.56
445.803	148.56
446.024	150.56
446.245	170.56
446.466	160.56
446.687	142.56
446.908	146.56
447.129	158.56
447.35	156.56
447.571	142.56
447.792	154.56
448.013	140.56
448.234	144.56
448.455	141.56
448.675	138.56
448.896	130.56
449.117	130.56
449.338	137.56
449.559	143.56
449.779	147.56
450	148.56
450.221	128.56
450.442	125.56
450.662	132.56
450.883	128.56
451.104	142.56
451.324	149.56
451.545	135.56
451.766	136.56
451.986	139.56
452.207	126.56
452.428	135.56
452.648	120.56
452.869	125.56
453.089	114.56
453.31	117.56
453.53	114.56
453.751	106.56
453.971	100.56
454.192	96.56
454.412	110.56
454.633	120.56
454.853	114.56
455.073	121.56
455.294	118.56
455.514	135.56
455.734	120.56
455.955	114.56
456.175	114.56
456.395	93.56
456.616	105.56
456.836	101.56
457.056	101.56
457.276	114.56
457.497	103.56
457.717	112.56
457.937	112.56
458.157	104.56
458.377	95.56
458.598	95.56
458.818	102.56
459.038	72.56
459.258	81.56
459.478	76.56
459.698	84.56
459.918	91.56
460.138	107.56
460.358	119.56
460.578	126.56
460.798	122.56
461.018	122.56
461.238	121.56
461.458	106.56
461.678	135.56
461.898	110.56
462.118	108.56
462.338	101.56
462.558	115.56
462.777	112.56
462.997	110.56
463.217	121.56
463.437	112.56
463.657	106.56
463.876	110.56
464.096	92.56
464.316	111.56
464.536	110.56
464.755	115.56
464.975	118.56
465.195	119.56
465.414	120.56
465.634	116.56
465.854	122.56
466.073	119.56
466.293	121.56
466.512	121.56
466.732	116.56
466.951	127.56
467.171	136.56
467.391	141.56
467.61	142.56
467.829	148.56
468.049	124.56
468.268	149.56
468.488	143.56
468.707	139.56
468.927	137.56
469.146	138.56
469.365	131.56
469.585	148.56
469.804	140.56
470.023	143.56
470.243	159.56
470.462	147.56
470.681	153.56
470.901	145.56
471.12	138.56
471.339	144.56
471.558	129.56
471.777	128.56
471.997	137.56
472.216	127.56
472.435	122.56
472.654	108.56
472.873	105.56
473.092	132.56
473.311	123.56
473.53	110.56
473.749	128.56
473.968	135.56
474.187	132.56
474.406	126.56
474.625	110.56
474.844	125.56
475.063	128.56
475.282	150.56
475.501	123.56
475.72	112.56
475.939	121.56
476.158	134.56
476.377	130.56
476.596	118.56
476.814	102.56
477.033	106.56
477.252	119.56
477.471	132.56
477.69	159.56
477.908	145.56
478.127	151.56
478.346	151.56
478.564	133.56
478.783	142.56
479.002	132.56
479.22	145.56
479.439	130.56
479.658	126.56
479.876	106.56
480.095	113.56
480.313	112.56
480.532	129.56
480.751	110.56
480.969	93.56
481.188	90.56
481.406	88.56
481.624	100.56
481.843	94.56
482.061	100.56
482.28	112.56
482.498	114.56
482.717	109.56
482.935	122.56
483.153	127.56
483.372	168.56
483.59	142.56
483.808	152.56
484.027	128.56
484.245	121.56
484.463	166.56
484.681	164.56
484.9	151.56
485.118	137.56
485.336	137.56
485.554	105.56
485.772	118.56
485.99	110.56
486.209	127.56
486.427	113.56
486.645	110.56
486.863	136.56
487.081	134.56
487.299	141.56
487.517	131.56
487.735	171.56
487.953	208.56
488.171	195.56
488.389	182.56
488.607	167.56
488.825	152.56
489.043	160.56
489.261	136.56
489.479	151.56
489.696	153.56
489.914	141.56
490.132	165.56
490.35	155.56
490.568	174.56
490.786	180.56
491.003	185.56
491.221	193.56
491.439	182.56
491.657	211.56
491.874	204.56
492.092	231.56
492.31	243.56
492.527	230.56
492.745	224.56
492.963	204.56
493.18	211.56
493.398	203.56
493.615	178.56
493.833	163.56
494.05	191.56
494.268	169.56
494.485	182.56
494.703	188.56
494.92	175.56
495.138	174.56
495.355	176.56
495.573	167.56
495.79	186.56
496.008	176.56
496.225	176.56
496.442	163.56
496.66	185.56
496.877	175.56
497.094	170.56
497.312	169.56
497.529	158.56
497.746	160.56
497.963	121.56
498.181	127.56
498.398	116.56
498.615	112.56
498.832	116.56
499.049	111.56
499.267	126.56
499.484	126.56
499.701	143.56
499.918	135.56
500.135	136.56
500.352	138.56
500.569	146.56
500.786	142.56
501.003	163.56
501.22	134.56
501.437	152.56
501.654	146.56
501.871	128.56
502.088	127.56
502.305	138.56
502.522	150.56
502.739	135.56
502.956	116.56
503.172	126.56
503.389	122.56
503.606	118.56
503.823	125.56
504.04	132.56
504.256	100.56
504.473	105.56
504.69	126.56
504.907	107.56
505.123	120.56
505.34	128.56
505.557	123.56
505.773	116.56
505.99	131.56
506.207	125.56
506.423	132.56
506.64	125.56
506.856	122.56
507.073	122.56
507.289	119.56
507.506	123.56
507.722	129.56
507.939	113.56
508.155	116.56
508.372	120.56
508.588	96.56
508.805	110.56
509.021	124.56
509.238	95.56
509.454	90.56
509.67	94.56
509.887	101.56
510.103	91.56
510.319	98.56
510.536	80.56
510.752	80.56
510.968	85.56
511.184	90.56
511.401	85.56
511.617	90.56
511.833	87.56
512.049	94.56
512.265	93.56
512.481	88.56
512.698	88.56
512.914	96.56
513.13	108.56
513.346	92.56
513.562	89.56
513.778	76.56
513.994	85.56
514.21	88.56
514.426	108.56
514.642	93.56
514.858	96.56
515.074	80.56
515.29	92.56
515.506	82.56
515.721	86.56
515.937	93.56
516.153	86.56
516.369	94.56
516.585	92.56
516.801	78.56
517.016	78.56
517.232	84.56
517.448	84.56
517.664	105.56
517.879	93.56
518.095	82.56
518.311	93.56
518.527	100.56
518.742	111.56
518.958	111.56
519.173	94.56
519.389	95.56
519.605	101.56
519.82	108.56
520.036	108.56
520.251	112.56
520.467	115.56
520.682	90.56
520.898	95.56
521.113	88.56
521.329	84.56
521.544	69.56
521.76	87.56
521.975	96.56
522.19	108.56
522.406	114.56
522.621	104.56
522.836	106.56
523.052	98.56
523.267	97.56
523.482	94.56
523.698	104.56
523.913	126.56
524.128	120.56
524.343	125.56
524.559	123.56
524.774	123.56
524.989	136.56
525.204	113.56
525.419	109.56
525.634	100.56
525.849	94.56
526.064	99.56
526.28	118.56
526.495	96.56
526.71	89.56
526.925	89.56
527.14	75.56
527.355	84.56
527.57	84.56
527.785	73.56
527.999	87.56
528.214	105.56
528.429	112.56
528.644	126.56
528.859	128.56
529.074	162.56
529.289	175.56
529.503	152.56
529.718	154.56
529.933	125.56
530.148	103.56
530.363	94.56
530.577	84.56
530.792	88.56
531.007	94.56
531.221	87.56
531.436	75.56
531.651	90.56
531.865	78.56
532.08	90.56
532.295	71.56
532.509	91.56
532.724	79.56
532.938	86.56
533.153	97.56
533.367	126.56
533.582	128.56
533.796	119.56
534.011	116.56
534.225	94.56
534.44	84.56
534.654	88.56
534.868	80.56
535.083	99.56
535.297	107.56
535.511	110.56
535.726	117.56
535.94	112.56
536.154	87.56
536.369	79.56
536.583	82.56
536.797	92.56
537.011	88.56
537.225	89.56
537.44	86.56
537.654	89.56
537.868	103.56
538.082	96.56
538.296	84.56
538.51	105.56
538.724	114.56
538.938	121.56
539.153	126.56
539.367	124.56
539.581	123.56
539.795	113.56
540.009	112.56
540.222	99.56
540.436	100.56
540.65	95.56
540.864	131.56
541.078	133.56
541.292	145.56
541.506	157.56
541.72	182.56
541.934	182.56
542.147	210.56
542.361	195.56
542.575	167.56
542.789	148.56
543.002	147.56
543.216	135.56
543.43	130.56
543.644	149.56
543.857	148.56
544.071	156.56
544.285	168.56
544.498	156.56
544.712	142.56
544.925	164.56
545.139	159.56
545.352	156.56
545.566	165.56
545.779	172.56
545.993	170.56
546.206	174.56
546.42	181.56
546.633	161.56
546.847	169.56
547.06	181.56
547.274	178.56
547.487	172.56
547.7	169.56
547.914	180.56
548.127	184.56
548.34	169.56
548.554	179.56
548.767	139.56
548.98	159.56
549.193	154.56
549.407	159.56
549.62	172.56
549.833	158.56
550.046	148.56
550.259	163.56
550.473	146.56
550.686	148.56
550.899	167.56
551.112	139.56
551.325	146.56
551.538	130.56
551.751	124.56
551.964	113.56
552.177	122.56
552.39	136.56
552.603	140.56
552.816	147.56
553.029	156.56
553.242	161.56
553.455	156.56
553.667	175.56
553.88	163.56
554.093	152.56
554.306	147.56
554.519	149.56
554.732	157.56
554.944	145.56
555.157	154.56
555.37	146.56
555.583	136.56
555.795	150.56
556.008	153.56
556.221	137.56
556.433	132.56
556.646	146.56
556.859	133.56
557.071	141.56
557.284	129.56
557.496	148.56
557.709	134.56
557.921	149.56
558.134	147.56
558.346	142.56
558.559	130.56
558.771	148.56
558.984	130.56
559.196	137.56
559.409	141.56
559.621	133.56
559.833	117.56
560.046	128.56
560.258	132.56
560.47	125.56
560.683	146.56
560.895	133.56
561.107	135.56
561.32	135.56
561.532	135.56
561.744	132.56
561.956	123.56
562.168	128.56
562.381	140.56
562.593	136.56
562.805	137.56
563.017	120.56
563.229	118.56
563.441	124.56
563.653	112.56
563.865	113.56
564.077	106.56
564.289	131.56
564.501	130.56
564.713	113.56
564.925	124.56
565.137	119.56
565.349	126.56
565.561	116.56
565.773	120.56
565.985	119.56
566.197	117.56
566.408	115.56
566.62	117.56
566.832	113.56
567.044	120.56
567.255	122.56
567.467	103.56
567.679	99.56
567.891	99.56
568.102	93.56
568.314	91.56
568.526	71.56
568.737	82.56
568.949	84.56
569.161	88.56
569.372	78.56
569.584	90.56
569.795	77.56
570.007	86.56
570.218	93.56
570.43	88.56
570.641	98.56
570.853	104.56
571.064	92.56
571.276	103.56
571.487	96.56
571.698	102.56
571.91	105.56
572.121	96.56
572.333	95.56
572.544	108.56
572.755	87.56
572.966	96.56
573.178	89.56
573.389	65.56
573.6	80.56
573.811	70.56
574.023	71.56
574.234	89.56
574.445	95.56
574.656	75.56
574.867	88.56
575.078	83.56
575.289	96.56
575.501	101.56
575.712	89.56
575.923	94.56
576.134	81.56
576.345	97.56
576.556	109.56
576.767	97.56
576.978	100.56
577.188	89.56
577.399	89.56
577.61	90.56
577.821	98.56
578.032	99.56
578.243	103.56
578.454	99.56
578.665	93.56
578.875	103.56
579.086	80.56
579.297	82.56
579.508	89.56
579.718	83.56
579.929	90.56
580.14	85.56
580.35	74.56
580.561	95.56
580.772	91.56
580.982	90.56
581.193	86.56
581.403	98.56
581.614	80.56
581.825	100.56
582.035	81.56
582.246	85.56
582.456	93.56
582.667	85.56
582.877	74.56
583.087	89.56
583.298	79.56
583.508	92.56
583.719	88.56
583.929	92.56
584.139	95.56
584.35	72.56
584.56	76.56
584.77	81.56
584.981	76.56
585.191	89.56
585.401	80.56
585.611	97.56
585.821	94.56
586.032	88.56
586.242	86.56
586.452	74.56
586.662	85.56
586.872	83.56
587.082	71.56
587.292	82.56
587.502	79.56
587.713	82.56
587.923	90.56
588.133	102.56
588.343	74.56
588.553	88.56
588.762	79.56
588.972	94.56
589.182	86.56
589.392	82.56
589.602	79.56
589.812	90.56
590.022	80.56
590.232	88.56
590.441	93.56
590.651	68.56
590.861	84.56
591.071	97.56
591.281	78.56
591.49	86.56
591.7	82.56
591.91	69.56
592.119	79.56
592.329	82.56
592.539	84.56
592.748	78.56
592.958	92.56
593.167	79.56
593.377	94.56
593.587	97.56
593.796	85.56
594.006	87.56
594.215	77.56
594.424	83.56
594.634	81.56
594.843	93.56
595.053	80.56
595.262	92.56
595.472	101.56
595.681	93.56
595.89	82.56
596.1	77.56
596.309	98.56
596.518	96.56
596.727	98.56
596.937	94.56
597.146	99.56
597.355	97.56
597.564	103.56
597.774	93.56
597.983	88.56
598.192	85.56
598.401	82.56
598.61	60.56
598.819	79.56
599.028	89.56
599.237	102.56
599.446	83.56
599.655	98.56
599.864	85.56
600.073	97.56
600.282	88.56
600.491	100.56
600.7	95.56
600.909	97.56
601.118	92.56
601.327	87.56
601.536	88.56
601.745	97.56
601.953	105.56
602.162	104.56
602.371	90.56
602.58	109.56
602.789	102.56
602.997	116.56
603.206	93.56
603.415	96.56
603.623	106.56
603.832	91.56
604.041	101.56
604.249	117.56
604.458	90.56
604.666	110.56
604.875	98.56
605.084	115.56
605.292	107.56
605.501	115.56
605.709	118.56
605.918	101.56
606.126	103.56
606.334	114.56
606.543	118.56
606.751	117.56
606.96	106.56
607.168	82.56
607.376	95.56
607.585	100.56
607.793	108.56
608.001	121.56
608.21	117.56
608.418	119.56
608.626	119.56
608.834	112.56
609.043	101.56
609.251	108.56
609.459	116.56
609.667	121.56
609.875	122.56
610.083	105.56
610.291	110.56
610.499	112.56
610.707	101.56
610.916	106.56
611.124	128.56
611.332	114.56
611.54	105.56
611.748	114.56
611.955	106.56
612.163	99.56
612.371	118.56
612.579	107.56
612.787	120.56
612.995	96.56
613.203	112.56
613.411	101.56
613.618	98.56
613.826	110.56
614.034	110.56
614.242	112.56
614.449	122.56
614.657	100.56
614.865	120.56
615.072	99.56
615.28	116.56
615.488	113.56
615.695	118.56
615.903	103.56
616.111	122.56
616.318	114.56
616.526	113.56
616.733	122.56
616.941	124.56
617.148	113.56
617.356	114.56
617.563	107.56
617.771	128.56
617.978	94.56
618.185	116.56
618.393	108.56
618.6	104.56
618.807	108.56
619.015	99.56
619.222	111.56
619.429	89.56
619.637	105.56
619.844	97.56
620.051	99.56
620.258	113.56
620.466	108.56
620.673	91.56
620.88	108.56
621.087	117.56
621.294	103.56
621.501	118.56
621.708	112.56
621.915	97.56
622.122	110.56
622.329	109.56
622.536	118.56
622.743	126.56
622.95	117.56
623.157	94.56
623.364	101.56
623.571	108.56
623.778	118.56
623.985	110.56
624.192	104.56
624.399	110.56
624.606	92.56
624.812	103.56
625.019	108.56
625.226	120.56
625.433	101.56
625.639	102.56
625.846	97.56
626.053	101.56
626.259	99.56
626.466	93.56
626.673	87.56
626.879	97.56
627.086	89.56
627.293	101.56
627.499	109.56
627.706	97.56
627.912	102.56
628.119	99.56
628.325	110.56
628.532	103.56
628.738	114.56
628.945	94.56
629.151	114.56
629.357	110.56
629.564	96.56
629.77	108.56
629.976	103.56
630.183	108.56
630.389	103.56
630.595	96.56
630.802	97.56
631.008	88.56
631.214	91.56
631.42	107.56
631.627	93.56
631.833	96.56
632.039	91.56
632.245	93.56
632.451	103.56
632.657	94.56
632.863	93.56
633.069	99.56
633.275	94.56
633.481	100.56
633.688	96.56
633.893	109.56
634.099	91.56
634.305	99.56
634.511	105.56
634.717	99.56
634.923	91.56
635.129	109.56
635.335	104.56
635.541	89.56
635.747	89.56
635.952	94.56
636.158	96.56
636.364	96.56
636.57	89.56
636.775	99.56
636.981	98.56
637.187	102.56
637.392	109.56
637.598	108.56
637.804	100.56
638.009	102.56
638.215	99.56
638.421	96.56
638.626	99.56
638.832	109.56
639.037	108.56
639.243	88.56
639.448	120.56
639.654	94.56
639.859	95.56
640.065	78.56
640.27	112.56
640.475	96.56
640.681	92.56
640.886	98.56
641.091	84.56
641.297	102.56
641.502	98.56
641.707	100.56
641.913	108.56
642.118	82.56
642.323	98.56
642.528	98.56
642.733	103.56
642.939	98.56
643.144	96.56
643.349	97.56
643.554	77.56
643.759	94.56
643.964	86.56
644.169	108.56
644.374	99.56
644.579	96.56
644.784	110.56
644.989	94.56
645.194	88.56
645.399	112.56
645.604	92.56
645.809	88.56
646.014	88.56
646.219	99.56
646.423	101.56
646.628	88.56
646.833	99.56
647.038	83.56
647.243	82.56
647.447	99.56
647.652	95.56
647.857	99.56
648.062	100.56
648.266	101.56
648.471	106.56
648.676	95.56
648.88	74.56
649.085	88.56
649.289	97.56
649.494	94.56
649.698	102.56
649.903	100.56
650.107	92.56
650.312	93.56
650.516	93.56
650.721	92.56
650.925	102.56
651.13	98.56
651.334	77.56
651.539	97.56
651.743	85.56
651.947	98.56
652.152	91.56
652.356	80.56
652.56	93.56
652.764	84.56
652.969	77.56
653.173	73.56
653.377	100.56
653.581	91.56
653.785	104.56
653.99	90.56
654.194	71.56
654.398	98.56
654.602	95.56
654.806	79.56
655.01	88.56
655.214	92.56
655.418	87.56
655.622	75.56
655.826	92.56
656.03	81.56
656.234	84.56
656.438	81.56
656.642	80.56
656.846	88.56
657.049	89.56
657.253	83.56
657.457	85.56
657.661	89.56
657.865	82.56
658.068	82.56
658.272	77.56
658.476	79.56
658.68	88.56
658.883	90.56
659.087	83.56
659.291	89.56
659.494	78.56
659.698	92.56
659.901	81.56
660.105	72.56
660.309	77.56
660.512	81.56
660.716	88.56
660.919	68.56
661.123	82.56
661.326	60.56
661.53	82.56
661.733	88.56
661.936	86.56
662.14	78.56
662.343	73.56
662.546	72.56
662.75	77.56
662.953	81.56
663.156	93.56
663.36	79.56
663.563	76.56
663.766	84.56
663.969	79.56
664.173	78.56
664.376	72.56
664.579	80.56
664.782	79.56
664.985	69.56
665.188	83.56
665.391	94.56
665.594	81.56
665.797	82.56
666	77.56
666.203	74.56
666.406	81.56
666.609	76.56
666.812	86.56
667.015	84.56
667.218	67.56
667.421	89.56
667.624	93.56
667.827	93.56
668.03	84.56
668.232	79.56
668.435	65.56
668.638	61.56
668.841	86.56
669.043	80.56
669.246	68.56
669.449	78.56
669.651	70.56
669.854	80.56
670.057	82.56
670.259	80.56
670.462	78.56
670.665	52.56
670.867	75.56
671.07	80.56
671.272	91.56
671.475	90.56
671.677	75.56
671.88	72.56
672.082	73.56
672.284	73.56
672.487	89.56
672.689	74.56
672.892	79.56
