Data from Location6.07152019.Energy5.Lamp.07192019.3%Agarose_HRD10591_16-12-35-396.txt Node
Date: Fri Jul 19 16:12:35 EDT 2019
User: cochatt
Spectrometer: HR+D1059
Trigger mode: 1
Integration Time (sec): 1.000000E-1
Scans to average: 1
Electric dark correction enabled: true
Nonlinearity correction enabled: false
Boxcar width: 0
XAxis mode: Wavelengths
Number of Pixels in Spectrum: 2048
>>>>>Begin Spectral Data<<<<<
223.165	-6.19
223.4	-6.19
223.635	-6.19
223.869	-22.19
224.104	-25.19
224.338	-23.19
224.573	-10.19
224.808	-12.19
225.042	-6.19
225.277	-19.19
225.511	0.81
225.746	1.81
225.98	20.81
226.215	12.81
226.449	12.81
226.683	23.81
226.918	32.81
227.152	18.81
227.387	30.81
227.621	37.81
227.856	41.81
228.09	37.81
228.324	59.81
228.559	58.81
228.793	53.81
229.027	56.81
229.262	66.81
229.496	76.81
229.73	81.81
229.964	67.81
230.199	79.81
230.433	76.81
230.667	67.81
230.901	81.81
231.136	80.81
231.37	82.81
231.604	71.81
231.838	83.81
232.072	91.81
232.306	72.81
232.541	72.81
232.775	79.81
233.009	79.81
233.243	67.81
233.477	86.81
233.711	79.81
233.945	74.81
234.179	75.81
234.413	74.81
234.647	76.81
234.881	74.81
235.115	84.81
235.349	66.81
235.583	74.81
235.817	83.81
236.051	73.81
236.285	92.81
236.519	82.81
236.753	81.81
236.987	68.81
237.221	87.81
237.455	79.81
237.689	88.81
237.922	76.81
238.156	68.81
238.39	79.81
238.624	62.81
238.858	72.81
239.091	78.81
239.325	74.81
239.559	74.81
239.793	75.81
240.027	79.81
240.26	79.81
240.494	79.81
240.728	73.81
240.961	87.81
241.195	68.81
241.429	83.81
241.662	83.81
241.896	82.81
242.13	71.81
242.363	78.81
242.597	77.81
242.83	75.81
243.064	83.81
243.298	75.81
243.531	74.81
243.765	76.81
243.998	69.81
244.232	72.81
244.465	68.81
244.699	81.81
244.932	78.81
245.166	88.81
245.399	75.81
245.633	97.81
245.866	76.81
246.099	80.81
246.333	71.81
246.566	73.81
246.8	63.81
247.033	73.81
247.266	79.81
247.5	85.81
247.733	79.81
247.966	71.81
248.2	70.81
248.433	74.81
248.666	69.81
248.899	54.81
249.133	54.81
249.366	79.81
249.599	76.81
249.832	79.81
250.066	74.81
250.299	76.81
250.532	76.81
250.765	75.81
250.998	65.81
251.231	90.81
251.465	79.81
251.698	74.81
251.931	85.81
252.164	81.81
252.397	81.81
252.63	76.81
252.863	78.81
253.096	70.81
253.329	72.81
253.562	87.81
253.795	75.81
254.028	87.81
254.261	90.81
254.494	74.81
254.727	66.81
254.96	93.81
255.193	80.81
255.426	73.81
255.659	77.81
255.892	87.81
256.124	75.81
256.357	83.81
256.59	84.81
256.823	71.81
257.056	76.81
257.289	89.81
257.521	67.81
257.754	94.81
257.987	69.81
258.22	86.81
258.452	67.81
258.685	76.81
258.918	84.81
259.151	83.81
259.383	88.81
259.616	80.81
259.849	77.81
260.081	94.81
260.314	76.81
260.547	79.81
260.779	75.81
261.012	76.81
261.244	71.81
261.477	78.81
261.71	75.81
261.942	87.81
262.175	75.81
262.407	81.81
262.64	86.81
262.872	75.81
263.105	68.81
263.337	98.81
263.57	78.81
263.802	80.81
264.035	100.81
264.267	88.81
264.499	75.81
264.732	86.81
264.964	86.81
265.197	70.81
265.429	78.81
265.661	78.81
265.894	84.81
266.126	88.81
266.358	71.81
266.591	93.81
266.823	97.81
267.055	94.81
267.287	80.81
267.52	76.81
267.752	71.81
267.984	75.81
268.216	69.81
268.448	91.81
268.681	83.81
268.913	79.81
269.145	82.81
269.377	83.81
269.609	80.81
269.841	75.81
270.073	76.81
270.306	70.81
270.538	83.81
270.77	73.81
271.002	65.81
271.234	76.81
271.466	80.81
271.698	98.81
271.93	74.81
272.162	91.81
272.394	94.81
272.626	77.81
272.858	72.81
273.09	76.81
273.322	94.81
273.553	76.81
273.785	87.81
274.017	79.81
274.249	76.81
274.481	90.81
274.713	102.81
274.945	81.81
275.176	75.81
275.408	76.81
275.64	71.81
275.872	80.81
276.104	82.81
276.335	92.81
276.567	93.81
276.799	86.81
277.031	73.81
277.262	79.81
277.494	79.81
277.726	87.81
277.957	92.81
278.189	86.81
278.421	72.81
278.652	59.81
278.884	76.81
279.115	79.81
279.347	73.81
279.579	62.81
279.81	79.81
280.042	82.81
280.273	87.81
280.505	89.81
280.736	77.81
280.968	76.81
281.199	76.81
281.431	86.81
281.662	91.81
281.894	79.81
282.125	72.81
282.356	75.81
282.588	97.81
282.819	85.81
283.051	85.81
283.282	74.81
283.513	89.81
283.745	74.81
283.976	78.81
284.207	83.81
284.439	93.81
284.67	96.81
284.901	79.81
285.132	80.81
285.364	86.81
285.595	95.81
285.826	90.81
286.057	85.81
286.288	69.81
286.52	79.81
286.751	91.81
286.982	83.81
287.213	87.81
287.444	68.81
287.675	77.81
287.906	88.81
288.138	84.81
288.369	81.81
288.6	97.81
288.831	71.81
289.062	76.81
289.293	60.81
289.524	87.81
289.755	102.81
289.986	79.81
290.217	72.81
290.448	95.81
290.679	86.81
290.91	78.81
291.141	79.81
291.371	84.81
291.602	79.81
291.833	77.81
292.064	83.81
292.295	75.81
292.526	87.81
292.757	86.81
292.987	71.81
293.218	75.81
293.449	80.81
293.68	79.81
293.91	80.81
294.141	79.81
294.372	62.81
294.603	82.81
294.833	83.81
295.064	88.81
295.295	82.81
295.525	72.81
295.756	97.81
295.987	77.81
296.217	83.81
296.448	79.81
296.679	98.81
296.909	90.81
297.14	89.81
297.37	78.81
297.601	80.81
297.831	80.81
298.062	94.81
298.292	82.81
298.523	85.81
298.753	90.81
298.984	75.81
299.214	82.81
299.445	75.81
299.675	82.81
299.905	76.81
300.136	80.81
300.366	88.81
300.597	87.81
300.827	84.81
301.057	84.81
301.288	86.81
301.518	78.81
301.748	81.81
301.979	80.81
302.209	99.81
302.439	89.81
302.669	78.81
302.9	73.81
303.13	82.81
303.36	80.81
303.59	85.81
303.82	82.81
304.051	88.81
304.281	91.81
304.511	78.81
304.741	86.81
304.971	70.81
305.201	99.81
305.431	90.81
305.661	91.81
305.891	92.81
306.121	85.81
306.352	84.81
306.582	79.81
306.812	91.81
307.042	85.81
307.272	86.81
307.502	87.81
307.731	84.81
307.961	83.81
308.191	76.81
308.421	88.81
308.651	86.81
308.881	83.81
309.111	80.81
309.341	85.81
309.571	80.81
309.8	70.81
310.03	68.81
310.26	94.81
310.49	83.81
310.72	84.81
310.949	84.81
311.179	79.81
311.409	84.81
311.639	81.81
311.868	81.81
312.098	92.81
312.328	88.81
312.557	78.81
312.787	84.81
313.017	91.81
313.246	88.81
313.476	87.81
313.706	78.81
313.935	84.81
314.165	73.81
314.394	91.81
314.624	74.81
314.853	83.81
315.083	91.81
315.312	80.81
315.542	81.81
315.771	87.81
316.001	76.81
316.23	101.81
316.46	73.81
316.689	73.81
316.919	88.81
317.148	81.81
317.377	86.81
317.607	86.81
317.836	76.81
318.065	70.81
318.295	74.81
318.524	87.81
318.753	78.81
318.983	80.81
319.212	94.81
319.441	77.81
319.67	80.81
319.9	76.81
320.129	88.81
320.358	89.81
320.587	67.81
320.816	86.81
321.046	90.81
321.275	93.81
321.504	88.81
321.733	85.81
321.962	80.81
322.191	77.81
322.42	78.81
322.649	96.81
322.878	86.81
323.108	75.81
323.337	88.81
323.566	96.81
323.795	71.81
324.024	76.81
324.253	79.81
324.482	63.81
324.71	84.81
324.939	79.81
325.168	85.81
325.397	94.81
325.626	73.81
325.855	66.81
326.084	89.81
326.313	98.81
326.542	92.81
326.77	89.81
326.999	92.81
327.228	88.81
327.457	85.81
327.686	82.81
327.914	69.81
328.143	76.81
328.372	82.81
328.6	93.81
328.829	85.81
329.058	82.81
329.287	81.81
329.515	82.81
329.744	93.81
329.972	76.81
330.201	81.81
330.43	88.81
330.658	79.81
330.887	72.81
331.115	90.81
331.344	84.81
331.572	74.81
331.801	79.81
332.03	85.81
332.258	91.81
332.486	73.81
332.715	93.81
332.943	87.81
333.172	84.81
333.4	86.81
333.629	74.81
333.857	86.81
334.085	82.81
334.314	92.81
334.542	89.81
334.771	84.81
334.999	80.81
335.227	87.81
335.455	83.81
335.684	78.81
335.912	90.81
336.14	90.81
336.369	72.81
336.597	95.81
336.825	78.81
337.053	81.81
337.281	82.81
337.51	97.81
337.738	95.81
337.966	89.81
338.194	96.81
338.422	77.81
338.65	83.81
338.878	84.81
339.106	86.81
339.334	90.81
339.562	76.81
339.79	71.81
340.018	74.81
340.246	95.81
340.474	84.81
340.702	93.81
340.93	76.81
341.158	77.81
341.386	94.81
341.614	92.81
341.842	87.81
342.07	95.81
342.298	88.81
342.526	79.81
342.754	70.81
342.981	79.81
343.209	73.81
343.437	80.81
343.665	75.81
343.893	88.81
344.12	86.81
344.348	75.81
344.576	84.81
344.804	81.81
345.031	72.81
345.259	81.81
345.487	67.81
345.714	96.81
345.942	88.81
346.17	83.81
346.397	96.81
346.625	74.81
346.853	76.81
347.08	76.81
347.308	82.81
347.535	82.81
347.763	68.81
347.99	82.81
348.218	74.81
348.445	81.81
348.673	87.81
348.9	77.81
349.128	90.81
349.355	73.81
349.583	76.81
349.81	89.81
350.037	83.81
350.265	80.81
350.492	92.81
350.72	81.81
350.947	75.81
351.174	89.81
351.402	91.81
351.629	84.81
351.856	73.81
352.083	78.81
352.311	91.81
352.538	77.81
352.765	72.81
352.992	84.81
353.22	100.81
353.447	90.81
353.674	73.81
353.901	78.81
354.128	92.81
354.355	88.81
354.583	85.81
354.81	87.81
355.037	99.81
355.264	91.81
355.491	84.81
355.718	93.81
355.945	80.81
356.172	87.81
356.399	81.81
356.626	85.81
356.853	77.81
357.08	82.81
357.307	80.81
357.534	70.81
357.761	82.81
357.988	88.81
358.215	99.81
358.441	78.81
358.668	80.81
358.895	77.81
359.122	76.81
359.349	75.81
359.576	85.81
359.802	75.81
360.029	79.81
360.256	73.81
360.483	77.81
360.709	88.81
360.936	84.81
361.163	80.81
361.39	88.81
361.616	87.81
361.843	81.81
362.07	99.81
362.296	79.81
362.523	89.81
362.749	80.81
362.976	73.81
363.203	92.81
363.429	82.81
363.656	84.81
363.882	83.81
364.109	80.81
364.335	95.81
364.562	84.81
364.788	79.81
365.015	80.81
365.241	85.81
365.468	83.81
365.694	74.81
365.92	90.81
366.147	74.81
366.373	81.81
366.599	90.81
366.826	85.81
367.052	77.81
367.278	84.81
367.505	90.81
367.731	83.81
367.957	102.81
368.184	96.81
368.41	102.81
368.636	76.81
368.862	91.81
369.089	91.81
369.315	90.81
369.541	100.81
369.767	85.81
369.993	94.81
370.219	92.81
370.445	105.81
370.672	94.81
370.898	83.81
371.124	102.81
371.35	91.81
371.576	92.81
371.802	95.81
372.028	87.81
372.254	89.81
372.48	99.81
372.706	78.81
372.932	96.81
373.158	99.81
373.384	94.81
373.61	89.81
373.835	83.81
374.061	92.81
374.287	86.81
374.513	98.81
374.739	96.81
374.965	99.81
375.191	91.81
375.416	101.81
375.642	87.81
375.868	77.81
376.094	87.81
376.319	84.81
376.545	94.81
376.771	93.81
376.997	92.81
377.222	89.81
377.448	78.81
377.674	86.81
377.899	85.81
378.125	100.81
378.35	94.81
378.576	98.81
378.802	85.81
379.027	101.81
379.253	94.81
379.478	101.81
379.704	95.81
379.929	100.81
380.155	100.81
380.38	95.81
380.606	80.81
380.831	107.81
381.057	89.81
381.282	88.81
381.507	110.81
381.733	84.81
381.958	91.81
382.184	102.81
382.409	105.81
382.634	89.81
382.86	80.81
383.085	93.81
383.31	98.81
383.535	92.81
383.761	94.81
383.986	99.81
384.211	87.81
384.436	103.81
384.662	104.81
384.887	98.81
385.112	95.81
385.337	100.81
385.562	116.81
385.787	100.81
386.013	111.81
386.238	118.81
386.463	106.81
386.688	91.81
386.913	111.81
387.138	96.81
387.363	96.81
387.588	114.81
387.813	95.81
388.038	108.81
388.263	98.81
388.488	89.81
388.713	91.81
388.938	93.81
389.163	102.81
389.387	109.81
389.612	90.81
389.837	95.81
390.062	105.81
390.287	122.81
390.512	117.81
390.736	95.81
390.961	104.81
391.186	114.81
391.411	98.81
391.636	92.81
391.86	104.81
392.085	100.81
392.31	119.81
392.534	104.81
392.759	114.81
392.984	115.81
393.208	116.81
393.433	86.81
393.658	88.81
393.882	118.81
394.107	108.81
394.331	116.81
394.556	114.81
394.78	105.81
395.005	118.81
395.229	103.81
395.454	118.81
395.678	104.81
395.903	121.81
396.127	110.81
396.352	91.81
396.576	98.81
396.801	106.81
397.025	104.81
397.249	105.81
397.474	114.81
397.698	120.81
397.922	123.81
398.147	104.81
398.371	122.81
398.595	115.81
398.82	100.81
399.044	126.81
399.268	107.81
399.492	110.81
399.717	124.81
399.941	99.81
400.165	114.81
400.389	121.81
400.613	118.81
400.837	102.81
401.062	115.81
401.286	102.81
401.51	91.81
401.734	114.81
401.958	120.81
402.182	120.81
402.406	120.81
402.63	119.81
402.854	116.81
403.078	104.81
403.302	123.81
403.526	128.81
403.75	104.81
403.974	106.81
404.198	122.81
404.422	129.81
404.645	117.81
404.869	128.81
405.093	101.81
405.317	138.81
405.541	115.81
405.765	112.81
405.988	115.81
406.212	124.81
406.436	119.81
406.66	120.81
406.883	124.81
407.107	115.81
407.331	123.81
407.555	128.81
407.778	121.81
408.002	118.81
408.226	122.81
408.449	130.81
408.673	128.81
408.896	127.81
409.12	125.81
409.344	125.81
409.567	128.81
409.791	113.81
410.014	121.81
410.238	108.81
410.461	128.81
410.685	123.81
410.908	118.81
411.132	118.81
411.355	125.81
411.578	131.81
411.802	121.81
412.025	132.81
412.249	127.81
412.472	136.81
412.695	131.81
412.919	122.81
413.142	132.81
413.365	131.81
413.589	121.81
413.812	130.81
414.035	117.81
414.258	123.81
414.482	122.81
414.705	132.81
414.928	128.81
415.151	132.81
415.374	133.81
415.597	134.81
415.821	120.81
416.044	119.81
416.267	134.81
416.49	124.81
416.713	143.81
416.936	146.81
417.159	111.81
417.382	118.81
417.605	130.81
417.828	132.81
418.051	146.81
418.274	126.81
418.497	122.81
418.72	140.81
418.943	129.81
419.166	154.81
419.389	146.81
419.611	131.81
419.834	126.81
420.057	140.81
420.28	138.81
420.503	136.81
420.726	141.81
420.948	133.81
421.171	138.81
421.394	131.81
421.617	146.81
421.839	140.81
422.062	159.81
422.285	136.81
422.507	148.81
422.73	130.81
422.953	121.81
423.175	124.81
423.398	130.81
423.621	139.81
423.843	135.81
424.066	141.81
424.288	151.81
424.511	159.81
424.733	134.81
424.956	144.81
425.178	158.81
425.401	161.81
425.623	123.81
425.846	140.81
426.068	128.81
426.291	128.81
426.513	143.81
426.735	140.81
426.958	133.81
427.18	133.81
427.402	127.81
427.625	136.81
427.847	143.81
428.069	135.81
428.292	138.81
428.514	131.81
428.736	144.81
428.958	129.81
429.181	138.81
429.403	133.81
429.625	123.81
429.847	128.81
430.069	152.81
430.292	132.81
430.514	130.81
430.736	140.81
430.958	136.81
431.18	126.81
431.402	129.81
431.624	122.81
431.846	112.81
432.068	95.81
432.29	88.81
432.512	104.81
432.734	146.81
432.956	146.81
433.178	130.81
433.4	155.81
433.622	158.81
433.844	145.81
434.066	138.81
434.287	120.81
434.509	92.81
434.731	103.81
434.953	111.81
435.175	112.81
435.397	124.81
435.618	108.81
435.84	120.81
436.062	122.81
436.284	121.81
436.505	129.81
436.727	139.81
436.949	130.81
437.17	134.81
437.392	141.81
437.614	126.81
437.835	110.81
438.057	98.81
438.278	114.81
438.5	129.81
438.721	128.81
438.943	139.81
439.165	149.81
439.386	152.81
439.608	144.81
439.829	144.81
440.05	157.81
440.272	150.81
440.493	147.81
440.715	153.81
440.936	128.81
441.158	161.81
441.379	152.81
441.6	169.81
441.822	160.81
442.043	143.81
442.264	142.81
442.486	156.81
442.707	130.81
442.928	138.81
443.149	145.81
443.371	148.81
443.592	152.81
443.813	130.81
444.034	134.81
444.255	140.81
444.476	156.81
444.698	158.81
444.919	152.81
445.14	251.81
445.361	196.81
445.582	147.81
445.803	149.81
446.024	157.81
446.245	174.81
446.466	162.81
446.687	150.81
446.908	160.81
447.129	164.81
447.35	149.81
447.571	150.81
447.792	131.81
448.013	147.81
448.234	144.81
448.455	160.81
448.675	150.81
448.896	150.81
449.117	138.81
449.338	127.81
449.559	142.81
449.779	146.81
450	141.81
450.221	141.81
450.442	129.81
450.662	139.81
450.883	140.81
451.104	143.81
451.324	134.81
451.545	134.81
451.766	115.81
451.986	132.81
452.207	130.81
452.428	128.81
452.648	129.81
452.869	135.81
453.089	115.81
453.31	106.81
453.53	110.81
453.751	115.81
453.971	106.81
454.192	111.81
454.412	114.81
454.633	127.81
454.853	112.81
455.073	132.81
455.294	116.81
455.514	119.81
455.734	114.81
455.955	113.81
456.175	122.81
456.395	119.81
456.616	129.81
456.836	120.81
457.056	111.81
457.276	96.81
457.497	128.81
457.717	109.81
457.937	124.81
458.157	125.81
458.377	118.81
458.598	106.81
458.818	94.81
459.038	94.81
459.258	80.81
459.478	81.81
459.698	106.81
459.918	110.81
460.138	117.81
460.358	113.81
460.578	116.81
460.798	118.81
461.018	115.81
461.238	112.81
461.458	126.81
461.678	101.81
461.898	115.81
462.118	120.81
462.338	118.81
462.558	122.81
462.777	105.81
462.997	112.81
463.217	107.81
463.437	115.81
463.657	98.81
463.876	103.81
464.096	111.81
464.316	108.81
464.536	103.81
464.755	122.81
464.975	127.81
465.195	107.81
465.414	121.81
465.634	131.81
465.854	128.81
466.073	126.81
466.293	134.81
466.512	123.81
466.732	136.81
466.951	141.81
467.171	124.81
467.391	129.81
467.61	147.81
467.829	139.81
468.049	145.81
468.268	145.81
468.488	135.81
468.707	143.81
468.927	117.81
469.146	148.81
469.365	151.81
469.585	142.81
469.804	159.81
470.023	139.81
470.243	135.81
470.462	157.81
470.681	132.81
470.901	145.81
471.12	152.81
471.339	148.81
471.558	139.81
471.777	144.81
471.997	146.81
472.216	131.81
472.435	122.81
472.654	124.81
472.873	109.81
473.092	112.81
473.311	147.81
473.53	125.81
473.749	129.81
473.968	130.81
474.187	128.81
474.406	121.81
474.625	128.81
474.844	143.81
475.063	140.81
475.282	126.81
475.501	132.81
475.72	139.81
475.939	131.81
476.158	126.81
476.377	125.81
476.596	136.81
476.814	115.81
477.033	122.81
477.252	118.81
477.471	118.81
477.69	132.81
477.908	150.81
478.127	128.81
478.346	144.81
478.564	144.81
478.783	135.81
479.002	145.81
479.22	141.81
479.439	147.81
479.658	126.81
479.876	109.81
480.095	121.81
480.313	118.81
480.532	129.81
480.751	111.81
480.969	94.81
481.188	98.81
481.406	98.81
481.624	112.81
481.843	80.81
482.061	102.81
482.28	128.81
482.498	113.81
482.717	100.81
482.935	136.81
483.153	133.81
483.372	149.81
483.59	143.81
483.808	130.81
484.027	135.81
484.245	150.81
484.463	165.81
484.681	183.81
484.9	151.81
485.118	139.81
485.336	133.81
485.554	120.81
485.772	106.81
485.99	102.81
486.209	103.81
486.427	118.81
486.645	118.81
486.863	138.81
487.081	139.81
487.299	144.81
487.517	155.81
487.735	181.81
487.953	210.81
488.171	185.81
488.389	185.81
488.607	150.81
488.825	155.81
489.043	143.81
489.261	137.81
489.479	137.81
489.696	146.81
489.914	154.81
490.132	143.81
490.35	158.81
490.568	175.81
490.786	178.81
491.003	193.81
491.221	183.81
491.439	196.81
491.657	211.81
491.874	213.81
492.092	245.81
492.31	255.81
492.527	234.81
492.745	207.81
492.963	201.81
493.18	196.81
493.398	198.81
493.615	184.81
493.833	189.81
494.05	175.81
494.268	169.81
494.485	158.81
494.703	180.81
494.92	180.81
495.138	175.81
495.355	168.81
495.573	182.81
495.79	184.81
496.008	162.81
496.225	186.81
496.442	171.81
496.66	168.81
496.877	153.81
497.094	168.81
497.312	182.81
497.529	167.81
497.746	152.81
497.963	147.81
498.181	126.81
498.398	136.81
498.615	118.81
498.832	113.81
499.049	127.81
499.267	120.81
499.484	126.81
499.701	125.81
499.918	155.81
500.135	148.81
500.352	144.81
500.569	146.81
500.786	147.81
501.003	151.81
501.22	139.81
501.437	152.81
501.654	144.81
501.871	126.81
502.088	141.81
502.305	123.81
502.522	129.81
502.739	121.81
502.956	138.81
503.172	124.81
503.389	130.81
503.606	124.81
503.823	134.81
504.04	117.81
504.256	115.81
504.473	113.81
504.69	136.81
504.907	119.81
505.123	123.81
505.34	119.81
505.557	135.81
505.773	127.81
505.99	135.81
506.207	136.81
506.423	123.81
506.64	111.81
506.856	123.81
507.073	137.81
507.289	123.81
507.506	117.81
507.722	126.81
507.939	116.81
508.155	124.81
508.372	118.81
508.588	120.81
508.805	108.81
509.021	118.81
509.238	115.81
509.454	91.81
509.67	95.81
509.887	102.81
510.103	87.81
510.319	109.81
510.536	97.81
510.752	82.81
510.968	97.81
511.184	78.81
511.401	91.81
511.617	80.81
511.833	89.81
512.049	104.81
512.265	90.81
512.481	100.81
512.698	89.81
512.914	100.81
513.13	99.81
513.346	95.81
513.562	95.81
513.778	86.81
513.994	87.81
514.21	89.81
514.426	88.81
514.642	88.81
514.858	92.81
515.074	87.81
515.29	93.81
515.506	80.81
515.721	95.81
515.937	98.81
516.153	70.81
516.369	75.81
516.585	74.81
516.801	84.81
517.016	98.81
517.232	87.81
517.448	81.81
517.664	112.81
517.879	98.81
518.095	94.81
518.311	88.81
518.527	75.81
518.742	92.81
518.958	95.81
519.173	103.81
519.389	105.81
519.605	104.81
519.82	104.81
520.036	106.81
520.251	107.81
520.467	99.81
520.682	116.81
520.898	95.81
521.113	93.81
521.329	95.81
521.544	105.81
521.76	98.81
521.975	108.81
522.19	98.81
522.406	96.81
522.621	97.81
522.836	118.81
523.052	101.81
523.267	99.81
523.482	99.81
523.698	119.81
523.913	115.81
524.128	122.81
524.343	121.81
524.559	127.81
524.774	119.81
524.989	115.81
525.204	111.81
525.419	112.81
525.634	110.81
525.849	99.81
526.064	112.81
526.28	103.81
526.495	93.81
526.71	85.81
526.925	76.81
527.14	86.81
527.355	63.81
527.57	92.81
527.785	97.81
527.999	106.81
528.214	100.81
528.429	118.81
528.644	126.81
528.859	143.81
529.074	143.81
529.289	171.81
529.503	157.81
529.718	138.81
529.933	125.81
530.148	119.81
530.363	102.81
530.577	99.81
530.792	74.81
531.007	74.81
531.221	89.81
531.436	89.81
531.651	85.81
531.865	89.81
532.08	99.81
532.295	86.81
532.509	92.81
532.724	95.81
532.938	80.81
533.153	95.81
533.367	106.81
533.582	116.81
533.796	118.81
534.011	116.81
534.225	101.81
534.44	84.81
534.654	102.81
534.868	100.81
535.083	108.81
535.297	101.81
535.511	103.81
535.726	117.81
535.94	94.81
536.154	97.81
536.369	87.81
536.583	94.81
536.797	90.81
537.011	97.81
537.225	85.81
537.44	79.81
537.654	86.81
537.868	94.81
538.082	100.81
538.296	81.81
538.51	95.81
538.724	96.81
538.938	117.81
539.153	123.81
539.367	123.81
539.581	113.81
539.795	94.81
540.009	99.81
540.222	108.81
540.436	110.81
540.65	120.81
540.864	120.81
541.078	144.81
541.292	157.81
541.506	153.81
541.72	169.81
541.934	183.81
542.147	224.81
542.361	190.81
542.575	164.81
542.789	150.81
543.002	141.81
543.216	137.81
543.43	131.81
543.644	139.81
543.857	137.81
544.071	151.81
544.285	172.81
544.498	166.81
544.712	159.81
544.925	174.81
545.139	164.81
545.352	151.81
545.566	158.81
545.779	162.81
545.993	155.81
546.206	192.81
546.42	164.81
546.633	167.81
546.847	154.81
547.06	180.81
547.274	166.81
547.487	182.81
547.7	186.81
547.914	183.81
548.127	177.81
548.34	169.81
548.554	157.81
548.767	166.81
548.98	155.81
549.193	162.81
549.407	169.81
549.62	184.81
549.833	158.81
550.046	154.81
550.259	171.81
550.473	154.81
550.686	152.81
550.899	146.81
551.112	150.81
551.325	152.81
551.538	147.81
551.751	130.81
551.964	119.81
552.177	130.81
552.39	149.81
552.603	146.81
552.816	149.81
553.029	136.81
553.242	148.81
553.455	178.81
553.667	166.81
553.88	168.81
554.093	152.81
554.306	144.81
554.519	146.81
554.732	152.81
554.944	143.81
555.157	159.81
555.37	136.81
555.583	143.81
555.795	141.81
556.008	139.81
556.221	127.81
556.433	151.81
556.646	129.81
556.859	147.81
557.071	132.81
557.284	160.81
557.496	139.81
557.709	156.81
557.921	138.81
558.134	142.81
558.346	162.81
558.559	140.81
558.771	135.81
558.984	143.81
559.196	134.81
559.409	134.81
559.621	134.81
559.833	123.81
560.046	129.81
560.258	137.81
560.47	141.81
560.683	140.81
560.895	142.81
561.107	129.81
561.32	142.81
561.532	121.81
561.744	144.81
561.956	140.81
562.168	143.81
562.381	148.81
562.593	129.81
562.805	140.81
563.017	134.81
563.229	123.81
563.441	126.81
563.653	142.81
563.865	120.81
564.077	115.81
564.289	121.81
564.501	127.81
564.713	118.81
564.925	116.81
565.137	121.81
565.349	113.81
565.561	131.81
565.773	108.81
565.985	116.81
566.197	126.81
566.408	120.81
566.62	129.81
566.832	118.81
567.044	108.81
567.255	132.81
567.467	121.81
567.679	110.81
567.891	105.81
568.102	97.81
568.314	95.81
568.526	91.81
568.737	82.81
568.949	74.81
569.161	81.81
569.372	81.81
569.584	93.81
569.795	71.81
570.007	88.81
570.218	97.81
570.43	102.81
570.641	104.81
570.853	105.81
571.064	102.81
571.276	104.81
571.487	111.81
571.698	107.81
571.91	105.81
572.121	104.81
572.333	112.81
572.544	102.81
572.755	106.81
572.966	106.81
573.178	92.81
573.389	98.81
573.6	82.81
573.811	83.81
574.023	81.81
574.234	74.81
574.445	88.81
574.656	110.81
574.867	80.81
575.078	91.81
575.289	103.81
575.501	88.81
575.712	105.81
575.923	95.81
576.134	91.81
576.345	103.81
576.556	90.81
576.767	112.81
576.978	100.81
577.188	110.81
577.399	82.81
577.61	78.81
577.821	99.81
578.032	98.81
578.243	107.81
578.454	101.81
578.665	89.81
578.875	95.81
579.086	85.81
579.297	86.81
579.508	86.81
579.718	79.81
579.929	84.81
580.14	74.81
580.35	87.81
580.561	71.81
580.772	99.81
580.982	86.81
581.193	94.81
581.403	98.81
581.614	99.81
581.825	101.81
582.035	75.81
582.246	82.81
582.456	77.81
582.667	80.81
582.877	88.81
583.087	97.81
583.298	82.81
583.508	84.81
583.719	82.81
583.929	90.81
584.139	100.81
584.35	91.81
584.56	87.81
584.77	96.81
584.981	82.81
585.191	95.81
585.401	93.81
585.611	103.81
585.821	87.81
586.032	76.81
586.242	84.81
586.452	97.81
586.662	95.81
586.872	93.81
587.082	71.81
587.292	85.81
587.502	102.81
587.713	74.81
587.923	86.81
588.133	73.81
588.343	97.81
588.553	98.81
588.762	88.81
588.972	73.81
589.182	66.81
589.392	76.81
589.602	87.81
589.812	82.81
590.022	87.81
590.232	79.81
590.441	75.81
590.651	82.81
590.861	87.81
591.071	97.81
591.281	86.81
591.49	86.81
591.7	73.81
591.91	76.81
592.119	88.81
592.329	91.81
592.539	94.81
592.748	90.81
592.958	86.81
593.167	79.81
593.377	83.81
593.587	91.81
593.796	79.81
594.006	75.81
594.215	94.81
594.424	103.81
594.634	85.81
594.843	84.81
595.053	79.81
595.262	91.81
595.472	91.81
595.681	91.81
595.89	88.81
596.1	86.81
596.309	91.81
596.518	80.81
596.727	101.81
596.937	107.81
597.146	91.81
597.355	93.81
597.564	86.81
597.774	98.81
597.983	99.81
598.192	79.81
598.401	88.81
598.61	79.81
598.819	91.81
599.028	93.81
599.237	96.81
599.446	94.81
599.655	102.81
599.864	99.81
600.073	97.81
600.282	103.81
600.491	98.81
600.7	70.81
600.909	95.81
601.118	100.81
601.327	114.81
601.536	113.81
601.745	123.81
601.953	102.81
602.162	106.81
602.371	104.81
602.58	96.81
602.789	101.81
602.997	120.81
603.206	103.81
603.415	108.81
603.623	118.81
603.832	106.81
604.041	105.81
604.249	110.81
604.458	104.81
604.666	96.81
604.875	81.81
605.084	105.81
605.292	114.81
605.501	108.81
605.709	119.81
605.918	120.81
606.126	106.81
606.334	110.81
606.543	122.81
606.751	120.81
606.96	119.81
607.168	119.81
607.376	105.81
607.585	125.81
607.793	118.81
608.001	112.81
608.21	106.81
608.418	116.81
608.626	110.81
608.834	104.81
609.043	120.81
609.251	106.81
609.459	126.81
609.667	129.81
609.875	118.81
610.083	110.81
610.291	114.81
610.499	114.81
610.707	117.81
610.916	114.81
611.124	107.81
611.332	126.81
611.54	108.81
611.748	112.81
611.955	116.81
612.163	111.81
612.371	124.81
612.579	97.81
612.787	114.81
612.995	116.81
613.203	109.81
613.411	120.81
613.618	114.81
613.826	113.81
614.034	112.81
614.242	117.81
614.449	107.81
614.657	106.81
614.865	117.81
615.072	110.81
615.28	107.81
615.488	107.81
615.695	111.81
615.903	118.81
616.111	129.81
616.318	122.81
616.526	126.81
616.733	115.81
616.941	86.81
617.148	116.81
617.356	120.81
617.563	119.81
617.771	111.81
617.978	115.81
618.185	117.81
618.393	113.81
618.6	104.81
618.807	114.81
619.015	126.81
619.222	104.81
619.429	100.81
619.637	104.81
619.844	91.81
620.051	100.81
620.258	113.81
620.466	109.81
620.673	117.81
620.88	127.81
621.087	106.81
621.294	113.81
621.501	103.81
621.708	98.81
621.915	108.81
622.122	103.81
622.329	106.81
622.536	117.81
622.743	111.81
622.95	110.81
623.157	111.81
623.364	104.81
623.571	111.81
623.778	104.81
623.985	109.81
624.192	118.81
624.399	114.81
624.606	104.81
624.812	106.81
625.019	104.81
625.226	121.81
625.433	101.81
625.639	92.81
625.846	105.81
626.053	105.81
626.259	101.81
626.466	87.81
626.673	93.81
626.879	96.81
627.086	87.81
627.293	96.81
627.499	108.81
627.706	102.81
627.912	110.81
628.119	115.81
628.325	112.81
628.532	114.81
628.738	101.81
628.945	99.81
629.151	102.81
629.357	95.81
629.564	100.81
629.77	96.81
629.976	111.81
630.183	106.81
630.389	102.81
630.595	97.81
630.802	113.81
631.008	102.81
631.214	90.81
631.42	94.81
631.627	110.81
631.833	99.81
632.039	103.81
632.245	91.81
632.451	114.81
632.657	118.81
632.863	116.81
633.069	104.81
633.275	104.81
633.481	93.81
633.688	94.81
633.893	91.81
634.099	102.81
634.305	96.81
634.511	104.81
634.717	106.81
634.923	100.81
635.129	105.81
635.335	103.81
635.541	105.81
635.747	101.81
635.952	83.81
636.158	99.81
636.364	114.81
636.57	121.81
636.775	99.81
636.981	112.81
637.187	110.81
637.392	96.81
637.598	106.81
637.804	101.81
638.009	105.81
638.215	87.81
638.421	102.81
638.626	97.81
638.832	120.81
639.037	98.81
639.243	106.81
639.448	90.81
639.654	113.81
639.859	114.81
640.065	104.81
640.27	100.81
640.475	103.81
640.681	93.81
640.886	95.81
641.091	93.81
641.297	91.81
641.502	106.81
641.707	87.81
641.913	102.81
642.118	102.81
642.323	93.81
642.528	121.81
642.733	111.81
642.939	103.81
643.144	89.81
643.349	97.81
643.554	106.81
643.759	100.81
643.964	94.81
644.169	113.81
644.374	88.81
644.579	102.81
644.784	112.81
644.989	86.81
645.194	101.81
645.399	107.81
645.604	99.81
645.809	88.81
646.014	98.81
646.219	101.81
646.423	91.81
646.628	99.81
646.833	107.81
647.038	105.81
647.243	92.81
647.447	104.81
647.652	102.81
647.857	99.81
648.062	83.81
648.266	94.81
648.471	98.81
648.676	99.81
648.88	98.81
649.085	95.81
649.289	101.81
649.494	92.81
649.698	100.81
649.903	88.81
650.107	89.81
650.312	86.81
650.516	94.81
650.721	106.81
650.925	105.81
651.13	105.81
651.334	89.81
651.539	102.81
651.743	88.81
651.947	88.81
652.152	95.81
652.356	106.81
652.56	100.81
652.764	102.81
652.969	100.81
653.173	99.81
653.377	77.81
653.581	85.81
653.785	91.81
653.99	104.81
654.194	79.81
654.398	88.81
654.602	98.81
654.806	89.81
655.01	95.81
655.214	90.81
655.418	84.81
655.622	92.81
655.826	81.81
656.03	99.81
656.234	96.81
656.438	94.81
656.642	100.81
656.846	101.81
657.049	84.81
657.253	89.81
657.457	82.81
657.661	95.81
657.865	86.81
658.068	83.81
658.272	72.81
658.476	88.81
658.68	94.81
658.883	96.81
659.087	101.81
659.291	104.81
659.494	102.81
659.698	95.81
659.901	88.81
660.105	88.81
660.309	82.81
660.512	75.81
660.716	76.81
660.919	88.81
661.123	88.81
661.326	90.81
661.53	81.81
661.733	60.81
661.936	77.81
662.14	70.81
662.343	76.81
662.546	83.81
662.75	77.81
662.953	85.81
663.156	87.81
663.36	79.81
663.563	92.81
663.766	91.81
663.969	83.81
664.173	94.81
664.376	76.81
664.579	90.81
664.782	75.81
664.985	84.81
665.188	69.81
665.391	76.81
665.594	81.81
665.797	71.81
666	82.81
666.203	70.81
666.406	78.81
666.609	81.81
666.812	84.81
667.015	79.81
667.218	92.81
667.421	82.81
667.624	70.81
667.827	86.81
668.03	89.81
668.232	73.81
668.435	99.81
668.638	85.81
668.841	73.81
669.043	88.81
669.246	84.81
669.449	79.81
669.651	81.81
669.854	59.81
670.057	71.81
670.259	83.81
670.462	94.81
670.665	93.81
670.867	79.81
671.07	83.81
671.272	86.81
671.475	90.81
671.677	80.81
671.88	79.81
672.082	79.81
672.284	83.81
672.487	90.81
672.689	97.81
672.892	84.81
