Data from Location6.07152019.Energy5.Lamp.07192019.3%Agarose_HRD10591_16-12-51-399.txt Node
Date: Fri Jul 19 16:12:51 EDT 2019
User: cochatt
Spectrometer: HR+D1059
Trigger mode: 1
Integration Time (sec): 1.000000E-1
Scans to average: 1
Electric dark correction enabled: true
Nonlinearity correction enabled: false
Boxcar width: 0
XAxis mode: Wavelengths
Number of Pixels in Spectrum: 2048
>>>>>Begin Spectral Data<<<<<
223.165	-8.06
223.4	-8.06
223.635	-8.06
223.869	-11.06
224.104	-5.06
224.338	-6.06
224.573	-11.06
224.808	-6.06
225.042	-2.06
225.277	-11.06
225.511	-9.06
225.746	-3.06
225.98	-12.06
226.215	5.94
226.449	16.94
226.683	12.94
226.918	15.94
227.152	32.94
227.387	43.94
227.621	36.94
227.856	44.94
228.09	40.94
228.324	54.94
228.559	52.94
228.793	57.94
229.027	81.94
229.262	56.94
229.496	63.94
229.73	64.94
229.964	74.94
230.199	67.94
230.433	67.94
230.667	72.94
230.901	75.94
231.136	83.94
231.37	83.94
231.604	82.94
231.838	78.94
232.072	86.94
232.306	79.94
232.541	82.94
232.775	81.94
233.009	97.94
233.243	78.94
233.477	94.94
233.711	65.94
233.945	82.94
234.179	86.94
234.413	93.94
234.647	75.94
234.881	67.94
235.115	86.94
235.349	83.94
235.583	85.94
235.817	103.94
236.051	84.94
236.285	77.94
236.519	83.94
236.753	77.94
236.987	91.94
237.221	86.94
237.455	76.94
237.689	85.94
237.922	78.94
238.156	93.94
238.39	75.94
238.624	76.94
238.858	77.94
239.091	86.94
239.325	83.94
239.559	75.94
239.793	82.94
240.027	73.94
240.26	65.94
240.494	77.94
240.728	87.94
240.961	75.94
241.195	79.94
241.429	83.94
241.662	65.94
241.896	87.94
242.13	78.94
242.363	72.94
242.597	86.94
242.83	91.94
243.064	83.94
243.298	84.94
243.531	74.94
243.765	91.94
243.998	74.94
244.232	85.94
244.465	83.94
244.699	69.94
244.932	86.94
245.166	96.94
245.399	81.94
245.633	63.94
245.866	87.94
246.099	79.94
246.333	83.94
246.566	80.94
246.8	85.94
247.033	92.94
247.266	81.94
247.5	77.94
247.733	94.94
247.966	81.94
248.2	70.94
248.433	74.94
248.666	75.94
248.899	85.94
249.133	71.94
249.366	84.94
249.599	83.94
249.832	86.94
250.066	73.94
250.299	84.94
250.532	71.94
250.765	82.94
250.998	90.94
251.231	74.94
251.465	86.94
251.698	89.94
251.931	83.94
252.164	85.94
252.397	85.94
252.63	84.94
252.863	86.94
253.096	83.94
253.329	92.94
253.562	74.94
253.795	84.94
254.028	92.94
254.261	81.94
254.494	74.94
254.727	92.94
254.96	78.94
255.193	86.94
255.426	80.94
255.659	85.94
255.892	95.94
256.124	76.94
256.357	69.94
256.59	82.94
256.823	76.94
257.056	88.94
257.289	85.94
257.521	85.94
257.754	77.94
257.987	75.94
258.22	80.94
258.452	99.94
258.685	76.94
258.918	78.94
259.151	80.94
259.383	85.94
259.616	89.94
259.849	93.94
260.081	83.94
260.314	74.94
260.547	75.94
260.779	74.94
261.012	88.94
261.244	83.94
261.477	90.94
261.71	81.94
261.942	81.94
262.175	89.94
262.407	95.94
262.64	95.94
262.872	88.94
263.105	74.94
263.337	83.94
263.57	73.94
263.802	70.94
264.035	84.94
264.267	90.94
264.499	94.94
264.732	100.94
264.964	91.94
265.197	100.94
265.429	85.94
265.661	77.94
265.894	94.94
266.126	86.94
266.358	83.94
266.591	97.94
266.823	90.94
267.055	90.94
267.287	89.94
267.52	96.94
267.752	96.94
267.984	85.94
268.216	76.94
268.448	85.94
268.681	99.94
268.913	87.94
269.145	84.94
269.377	85.94
269.609	67.94
269.841	75.94
270.073	71.94
270.306	90.94
270.538	92.94
270.77	86.94
271.002	89.94
271.234	82.94
271.466	68.94
271.698	93.94
271.93	101.94
272.162	85.94
272.394	82.94
272.626	77.94
272.858	83.94
273.09	87.94
273.322	97.94
273.553	79.94
273.785	87.94
274.017	76.94
274.249	85.94
274.481	86.94
274.713	90.94
274.945	92.94
275.176	96.94
275.408	90.94
275.64	93.94
275.872	77.94
276.104	93.94
276.335	89.94
276.567	83.94
276.799	90.94
277.031	84.94
277.262	84.94
277.494	97.94
277.726	80.94
277.957	99.94
278.189	101.94
278.421	78.94
278.652	84.94
278.884	88.94
279.115	82.94
279.347	100.94
279.579	76.94
279.81	83.94
280.042	83.94
280.273	87.94
280.505	84.94
280.736	96.94
280.968	94.94
281.199	91.94
281.431	93.94
281.662	88.94
281.894	83.94
282.125	83.94
282.356	94.94
282.588	99.94
282.819	95.94
283.051	84.94
283.282	79.94
283.513	90.94
283.745	78.94
283.976	78.94
284.207	81.94
284.439	93.94
284.67	91.94
284.901	87.94
285.132	82.94
285.364	79.94
285.595	84.94
285.826	101.94
286.057	94.94
286.288	83.94
286.52	90.94
286.751	88.94
286.982	90.94
287.213	92.94
287.444	91.94
287.675	86.94
287.906	92.94
288.138	77.94
288.369	90.94
288.6	89.94
288.831	88.94
289.062	98.94
289.293	94.94
289.524	73.94
289.755	81.94
289.986	82.94
290.217	94.94
290.448	93.94
290.679	103.94
290.91	73.94
291.141	94.94
291.371	81.94
291.602	101.94
291.833	80.94
292.064	83.94
292.295	74.94
292.526	93.94
292.757	94.94
292.987	92.94
293.218	86.94
293.449	80.94
293.68	92.94
293.91	86.94
294.141	84.94
294.372	92.94
294.603	92.94
294.833	76.94
295.064	94.94
295.295	81.94
295.525	72.94
295.756	90.94
295.987	92.94
296.217	85.94
296.448	90.94
296.679	94.94
296.909	98.94
297.14	83.94
297.37	92.94
297.601	83.94
297.831	88.94
298.062	85.94
298.292	80.94
298.523	87.94
298.753	76.94
298.984	85.94
299.214	90.94
299.445	100.94
299.675	85.94
299.905	90.94
300.136	92.94
300.366	85.94
300.597	97.94
300.827	82.94
301.057	90.94
301.288	87.94
301.518	79.94
301.748	99.94
301.979	85.94
302.209	81.94
302.439	81.94
302.669	97.94
302.9	85.94
303.13	98.94
303.36	75.94
303.59	73.94
303.82	84.94
304.051	82.94
304.281	88.94
304.511	95.94
304.741	94.94
304.971	76.94
305.201	89.94
305.431	82.94
305.661	85.94
305.891	95.94
306.121	91.94
306.352	79.94
306.582	85.94
306.812	86.94
307.042	76.94
307.272	87.94
307.502	82.94
307.731	96.94
307.961	99.94
308.191	85.94
308.421	101.94
308.651	83.94
308.881	77.94
309.111	78.94
309.341	99.94
309.571	79.94
309.8	85.94
310.03	89.94
310.26	97.94
310.49	99.94
310.72	68.94
310.949	74.94
311.179	97.94
311.409	85.94
311.639	91.94
311.868	76.94
312.098	79.94
312.328	91.94
312.557	85.94
312.787	80.94
313.017	94.94
313.246	82.94
313.476	89.94
313.706	85.94
313.935	98.94
314.165	86.94
314.394	94.94
314.624	87.94
314.853	94.94
315.083	82.94
315.312	83.94
315.542	94.94
315.771	80.94
316.001	93.94
316.23	79.94
316.46	77.94
316.689	98.94
316.919	101.94
317.148	97.94
317.377	96.94
317.607	86.94
317.836	97.94
318.065	87.94
318.295	102.94
318.524	85.94
318.753	77.94
318.983	85.94
319.212	91.94
319.441	90.94
319.67	73.94
319.9	63.94
320.129	97.94
320.358	78.94
320.587	86.94
320.816	79.94
321.046	84.94
321.275	82.94
321.504	89.94
321.733	90.94
321.962	85.94
322.191	79.94
322.42	82.94
322.649	84.94
322.878	89.94
323.108	79.94
323.337	89.94
323.566	99.94
323.795	84.94
324.024	97.94
324.253	88.94
324.482	98.94
324.71	91.94
324.939	96.94
325.168	85.94
325.397	89.94
325.626	80.94
325.855	87.94
326.084	85.94
326.313	87.94
326.542	84.94
326.77	79.94
326.999	86.94
327.228	83.94
327.457	79.94
327.686	83.94
327.914	86.94
328.143	93.94
328.372	82.94
328.6	72.94
328.829	84.94
329.058	80.94
329.287	97.94
329.515	90.94
329.744	87.94
329.972	82.94
330.201	84.94
330.43	86.94
330.658	88.94
330.887	82.94
331.115	67.94
331.344	84.94
331.572	95.94
331.801	99.94
332.03	95.94
332.258	104.94
332.486	97.94
332.715	92.94
332.943	84.94
333.172	86.94
333.4	82.94
333.629	89.94
333.857	96.94
334.085	82.94
334.314	101.94
334.542	87.94
334.771	92.94
334.999	90.94
335.227	94.94
335.455	93.94
335.684	89.94
335.912	81.94
336.14	80.94
336.369	97.94
336.597	91.94
336.825	76.94
337.053	88.94
337.281	92.94
337.51	85.94
337.738	97.94
337.966	80.94
338.194	89.94
338.422	85.94
338.65	86.94
338.878	93.94
339.106	93.94
339.334	91.94
339.562	77.94
339.79	86.94
340.018	86.94
340.246	97.94
340.474	89.94
340.702	92.94
340.93	93.94
341.158	79.94
341.386	100.94
341.614	95.94
341.842	93.94
342.07	89.94
342.298	74.94
342.526	92.94
342.754	85.94
342.981	89.94
343.209	89.94
343.437	78.94
343.665	86.94
343.893	97.94
344.12	87.94
344.348	88.94
344.576	84.94
344.804	78.94
345.031	80.94
345.259	91.94
345.487	94.94
345.714	83.94
345.942	78.94
346.17	82.94
346.397	97.94
346.625	83.94
346.853	86.94
347.08	79.94
347.308	96.94
347.535	89.94
347.763	100.94
347.99	86.94
348.218	97.94
348.445	97.94
348.673	76.94
348.9	93.94
349.128	83.94
349.355	89.94
349.583	90.94
349.81	81.94
350.037	82.94
350.265	91.94
350.492	94.94
350.72	85.94
350.947	78.94
351.174	73.94
351.402	78.94
351.629	87.94
351.856	83.94
352.083	77.94
352.311	85.94
352.538	100.94
352.765	95.94
352.992	93.94
353.22	97.94
353.447	79.94
353.674	90.94
353.901	84.94
354.128	81.94
354.355	83.94
354.583	99.94
354.81	89.94
355.037	88.94
355.264	94.94
355.491	87.94
355.718	90.94
355.945	79.94
356.172	81.94
356.399	91.94
356.626	79.94
356.853	92.94
357.08	87.94
357.307	91.94
357.534	87.94
357.761	76.94
357.988	86.94
358.215	100.94
358.441	72.94
358.668	91.94
358.895	89.94
359.122	75.94
359.349	83.94
359.576	92.94
359.802	92.94
360.029	87.94
360.256	90.94
360.483	71.94
360.709	84.94
360.936	103.94
361.163	109.94
361.39	86.94
361.616	99.94
361.843	87.94
362.07	85.94
362.296	87.94
362.523	74.94
362.749	82.94
362.976	81.94
363.203	97.94
363.429	101.94
363.656	99.94
363.882	87.94
364.109	95.94
364.335	87.94
364.562	85.94
364.788	87.94
365.015	85.94
365.241	89.94
365.468	78.94
365.694	89.94
365.92	96.94
366.147	88.94
366.373	98.94
366.599	80.94
366.826	80.94
367.052	67.94
367.278	94.94
367.505	89.94
367.731	103.94
367.957	98.94
368.184	95.94
368.41	79.94
368.636	103.94
368.862	94.94
369.089	92.94
369.315	98.94
369.541	86.94
369.767	93.94
369.993	96.94
370.219	106.94
370.445	102.94
370.672	82.94
370.898	91.94
371.124	89.94
371.35	109.94
371.576	107.94
371.802	77.94
372.028	97.94
372.254	96.94
372.48	90.94
372.706	81.94
372.932	114.94
373.158	102.94
373.384	91.94
373.61	79.94
373.835	90.94
374.061	94.94
374.287	89.94
374.513	109.94
374.739	100.94
374.965	85.94
375.191	96.94
375.416	110.94
375.642	95.94
375.868	90.94
376.094	87.94
376.319	99.94
376.545	93.94
376.771	102.94
376.997	108.94
377.222	92.94
377.448	105.94
377.674	100.94
377.899	107.94
378.125	101.94
378.35	108.94
378.576	83.94
378.802	102.94
379.027	116.94
379.253	95.94
379.478	99.94
379.704	108.94
379.929	98.94
380.155	103.94
380.38	95.94
380.606	97.94
380.831	93.94
381.057	105.94
381.282	118.94
381.507	110.94
381.733	104.94
381.958	102.94
382.184	104.94
382.409	96.94
382.634	98.94
382.86	100.94
383.085	95.94
383.31	97.94
383.535	99.94
383.761	101.94
383.986	98.94
384.211	101.94
384.436	100.94
384.662	98.94
384.887	98.94
385.112	97.94
385.337	97.94
385.562	92.94
385.787	110.94
386.013	117.94
386.238	113.94
386.463	89.94
386.688	92.94
386.913	99.94
387.138	106.94
387.363	90.94
387.588	85.94
387.813	121.94
388.038	105.94
388.263	107.94
388.488	94.94
388.713	100.94
388.938	102.94
389.163	111.94
389.387	103.94
389.612	99.94
389.837	109.94
390.062	101.94
390.287	110.94
390.512	106.94
390.736	125.94
390.961	119.94
391.186	107.94
391.411	103.94
391.636	85.94
391.86	108.94
392.085	118.94
392.31	115.94
392.534	101.94
392.759	118.94
392.984	109.94
393.208	105.94
393.433	114.94
393.658	113.94
393.882	106.94
394.107	114.94
394.331	106.94
394.556	110.94
394.78	119.94
395.005	107.94
395.229	116.94
395.454	113.94
395.678	113.94
395.903	125.94
396.127	117.94
396.352	111.94
396.576	104.94
396.801	97.94
397.025	121.94
397.249	118.94
397.474	114.94
397.698	118.94
397.922	109.94
398.147	109.94
398.371	118.94
398.595	113.94
398.82	115.94
399.044	115.94
399.268	116.94
399.492	121.94
399.717	115.94
399.941	130.94
400.165	126.94
400.389	114.94
400.613	120.94
400.837	119.94
401.062	108.94
401.286	105.94
401.51	122.94
401.734	121.94
401.958	101.94
402.182	108.94
402.406	126.94
402.63	109.94
402.854	120.94
403.078	121.94
403.302	120.94
403.526	112.94
403.75	125.94
403.974	123.94
404.198	130.94
404.422	135.94
404.645	118.94
404.869	124.94
405.093	122.94
405.317	127.94
405.541	123.94
405.765	124.94
405.988	121.94
406.212	128.94
406.436	133.94
406.66	128.94
406.883	134.94
407.107	122.94
407.331	125.94
407.555	125.94
407.778	119.94
408.002	121.94
408.226	132.94
408.449	119.94
408.673	117.94
408.896	134.94
409.12	112.94
409.344	113.94
409.567	127.94
409.791	123.94
410.014	124.94
410.238	126.94
410.461	123.94
410.685	126.94
410.908	131.94
411.132	131.94
411.355	124.94
411.578	126.94
411.802	115.94
412.025	121.94
412.249	113.94
412.472	119.94
412.695	107.94
412.919	121.94
413.142	134.94
413.365	129.94
413.589	115.94
413.812	130.94
414.035	126.94
414.258	120.94
414.482	126.94
414.705	130.94
414.928	135.94
415.151	131.94
415.374	129.94
415.597	109.94
415.821	131.94
416.044	126.94
416.267	127.94
416.49	119.94
416.713	139.94
416.936	136.94
417.159	149.94
417.382	121.94
417.605	136.94
417.828	116.94
418.051	144.94
418.274	138.94
418.497	138.94
418.72	133.94
418.943	130.94
419.166	153.94
419.389	159.94
419.611	129.94
419.834	135.94
420.057	139.94
420.28	140.94
420.503	131.94
420.726	138.94
420.948	141.94
421.171	145.94
421.394	145.94
421.617	142.94
421.839	141.94
422.062	133.94
422.285	143.94
422.507	147.94
422.73	155.94
422.953	138.94
423.175	135.94
423.398	135.94
423.621	137.94
423.843	142.94
424.066	137.94
424.288	142.94
424.511	147.94
424.733	163.94
424.956	145.94
425.178	141.94
425.401	155.94
425.623	157.94
425.846	147.94
426.068	153.94
426.291	123.94
426.513	143.94
426.735	140.94
426.958	151.94
427.18	135.94
427.402	148.94
427.625	143.94
427.847	133.94
428.069	134.94
428.292	141.94
428.514	123.94
428.736	133.94
428.958	132.94
429.181	132.94
429.403	134.94
429.625	131.94
429.847	134.94
430.069	141.94
430.292	146.94
430.514	140.94
430.736	141.94
430.958	143.94
431.18	133.94
431.402	141.94
431.624	134.94
431.846	112.94
432.068	104.94
432.29	106.94
432.512	116.94
432.734	145.94
432.956	142.94
433.178	142.94
433.4	143.94
433.622	146.94
433.844	137.94
434.066	116.94
434.287	108.94
434.509	94.94
434.731	101.94
434.953	106.94
435.175	120.94
435.397	134.94
435.618	123.94
435.84	123.94
436.062	115.94
436.284	119.94
436.505	139.94
436.727	136.94
436.949	158.94
437.17	143.94
437.392	159.94
437.614	137.94
437.835	117.94
438.057	115.94
438.278	105.94
438.5	117.94
438.721	130.94
438.943	153.94
439.165	142.94
439.386	144.94
439.608	161.94
439.829	146.94
440.05	140.94
440.272	139.94
440.493	151.94
440.715	151.94
440.936	152.94
441.158	142.94
441.379	154.94
441.6	142.94
441.822	149.94
442.043	136.94
442.264	142.94
442.486	156.94
442.707	132.94
442.928	148.94
443.149	150.94
443.371	151.94
443.592	135.94
443.813	155.94
444.034	149.94
444.255	154.94
444.476	152.94
444.698	141.94
444.919	163.94
445.14	284.94
445.361	187.94
445.582	172.94
445.803	149.94
446.024	159.94
446.245	154.94
446.466	162.94
446.687	170.94
446.908	166.94
447.129	160.94
447.35	170.94
447.571	162.94
447.792	151.94
448.013	158.94
448.234	147.94
448.455	156.94
448.675	158.94
448.896	142.94
449.117	138.94
449.338	144.94
449.559	140.94
449.779	146.94
450	147.94
450.221	131.94
450.442	130.94
450.662	143.94
450.883	138.94
451.104	138.94
451.324	123.94
451.545	147.94
451.766	125.94
451.986	125.94
452.207	136.94
452.428	119.94
452.648	131.94
452.869	135.94
453.089	114.94
453.31	118.94
453.53	117.94
453.751	123.94
453.971	117.94
454.192	116.94
454.412	109.94
454.633	133.94
454.853	109.94
455.073	130.94
455.294	118.94
455.514	129.94
455.734	116.94
455.955	134.94
456.175	130.94
456.395	110.94
456.616	116.94
456.836	110.94
457.056	115.94
457.276	108.94
457.497	122.94
457.717	102.94
457.937	118.94
458.157	113.94
458.377	108.94
458.598	99.94
458.818	103.94
459.038	103.94
459.258	98.94
459.478	85.94
459.698	89.94
459.918	100.94
460.138	116.94
460.358	121.94
460.578	121.94
460.798	117.94
461.018	121.94
461.238	124.94
461.458	142.94
461.678	129.94
461.898	122.94
462.118	119.94
462.338	119.94
462.558	129.94
462.777	129.94
462.997	120.94
463.217	109.94
463.437	133.94
463.657	109.94
463.876	116.94
464.096	119.94
464.316	115.94
464.536	135.94
464.755	99.94
464.975	109.94
465.195	118.94
465.414	117.94
465.634	116.94
465.854	126.94
466.073	125.94
466.293	132.94
466.512	140.94
466.732	144.94
466.951	145.94
467.171	135.94
467.391	146.94
467.61	147.94
467.829	147.94
468.049	138.94
468.268	124.94
468.488	151.94
468.707	143.94
468.927	135.94
469.146	150.94
469.365	153.94
469.585	146.94
469.804	148.94
470.023	148.94
470.243	143.94
470.462	149.94
470.681	145.94
470.901	150.94
471.12	165.94
471.339	151.94
471.558	149.94
471.777	148.94
471.997	140.94
472.216	146.94
472.435	125.94
472.654	117.94
472.873	127.94
473.092	115.94
473.311	113.94
473.53	125.94
473.749	134.94
473.968	142.94
474.187	144.94
474.406	126.94
474.625	141.94
474.844	133.94
475.063	127.94
475.282	132.94
475.501	123.94
475.72	124.94
475.939	125.94
476.158	135.94
476.377	138.94
476.596	133.94
476.814	127.94
477.033	118.94
477.252	117.94
477.471	123.94
477.69	127.94
477.908	147.94
478.127	158.94
478.346	144.94
478.564	136.94
478.783	149.94
479.002	151.94
479.22	154.94
479.439	138.94
479.658	123.94
479.876	110.94
480.095	117.94
480.313	131.94
480.532	127.94
480.751	108.94
480.969	89.94
481.188	104.94
481.406	120.94
481.624	105.94
481.843	86.94
482.061	109.94
482.28	108.94
482.498	125.94
482.717	125.94
482.935	137.94
483.153	154.94
483.372	160.94
483.59	165.94
483.808	151.94
484.027	144.94
484.245	149.94
484.463	166.94
484.681	169.94
484.9	168.94
485.118	160.94
485.336	139.94
485.554	110.94
485.772	101.94
485.99	113.94
486.209	120.94
486.427	126.94
486.645	137.94
486.863	147.94
487.081	141.94
487.299	139.94
487.517	153.94
487.735	170.94
487.953	189.94
488.171	190.94
488.389	193.94
488.607	164.94
488.825	160.94
489.043	132.94
489.261	150.94
489.479	147.94
489.696	150.94
489.914	150.94
490.132	158.94
490.35	167.94
490.568	160.94
490.786	179.94
491.003	177.94
491.221	178.94
491.439	193.94
491.657	193.94
491.874	204.94
492.092	247.94
492.31	245.94
492.527	237.94
492.745	209.94
492.963	211.94
493.18	195.94
493.398	200.94
493.615	182.94
493.833	195.94
494.05	192.94
494.268	188.94
494.485	190.94
494.703	189.94
494.92	189.94
495.138	164.94
495.355	190.94
495.573	199.94
495.79	186.94
496.008	181.94
496.225	179.94
496.442	163.94
496.66	186.94
496.877	165.94
497.094	172.94
497.312	170.94
497.529	166.94
497.746	174.94
497.963	144.94
498.181	138.94
498.398	140.94
498.615	124.94
498.832	122.94
499.049	123.94
499.267	139.94
499.484	123.94
499.701	150.94
499.918	146.94
500.135	149.94
500.352	161.94
500.569	157.94
500.786	151.94
501.003	136.94
501.22	145.94
501.437	135.94
501.654	134.94
501.871	136.94
502.088	129.94
502.305	130.94
502.522	137.94
502.739	153.94
502.956	142.94
503.172	131.94
503.389	149.94
503.606	123.94
503.823	132.94
504.04	130.94
504.256	127.94
504.473	127.94
504.69	122.94
504.907	136.94
505.123	125.94
505.34	123.94
505.557	115.94
505.773	127.94
505.99	122.94
506.207	142.94
506.423	134.94
506.64	136.94
506.856	129.94
507.073	127.94
507.289	127.94
507.506	132.94
507.722	131.94
507.939	129.94
508.155	113.94
508.372	128.94
508.588	117.94
508.805	128.94
509.021	129.94
509.238	107.94
509.454	106.94
509.67	98.94
509.887	89.94
510.103	86.94
510.319	87.94
510.536	105.94
510.752	86.94
510.968	95.94
511.184	94.94
511.401	74.94
511.617	76.94
511.833	85.94
512.049	95.94
512.265	88.94
512.481	111.94
512.698	111.94
512.914	100.94
513.13	99.94
513.346	76.94
513.562	86.94
513.778	105.94
513.994	97.94
514.21	92.94
514.426	87.94
514.642	86.94
514.858	94.94
515.074	88.94
515.29	96.94
515.506	94.94
515.721	102.94
515.937	94.94
516.153	88.94
516.369	99.94
516.585	84.94
516.801	93.94
517.016	80.94
517.232	92.94
517.448	98.94
517.664	105.94
517.879	100.94
518.095	80.94
518.311	101.94
518.527	86.94
518.742	95.94
518.958	116.94
519.173	119.94
519.389	130.94
519.605	114.94
519.82	116.94
520.036	111.94
520.251	114.94
520.467	131.94
520.682	103.94
520.898	103.94
521.113	83.94
521.329	99.94
521.544	99.94
521.76	93.94
521.975	103.94
522.19	101.94
522.406	110.94
522.621	109.94
522.836	97.94
523.052	105.94
523.267	119.94
523.482	111.94
523.698	125.94
523.913	123.94
524.128	114.94
524.343	134.94
524.559	116.94
524.774	128.94
524.989	133.94
525.204	118.94
525.419	132.94
525.634	105.94
525.849	117.94
526.064	116.94
526.28	103.94
526.495	111.94
526.71	83.94
526.925	79.94
527.14	86.94
527.355	85.94
527.57	95.94
527.785	100.94
527.999	114.94
528.214	108.94
528.429	113.94
528.644	120.94
528.859	138.94
529.074	149.94
529.289	164.94
529.503	153.94
529.718	154.94
529.933	141.94
530.148	116.94
530.363	93.94
530.577	86.94
530.792	82.94
531.007	84.94
531.221	82.94
531.436	85.94
531.651	77.94
531.865	90.94
532.08	100.94
532.295	109.94
532.509	89.94
532.724	101.94
532.938	87.94
533.153	103.94
533.367	122.94
533.582	125.94
533.796	147.94
534.011	121.94
534.225	105.94
534.44	109.94
534.654	105.94
534.868	102.94
535.083	97.94
535.297	99.94
535.511	126.94
535.726	113.94
535.94	102.94
536.154	115.94
536.369	102.94
536.583	92.94
536.797	101.94
537.011	86.94
537.225	85.94
537.44	96.94
537.654	98.94
537.868	97.94
538.082	94.94
538.296	100.94
538.51	123.94
538.724	123.94
538.938	123.94
539.153	130.94
539.367	129.94
539.581	121.94
539.795	124.94
540.009	105.94
540.222	108.94
540.436	113.94
540.65	120.94
540.864	139.94
541.078	150.94
541.292	156.94
541.506	178.94
541.72	181.94
541.934	193.94
542.147	236.94
542.361	198.94
542.575	174.94
542.789	162.94
543.002	142.94
543.216	143.94
543.43	125.94
543.644	137.94
543.857	173.94
544.071	164.94
544.285	174.94
544.498	170.94
544.712	157.94
544.925	168.94
545.139	169.94
545.352	163.94
545.566	177.94
545.779	163.94
545.993	163.94
546.206	194.94
546.42	173.94
546.633	167.94
546.847	163.94
547.06	197.94
547.274	186.94
547.487	187.94
547.7	188.94
547.914	178.94
548.127	169.94
548.34	159.94
548.554	168.94
548.767	161.94
548.98	175.94
549.193	154.94
549.407	167.94
549.62	163.94
549.833	154.94
550.046	165.94
550.259	156.94
550.473	159.94
550.686	155.94
550.899	167.94
551.112	155.94
551.325	154.94
551.538	132.94
551.751	126.94
551.964	128.94
552.177	145.94
552.39	138.94
552.603	146.94
552.816	168.94
553.029	165.94
553.242	160.94
553.455	178.94
553.667	168.94
553.88	159.94
554.093	153.94
554.306	162.94
554.519	152.94
554.732	166.94
554.944	146.94
555.157	159.94
555.37	153.94
555.583	154.94
555.795	172.94
556.008	154.94
556.221	137.94
556.433	151.94
556.646	152.94
556.859	137.94
557.071	139.94
557.284	143.94
557.496	151.94
557.709	147.94
557.921	154.94
558.134	144.94
558.346	148.94
558.559	154.94
558.771	143.94
558.984	149.94
559.196	142.94
559.409	133.94
559.621	138.94
559.833	141.94
560.046	123.94
560.258	142.94
560.47	131.94
560.683	142.94
560.895	152.94
561.107	149.94
561.32	135.94
561.532	137.94
561.744	138.94
561.956	141.94
562.168	123.94
562.381	142.94
562.593	146.94
562.805	132.94
563.017	129.94
563.229	137.94
563.441	125.94
563.653	149.94
563.865	131.94
564.077	129.94
564.289	136.94
564.501	137.94
564.713	133.94
564.925	138.94
565.137	143.94
565.349	123.94
565.561	119.94
565.773	124.94
565.985	125.94
566.197	133.94
566.408	139.94
566.62	126.94
566.832	134.94
567.044	130.94
567.255	122.94
567.467	126.94
567.679	114.94
567.891	110.94
568.102	93.94
568.314	99.94
568.526	97.94
568.737	85.94
568.949	97.94
569.161	92.94
569.372	82.94
569.584	95.94
569.795	99.94
570.007	106.94
570.218	96.94
570.43	88.94
570.641	98.94
570.853	104.94
571.064	116.94
571.276	93.94
571.487	111.94
571.698	128.94
571.91	108.94
572.121	99.94
572.333	116.94
572.544	109.94
572.755	79.94
572.966	99.94
573.178	97.94
573.389	90.94
573.6	87.94
573.811	92.94
574.023	82.94
574.234	86.94
574.445	92.94
574.656	98.94
574.867	108.94
575.078	112.94
575.289	100.94
575.501	101.94
575.712	102.94
575.923	117.94
576.134	116.94
576.345	109.94
576.556	104.94
576.767	106.94
576.978	103.94
577.188	101.94
577.399	84.94
577.61	92.94
577.821	93.94
578.032	95.94
578.243	92.94
578.454	111.94
578.665	89.94
578.875	101.94
579.086	94.94
579.297	68.94
579.508	90.94
579.718	86.94
579.929	91.94
580.14	73.94
580.35	97.94
580.561	97.94
580.772	94.94
580.982	102.94
581.193	103.94
581.403	116.94
581.614	86.94
581.825	94.94
582.035	95.94
582.246	113.94
582.456	108.94
582.667	93.94
582.877	109.94
583.087	83.94
583.298	90.94
583.508	102.94
583.719	94.94
583.929	91.94
584.139	90.94
584.35	87.94
584.56	86.94
584.77	95.94
584.981	97.94
585.191	103.94
585.401	97.94
585.611	88.94
585.821	99.94
586.032	98.94
586.242	85.94
586.452	90.94
586.662	89.94
586.872	98.94
587.082	90.94
587.292	81.94
587.502	90.94
587.713	87.94
587.923	86.94
588.133	97.94
588.343	96.94
588.553	83.94
588.762	93.94
588.972	85.94
589.182	104.94
589.392	95.94
589.602	83.94
589.812	85.94
590.022	106.94
590.232	99.94
590.441	88.94
590.651	98.94
590.861	93.94
591.071	97.94
591.281	82.94
591.49	92.94
591.7	96.94
591.91	100.94
592.119	96.94
592.329	101.94
592.539	88.94
592.748	89.94
592.958	91.94
593.167	97.94
593.377	83.94
593.587	98.94
593.796	85.94
594.006	87.94
594.215	84.94
594.424	87.94
594.634	93.94
594.843	93.94
595.053	89.94
595.262	103.94
595.472	93.94
595.681	92.94
595.89	101.94
596.1	100.94
596.309	88.94
596.518	90.94
596.727	113.94
596.937	96.94
597.146	99.94
597.355	103.94
597.564	103.94
597.774	91.94
597.983	90.94
598.192	96.94
598.401	88.94
598.61	85.94
598.819	107.94
599.028	102.94
599.237	101.94
599.446	100.94
599.655	102.94
599.864	98.94
600.073	99.94
600.282	102.94
600.491	99.94
600.7	97.94
600.909	117.94
601.118	94.94
601.327	110.94
601.536	106.94
601.745	111.94
601.953	104.94
602.162	124.94
602.371	107.94
602.58	119.94
602.789	101.94
602.997	109.94
603.206	105.94
603.415	121.94
603.623	114.94
603.832	117.94
604.041	104.94
604.249	99.94
604.458	109.94
604.666	95.94
604.875	100.94
605.084	112.94
605.292	99.94
605.501	121.94
605.709	120.94
605.918	114.94
606.126	114.94
606.334	116.94
606.543	122.94
606.751	117.94
606.96	108.94
607.168	113.94
607.376	123.94
607.585	102.94
607.793	121.94
608.001	100.94
608.21	106.94
608.418	130.94
608.626	117.94
608.834	127.94
609.043	132.94
609.251	114.94
609.459	113.94
609.667	132.94
609.875	125.94
610.083	126.94
610.291	115.94
610.499	121.94
610.707	110.94
610.916	98.94
611.124	126.94
611.332	125.94
611.54	130.94
611.748	107.94
611.955	127.94
612.163	115.94
612.371	109.94
612.579	116.94
612.787	118.94
612.995	108.94
613.203	117.94
613.411	121.94
613.618	124.94
613.826	113.94
614.034	121.94
614.242	117.94
614.449	123.94
614.657	122.94
614.865	120.94
615.072	118.94
615.28	109.94
615.488	108.94
615.695	118.94
615.903	118.94
616.111	120.94
616.318	124.94
616.526	113.94
616.733	109.94
616.941	125.94
617.148	127.94
617.356	120.94
617.563	107.94
617.771	100.94
617.978	111.94
618.185	129.94
618.393	117.94
618.6	114.94
618.807	123.94
619.015	114.94
619.222	118.94
619.429	125.94
619.637	109.94
619.844	109.94
620.051	122.94
620.258	113.94
620.466	120.94
620.673	106.94
620.88	113.94
621.087	102.94
621.294	113.94
621.501	101.94
621.708	97.94
621.915	110.94
622.122	108.94
622.329	106.94
622.536	111.94
622.743	109.94
622.95	98.94
623.157	108.94
623.364	113.94
623.571	105.94
623.778	111.94
623.985	106.94
624.192	117.94
624.399	116.94
624.606	114.94
624.812	100.94
625.019	127.94
625.226	117.94
625.433	104.94
625.639	109.94
625.846	106.94
626.053	98.94
626.259	105.94
626.466	94.94
626.673	92.94
626.879	95.94
627.086	99.94
627.293	98.94
627.499	109.94
627.706	100.94
627.912	119.94
628.119	111.94
628.325	127.94
628.532	104.94
628.738	108.94
628.945	108.94
629.151	93.94
629.357	106.94
629.564	101.94
629.77	119.94
629.976	122.94
630.183	107.94
630.389	108.94
630.595	114.94
630.802	113.94
631.008	96.94
631.214	106.94
631.42	101.94
631.627	111.94
631.833	107.94
632.039	100.94
632.245	103.94
632.451	107.94
632.657	111.94
632.863	117.94
633.069	98.94
633.275	101.94
633.481	101.94
633.688	102.94
633.893	107.94
634.099	104.94
634.305	122.94
634.511	104.94
634.717	106.94
634.923	102.94
635.129	106.94
635.335	102.94
635.541	93.94
635.747	92.94
635.952	104.94
636.158	106.94
636.364	110.94
636.57	99.94
636.775	126.94
636.981	101.94
637.187	97.94
637.392	115.94
637.598	107.94
637.804	111.94
638.009	105.94
638.215	100.94
638.421	105.94
638.626	102.94
638.832	115.94
639.037	100.94
639.243	110.94
639.448	102.94
639.654	113.94
639.859	113.94
640.065	98.94
640.27	106.94
640.475	93.94
640.681	110.94
640.886	93.94
641.091	102.94
641.297	87.94
641.502	104.94
641.707	120.94
641.913	107.94
642.118	100.94
642.323	97.94
642.528	105.94
642.733	103.94
642.939	107.94
643.144	105.94
643.349	96.94
643.554	111.94
643.759	100.94
643.964	85.94
644.169	108.94
644.374	114.94
644.579	91.94
644.784	105.94
644.989	91.94
645.194	102.94
645.399	109.94
645.604	105.94
645.809	88.94
646.014	92.94
646.219	113.94
646.423	85.94
646.628	111.94
646.833	109.94
647.038	109.94
647.243	96.94
647.447	114.94
647.652	102.94
647.857	113.94
648.062	101.94
648.266	105.94
648.471	93.94
648.676	101.94
648.88	116.94
649.085	97.94
649.289	99.94
649.494	101.94
649.698	98.94
649.903	106.94
650.107	114.94
650.312	110.94
650.516	100.94
650.721	107.94
650.925	105.94
651.13	98.94
651.334	95.94
651.539	92.94
651.743	88.94
651.947	90.94
652.152	98.94
652.356	85.94
652.56	105.94
652.764	86.94
652.969	95.94
653.173	94.94
653.377	90.94
653.581	99.94
653.785	93.94
653.99	85.94
654.194	89.94
654.398	113.94
654.602	102.94
654.806	100.94
655.01	89.94
655.214	98.94
655.418	94.94
655.622	102.94
655.826	88.94
656.03	97.94
656.234	84.94
656.438	100.94
656.642	97.94
656.846	89.94
657.049	103.94
657.253	100.94
657.457	93.94
657.661	95.94
657.865	97.94
658.068	91.94
658.272	89.94
658.476	95.94
658.68	92.94
658.883	95.94
659.087	69.94
659.291	90.94
659.494	84.94
659.698	74.94
659.901	97.94
660.105	92.94
660.309	84.94
660.512	103.94
660.716	96.94
660.919	85.94
661.123	114.94
661.326	81.94
661.53	79.94
661.733	86.94
661.936	93.94
662.14	92.94
662.343	93.94
662.546	89.94
662.75	94.94
662.953	94.94
663.156	88.94
663.36	83.94
663.563	83.94
663.766	81.94
663.969	95.94
664.173	82.94
664.376	83.94
664.579	92.94
664.782	77.94
664.985	86.94
665.188	85.94
665.391	87.94
665.594	78.94
665.797	90.94
666	65.94
666.203	87.94
666.406	90.94
666.609	93.94
666.812	81.94
667.015	92.94
667.218	76.94
667.421	89.94
667.624	82.94
667.827	76.94
668.03	82.94
668.232	83.94
668.435	80.94
668.638	84.94
668.841	90.94
669.043	90.94
669.246	75.94
669.449	89.94
669.651	82.94
669.854	88.94
670.057	92.94
670.259	100.94
670.462	91.94
670.665	74.94
670.867	88.94
671.07	84.94
671.272	85.94
671.475	78.94
671.677	75.94
671.88	93.94
672.082	76.94
672.284	91.94
672.487	83.94
672.689	90.94
672.892	91.94
