Data from Location4.07152019.Energy5.Lamp.07192019.3%Agarose_HRD10591_15-26-04-578.txt Node
Date: Fri Jul 19 15:26:04 EDT 2019
User: cochatt
Spectrometer: HR+D1059
Trigger mode: 1
Integration Time (sec): 1.000000E-1
Scans to average: 1
Electric dark correction enabled: true
Nonlinearity correction enabled: false
Boxcar width: 0
XAxis mode: Wavelengths
Number of Pixels in Spectrum: 2048
>>>>>Begin Spectral Data<<<<<
223.165	-16.69
223.4	-16.69
223.635	-16.69
223.869	-7.69
224.104	-13.69
224.338	-5.69
224.573	-18.69
224.808	-15.69
225.042	0.31
225.277	-12.69
225.511	-10.69
225.746	1.31
225.98	10.31
226.215	5.31
226.449	15.31
226.683	7.31
226.918	27.31
227.152	34.31
227.387	39.31
227.621	30.31
227.856	57.31
228.09	44.31
228.324	38.31
228.559	47.31
228.793	54.31
229.027	65.31
229.262	81.31
229.496	70.31
229.73	66.31
229.964	51.31
230.199	60.31
230.433	81.31
230.667	90.31
230.901	82.31
231.136	70.31
231.37	89.31
231.604	82.31
231.838	77.31
232.072	71.31
232.306	68.31
232.541	79.31
232.775	75.31
233.009	82.31
233.243	87.31
233.477	87.31
233.711	76.31
233.945	90.31
234.179	70.31
234.413	77.31
234.647	85.31
234.881	77.31
235.115	74.31
235.349	73.31
235.583	69.31
235.817	78.31
236.051	88.31
236.285	85.31
236.519	72.31
236.753	72.31
236.987	68.31
237.221	91.31
237.455	71.31
237.689	72.31
237.922	71.31
238.156	86.31
238.39	86.31
238.624	83.31
238.858	67.31
239.091	64.31
239.325	68.31
239.559	82.31
239.793	62.31
240.027	76.31
240.26	76.31
240.494	71.31
240.728	73.31
240.961	71.31
241.195	73.31
241.429	76.31
241.662	71.31
241.896	68.31
242.13	62.31
242.363	76.31
242.597	64.31
242.83	81.31
243.064	85.31
243.298	77.31
243.531	82.31
243.765	85.31
243.998	78.31
244.232	70.31
244.465	77.31
244.699	87.31
244.932	72.31
245.166	75.31
245.399	82.31
245.633	80.31
245.866	70.31
246.099	68.31
246.333	74.31
246.566	72.31
246.8	76.31
247.033	73.31
247.266	82.31
247.5	60.31
247.733	80.31
247.966	89.31
248.2	67.31
248.433	87.31
248.666	68.31
248.899	72.31
249.133	75.31
249.366	86.31
249.599	67.31
249.832	79.31
250.066	64.31
250.299	76.31
250.532	79.31
250.765	77.31
250.998	74.31
251.231	68.31
251.465	100.31
251.698	78.31
251.931	76.31
252.164	72.31
252.397	79.31
252.63	83.31
252.863	69.31
253.096	87.31
253.329	86.31
253.562	87.31
253.795	72.31
254.028	88.31
254.261	83.31
254.494	87.31
254.727	81.31
254.96	76.31
255.193	57.31
255.426	72.31
255.659	74.31
255.892	82.31
256.124	71.31
256.357	85.31
256.59	84.31
256.823	79.31
257.056	70.31
257.289	95.31
257.521	89.31
257.754	79.31
257.987	80.31
258.22	81.31
258.452	84.31
258.685	66.31
258.918	76.31
259.151	80.31
259.383	81.31
259.616	78.31
259.849	78.31
260.081	82.31
260.314	98.31
260.547	74.31
260.779	65.31
261.012	89.31
261.244	78.31
261.477	88.31
261.71	84.31
261.942	77.31
262.175	70.31
262.407	70.31
262.64	74.31
262.872	80.31
263.105	88.31
263.337	82.31
263.57	89.31
263.802	83.31
264.035	81.31
264.267	91.31
264.499	79.31
264.732	89.31
264.964	73.31
265.197	69.31
265.429	83.31
265.661	87.31
265.894	86.31
266.126	86.31
266.358	77.31
266.591	74.31
266.823	74.31
267.055	83.31
267.287	98.31
267.52	82.31
267.752	72.31
267.984	76.31
268.216	83.31
268.448	92.31
268.681	72.31
268.913	80.31
269.145	65.31
269.377	78.31
269.609	84.31
269.841	87.31
270.073	82.31
270.306	87.31
270.538	87.31
270.77	86.31
271.002	83.31
271.234	87.31
271.466	77.31
271.698	91.31
271.93	81.31
272.162	87.31
272.394	73.31
272.626	72.31
272.858	73.31
273.09	87.31
273.322	87.31
273.553	84.31
273.785	85.31
274.017	82.31
274.249	79.31
274.481	70.31
274.713	89.31
274.945	93.31
275.176	70.31
275.408	77.31
275.64	70.31
275.872	75.31
276.104	75.31
276.335	70.31
276.567	85.31
276.799	80.31
277.031	81.31
277.262	68.31
277.494	81.31
277.726	90.31
277.957	84.31
278.189	79.31
278.421	77.31
278.652	82.31
278.884	78.31
279.115	75.31
279.347	86.31
279.579	78.31
279.81	71.31
280.042	72.31
280.273	80.31
280.505	83.31
280.736	66.31
280.968	87.31
281.199	83.31
281.431	79.31
281.662	84.31
281.894	84.31
282.125	72.31
282.356	92.31
282.588	84.31
282.819	84.31
283.051	81.31
283.282	81.31
283.513	92.31
283.745	66.31
283.976	83.31
284.207	72.31
284.439	90.31
284.67	89.31
284.901	74.31
285.132	83.31
285.364	93.31
285.595	79.31
285.826	90.31
286.057	82.31
286.288	70.31
286.52	90.31
286.751	84.31
286.982	83.31
287.213	71.31
287.444	86.31
287.675	83.31
287.906	82.31
288.138	77.31
288.369	67.31
288.6	86.31
288.831	77.31
289.062	84.31
289.293	72.31
289.524	77.31
289.755	89.31
289.986	81.31
290.217	62.31
290.448	64.31
290.679	77.31
290.91	91.31
291.141	87.31
291.371	88.31
291.602	80.31
291.833	81.31
292.064	75.31
292.295	77.31
292.526	99.31
292.757	89.31
292.987	69.31
293.218	80.31
293.449	78.31
293.68	103.31
293.91	71.31
294.141	78.31
294.372	90.31
294.603	85.31
294.833	98.31
295.064	67.31
295.295	76.31
295.525	68.31
295.756	80.31
295.987	89.31
296.217	77.31
296.448	82.31
296.679	83.31
296.909	82.31
297.14	83.31
297.37	75.31
297.601	85.31
297.831	81.31
298.062	89.31
298.292	90.31
298.523	88.31
298.753	74.31
298.984	81.31
299.214	79.31
299.445	88.31
299.675	88.31
299.905	79.31
300.136	101.31
300.366	69.31
300.597	80.31
300.827	73.31
301.057	92.31
301.288	80.31
301.518	85.31
301.748	90.31
301.979	75.31
302.209	72.31
302.439	84.31
302.669	86.31
302.9	86.31
303.13	96.31
303.36	87.31
303.59	88.31
303.82	80.31
304.051	80.31
304.281	84.31
304.511	73.31
304.741	83.31
304.971	79.31
305.201	87.31
305.431	81.31
305.661	82.31
305.891	82.31
306.121	93.31
306.352	87.31
306.582	87.31
306.812	90.31
307.042	68.31
307.272	80.31
307.502	87.31
307.731	80.31
307.961	87.31
308.191	76.31
308.421	74.31
308.651	89.31
308.881	94.31
309.111	92.31
309.341	74.31
309.571	80.31
309.8	82.31
310.03	66.31
310.26	69.31
310.49	92.31
310.72	87.31
310.949	96.31
311.179	71.31
311.409	93.31
311.639	83.31
311.868	91.31
312.098	68.31
312.328	65.31
312.557	86.31
312.787	76.31
313.017	84.31
313.246	68.31
313.476	88.31
313.706	84.31
313.935	74.31
314.165	90.31
314.394	81.31
314.624	82.31
314.853	93.31
315.083	68.31
315.312	80.31
315.542	82.31
315.771	75.31
316.001	78.31
316.23	89.31
316.46	83.31
316.689	82.31
316.919	76.31
317.148	76.31
317.377	82.31
317.607	87.31
317.836	74.31
318.065	85.31
318.295	87.31
318.524	63.31
318.753	83.31
318.983	85.31
319.212	69.31
319.441	88.31
319.67	80.31
319.9	79.31
320.129	82.31
320.358	73.31
320.587	74.31
320.816	99.31
321.046	80.31
321.275	92.31
321.504	90.31
321.733	76.31
321.962	86.31
322.191	80.31
322.42	72.31
322.649	87.31
322.878	97.31
323.108	69.31
323.337	91.31
323.566	74.31
323.795	97.31
324.024	69.31
324.253	95.31
324.482	85.31
324.71	90.31
324.939	67.31
325.168	74.31
325.397	73.31
325.626	68.31
325.855	77.31
326.084	90.31
326.313	88.31
326.542	85.31
326.77	83.31
326.999	72.31
327.228	85.31
327.457	73.31
327.686	77.31
327.914	88.31
328.143	88.31
328.372	83.31
328.6	86.31
328.829	84.31
329.058	96.31
329.287	89.31
329.515	87.31
329.744	73.31
329.972	73.31
330.201	89.31
330.43	75.31
330.658	88.31
330.887	96.31
331.115	89.31
331.344	78.31
331.572	92.31
331.801	92.31
332.03	79.31
332.258	74.31
332.486	76.31
332.715	98.31
332.943	77.31
333.172	98.31
333.4	104.31
333.629	80.31
333.857	74.31
334.085	71.31
334.314	90.31
334.542	74.31
334.771	74.31
334.999	67.31
335.227	76.31
335.455	85.31
335.684	81.31
335.912	86.31
336.14	101.31
336.369	92.31
336.597	85.31
336.825	88.31
337.053	72.31
337.281	90.31
337.51	96.31
337.738	85.31
337.966	96.31
338.194	81.31
338.422	84.31
338.65	99.31
338.878	85.31
339.106	78.31
339.334	82.31
339.562	87.31
339.79	83.31
340.018	78.31
340.246	81.31
340.474	78.31
340.702	85.31
340.93	77.31
341.158	84.31
341.386	81.31
341.614	79.31
341.842	86.31
342.07	77.31
342.298	76.31
342.526	81.31
342.754	91.31
342.981	81.31
343.209	80.31
343.437	87.31
343.665	84.31
343.893	82.31
344.12	79.31
344.348	91.31
344.576	83.31
344.804	87.31
345.031	78.31
345.259	101.31
345.487	79.31
345.714	78.31
345.942	77.31
346.17	80.31
346.397	81.31
346.625	82.31
346.853	86.31
347.08	86.31
347.308	77.31
347.535	89.31
347.763	82.31
347.99	90.31
348.218	90.31
348.445	66.31
348.673	71.31
348.9	83.31
349.128	74.31
349.355	88.31
349.583	81.31
349.81	90.31
350.037	95.31
350.265	70.31
350.492	77.31
350.72	98.31
350.947	78.31
351.174	93.31
351.402	72.31
351.629	72.31
351.856	77.31
352.083	90.31
352.311	79.31
352.538	83.31
352.765	80.31
352.992	100.31
353.22	78.31
353.447	85.31
353.674	96.31
353.901	80.31
354.128	75.31
354.355	87.31
354.583	84.31
354.81	86.31
355.037	82.31
355.264	89.31
355.491	86.31
355.718	79.31
355.945	92.31
356.172	80.31
356.399	81.31
356.626	82.31
356.853	77.31
357.08	81.31
357.307	64.31
357.534	80.31
357.761	82.31
357.988	93.31
358.215	78.31
358.441	88.31
358.668	80.31
358.895	88.31
359.122	89.31
359.349	76.31
359.576	81.31
359.802	68.31
360.029	81.31
360.256	89.31
360.483	82.31
360.709	80.31
360.936	79.31
361.163	74.31
361.39	85.31
361.616	80.31
361.843	75.31
362.07	83.31
362.296	90.31
362.523	83.31
362.749	88.31
362.976	69.31
363.203	85.31
363.429	79.31
363.656	68.31
363.882	68.31
364.109	78.31
364.335	80.31
364.562	88.31
364.788	83.31
365.015	99.31
365.241	73.31
365.468	87.31
365.694	84.31
365.92	76.31
366.147	89.31
366.373	67.31
366.599	80.31
366.826	88.31
367.052	81.31
367.278	73.31
367.505	89.31
367.731	87.31
367.957	79.31
368.184	73.31
368.41	71.31
368.636	83.31
368.862	80.31
369.089	79.31
369.315	80.31
369.541	77.31
369.767	72.31
369.993	81.31
370.219	86.31
370.445	70.31
370.672	84.31
370.898	88.31
371.124	90.31
371.35	99.31
371.576	76.31
371.802	79.31
372.028	79.31
372.254	96.31
372.48	87.31
372.706	69.31
372.932	69.31
373.158	80.31
373.384	80.31
373.61	82.31
373.835	85.31
374.061	80.31
374.287	78.31
374.513	84.31
374.739	77.31
374.965	66.31
375.191	87.31
375.416	65.31
375.642	78.31
375.868	85.31
376.094	84.31
376.319	104.31
376.545	68.31
376.771	70.31
376.997	91.31
377.222	93.31
377.448	93.31
377.674	83.31
377.899	87.31
378.125	82.31
378.35	86.31
378.576	83.31
378.802	82.31
379.027	89.31
379.253	84.31
379.478	74.31
379.704	86.31
379.929	78.31
380.155	85.31
380.38	75.31
380.606	74.31
380.831	74.31
381.057	87.31
381.282	89.31
381.507	72.31
381.733	81.31
381.958	64.31
382.184	85.31
382.409	93.31
382.634	80.31
382.86	89.31
383.085	83.31
383.31	79.31
383.535	88.31
383.761	83.31
383.986	89.31
384.211	82.31
384.436	82.31
384.662	86.31
384.887	97.31
385.112	82.31
385.337	82.31
385.562	87.31
385.787	87.31
386.013	103.31
386.238	76.31
386.463	82.31
386.688	94.31
386.913	75.31
387.138	74.31
387.363	85.31
387.588	78.31
387.813	80.31
388.038	83.31
388.263	85.31
388.488	72.31
388.713	84.31
388.938	84.31
389.163	70.31
389.387	80.31
389.612	82.31
389.837	89.31
390.062	85.31
390.287	87.31
390.512	78.31
390.736	95.31
390.961	81.31
391.186	80.31
391.411	93.31
391.636	88.31
391.86	95.31
392.085	84.31
392.31	79.31
392.534	97.31
392.759	80.31
392.984	85.31
393.208	94.31
393.433	90.31
393.658	82.31
393.882	84.31
394.107	88.31
394.331	82.31
394.556	80.31
394.78	77.31
395.005	91.31
395.229	93.31
395.454	75.31
395.678	79.31
395.903	94.31
396.127	78.31
396.352	85.31
396.576	86.31
396.801	82.31
397.025	93.31
397.249	79.31
397.474	99.31
397.698	93.31
397.922	86.31
398.147	65.31
398.371	81.31
398.595	76.31
398.82	82.31
399.044	92.31
399.268	86.31
399.492	95.31
399.717	78.31
399.941	86.31
400.165	90.31
400.389	87.31
400.613	95.31
400.837	91.31
401.062	85.31
401.286	83.31
401.51	94.31
401.734	95.31
401.958	95.31
402.182	89.31
402.406	87.31
402.63	84.31
402.854	79.31
403.078	87.31
403.302	88.31
403.526	97.31
403.75	88.31
403.974	104.31
404.198	77.31
404.422	71.31
404.645	84.31
404.869	79.31
405.093	86.31
405.317	90.31
405.541	92.31
405.765	98.31
405.988	81.31
406.212	92.31
406.436	91.31
406.66	100.31
406.883	90.31
407.107	87.31
407.331	85.31
407.555	95.31
407.778	98.31
408.002	87.31
408.226	89.31
408.449	89.31
408.673	102.31
408.896	88.31
409.12	92.31
409.344	88.31
409.567	70.31
409.791	87.31
410.014	90.31
410.238	87.31
410.461	84.31
410.685	84.31
410.908	71.31
411.132	95.31
411.355	93.31
411.578	87.31
411.802	78.31
412.025	89.31
412.249	84.31
412.472	84.31
412.695	76.31
412.919	78.31
413.142	93.31
413.365	78.31
413.589	97.31
413.812	102.31
414.035	99.31
414.258	100.31
414.482	94.31
414.705	95.31
414.928	93.31
415.151	87.31
415.374	97.31
415.597	93.31
415.821	89.31
416.044	109.31
416.267	87.31
416.49	103.31
416.713	86.31
416.936	91.31
417.159	84.31
417.382	73.31
417.605	87.31
417.828	92.31
418.051	101.31
418.274	89.31
418.497	83.31
418.72	100.31
418.943	90.31
419.166	87.31
419.389	85.31
419.611	98.31
419.834	84.31
420.057	101.31
420.28	94.31
420.503	91.31
420.726	92.31
420.948	79.31
421.171	98.31
421.394	101.31
421.617	106.31
421.839	82.31
422.062	92.31
422.285	94.31
422.507	103.31
422.73	100.31
422.953	98.31
423.175	107.31
423.398	92.31
423.621	84.31
423.843	94.31
424.066	98.31
424.288	93.31
424.511	107.31
424.733	100.31
424.956	86.31
425.178	96.31
425.401	92.31
425.623	99.31
425.846	93.31
426.068	92.31
426.291	97.31
426.513	85.31
426.735	86.31
426.958	78.31
427.18	97.31
427.402	94.31
427.625	99.31
427.847	113.31
428.069	92.31
428.292	96.31
428.514	89.31
428.736	87.31
428.958	75.31
429.181	100.31
429.403	95.31
429.625	90.31
429.847	95.31
430.069	75.31
430.292	101.31
430.514	104.31
430.736	99.31
430.958	97.31
431.18	108.31
431.402	95.31
431.624	98.31
431.846	74.31
432.068	89.31
432.29	89.31
432.512	100.31
432.734	85.31
432.956	92.31
433.178	102.31
433.4	96.31
433.622	92.31
433.844	73.31
434.066	91.31
434.287	86.31
434.509	88.31
434.731	94.31
434.953	93.31
435.175	97.31
435.397	85.31
435.618	105.31
435.84	84.31
436.062	93.31
436.284	94.31
436.505	91.31
436.727	92.31
436.949	99.31
437.17	77.31
437.392	94.31
437.614	101.31
437.835	87.31
438.057	83.31
438.278	80.31
438.5	93.31
438.721	96.31
438.943	92.31
439.165	82.31
439.386	93.31
439.608	95.31
439.829	103.31
440.05	103.31
440.272	95.31
440.493	86.31
440.715	86.31
440.936	94.31
441.158	109.31
441.379	86.31
441.6	87.31
441.822	85.31
442.043	85.31
442.264	95.31
442.486	86.31
442.707	106.31
442.928	100.31
443.149	93.31
443.371	89.31
443.592	85.31
443.813	93.31
444.034	100.31
444.255	87.31
444.476	99.31
444.698	86.31
444.919	95.31
445.14	228.31
445.361	163.31
445.582	92.31
445.803	91.31
446.024	98.31
446.245	94.31
446.466	95.31
446.687	104.31
446.908	98.31
447.129	96.31
447.35	91.31
447.571	108.31
447.792	103.31
448.013	104.31
448.234	94.31
448.455	97.31
448.675	97.31
448.896	111.31
449.117	92.31
449.338	100.31
449.559	101.31
449.779	105.31
450	92.31
450.221	102.31
450.442	92.31
450.662	95.31
450.883	105.31
451.104	88.31
451.324	88.31
451.545	101.31
451.766	100.31
451.986	85.31
452.207	93.31
452.428	84.31
452.648	86.31
452.869	95.31
453.089	94.31
453.31	96.31
453.53	82.31
453.751	92.31
453.971	89.31
454.192	84.31
454.412	79.31
454.633	87.31
454.853	87.31
455.073	96.31
455.294	91.31
455.514	98.31
455.734	93.31
455.955	92.31
456.175	82.31
456.395	75.31
456.616	77.31
456.836	95.31
457.056	95.31
457.276	80.31
457.497	90.31
457.717	70.31
457.937	90.31
458.157	85.31
458.377	94.31
458.598	97.31
458.818	85.31
459.038	82.31
459.258	80.31
459.478	87.31
459.698	73.31
459.918	84.31
460.138	86.31
460.358	98.31
460.578	96.31
460.798	82.31
461.018	94.31
461.238	91.31
461.458	80.31
461.678	90.31
461.898	92.31
462.118	101.31
462.338	101.31
462.558	93.31
462.777	84.31
462.997	77.31
463.217	83.31
463.437	84.31
463.657	84.31
463.876	81.31
464.096	87.31
464.316	86.31
464.536	86.31
464.755	100.31
464.975	77.31
465.195	88.31
465.414	87.31
465.634	80.31
465.854	92.31
466.073	85.31
466.293	94.31
466.512	100.31
466.732	103.31
466.951	88.31
467.171	84.31
467.391	102.31
467.61	93.31
467.829	83.31
468.049	105.31
468.268	98.31
468.488	99.31
468.707	110.31
468.927	96.31
469.146	101.31
469.365	102.31
469.585	90.31
469.804	90.31
470.023	81.31
470.243	95.31
470.462	96.31
470.681	97.31
470.901	95.31
471.12	83.31
471.339	106.31
471.558	96.31
471.777	87.31
471.997	90.31
472.216	97.31
472.435	83.31
472.654	84.31
472.873	80.31
473.092	99.31
473.311	89.31
473.53	93.31
473.749	99.31
473.968	87.31
474.187	83.31
474.406	90.31
474.625	96.31
474.844	92.31
475.063	104.31
475.282	83.31
475.501	95.31
475.72	95.31
475.939	88.31
476.158	97.31
476.377	110.31
476.596	89.31
476.814	83.31
477.033	91.31
477.252	82.31
477.471	86.31
477.69	81.31
477.908	89.31
478.127	93.31
478.346	97.31
478.564	92.31
478.783	95.31
479.002	97.31
479.22	105.31
479.439	99.31
479.658	92.31
479.876	95.31
480.095	94.31
480.313	89.31
480.532	88.31
480.751	81.31
480.969	77.31
481.188	78.31
481.406	88.31
481.624	81.31
481.843	74.31
482.061	82.31
482.28	79.31
482.498	89.31
482.717	80.31
482.935	92.31
483.153	110.31
483.372	108.31
483.59	106.31
483.808	101.31
484.027	98.31
484.245	96.31
484.463	93.31
484.681	116.31
484.9	101.31
485.118	92.31
485.336	91.31
485.554	104.31
485.772	100.31
485.99	97.31
486.209	92.31
486.427	81.31
486.645	83.31
486.863	95.31
487.081	106.31
487.299	108.31
487.517	90.31
487.735	97.31
487.953	96.31
488.171	99.31
488.389	117.31
488.607	90.31
488.825	81.31
489.043	80.31
489.261	87.31
489.479	80.31
489.696	111.31
489.914	103.31
490.132	89.31
490.35	111.31
490.568	110.31
490.786	100.31
491.003	128.31
491.221	114.31
491.439	97.31
491.657	109.31
491.874	124.31
492.092	121.31
492.31	112.31
492.527	118.31
492.745	116.31
492.963	113.31
493.18	112.31
493.398	113.31
493.615	120.31
493.833	102.31
494.05	97.31
494.268	126.31
494.485	116.31
494.703	102.31
494.92	124.31
495.138	120.31
495.355	103.31
495.573	113.31
495.79	87.31
496.008	112.31
496.225	110.31
496.442	108.31
496.66	104.31
496.877	111.31
497.094	119.31
497.312	96.31
497.529	108.31
497.746	108.31
497.963	76.31
498.181	98.31
498.398	102.31
498.615	90.31
498.832	88.31
499.049	88.31
499.267	96.31
499.484	87.31
499.701	96.31
499.918	112.31
500.135	96.31
500.352	87.31
500.569	100.31
500.786	92.31
501.003	96.31
501.22	93.31
501.437	92.31
501.654	82.31
501.871	92.31
502.088	100.31
502.305	93.31
502.522	97.31
502.739	95.31
502.956	99.31
503.172	92.31
503.389	90.31
503.606	103.31
503.823	84.31
504.04	99.31
504.256	90.31
504.473	80.31
504.69	81.31
504.907	98.31
505.123	97.31
505.34	79.31
505.557	92.31
505.773	81.31
505.99	84.31
506.207	95.31
506.423	90.31
506.64	92.31
506.856	77.31
507.073	79.31
507.289	99.31
507.506	98.31
507.722	88.31
507.939	99.31
508.155	92.31
508.372	85.31
508.588	83.31
508.805	104.31
509.021	81.31
509.238	89.31
509.454	85.31
509.67	80.31
509.887	73.31
510.103	85.31
510.319	78.31
510.536	83.31
510.752	75.31
510.968	75.31
511.184	88.31
511.401	75.31
511.617	80.31
511.833	92.31
512.049	74.31
512.265	84.31
512.481	96.31
512.698	69.31
512.914	76.31
513.13	95.31
513.346	87.31
513.562	95.31
513.778	89.31
513.994	89.31
514.21	86.31
514.426	84.31
514.642	73.31
514.858	84.31
515.074	79.31
515.29	77.31
515.506	88.31
515.721	80.31
515.937	88.31
516.153	92.31
516.369	71.31
516.585	72.31
516.801	85.31
517.016	84.31
517.232	83.31
517.448	81.31
517.664	83.31
517.879	95.31
518.095	84.31
518.311	95.31
518.527	96.31
518.742	89.31
518.958	86.31
519.173	74.31
519.389	96.31
519.605	91.31
519.82	85.31
520.036	85.31
520.251	68.31
520.467	109.31
520.682	94.31
520.898	84.31
521.113	73.31
521.329	90.31
521.544	99.31
521.76	77.31
521.975	77.31
522.19	89.31
522.406	87.31
522.621	88.31
522.836	80.31
523.052	80.31
523.267	95.31
523.482	101.31
523.698	86.31
523.913	81.31
524.128	97.31
524.343	77.31
524.559	103.31
524.774	100.31
524.989	78.31
525.204	85.31
525.419	85.31
525.634	87.31
525.849	71.31
526.064	88.31
526.28	77.31
526.495	82.31
526.71	80.31
526.925	96.31
527.14	83.31
527.355	76.31
527.57	80.31
527.785	88.31
527.999	79.31
528.214	99.31
528.429	98.31
528.644	89.31
528.859	95.31
529.074	87.31
529.289	92.31
529.503	96.31
529.718	87.31
529.933	84.31
530.148	91.31
530.363	91.31
530.577	81.31
530.792	74.31
531.007	70.31
531.221	69.31
531.436	81.31
531.651	79.31
531.865	77.31
532.08	78.31
532.295	95.31
532.509	84.31
532.724	83.31
532.938	85.31
533.153	100.31
533.367	80.31
533.582	90.31
533.796	105.31
534.011	94.31
534.225	90.31
534.44	84.31
534.654	80.31
534.868	71.31
535.083	85.31
535.297	85.31
535.511	87.31
535.726	96.31
535.94	83.31
536.154	75.31
536.369	70.31
536.583	83.31
536.797	100.31
537.011	81.31
537.225	86.31
537.44	73.31
537.654	91.31
537.868	84.31
538.082	74.31
538.296	86.31
538.51	77.31
538.724	87.31
538.938	93.31
539.153	108.31
539.367	94.31
539.581	92.31
539.795	74.31
540.009	96.31
540.222	91.31
540.436	77.31
540.65	98.31
540.864	86.31
541.078	100.31
541.292	105.31
541.506	107.31
541.72	108.31
541.934	115.31
542.147	111.31
542.361	111.31
542.575	92.31
542.789	108.31
543.002	109.31
543.216	86.31
543.43	99.31
543.644	82.31
543.857	106.31
544.071	93.31
544.285	103.31
544.498	108.31
544.712	109.31
544.925	108.31
545.139	106.31
545.352	103.31
545.566	101.31
545.779	102.31
545.993	96.31
546.206	112.31
546.42	115.31
546.633	96.31
546.847	112.31
547.06	96.31
547.274	101.31
547.487	99.31
547.7	102.31
547.914	105.31
548.127	86.31
548.34	102.31
548.554	95.31
548.767	97.31
548.98	95.31
549.193	94.31
549.407	104.31
549.62	90.31
549.833	109.31
550.046	94.31
550.259	106.31
550.473	102.31
550.686	95.31
550.899	98.31
551.112	94.31
551.325	98.31
551.538	95.31
551.751	88.31
551.964	98.31
552.177	92.31
552.39	85.31
552.603	94.31
552.816	103.31
553.029	93.31
553.242	97.31
553.455	111.31
553.667	112.31
553.88	103.31
554.093	91.31
554.306	100.31
554.519	90.31
554.732	104.31
554.944	89.31
555.157	97.31
555.37	88.31
555.583	102.31
555.795	89.31
556.008	92.31
556.221	92.31
556.433	91.31
556.646	112.31
556.859	92.31
557.071	88.31
557.284	94.31
557.496	82.31
557.709	99.31
557.921	97.31
558.134	104.31
558.346	94.31
558.559	103.31
558.771	105.31
558.984	83.31
559.196	101.31
559.409	90.31
559.621	94.31
559.833	89.31
560.046	103.31
560.258	84.31
560.47	97.31
560.683	102.31
560.895	102.31
561.107	97.31
561.32	96.31
561.532	88.31
561.744	93.31
561.956	103.31
562.168	104.31
562.381	102.31
562.593	97.31
562.805	103.31
563.017	96.31
563.229	94.31
563.441	100.31
563.653	88.31
563.865	78.31
564.077	85.31
564.289	97.31
564.501	101.31
564.713	99.31
564.925	117.31
565.137	88.31
565.349	92.31
565.561	95.31
565.773	97.31
565.985	84.31
566.197	92.31
566.408	102.31
566.62	92.31
566.832	90.31
567.044	87.31
567.255	96.31
567.467	86.31
567.679	87.31
567.891	97.31
568.102	84.31
568.314	92.31
568.526	76.31
568.737	80.31
568.949	82.31
569.161	80.31
569.372	88.31
569.584	76.31
569.795	82.31
570.007	84.31
570.218	83.31
570.43	73.31
570.641	92.31
570.853	88.31
571.064	86.31
571.276	88.31
571.487	84.31
571.698	82.31
571.91	81.31
572.121	95.31
572.333	76.31
572.544	84.31
572.755	93.31
572.966	69.31
573.178	88.31
573.389	94.31
573.6	93.31
573.811	73.31
574.023	88.31
574.234	90.31
574.445	90.31
574.656	79.31
574.867	101.31
575.078	94.31
575.289	91.31
575.501	81.31
575.712	89.31
575.923	79.31
576.134	95.31
576.345	80.31
576.556	87.31
576.767	87.31
576.978	87.31
577.188	94.31
577.399	102.31
577.61	83.31
577.821	98.31
578.032	78.31
578.243	79.31
578.454	80.31
578.665	85.31
578.875	76.31
579.086	83.31
579.297	77.31
579.508	79.31
579.718	82.31
579.929	78.31
580.14	83.31
580.35	92.31
580.561	84.31
580.772	95.31
580.982	89.31
581.193	77.31
581.403	73.31
581.614	87.31
581.825	86.31
582.035	87.31
582.246	82.31
582.456	101.31
582.667	86.31
582.877	70.31
583.087	74.31
583.298	83.31
583.508	76.31
583.719	81.31
583.929	94.31
584.139	82.31
584.35	75.31
584.56	94.31
584.77	87.31
584.981	94.31
585.191	79.31
585.401	80.31
585.611	96.31
585.821	84.31
586.032	84.31
586.242	88.31
586.452	84.31
586.662	94.31
586.872	88.31
587.082	78.31
587.292	83.31
587.502	79.31
587.713	80.31
587.923	89.31
588.133	83.31
588.343	81.31
588.553	80.31
588.762	91.31
588.972	86.31
589.182	78.31
589.392	83.31
589.602	80.31
589.812	80.31
590.022	78.31
590.232	71.31
590.441	90.31
590.651	78.31
590.861	89.31
591.071	91.31
591.281	79.31
591.49	80.31
591.7	87.31
591.91	85.31
592.119	75.31
592.329	94.31
592.539	97.31
592.748	67.31
592.958	81.31
593.167	73.31
593.377	76.31
593.587	78.31
593.796	83.31
594.006	75.31
594.215	86.31
594.424	83.31
594.634	95.31
594.843	98.31
595.053	79.31
595.262	81.31
595.472	97.31
595.681	77.31
595.89	78.31
596.1	96.31
596.309	74.31
596.518	94.31
596.727	93.31
596.937	96.31
597.146	81.31
597.355	87.31
597.564	84.31
597.774	78.31
597.983	71.31
598.192	67.31
598.401	86.31
598.61	91.31
598.819	66.31
599.028	87.31
599.237	79.31
599.446	79.31
599.655	82.31
599.864	87.31
600.073	86.31
600.282	86.31
600.491	79.31
600.7	72.31
600.909	92.31
601.118	80.31
601.327	74.31
601.536	92.31
601.745	78.31
601.953	88.31
602.162	89.31
602.371	93.31
602.58	85.31
602.789	86.31
602.997	88.31
603.206	94.31
603.415	92.31
603.623	91.31
603.832	88.31
604.041	99.31
604.249	80.31
604.458	89.31
604.666	88.31
604.875	80.31
605.084	89.31
605.292	89.31
605.501	92.31
605.709	87.31
605.918	97.31
606.126	97.31
606.334	101.31
606.543	96.31
606.751	94.31
606.96	89.31
607.168	85.31
607.376	84.31
607.585	101.31
607.793	89.31
608.001	99.31
608.21	82.31
608.418	82.31
608.626	97.31
608.834	85.31
609.043	77.31
609.251	93.31
609.459	85.31
609.667	97.31
609.875	95.31
610.083	88.31
610.291	82.31
610.499	90.31
610.707	102.31
610.916	82.31
611.124	84.31
611.332	104.31
611.54	96.31
611.748	102.31
611.955	92.31
612.163	95.31
612.371	93.31
612.579	84.31
612.787	83.31
612.995	86.31
613.203	80.31
613.411	78.31
613.618	80.31
613.826	85.31
614.034	101.31
614.242	98.31
614.449	87.31
614.657	98.31
614.865	89.31
615.072	86.31
615.28	86.31
615.488	84.31
615.695	87.31
615.903	91.31
616.111	103.31
616.318	99.31
616.526	97.31
616.733	104.31
616.941	92.31
617.148	87.31
617.356	81.31
617.563	87.31
617.771	96.31
617.978	86.31
618.185	73.31
618.393	104.31
618.6	94.31
618.807	88.31
619.015	83.31
619.222	79.31
619.429	87.31
619.637	85.31
619.844	85.31
620.051	80.31
620.258	80.31
620.466	77.31
620.673	105.31
620.88	92.31
621.087	90.31
621.294	82.31
621.501	92.31
621.708	85.31
621.915	84.31
622.122	77.31
622.329	78.31
622.536	97.31
622.743	88.31
622.95	102.31
623.157	91.31
623.364	80.31
623.571	76.31
623.778	85.31
623.985	86.31
624.192	78.31
624.399	100.31
624.606	85.31
624.812	98.31
625.019	86.31
625.226	88.31
625.433	75.31
625.639	86.31
625.846	87.31
626.053	86.31
626.259	79.31
626.466	92.31
626.673	93.31
626.879	73.31
627.086	98.31
627.293	86.31
627.499	81.31
627.706	96.31
627.912	82.31
628.119	89.31
628.325	100.31
628.532	106.31
628.738	78.31
628.945	83.31
629.151	81.31
629.357	87.31
629.564	93.31
629.77	82.31
629.976	84.31
630.183	88.31
630.389	92.31
630.595	82.31
630.802	70.31
631.008	72.31
631.214	79.31
631.42	84.31
631.627	85.31
631.833	83.31
632.039	94.31
632.245	94.31
632.451	80.31
632.657	82.31
632.863	84.31
633.069	94.31
633.275	91.31
633.481	85.31
633.688	85.31
633.893	88.31
634.099	85.31
634.305	90.31
634.511	90.31
634.717	86.31
634.923	92.31
635.129	81.31
635.335	78.31
635.541	83.31
635.747	84.31
635.952	96.31
636.158	84.31
636.364	90.31
636.57	94.31
636.775	85.31
636.981	82.31
637.187	88.31
637.392	84.31
637.598	95.31
637.804	88.31
638.009	73.31
638.215	98.31
638.421	89.31
638.626	102.31
638.832	78.31
639.037	94.31
639.243	93.31
639.448	92.31
639.654	85.31
639.859	81.31
640.065	102.31
640.27	92.31
640.475	85.31
640.681	80.31
640.886	84.31
641.091	89.31
641.297	89.31
641.502	83.31
641.707	85.31
641.913	86.31
642.118	92.31
642.323	97.31
642.528	108.31
642.733	84.31
642.939	106.31
643.144	95.31
643.349	94.31
643.554	90.31
643.759	91.31
643.964	81.31
644.169	103.31
644.374	85.31
644.579	85.31
644.784	79.31
644.989	96.31
645.194	93.31
645.399	77.31
645.604	78.31
645.809	97.31
646.014	92.31
646.219	87.31
646.423	73.31
646.628	84.31
646.833	75.31
647.038	81.31
647.243	68.31
647.447	77.31
647.652	84.31
647.857	81.31
648.062	85.31
648.266	73.31
648.471	94.31
648.676	88.31
648.88	81.31
649.085	97.31
649.289	90.31
649.494	90.31
649.698	79.31
649.903	87.31
650.107	81.31
650.312	97.31
650.516	84.31
650.721	89.31
650.925	80.31
651.13	88.31
651.334	80.31
651.539	74.31
651.743	73.31
651.947	85.31
652.152	92.31
652.356	98.31
652.56	82.31
652.764	93.31
652.969	99.31
653.173	86.31
653.377	98.31
653.581	84.31
653.785	77.31
653.99	89.31
654.194	88.31
654.398	81.31
654.602	81.31
654.806	75.31
655.01	88.31
655.214	77.31
655.418	79.31
655.622	81.31
655.826	91.31
656.03	79.31
656.234	83.31
656.438	79.31
656.642	81.31
656.846	78.31
657.049	92.31
657.253	93.31
657.457	88.31
657.661	74.31
657.865	72.31
658.068	98.31
658.272	94.31
658.476	88.31
658.68	75.31
658.883	76.31
659.087	83.31
659.291	89.31
659.494	72.31
659.698	86.31
659.901	92.31
660.105	74.31
660.309	76.31
660.512	74.31
660.716	74.31
660.919	88.31
661.123	88.31
661.326	82.31
661.53	88.31
661.733	81.31
661.936	76.31
662.14	72.31
662.343	91.31
662.546	80.31
662.75	94.31
662.953	82.31
663.156	87.31
663.36	86.31
663.563	87.31
663.766	83.31
663.969	60.31
664.173	93.31
664.376	77.31
664.579	75.31
664.782	79.31
664.985	79.31
665.188	81.31
665.391	83.31
665.594	74.31
665.797	84.31
666	82.31
666.203	83.31
666.406	85.31
666.609	74.31
666.812	73.31
667.015	74.31
667.218	90.31
667.421	78.31
667.624	68.31
667.827	90.31
668.03	87.31
668.232	73.31
668.435	71.31
668.638	73.31
668.841	86.31
669.043	85.31
669.246	91.31
669.449	78.31
669.651	73.31
669.854	85.31
670.057	89.31
670.259	86.31
670.462	87.31
670.665	90.31
670.867	69.31
671.07	90.31
671.272	80.31
671.475	80.31
671.677	66.31
671.88	79.31
672.082	94.31
672.284	80.31
672.487	84.31
672.689	85.31
672.892	72.31
