Data from Location4.07152019.Energy5.Lamp.07192019.3%Agarose_HRD10591_15-25-03-577.txt Node
Date: Fri Jul 19 15:25:03 EDT 2019
User: cochatt
Spectrometer: HR+D1059
Trigger mode: 1
Integration Time (sec): 1.000000E-1
Scans to average: 1
Electric dark correction enabled: true
Nonlinearity correction enabled: false
Boxcar width: 0
XAxis mode: Wavelengths
Number of Pixels in Spectrum: 2048
>>>>>Begin Spectral Data<<<<<
223.165	-15.38
223.4	-15.38
223.635	-15.38
223.869	-28.38
224.104	-14.38
224.338	-21.38
224.573	-12.38
224.808	-9.38
225.042	-11.38
225.277	-6.38
225.511	-13.38
225.746	3.62
225.98	13.62
226.215	22.62
226.449	25.62
226.683	17.62
226.918	16.62
227.152	32.62
227.387	37.62
227.621	41.62
227.856	57.62
228.09	41.62
228.324	50.62
228.559	57.62
228.793	51.62
229.027	52.62
229.262	58.62
229.496	56.62
229.73	64.62
229.964	68.62
230.199	94.62
230.433	77.62
230.667	71.62
230.901	84.62
231.136	74.62
231.37	91.62
231.604	73.62
231.838	74.62
232.072	87.62
232.306	93.62
232.541	77.62
232.775	78.62
233.009	95.62
233.243	82.62
233.477	83.62
233.711	83.62
233.945	83.62
234.179	95.62
234.413	66.62
234.647	88.62
234.881	86.62
235.115	92.62
235.349	81.62
235.583	88.62
235.817	76.62
236.051	92.62
236.285	76.62
236.519	78.62
236.753	70.62
236.987	73.62
237.221	73.62
237.455	72.62
237.689	73.62
237.922	81.62
238.156	94.62
238.39	79.62
238.624	72.62
238.858	69.62
239.091	82.62
239.325	93.62
239.559	66.62
239.793	80.62
240.027	85.62
240.26	67.62
240.494	74.62
240.728	82.62
240.961	74.62
241.195	80.62
241.429	73.62
241.662	72.62
241.896	86.62
242.13	76.62
242.363	74.62
242.597	74.62
242.83	82.62
243.064	95.62
243.298	73.62
243.531	91.62
243.765	80.62
243.998	84.62
244.232	94.62
244.465	82.62
244.699	84.62
244.932	76.62
245.166	90.62
245.399	86.62
245.633	82.62
245.866	82.62
246.099	75.62
246.333	71.62
246.566	82.62
246.8	77.62
247.033	82.62
247.266	100.62
247.5	82.62
247.733	69.62
247.966	75.62
248.2	85.62
248.433	83.62
248.666	85.62
248.899	89.62
249.133	65.62
249.366	71.62
249.599	72.62
249.832	81.62
250.066	83.62
250.299	66.62
250.532	80.62
250.765	73.62
250.998	82.62
251.231	66.62
251.465	96.62
251.698	87.62
251.931	65.62
252.164	86.62
252.397	91.62
252.63	97.62
252.863	82.62
253.096	86.62
253.329	85.62
253.562	87.62
253.795	84.62
254.028	101.62
254.261	86.62
254.494	66.62
254.727	90.62
254.96	75.62
255.193	79.62
255.426	73.62
255.659	77.62
255.892	79.62
256.124	82.62
256.357	80.62
256.59	72.62
256.823	80.62
257.056	81.62
257.289	86.62
257.521	71.62
257.754	86.62
257.987	65.62
258.22	76.62
258.452	79.62
258.685	75.62
258.918	79.62
259.151	83.62
259.383	79.62
259.616	79.62
259.849	74.62
260.081	79.62
260.314	73.62
260.547	79.62
260.779	81.62
261.012	76.62
261.244	93.62
261.477	86.62
261.71	85.62
261.942	76.62
262.175	91.62
262.407	86.62
262.64	78.62
262.872	75.62
263.105	86.62
263.337	83.62
263.57	78.62
263.802	83.62
264.035	83.62
264.267	69.62
264.499	76.62
264.732	88.62
264.964	83.62
265.197	71.62
265.429	83.62
265.661	91.62
265.894	89.62
266.126	86.62
266.358	72.62
266.591	63.62
266.823	79.62
267.055	99.62
267.287	74.62
267.52	99.62
267.752	90.62
267.984	89.62
268.216	88.62
268.448	81.62
268.681	80.62
268.913	84.62
269.145	83.62
269.377	88.62
269.609	94.62
269.841	87.62
270.073	86.62
270.306	82.62
270.538	76.62
270.77	80.62
271.002	88.62
271.234	98.62
271.466	87.62
271.698	81.62
271.93	93.62
272.162	91.62
272.394	89.62
272.626	84.62
272.858	72.62
273.09	72.62
273.322	79.62
273.553	75.62
273.785	79.62
274.017	85.62
274.249	91.62
274.481	86.62
274.713	67.62
274.945	89.62
275.176	94.62
275.408	82.62
275.64	84.62
275.872	82.62
276.104	81.62
276.335	88.62
276.567	82.62
276.799	88.62
277.031	72.62
277.262	85.62
277.494	83.62
277.726	84.62
277.957	90.62
278.189	86.62
278.421	89.62
278.652	83.62
278.884	87.62
279.115	79.62
279.347	89.62
279.579	88.62
279.81	82.62
280.042	87.62
280.273	71.62
280.505	81.62
280.736	84.62
280.968	80.62
281.199	91.62
281.431	78.62
281.662	82.62
281.894	79.62
282.125	83.62
282.356	86.62
282.588	83.62
282.819	72.62
283.051	71.62
283.282	86.62
283.513	82.62
283.745	80.62
283.976	90.62
284.207	75.62
284.439	79.62
284.67	83.62
284.901	74.62
285.132	84.62
285.364	83.62
285.595	87.62
285.826	99.62
286.057	79.62
286.288	87.62
286.52	86.62
286.751	98.62
286.982	79.62
287.213	81.62
287.444	94.62
287.675	88.62
287.906	82.62
288.138	82.62
288.369	86.62
288.6	89.62
288.831	78.62
289.062	86.62
289.293	91.62
289.524	86.62
289.755	87.62
289.986	100.62
290.217	85.62
290.448	86.62
290.679	87.62
290.91	96.62
291.141	81.62
291.371	83.62
291.602	76.62
291.833	92.62
292.064	92.62
292.295	88.62
292.526	75.62
292.757	82.62
292.987	88.62
293.218	97.62
293.449	81.62
293.68	77.62
293.91	95.62
294.141	94.62
294.372	90.62
294.603	80.62
294.833	93.62
295.064	75.62
295.295	97.62
295.525	88.62
295.756	88.62
295.987	82.62
296.217	87.62
296.448	77.62
296.679	79.62
296.909	72.62
297.14	87.62
297.37	83.62
297.601	89.62
297.831	76.62
298.062	78.62
298.292	76.62
298.523	93.62
298.753	77.62
298.984	78.62
299.214	73.62
299.445	76.62
299.675	79.62
299.905	98.62
300.136	98.62
300.366	86.62
300.597	79.62
300.827	95.62
301.057	83.62
301.288	68.62
301.518	87.62
301.748	79.62
301.979	83.62
302.209	90.62
302.439	86.62
302.669	80.62
302.9	80.62
303.13	84.62
303.36	93.62
303.59	88.62
303.82	91.62
304.051	93.62
304.281	93.62
304.511	87.62
304.741	78.62
304.971	81.62
305.201	82.62
305.431	82.62
305.661	86.62
305.891	91.62
306.121	95.62
306.352	85.62
306.582	81.62
306.812	83.62
307.042	84.62
307.272	92.62
307.502	75.62
307.731	75.62
307.961	78.62
308.191	99.62
308.421	99.62
308.651	72.62
308.881	82.62
309.111	92.62
309.341	79.62
309.571	84.62
309.8	88.62
310.03	74.62
310.26	92.62
310.49	83.62
310.72	84.62
310.949	93.62
311.179	96.62
311.409	93.62
311.639	87.62
311.868	99.62
312.098	82.62
312.328	87.62
312.557	104.62
312.787	94.62
313.017	93.62
313.246	73.62
313.476	82.62
313.706	88.62
313.935	95.62
314.165	85.62
314.394	82.62
314.624	92.62
314.853	84.62
315.083	84.62
315.312	94.62
315.542	81.62
315.771	90.62
316.001	84.62
316.23	84.62
316.46	83.62
316.689	90.62
316.919	78.62
317.148	90.62
317.377	93.62
317.607	82.62
317.836	76.62
318.065	80.62
318.295	77.62
318.524	86.62
318.753	84.62
318.983	91.62
319.212	96.62
319.441	74.62
319.67	82.62
319.9	82.62
320.129	76.62
320.358	85.62
320.587	92.62
320.816	90.62
321.046	79.62
321.275	77.62
321.504	75.62
321.733	94.62
321.962	76.62
322.191	86.62
322.42	79.62
322.649	72.62
322.878	85.62
323.108	93.62
323.337	81.62
323.566	94.62
323.795	94.62
324.024	83.62
324.253	89.62
324.482	86.62
324.71	75.62
324.939	81.62
325.168	83.62
325.397	76.62
325.626	82.62
325.855	80.62
326.084	91.62
326.313	90.62
326.542	89.62
326.77	87.62
326.999	97.62
327.228	89.62
327.457	78.62
327.686	76.62
327.914	76.62
328.143	103.62
328.372	81.62
328.6	97.62
328.829	84.62
329.058	102.62
329.287	79.62
329.515	89.62
329.744	94.62
329.972	84.62
330.201	73.62
330.43	86.62
330.658	88.62
330.887	91.62
331.115	86.62
331.344	88.62
331.572	94.62
331.801	83.62
332.03	100.62
332.258	76.62
332.486	76.62
332.715	85.62
332.943	75.62
333.172	76.62
333.4	91.62
333.629	82.62
333.857	83.62
334.085	78.62
334.314	85.62
334.542	86.62
334.771	92.62
334.999	75.62
335.227	76.62
335.455	91.62
335.684	80.62
335.912	70.62
336.14	90.62
336.369	91.62
336.597	77.62
336.825	92.62
337.053	84.62
337.281	94.62
337.51	88.62
337.738	96.62
337.966	79.62
338.194	97.62
338.422	87.62
338.65	104.62
338.878	93.62
339.106	76.62
339.334	82.62
339.562	79.62
339.79	96.62
340.018	94.62
340.246	91.62
340.474	87.62
340.702	86.62
340.93	98.62
341.158	86.62
341.386	78.62
341.614	86.62
341.842	86.62
342.07	89.62
342.298	78.62
342.526	76.62
342.754	79.62
342.981	80.62
343.209	82.62
343.437	85.62
343.665	69.62
343.893	88.62
344.12	89.62
344.348	84.62
344.576	83.62
344.804	83.62
345.031	90.62
345.259	84.62
345.487	81.62
345.714	74.62
345.942	76.62
346.17	73.62
346.397	81.62
346.625	83.62
346.853	88.62
347.08	88.62
347.308	99.62
347.535	82.62
347.763	83.62
347.99	91.62
348.218	91.62
348.445	71.62
348.673	80.62
348.9	95.62
349.128	93.62
349.355	86.62
349.583	87.62
349.81	84.62
350.037	89.62
350.265	74.62
350.492	81.62
350.72	84.62
350.947	77.62
351.174	90.62
351.402	69.62
351.629	72.62
351.856	82.62
352.083	84.62
352.311	79.62
352.538	86.62
352.765	85.62
352.992	91.62
353.22	73.62
353.447	77.62
353.674	90.62
353.901	89.62
354.128	84.62
354.355	84.62
354.583	82.62
354.81	61.62
355.037	86.62
355.264	73.62
355.491	87.62
355.718	79.62
355.945	81.62
356.172	83.62
356.399	83.62
356.626	83.62
356.853	95.62
357.08	88.62
357.307	75.62
357.534	88.62
357.761	86.62
357.988	81.62
358.215	84.62
358.441	82.62
358.668	75.62
358.895	92.62
359.122	81.62
359.349	74.62
359.576	95.62
359.802	94.62
360.029	85.62
360.256	94.62
360.483	90.62
360.709	82.62
360.936	91.62
361.163	93.62
361.39	73.62
361.616	84.62
361.843	83.62
362.07	81.62
362.296	82.62
362.523	80.62
362.749	73.62
362.976	89.62
363.203	87.62
363.429	87.62
363.656	80.62
363.882	68.62
364.109	83.62
364.335	75.62
364.562	86.62
364.788	93.62
365.015	93.62
365.241	65.62
365.468	77.62
365.694	80.62
365.92	93.62
366.147	86.62
366.373	75.62
366.599	88.62
366.826	89.62
367.052	92.62
367.278	75.62
367.505	83.62
367.731	90.62
367.957	83.62
368.184	82.62
368.41	84.62
368.636	95.62
368.862	77.62
369.089	63.62
369.315	74.62
369.541	85.62
369.767	84.62
369.993	68.62
370.219	83.62
370.445	85.62
370.672	83.62
370.898	91.62
371.124	88.62
371.35	79.62
371.576	90.62
371.802	87.62
372.028	89.62
372.254	74.62
372.48	85.62
372.706	82.62
372.932	69.62
373.158	76.62
373.384	82.62
373.61	85.62
373.835	86.62
374.061	84.62
374.287	73.62
374.513	79.62
374.739	87.62
374.965	75.62
375.191	96.62
375.416	88.62
375.642	79.62
375.868	78.62
376.094	80.62
376.319	73.62
376.545	87.62
376.771	66.62
376.997	86.62
377.222	81.62
377.448	76.62
377.674	74.62
377.899	86.62
378.125	76.62
378.35	79.62
378.576	72.62
378.802	83.62
379.027	88.62
379.253	91.62
379.478	77.62
379.704	76.62
379.929	83.62
380.155	94.62
380.38	89.62
380.606	77.62
380.831	83.62
381.057	99.62
381.282	87.62
381.507	82.62
381.733	83.62
381.958	81.62
382.184	80.62
382.409	101.62
382.634	92.62
382.86	72.62
383.085	67.62
383.31	88.62
383.535	76.62
383.761	90.62
383.986	93.62
384.211	75.62
384.436	84.62
384.662	85.62
384.887	98.62
385.112	87.62
385.337	87.62
385.562	97.62
385.787	84.62
386.013	98.62
386.238	89.62
386.463	89.62
386.688	85.62
386.913	75.62
387.138	81.62
387.363	80.62
387.588	95.62
387.813	85.62
388.038	87.62
388.263	79.62
388.488	83.62
388.713	89.62
388.938	82.62
389.163	69.62
389.387	83.62
389.612	89.62
389.837	81.62
390.062	107.62
390.287	91.62
390.512	90.62
390.736	99.62
390.961	84.62
391.186	81.62
391.411	86.62
391.636	92.62
391.86	79.62
392.085	98.62
392.31	93.62
392.534	76.62
392.759	87.62
392.984	94.62
393.208	81.62
393.433	94.62
393.658	77.62
393.882	74.62
394.107	96.62
394.331	78.62
394.556	92.62
394.78	86.62
395.005	77.62
395.229	96.62
395.454	94.62
395.678	99.62
395.903	95.62
396.127	92.62
396.352	92.62
396.576	93.62
396.801	89.62
397.025	82.62
397.249	103.62
397.474	94.62
397.698	88.62
397.922	76.62
398.147	100.62
398.371	88.62
398.595	95.62
398.82	96.62
399.044	98.62
399.268	91.62
399.492	84.62
399.717	86.62
399.941	91.62
400.165	88.62
400.389	94.62
400.613	89.62
400.837	87.62
401.062	74.62
401.286	91.62
401.51	87.62
401.734	89.62
401.958	95.62
402.182	96.62
402.406	97.62
402.63	88.62
402.854	81.62
403.078	77.62
403.302	83.62
403.526	89.62
403.75	88.62
403.974	85.62
404.198	97.62
404.422	102.62
404.645	95.62
404.869	85.62
405.093	83.62
405.317	99.62
405.541	86.62
405.765	91.62
405.988	83.62
406.212	99.62
406.436	90.62
406.66	77.62
406.883	111.62
407.107	80.62
407.331	89.62
407.555	85.62
407.778	83.62
408.002	86.62
408.226	87.62
408.449	86.62
408.673	90.62
408.896	90.62
409.12	92.62
409.344	95.62
409.567	101.62
409.791	92.62
410.014	101.62
410.238	88.62
410.461	76.62
410.685	91.62
410.908	78.62
411.132	89.62
411.355	89.62
411.578	90.62
411.802	82.62
412.025	104.62
412.249	99.62
412.472	90.62
412.695	80.62
412.919	83.62
413.142	80.62
413.365	94.62
413.589	84.62
413.812	94.62
414.035	94.62
414.258	90.62
414.482	91.62
414.705	98.62
414.928	94.62
415.151	87.62
415.374	94.62
415.597	98.62
415.821	82.62
416.044	100.62
416.267	99.62
416.49	87.62
416.713	83.62
416.936	81.62
417.159	94.62
417.382	100.62
417.605	96.62
417.828	84.62
418.051	97.62
418.274	74.62
418.497	75.62
418.72	103.62
418.943	86.62
419.166	94.62
419.389	103.62
419.611	83.62
419.834	95.62
420.057	100.62
420.28	102.62
420.503	88.62
420.726	89.62
420.948	105.62
421.171	90.62
421.394	87.62
421.617	94.62
421.839	92.62
422.062	92.62
422.285	97.62
422.507	97.62
422.73	105.62
422.953	87.62
423.175	87.62
423.398	102.62
423.621	97.62
423.843	101.62
424.066	99.62
424.288	100.62
424.511	95.62
424.733	106.62
424.956	106.62
425.178	76.62
425.401	94.62
425.623	115.62
425.846	90.62
426.068	85.62
426.291	81.62
426.513	100.62
426.735	102.62
426.958	102.62
427.18	77.62
427.402	87.62
427.625	82.62
427.847	92.62
428.069	98.62
428.292	94.62
428.514	94.62
428.736	91.62
428.958	104.62
429.181	99.62
429.403	96.62
429.625	95.62
429.847	82.62
430.069	84.62
430.292	93.62
430.514	90.62
430.736	79.62
430.958	79.62
431.18	95.62
431.402	98.62
431.624	76.62
431.846	90.62
432.068	79.62
432.29	86.62
432.512	110.62
432.734	89.62
432.956	107.62
433.178	90.62
433.4	91.62
433.622	106.62
433.844	99.62
434.066	90.62
434.287	88.62
434.509	84.62
434.731	90.62
434.953	90.62
435.175	94.62
435.397	92.62
435.618	83.62
435.84	93.62
436.062	89.62
436.284	94.62
436.505	90.62
436.727	81.62
436.949	91.62
437.17	87.62
437.392	84.62
437.614	90.62
437.835	89.62
438.057	95.62
438.278	100.62
438.5	104.62
438.721	86.62
438.943	83.62
439.165	100.62
439.386	83.62
439.608	110.62
439.829	95.62
440.05	85.62
440.272	95.62
440.493	94.62
440.715	99.62
440.936	102.62
441.158	99.62
441.379	97.62
441.6	94.62
441.822	87.62
442.043	97.62
442.264	98.62
442.486	97.62
442.707	83.62
442.928	89.62
443.149	67.62
443.371	101.62
443.592	117.62
443.813	88.62
444.034	98.62
444.255	100.62
444.476	98.62
444.698	81.62
444.919	101.62
445.14	199.62
445.361	153.62
445.582	96.62
445.803	92.62
446.024	98.62
446.245	95.62
446.466	102.62
446.687	104.62
446.908	96.62
447.129	98.62
447.35	88.62
447.571	93.62
447.792	99.62
448.013	96.62
448.234	85.62
448.455	96.62
448.675	105.62
448.896	105.62
449.117	89.62
449.338	102.62
449.559	93.62
449.779	91.62
450	90.62
450.221	96.62
450.442	101.62
450.662	104.62
450.883	87.62
451.104	92.62
451.324	81.62
451.545	96.62
451.766	85.62
451.986	94.62
452.207	101.62
452.428	88.62
452.648	111.62
452.869	101.62
453.089	82.62
453.31	91.62
453.53	98.62
453.751	89.62
453.971	83.62
454.192	85.62
454.412	84.62
454.633	94.62
454.853	88.62
455.073	97.62
455.294	99.62
455.514	96.62
455.734	99.62
455.955	91.62
456.175	83.62
456.395	87.62
456.616	98.62
456.836	95.62
457.056	93.62
457.276	96.62
457.497	74.62
457.717	82.62
457.937	76.62
458.157	89.62
458.377	91.62
458.598	94.62
458.818	66.62
459.038	80.62
459.258	95.62
459.478	79.62
459.698	87.62
459.918	86.62
460.138	93.62
460.358	83.62
460.578	99.62
460.798	83.62
461.018	86.62
461.238	88.62
461.458	76.62
461.678	90.62
461.898	85.62
462.118	95.62
462.338	89.62
462.558	103.62
462.777	82.62
462.997	93.62
463.217	87.62
463.437	84.62
463.657	86.62
463.876	95.62
464.096	80.62
464.316	95.62
464.536	95.62
464.755	94.62
464.975	97.62
465.195	95.62
465.414	84.62
465.634	84.62
465.854	84.62
466.073	97.62
466.293	94.62
466.512	86.62
466.732	110.62
466.951	99.62
467.171	103.62
467.391	106.62
467.61	99.62
467.829	81.62
468.049	96.62
468.268	98.62
468.488	87.62
468.707	91.62
468.927	78.62
469.146	94.62
469.365	93.62
469.585	96.62
469.804	88.62
470.023	105.62
470.243	103.62
470.462	96.62
470.681	103.62
470.901	102.62
471.12	114.62
471.339	90.62
471.558	99.62
471.777	105.62
471.997	84.62
472.216	97.62
472.435	86.62
472.654	89.62
472.873	104.62
473.092	97.62
473.311	99.62
473.53	102.62
473.749	96.62
473.968	103.62
474.187	92.62
474.406	103.62
474.625	87.62
474.844	91.62
475.063	111.62
475.282	104.62
475.501	88.62
475.72	89.62
475.939	107.62
476.158	90.62
476.377	97.62
476.596	88.62
476.814	88.62
477.033	83.62
477.252	80.62
477.471	90.62
477.69	87.62
477.908	93.62
478.127	104.62
478.346	109.62
478.564	89.62
478.783	98.62
479.002	98.62
479.22	101.62
479.439	95.62
479.658	82.62
479.876	95.62
480.095	71.62
480.313	92.62
480.532	88.62
480.751	91.62
480.969	87.62
481.188	79.62
481.406	90.62
481.624	68.62
481.843	94.62
482.061	99.62
482.28	86.62
482.498	98.62
482.717	99.62
482.935	93.62
483.153	95.62
483.372	115.62
483.59	110.62
483.808	94.62
484.027	110.62
484.245	103.62
484.463	86.62
484.681	111.62
484.9	104.62
485.118	95.62
485.336	95.62
485.554	103.62
485.772	95.62
485.99	80.62
486.209	86.62
486.427	79.62
486.645	88.62
486.863	87.62
487.081	97.62
487.299	91.62
487.517	108.62
487.735	87.62
487.953	113.62
488.171	122.62
488.389	110.62
488.607	97.62
488.825	89.62
489.043	86.62
489.261	94.62
489.479	100.62
489.696	115.62
489.914	107.62
490.132	105.62
490.35	100.62
490.568	91.62
490.786	97.62
491.003	116.62
491.221	112.62
491.439	115.62
491.657	114.62
491.874	112.62
492.092	131.62
492.31	133.62
492.527	139.62
492.745	118.62
492.963	107.62
493.18	115.62
493.398	112.62
493.615	95.62
493.833	104.62
494.05	107.62
494.268	100.62
494.485	118.62
494.703	106.62
494.92	117.62
495.138	105.62
495.355	99.62
495.573	106.62
495.79	100.62
496.008	106.62
496.225	104.62
496.442	103.62
496.66	113.62
496.877	91.62
497.094	112.62
497.312	93.62
497.529	101.62
497.746	95.62
497.963	91.62
498.181	106.62
498.398	96.62
498.615	87.62
498.832	90.62
499.049	92.62
499.267	95.62
499.484	101.62
499.701	92.62
499.918	99.62
500.135	99.62
500.352	96.62
500.569	104.62
500.786	107.62
501.003	105.62
501.22	98.62
501.437	94.62
501.654	93.62
501.871	103.62
502.088	87.62
502.305	91.62
502.522	88.62
502.739	98.62
502.956	90.62
503.172	89.62
503.389	92.62
503.606	94.62
503.823	107.62
504.04	87.62
504.256	94.62
504.473	84.62
504.69	82.62
504.907	96.62
505.123	94.62
505.34	82.62
505.557	90.62
505.773	98.62
505.99	97.62
506.207	90.62
506.423	98.62
506.64	91.62
506.856	99.62
507.073	80.62
507.289	91.62
507.506	96.62
507.722	84.62
507.939	94.62
508.155	87.62
508.372	85.62
508.588	105.62
508.805	84.62
509.021	99.62
509.238	87.62
509.454	88.62
509.67	88.62
509.887	85.62
510.103	88.62
510.319	92.62
510.536	101.62
510.752	75.62
510.968	96.62
511.184	101.62
511.401	83.62
511.617	78.62
511.833	77.62
512.049	92.62
512.265	84.62
512.481	88.62
512.698	80.62
512.914	89.62
513.13	83.62
513.346	91.62
513.562	85.62
513.778	86.62
513.994	95.62
514.21	85.62
514.426	106.62
514.642	92.62
514.858	107.62
515.074	91.62
515.29	87.62
515.506	90.62
515.721	95.62
515.937	102.62
516.153	81.62
516.369	78.62
516.585	70.62
516.801	80.62
517.016	82.62
517.232	83.62
517.448	76.62
517.664	96.62
517.879	91.62
518.095	83.62
518.311	81.62
518.527	82.62
518.742	90.62
518.958	90.62
519.173	82.62
519.389	97.62
519.605	91.62
519.82	86.62
520.036	93.62
520.251	87.62
520.467	87.62
520.682	99.62
520.898	83.62
521.113	96.62
521.329	80.62
521.544	85.62
521.76	79.62
521.975	87.62
522.19	85.62
522.406	95.62
522.621	94.62
522.836	77.62
523.052	92.62
523.267	89.62
523.482	95.62
523.698	93.62
523.913	96.62
524.128	82.62
524.343	87.62
524.559	97.62
524.774	94.62
524.989	92.62
525.204	101.62
525.419	94.62
525.634	82.62
525.849	84.62
526.064	95.62
526.28	90.62
526.495	73.62
526.71	79.62
526.925	70.62
527.14	83.62
527.355	82.62
527.57	74.62
527.785	74.62
527.999	83.62
528.214	88.62
528.429	88.62
528.644	91.62
528.859	97.62
529.074	102.62
529.289	105.62
529.503	94.62
529.718	107.62
529.933	104.62
530.148	76.62
530.363	85.62
530.577	87.62
530.792	77.62
531.007	88.62
531.221	82.62
531.436	91.62
531.651	88.62
531.865	85.62
532.08	90.62
532.295	88.62
532.509	93.62
532.724	70.62
532.938	80.62
533.153	90.62
533.367	96.62
533.582	95.62
533.796	82.62
534.011	96.62
534.225	90.62
534.44	89.62
534.654	83.62
534.868	91.62
535.083	90.62
535.297	94.62
535.511	86.62
535.726	91.62
535.94	90.62
536.154	86.62
536.369	79.62
536.583	91.62
536.797	96.62
537.011	85.62
537.225	83.62
537.44	84.62
537.654	79.62
537.868	79.62
538.082	85.62
538.296	78.62
538.51	79.62
538.724	97.62
538.938	102.62
539.153	102.62
539.367	90.62
539.581	93.62
539.795	83.62
540.009	89.62
540.222	95.62
540.436	88.62
540.65	94.62
540.864	88.62
541.078	91.62
541.292	99.62
541.506	114.62
541.72	122.62
541.934	116.62
542.147	129.62
542.361	120.62
542.575	114.62
542.789	99.62
543.002	97.62
543.216	90.62
543.43	83.62
543.644	111.62
543.857	115.62
544.071	102.62
544.285	107.62
544.498	101.62
544.712	113.62
544.925	99.62
545.139	111.62
545.352	105.62
545.566	119.62
545.779	98.62
545.993	113.62
546.206	103.62
546.42	103.62
546.633	119.62
546.847	110.62
547.06	118.62
547.274	114.62
547.487	107.62
547.7	101.62
547.914	110.62
548.127	110.62
548.34	111.62
548.554	96.62
548.767	99.62
548.98	102.62
549.193	111.62
549.407	117.62
549.62	104.62
549.833	104.62
550.046	115.62
550.259	110.62
550.473	99.62
550.686	108.62
550.899	102.62
551.112	102.62
551.325	115.62
551.538	105.62
551.751	105.62
551.964	91.62
552.177	114.62
552.39	105.62
552.603	108.62
552.816	90.62
553.029	107.62
553.242	103.62
553.455	113.62
553.667	104.62
553.88	109.62
554.093	105.62
554.306	93.62
554.519	99.62
554.732	106.62
554.944	117.62
555.157	98.62
555.37	92.62
555.583	91.62
555.795	91.62
556.008	88.62
556.221	106.62
556.433	97.62
556.646	87.62
556.859	91.62
557.071	86.62
557.284	92.62
557.496	97.62
557.709	104.62
557.921	94.62
558.134	107.62
558.346	96.62
558.559	105.62
558.771	101.62
558.984	95.62
559.196	95.62
559.409	86.62
559.621	89.62
559.833	86.62
560.046	94.62
560.258	111.62
560.47	110.62
560.683	103.62
560.895	91.62
561.107	101.62
561.32	107.62
561.532	102.62
561.744	100.62
561.956	112.62
562.168	102.62
562.381	104.62
562.593	97.62
562.805	99.62
563.017	90.62
563.229	101.62
563.441	106.62
563.653	82.62
563.865	84.62
564.077	93.62
564.289	93.62
564.501	79.62
564.713	99.62
564.925	102.62
565.137	86.62
565.349	108.62
565.561	93.62
565.773	83.62
565.985	94.62
566.197	100.62
566.408	99.62
566.62	100.62
566.832	96.62
567.044	101.62
567.255	93.62
567.467	110.62
567.679	99.62
567.891	88.62
568.102	86.62
568.314	83.62
568.526	88.62
568.737	86.62
568.949	96.62
569.161	86.62
569.372	79.62
569.584	87.62
569.795	86.62
570.007	83.62
570.218	81.62
570.43	93.62
570.641	73.62
570.853	86.62
571.064	91.62
571.276	100.62
571.487	87.62
571.698	78.62
571.91	92.62
572.121	90.62
572.333	86.62
572.544	85.62
572.755	72.62
572.966	93.62
573.178	90.62
573.389	83.62
573.6	99.62
573.811	96.62
574.023	92.62
574.234	86.62
574.445	92.62
574.656	96.62
574.867	96.62
575.078	90.62
575.289	91.62
575.501	91.62
575.712	88.62
575.923	97.62
576.134	80.62
576.345	85.62
576.556	94.62
576.767	86.62
576.978	86.62
577.188	84.62
577.399	90.62
577.61	84.62
577.821	82.62
578.032	76.62
578.243	85.62
578.454	86.62
578.665	89.62
578.875	82.62
579.086	77.62
579.297	84.62
579.508	83.62
579.718	97.62
579.929	91.62
580.14	71.62
580.35	88.62
580.561	89.62
580.772	81.62
580.982	86.62
581.193	90.62
581.403	83.62
581.614	91.62
581.825	85.62
582.035	79.62
582.246	88.62
582.456	84.62
582.667	90.62
582.877	78.62
583.087	84.62
583.298	86.62
583.508	78.62
583.719	87.62
583.929	100.62
584.139	93.62
584.35	90.62
584.56	110.62
584.77	82.62
584.981	80.62
585.191	84.62
585.401	88.62
585.611	80.62
585.821	96.62
586.032	93.62
586.242	73.62
586.452	85.62
586.662	83.62
586.872	77.62
587.082	93.62
587.292	94.62
587.502	96.62
587.713	95.62
587.923	87.62
588.133	86.62
588.343	92.62
588.553	86.62
588.762	79.62
588.972	75.62
589.182	98.62
589.392	80.62
589.602	98.62
589.812	89.62
590.022	91.62
590.232	86.62
590.441	89.62
590.651	97.62
590.861	82.62
591.071	80.62
591.281	74.62
591.49	81.62
591.7	88.62
591.91	94.62
592.119	75.62
592.329	90.62
592.539	94.62
592.748	89.62
592.958	80.62
593.167	88.62
593.377	95.62
593.587	71.62
593.796	90.62
594.006	70.62
594.215	91.62
594.424	86.62
594.634	90.62
594.843	83.62
595.053	84.62
595.262	97.62
595.472	80.62
595.681	91.62
595.89	91.62
596.1	91.62
596.309	93.62
596.518	82.62
596.727	93.62
596.937	89.62
597.146	90.62
597.355	90.62
597.564	86.62
597.774	85.62
597.983	81.62
598.192	83.62
598.401	86.62
598.61	77.62
598.819	76.62
599.028	82.62
599.237	90.62
599.446	83.62
599.655	72.62
599.864	79.62
600.073	70.62
600.282	81.62
600.491	90.62
600.7	86.62
600.909	83.62
601.118	81.62
601.327	90.62
601.536	87.62
601.745	104.62
601.953	82.62
602.162	97.62
602.371	96.62
602.58	98.62
602.789	91.62
602.997	83.62
603.206	89.62
603.415	87.62
603.623	93.62
603.832	90.62
604.041	94.62
604.249	94.62
604.458	89.62
604.666	79.62
604.875	84.62
605.084	93.62
605.292	99.62
605.501	86.62
605.709	113.62
605.918	88.62
606.126	87.62
606.334	94.62
606.543	98.62
606.751	99.62
606.96	94.62
607.168	89.62
607.376	89.62
607.585	89.62
607.793	87.62
608.001	83.62
608.21	92.62
608.418	105.62
608.626	85.62
608.834	95.62
609.043	84.62
609.251	99.62
609.459	104.62
609.667	115.62
609.875	99.62
610.083	90.62
610.291	83.62
610.499	87.62
610.707	98.62
610.916	87.62
611.124	112.62
611.332	98.62
611.54	87.62
611.748	79.62
611.955	95.62
612.163	95.62
612.371	104.62
612.579	91.62
612.787	101.62
612.995	95.62
613.203	100.62
613.411	80.62
613.618	89.62
613.826	86.62
614.034	83.62
614.242	76.62
614.449	99.62
614.657	93.62
614.865	89.62
615.072	89.62
615.28	89.62
615.488	91.62
615.695	88.62
615.903	86.62
616.111	85.62
616.318	94.62
616.526	88.62
616.733	100.62
616.941	83.62
617.148	94.62
617.356	81.62
617.563	81.62
617.771	87.62
617.978	99.62
618.185	99.62
618.393	89.62
618.6	96.62
618.807	84.62
619.015	95.62
619.222	92.62
619.429	95.62
619.637	91.62
619.844	85.62
620.051	96.62
620.258	94.62
620.466	105.62
620.673	88.62
620.88	95.62
621.087	82.62
621.294	103.62
621.501	96.62
621.708	100.62
621.915	75.62
622.122	96.62
622.329	95.62
622.536	92.62
622.743	88.62
622.95	96.62
623.157	92.62
623.364	82.62
623.571	104.62
623.778	81.62
623.985	99.62
624.192	89.62
624.399	87.62
624.606	87.62
624.812	96.62
625.019	91.62
625.226	98.62
625.433	91.62
625.639	92.62
625.846	92.62
626.053	91.62
626.259	99.62
626.466	84.62
626.673	90.62
626.879	92.62
627.086	94.62
627.293	87.62
627.499	94.62
627.706	102.62
627.912	82.62
628.119	80.62
628.325	103.62
628.532	91.62
628.738	97.62
628.945	86.62
629.151	88.62
629.357	91.62
629.564	102.62
629.77	80.62
629.976	90.62
630.183	95.62
630.389	79.62
630.595	95.62
630.802	81.62
631.008	90.62
631.214	75.62
631.42	74.62
631.627	97.62
631.833	85.62
632.039	80.62
632.245	92.62
632.451	89.62
632.657	90.62
632.863	90.62
633.069	106.62
633.275	87.62
633.481	92.62
633.688	89.62
633.893	99.62
634.099	95.62
634.305	104.62
634.511	99.62
634.717	105.62
634.923	95.62
635.129	92.62
635.335	87.62
635.541	82.62
635.747	88.62
635.952	89.62
636.158	94.62
636.364	84.62
636.57	91.62
636.775	91.62
636.981	86.62
637.187	99.62
637.392	88.62
637.598	87.62
637.804	100.62
638.009	81.62
638.215	90.62
638.421	95.62
638.626	87.62
638.832	97.62
639.037	87.62
639.243	80.62
639.448	89.62
639.654	106.62
639.859	92.62
640.065	88.62
640.27	97.62
640.475	96.62
640.681	92.62
640.886	87.62
641.091	82.62
641.297	86.62
641.502	86.62
641.707	88.62
641.913	87.62
642.118	82.62
642.323	92.62
642.528	91.62
642.733	98.62
642.939	77.62
643.144	91.62
643.349	85.62
643.554	94.62
643.759	93.62
643.964	91.62
644.169	86.62
644.374	89.62
644.579	91.62
644.784	79.62
644.989	98.62
645.194	95.62
645.399	92.62
645.604	97.62
645.809	89.62
646.014	85.62
646.219	81.62
646.423	91.62
646.628	77.62
646.833	83.62
647.038	73.62
647.243	95.62
647.447	94.62
647.652	90.62
647.857	93.62
648.062	86.62
648.266	83.62
648.471	76.62
648.676	85.62
648.88	88.62
649.085	92.62
649.289	87.62
649.494	85.62
649.698	91.62
649.903	84.62
650.107	92.62
650.312	86.62
650.516	86.62
650.721	86.62
650.925	113.62
651.13	84.62
651.334	96.62
651.539	89.62
651.743	99.62
651.947	101.62
652.152	82.62
652.356	92.62
652.56	87.62
652.764	92.62
652.969	73.62
653.173	82.62
653.377	89.62
653.581	80.62
653.785	86.62
653.99	64.62
654.194	92.62
654.398	76.62
654.602	81.62
654.806	76.62
655.01	86.62
655.214	82.62
655.418	77.62
655.622	82.62
655.826	93.62
656.03	70.62
656.234	82.62
656.438	81.62
656.642	81.62
656.846	89.62
657.049	82.62
657.253	85.62
657.457	91.62
657.661	89.62
657.865	81.62
658.068	88.62
658.272	90.62
658.476	85.62
658.68	81.62
658.883	87.62
659.087	83.62
659.291	79.62
659.494	86.62
659.698	84.62
659.901	65.62
660.105	79.62
660.309	83.62
660.512	96.62
660.716	78.62
660.919	78.62
661.123	88.62
661.326	91.62
661.53	85.62
661.733	84.62
661.936	93.62
662.14	82.62
662.343	85.62
662.546	74.62
662.75	80.62
662.953	91.62
663.156	78.62
663.36	88.62
663.563	83.62
663.766	79.62
663.969	75.62
664.173	85.62
664.376	77.62
664.579	76.62
664.782	81.62
664.985	83.62
665.188	78.62
665.391	96.62
665.594	76.62
665.797	74.62
666	71.62
666.203	87.62
666.406	80.62
666.609	97.62
666.812	74.62
667.015	95.62
667.218	88.62
667.421	90.62
667.624	89.62
667.827	89.62
668.03	69.62
668.232	83.62
668.435	96.62
668.638	74.62
668.841	93.62
669.043	94.62
669.246	80.62
669.449	87.62
669.651	73.62
669.854	74.62
670.057	75.62
670.259	91.62
670.462	83.62
670.665	68.62
670.867	84.62
671.07	82.62
671.272	79.62
671.475	72.62
671.677	88.62
671.88	83.62
672.082	86.62
672.284	82.62
672.487	76.62
672.689	86.62
672.892	74.62
