Data from 1960PennyLincolnUp.LampE6.200Scan.07172019.P1_HRD10591_13-05-08-002.txt Node
Date: Thu Jul 18 13:05:08 EDT 2019
User: cochatt
Spectrometer: HR+D1059
Trigger mode: 1
Integration Time (sec): 1.000000E-1
Scans to average: 1
Electric dark correction enabled: true
Nonlinearity correction enabled: false
Boxcar width: 0
XAxis mode: Wavelengths
Number of Pixels in Spectrum: 2048
>>>>>Begin Spectral Data<<<<<
223.165	-11.44
223.4	-11.44
223.635	-11.44
223.869	-16.44
224.104	-23.44
224.338	-19.44
224.573	-10.44
224.808	0.56
225.042	-6.44
225.277	-6.44
225.511	-7.44
225.746	5.56
225.98	-1.44
226.215	-11.44
226.449	8.56
226.683	30.56
226.918	23.56
227.152	45.56
227.387	30.56
227.621	35.56
227.856	27.56
228.09	44.56
228.324	44.56
228.559	37.56
228.793	55.56
229.027	85.56
229.262	82.56
229.496	103.56
229.73	106.56
229.964	105.56
230.199	107.56
230.433	114.56
230.667	108.56
230.901	103.56
231.136	101.56
231.37	90.56
231.604	121.56
231.838	115.56
232.072	103.56
232.306	120.56
232.541	115.56
232.775	101.56
233.009	108.56
233.243	106.56
233.477	121.56
233.711	116.56
233.945	98.56
234.179	108.56
234.413	114.56
234.647	106.56
234.881	117.56
235.115	102.56
235.349	106.56
235.583	113.56
235.817	99.56
236.051	123.56
236.285	119.56
236.519	128.56
236.753	115.56
236.987	119.56
237.221	141.56
237.455	170.56
237.689	143.56
237.922	125.56
238.156	118.56
238.39	108.56
238.624	129.56
238.858	109.56
239.091	111.56
239.325	90.56
239.559	121.56
239.793	103.56
240.027	110.56
240.26	121.56
240.494	137.56
240.728	118.56
240.961	143.56
241.195	124.56
241.429	139.56
241.662	104.56
241.896	120.56
242.13	109.56
242.363	124.56
242.597	127.56
242.83	128.56
243.064	125.56
243.298	135.56
243.531	130.56
243.765	138.56
243.998	132.56
244.232	134.56
244.465	145.56
244.699	129.56
244.932	137.56
245.166	138.56
245.399	131.56
245.633	146.56
245.866	130.56
246.099	128.56
246.333	139.56
246.566	151.56
246.8	131.56
247.033	150.56
247.266	138.56
247.5	127.56
247.733	141.56
247.966	146.56
248.2	151.56
248.433	163.56
248.666	148.56
248.899	159.56
249.133	159.56
249.366	165.56
249.599	151.56
249.832	163.56
250.066	163.56
250.299	169.56
250.532	177.56
250.765	159.56
250.998	176.56
251.231	158.56
251.465	183.56
251.698	174.56
251.931	173.56
252.164	164.56
252.397	168.56
252.63	174.56
252.863	171.56
253.096	191.56
253.329	179.56
253.562	183.56
253.795	182.56
254.028	192.56
254.261	169.56
254.494	199.56
254.727	196.56
254.96	203.56
255.193	198.56
255.426	180.56
255.659	193.56
255.892	199.56
256.124	187.56
256.357	183.56
256.59	177.56
256.823	182.56
257.056	171.56
257.289	184.56
257.521	182.56
257.754	182.56
257.987	188.56
258.22	198.56
258.452	194.56
258.685	191.56
258.918	175.56
259.151	177.56
259.383	189.56
259.616	187.56
259.849	196.56
260.081	181.56
260.314	206.56
260.547	212.56
260.779	201.56
261.012	201.56
261.244	190.56
261.477	194.56
261.71	202.56
261.942	192.56
262.175	214.56
262.407	203.56
262.64	195.56
262.872	197.56
263.105	203.56
263.337	198.56
263.57	188.56
263.802	191.56
264.035	197.56
264.267	188.56
264.499	192.56
264.732	187.56
264.964	191.56
265.197	185.56
265.429	201.56
265.661	202.56
265.894	193.56
266.126	198.56
266.358	223.56
266.591	217.56
266.823	222.56
267.055	203.56
267.287	203.56
267.52	191.56
267.752	212.56
267.984	199.56
268.216	200.56
268.448	206.56
268.681	203.56
268.913	235.56
269.145	229.56
269.377	244.56
269.609	228.56
269.841	225.56
270.073	233.56
270.306	240.56
270.538	254.56
270.77	248.56
271.002	242.56
271.234	234.56
271.466	248.56
271.698	246.56
271.93	250.56
272.162	258.56
272.394	243.56
272.626	246.56
272.858	225.56
273.09	231.56
273.322	247.56
273.553	226.56
273.785	241.56
274.017	241.56
274.249	218.56
274.481	250.56
274.713	243.56
274.945	230.56
275.176	235.56
275.408	251.56
275.64	240.56
275.872	261.56
276.104	250.56
276.335	242.56
276.567	236.56
276.799	243.56
277.031	263.56
277.262	264.56
277.494	256.56
277.726	275.56
277.957	256.56
278.189	242.56
278.421	254.56
278.652	237.56
278.884	253.56
279.115	270.56
279.347	246.56
279.579	263.56
279.81	242.56
280.042	271.56
280.273	261.56
280.505	253.56
280.736	243.56
280.968	251.56
281.199	259.56
281.431	263.56
281.662	254.56
281.894	273.56
282.125	267.56
282.356	257.56
282.588	262.56
282.819	256.56
283.051	285.56
283.282	261.56
283.513	249.56
283.745	257.56
283.976	278.56
284.207	276.56
284.439	268.56
284.67	264.56
284.901	258.56
285.132	271.56
285.364	261.56
285.595	278.56
285.826	281.56
286.057	272.56
286.288	280.56
286.52	279.56
286.751	271.56
286.982	258.56
287.213	281.56
287.444	294.56
287.675	277.56
287.906	282.56
288.138	298.56
288.369	294.56
288.6	298.56
288.831	294.56
289.062	280.56
289.293	291.56
289.524	293.56
289.755	289.56
289.986	295.56
290.217	304.56
290.448	293.56
290.679	292.56
290.91	275.56
291.141	301.56
291.371	293.56
291.602	281.56
291.833	266.56
292.064	293.56
292.295	293.56
292.526	297.56
292.757	275.56
292.987	298.56
293.218	301.56
293.449	288.56
293.68	285.56
293.91	285.56
294.141	302.56
294.372	289.56
294.603	293.56
294.833	297.56
295.064	301.56
295.295	302.56
295.525	287.56
295.756	296.56
295.987	301.56
296.217	298.56
296.448	313.56
296.679	294.56
296.909	297.56
297.14	302.56
297.37	305.56
297.601	301.56
297.831	296.56
298.062	299.56
298.292	285.56
298.523	315.56
298.753	309.56
298.984	319.56
299.214	300.56
299.445	320.56
299.675	313.56
299.905	314.56
300.136	311.56
300.366	310.56
300.597	325.56
300.827	304.56
301.057	317.56
301.288	338.56
301.518	326.56
301.748	330.56
301.979	326.56
302.209	325.56
302.439	301.56
302.669	324.56
302.9	328.56
303.13	327.56
303.36	325.56
303.59	343.56
303.82	350.56
304.051	334.56
304.281	341.56
304.511	343.56
304.741	320.56
304.971	310.56
305.201	339.56
305.431	338.56
305.661	331.56
305.891	337.56
306.121	327.56
306.352	323.56
306.582	334.56
306.812	322.56
307.042	330.56
307.272	328.56
307.502	337.56
307.731	338.56
307.961	335.56
308.191	322.56
308.421	342.56
308.651	335.56
308.881	326.56
309.111	343.56
309.341	339.56
309.571	337.56
309.8	339.56
310.03	342.56
310.26	348.56
310.49	337.56
310.72	357.56
310.949	333.56
311.179	336.56
311.409	338.56
311.639	331.56
311.868	351.56
312.098	357.56
312.328	351.56
312.557	363.56
312.787	367.56
313.017	345.56
313.246	375.56
313.476	367.56
313.706	369.56
313.935	369.56
314.165	356.56
314.394	353.56
314.624	349.56
314.853	354.56
315.083	345.56
315.312	385.56
315.542	367.56
315.771	369.56
316.001	369.56
316.23	350.56
316.46	356.56
316.689	359.56
316.919	359.56
317.148	342.56
317.377	379.56
317.607	357.56
317.836	351.56
318.065	353.56
318.295	358.56
318.524	362.56
318.753	352.56
318.983	345.56
319.212	357.56
319.441	369.56
319.67	370.56
319.9	345.56
320.129	371.56
320.358	357.56
320.587	357.56
320.816	353.56
321.046	359.56
321.275	377.56
321.504	369.56
321.733	366.56
321.962	372.56
322.191	374.56
322.42	392.56
322.649	386.56
322.878	385.56
323.108	370.56
323.337	408.56
323.566	378.56
323.795	406.56
324.024	427.56
324.253	474.56
324.482	595.56
324.71	797.56
324.939	1092.56
325.168	931.56
325.397	531.56
325.626	446.56
325.855	421.56
326.084	402.56
326.313	413.56
326.542	401.56
326.77	409.56
326.999	471.56
327.228	589.56
327.457	775.56
327.686	873.56
327.914	617.56
328.143	481.56
328.372	460.56
328.6	455.56
328.829	454.56
329.058	422.56
329.287	411.56
329.515	446.56
329.744	434.56
329.972	435.56
330.201	413.56
330.43	455.56
330.658	466.56
330.887	466.56
331.115	454.56
331.344	441.56
331.572	442.56
331.801	450.56
332.03	443.56
332.258	425.56
332.486	443.56
332.715	430.56
332.943	460.56
333.172	452.56
333.4	470.56
333.629	479.56
333.857	499.56
334.085	482.56
334.314	494.56
334.542	502.56
334.771	517.56
334.999	468.56
335.227	479.56
335.455	443.56
335.684	445.56
335.912	450.56
336.14	440.56
336.369	455.56
336.597	454.56
336.825	452.56
337.053	440.56
337.281	424.56
337.51	450.56
337.738	455.56
337.966	424.56
338.194	435.56
338.422	419.56
338.65	446.56
338.878	421.56
339.106	417.56
339.334	422.56
339.562	408.56
339.79	407.56
340.018	415.56
340.246	403.56
340.474	410.56
340.702	418.56
340.93	409.56
341.158	402.56
341.386	393.56
341.614	405.56
341.842	429.56
342.07	410.56
342.298	400.56
342.526	416.56
342.754	405.56
342.981	420.56
343.209	424.56
343.437	443.56
343.665	449.56
343.893	471.56
344.12	495.56
344.348	448.56
344.576	444.56
344.804	411.56
345.031	409.56
345.259	430.56
345.487	435.56
345.714	423.56
345.942	417.56
346.17	391.56
346.397	400.56
346.625	395.56
346.853	387.56
347.08	384.56
347.308	373.56
347.535	393.56
347.763	421.56
347.99	400.56
348.218	392.56
348.445	390.56
348.673	393.56
348.9	378.56
349.128	406.56
349.355	375.56
349.583	367.56
349.81	392.56
350.037	376.56
350.265	392.56
350.492	387.56
350.72	401.56
350.947	395.56
351.174	395.56
351.402	385.56
351.629	408.56
351.856	399.56
352.083	406.56
352.311	398.56
352.538	384.56
352.765	422.56
352.992	385.56
353.22	406.56
353.447	387.56
353.674	371.56
353.901	389.56
354.128	379.56
354.355	389.56
354.583	368.56
354.81	395.56
355.037	411.56
355.264	381.56
355.491	369.56
355.718	397.56
355.945	380.56
356.172	372.56
356.399	399.56
356.626	373.56
356.853	386.56
357.08	383.56
357.307	381.56
357.534	380.56
357.761	386.56
357.988	375.56
358.215	384.56
358.441	395.56
358.668	391.56
358.895	381.56
359.122	410.56
359.349	399.56
359.576	411.56
359.802	394.56
360.029	419.56
360.256	429.56
360.483	395.56
360.709	379.56
360.936	404.56
361.163	382.56
361.39	400.56
361.616	385.56
361.843	378.56
362.07	389.56
362.296	395.56
362.523	394.56
362.749	393.56
362.976	393.56
363.203	389.56
363.429	392.56
363.656	402.56
363.882	374.56
364.109	385.56
364.335	390.56
364.562	389.56
364.788	379.56
365.015	389.56
365.241	387.56
365.468	405.56
365.694	369.56
365.92	395.56
366.147	375.56
366.373	378.56
366.599	379.56
366.826	395.56
367.052	400.56
367.278	399.56
367.505	371.56
367.731	377.56
367.957	373.56
368.184	367.56
368.41	406.56
368.636	395.56
368.862	412.56
369.089	398.56
369.315	388.56
369.541	394.56
369.767	404.56
369.993	397.56
370.219	392.56
370.445	386.56
370.672	402.56
370.898	365.56
371.124	401.56
371.35	415.56
371.576	402.56
371.802	417.56
372.028	387.56
372.254	418.56
372.48	401.56
372.706	430.56
372.932	421.56
373.158	403.56
373.384	421.56
373.61	407.56
373.835	413.56
374.061	401.56
374.287	429.56
374.513	424.56
374.739	425.56
374.965	423.56
375.191	423.56
375.416	427.56
375.642	413.56
375.868	444.56
376.094	408.56
376.319	410.56
376.545	410.56
376.771	400.56
376.997	419.56
377.222	402.56
377.448	424.56
377.674	407.56
377.899	407.56
378.125	407.56
378.35	395.56
378.576	404.56
378.802	371.56
379.027	385.56
379.253	409.56
379.478	393.56
379.704	404.56
379.929	413.56
380.155	392.56
380.38	398.56
380.606	418.56
380.831	410.56
381.057	420.56
381.282	400.56
381.507	413.56
381.733	399.56
381.958	407.56
382.184	433.56
382.409	441.56
382.634	431.56
382.86	417.56
383.085	421.56
383.31	426.56
383.535	452.56
383.761	432.56
383.986	427.56
384.211	458.56
384.436	462.56
384.662	478.56
384.887	477.56
385.112	452.56
385.337	489.56
385.562	479.56
385.787	485.56
386.013	466.56
386.238	457.56
386.463	473.56
386.688	452.56
386.913	461.56
387.138	449.56
387.363	455.56
387.588	465.56
387.813	459.56
388.038	449.56
388.263	466.56
388.488	478.56
388.713	457.56
388.938	495.56
389.163	438.56
389.387	461.56
389.612	453.56
389.837	444.56
390.062	458.56
390.287	465.56
390.512	456.56
390.736	477.56
390.961	471.56
391.186	486.56
391.411	472.56
391.636	475.56
391.86	474.56
392.085	474.56
392.31	502.56
392.534	506.56
392.759	491.56
392.984	469.56
393.208	483.56
393.433	489.56
393.658	491.56
393.882	479.56
394.107	490.56
394.331	485.56
394.556	518.56
394.78	475.56
395.005	493.56
395.229	478.56
395.454	502.56
395.678	516.56
395.903	511.56
396.127	531.56
396.352	503.56
396.576	474.56
396.801	517.56
397.025	513.56
397.249	487.56
397.474	507.56
397.698	511.56
397.922	529.56
398.147	508.56
398.371	518.56
398.595	534.56
398.82	559.56
399.044	589.56
399.268	609.56
399.492	686.56
399.717	758.56
399.941	767.56
400.165	687.56
400.389	667.56
400.613	623.56
400.837	571.56
401.062	585.56
401.286	562.56
401.51	553.56
401.734	562.56
401.958	554.56
402.182	583.56
402.406	555.56
402.63	547.56
402.854	587.56
403.078	608.56
403.302	567.56
403.526	591.56
403.75	592.56
403.974	605.56
404.198	613.56
404.422	605.56
404.645	611.56
404.869	602.56
405.093	628.56
405.317	635.56
405.541	631.56
405.765	592.56
405.988	609.56
406.212	615.56
406.436	621.56
406.66	623.56
406.883	615.56
407.107	657.56
407.331	677.56
407.555	714.56
407.778	689.56
408.002	681.56
408.226	657.56
408.449	624.56
408.673	609.56
408.896	619.56
409.12	653.56
409.344	628.56
409.567	583.56
409.791	591.56
410.014	564.56
410.238	574.56
410.461	595.56
410.685	593.56
410.908	585.56
411.132	627.56
411.355	591.56
411.578	594.56
411.802	573.56
412.025	553.56
412.249	560.56
412.472	590.56
412.695	602.56
412.919	591.56
413.142	566.56
413.365	558.56
413.589	547.56
413.812	565.56
414.035	554.56
414.258	549.56
414.482	525.56
414.705	554.56
414.928	552.56
415.151	556.56
415.374	529.56
415.597	549.56
415.821	532.56
416.044	550.56
416.267	535.56
416.49	543.56
416.713	506.56
416.936	529.56
417.159	519.56
417.382	535.56
417.605	542.56
417.828	531.56
418.051	569.56
418.274	561.56
418.497	554.56
418.72	565.56
418.943	554.56
419.166	567.56
419.389	605.56
419.611	605.56
419.834	563.56
420.057	570.56
420.28	560.56
420.503	551.56
420.726	541.56
420.948	566.56
421.171	578.56
421.394	581.56
421.617	542.56
421.839	525.56
422.062	558.56
422.285	549.56
422.507	577.56
422.73	634.56
422.953	606.56
423.175	576.56
423.398	594.56
423.621	571.56
423.843	591.56
424.066	581.56
424.288	594.56
424.511	586.56
424.733	625.56
424.956	661.56
425.178	613.56
425.401	627.56
425.623	615.56
425.846	552.56
426.068	580.56
426.291	575.56
426.513	526.56
426.735	558.56
426.958	559.56
427.18	601.56
427.402	663.56
427.625	690.56
427.847	635.56
428.069	566.56
428.292	537.56
428.514	505.56
428.736	507.56
428.958	518.56
429.181	524.56
429.403	490.56
429.625	501.56
429.847	522.56
430.069	551.56
430.292	531.56
430.514	507.56
430.736	521.56
430.958	495.56
431.18	497.56
431.402	496.56
431.624	479.56
431.846	501.56
432.068	485.56
432.29	500.56
432.512	502.56
432.734	515.56
432.956	497.56
433.178	515.56
433.4	505.56
433.622	513.56
433.844	485.56
434.066	500.56
434.287	488.56
434.509	510.56
434.731	505.56
434.953	568.56
435.175	549.56
435.397	560.56
435.618	553.56
435.84	575.56
436.062	559.56
436.284	611.56
436.505	546.56
436.727	541.56
436.949	495.56
437.17	505.56
437.392	510.56
437.614	493.56
437.835	497.56
438.057	551.56
438.278	593.56
438.5	593.56
438.721	647.56
438.943	606.56
439.165	512.56
439.386	536.56
439.608	528.56
439.829	518.56
440.05	531.56
440.272	563.56
440.493	530.56
440.715	528.56
440.936	516.56
441.158	536.56
441.379	509.56
441.6	565.56
441.822	575.56
442.043	575.56
442.264	589.56
442.486	617.56
442.707	587.56
442.928	549.56
443.149	547.56
443.371	547.56
443.592	601.56
443.813	622.56
444.034	662.56
444.255	607.56
444.476	580.56
444.698	596.56
444.919	592.56
445.14	682.56
445.361	613.56
445.582	591.56
445.803	577.56
446.024	649.56
446.245	617.56
446.466	563.56
446.687	559.56
446.908	515.56
447.129	511.56
447.35	482.56
447.571	498.56
447.792	469.56
448.013	484.56
448.234	483.56
448.455	506.56
448.675	546.56
448.896	605.56
449.117	579.56
449.338	558.56
449.559	598.56
449.779	618.56
450	523.56
450.221	492.56
450.442	463.56
450.662	450.56
450.883	480.56
451.104	458.56
451.324	458.56
451.545	444.56
451.766	460.56
451.986	455.56
452.207	463.56
452.428	474.56
452.648	446.56
452.869	447.56
453.089	441.56
453.31	464.56
453.53	439.56
453.751	431.56
453.971	438.56
454.192	441.56
454.412	429.56
454.633	436.56
454.853	413.56
455.073	426.56
455.294	430.56
455.514	453.56
455.734	452.56
455.955	438.56
456.175	432.56
456.395	408.56
456.616	401.56
456.836	440.56
457.056	406.56
457.276	429.56
457.497	432.56
457.717	417.56
457.937	419.56
458.157	433.56
458.377	438.56
458.598	473.56
458.818	485.56
459.038	478.56
459.258	527.56
459.478	512.56
459.698	505.56
459.918	497.56
460.138	510.56
460.358	529.56
460.578	547.56
460.798	538.56
461.018	541.56
461.238	536.56
461.458	533.56
461.678	531.56
461.898	549.56
462.118	528.56
462.338	562.56
462.558	547.56
462.777	589.56
462.997	607.56
463.217	644.56
463.437	638.56
463.657	601.56
463.876	613.56
464.096	598.56
464.316	568.56
464.536	584.56
464.755	566.56
464.975	591.56
465.195	582.56
465.414	568.56
465.634	517.56
465.854	497.56
466.073	502.56
466.293	461.56
466.512	488.56
466.732	468.56
466.951	455.56
467.171	493.56
467.391	477.56
467.61	481.56
467.829	480.56
468.049	459.56
468.268	463.56
468.488	438.56
468.707	440.56
468.927	462.56
469.146	447.56
469.365	465.56
469.585	456.56
469.804	484.56
470.023	477.56
470.243	457.56
470.462	471.56
470.681	497.56
470.901	471.56
471.12	505.56
471.339	483.56
471.558	458.56
471.777	447.56
471.997	462.56
472.216	453.56
472.435	470.56
472.654	464.56
472.873	438.56
473.092	456.56
473.311	449.56
473.53	444.56
473.749	465.56
473.968	482.56
474.187	513.56
474.406	507.56
474.625	446.56
474.844	437.56
475.063	468.56
475.282	453.56
475.501	456.56
475.72	450.56
475.939	461.56
476.158	463.56
476.377	461.56
476.596	473.56
476.814	461.56
477.033	463.56
477.252	485.56
477.471	487.56
477.69	494.56
477.908	508.56
478.127	523.56
478.346	526.56
478.564	531.56
478.783	510.56
479.002	525.56
479.22	538.56
479.439	558.56
479.658	537.56
479.876	555.56
480.095	543.56
480.313	574.56
480.532	567.56
480.751	582.56
480.969	589.56
481.188	610.56
481.406	569.56
481.624	549.56
481.843	558.56
482.061	538.56
482.28	503.56
482.498	531.56
482.717	514.56
482.935	523.56
483.153	526.56
483.372	523.56
483.59	536.56
483.808	505.56
484.027	544.56
484.245	526.56
484.463	529.56
484.681	562.56
484.9	543.56
485.118	546.56
485.336	543.56
485.554	537.56
485.772	543.56
485.99	552.56
486.209	553.56
486.427	531.56
486.645	551.56
486.863	566.56
487.081	545.56
487.299	565.56
487.517	559.56
487.735	547.56
487.953	570.56
488.171	552.56
488.389	556.56
488.607	561.56
488.825	562.56
489.043	552.56
489.261	553.56
489.479	551.56
489.696	562.56
489.914	583.56
490.132	581.56
490.35	580.56
490.568	595.56
490.786	571.56
491.003	585.56
491.221	608.56
491.439	587.56
491.657	597.56
491.874	615.56
492.092	615.56
492.31	601.56
492.527	610.56
492.745	617.56
492.963	621.56
493.18	615.56
493.398	611.56
493.615	638.56
493.833	642.56
494.05	643.56
494.268	629.56
494.485	625.56
494.703	607.56
494.92	621.56
495.138	616.56
495.355	630.56
495.573	663.56
495.79	626.56
496.008	639.56
496.225	637.56
496.442	645.56
496.66	654.56
496.877	654.56
497.094	630.56
497.312	647.56
497.529	663.56
497.746	671.56
497.963	686.56
498.181	712.56
498.398	731.56
498.615	740.56
498.832	787.56
499.049	841.56
499.267	878.56
499.484	907.56
499.701	981.56
499.918	1040.56
500.135	1127.56
500.352	1238.56
500.569	1287.56
500.786	1297.56
501.003	1240.56
501.22	1133.56
501.437	1053.56
501.654	956.56
501.871	945.56
502.088	877.56
502.305	823.56
502.522	804.56
502.739	776.56
502.956	712.56
503.172	715.56
503.389	689.56
503.606	676.56
503.823	671.56
504.04	680.56
504.256	673.56
504.473	686.56
504.69	690.56
504.907	692.56
505.123	643.56
505.34	619.56
505.557	613.56
505.773	594.56
505.99	559.56
506.207	593.56
506.423	590.56
506.64	566.56
506.856	571.56
507.073	567.56
507.289	571.56
507.506	554.56
507.722	563.56
507.939	571.56
508.155	563.56
508.372	549.56
508.588	535.56
508.805	511.56
509.021	531.56
509.238	542.56
509.454	528.56
509.67	532.56
509.887	522.56
510.103	503.56
510.319	520.56
510.536	545.56
510.752	719.56
510.968	662.56
511.184	507.56
511.401	518.56
511.617	511.56
511.833	500.56
512.049	497.56
512.265	509.56
512.481	501.56
512.698	485.56
512.914	498.56
513.13	517.56
513.346	487.56
513.562	498.56
513.778	511.56
513.994	501.56
514.21	521.56
514.426	527.56
514.642	525.56
514.858	513.56
515.074	539.56
515.29	602.56
515.506	731.56
515.721	693.56
515.937	565.56
516.153	543.56
516.369	548.56
516.585	556.56
516.801	561.56
517.016	594.56
517.232	581.56
517.448	598.56
517.664	620.56
517.879	621.56
518.095	610.56
518.311	625.56
518.527	596.56
518.742	621.56
518.958	547.56
519.173	565.56
519.389	535.56
519.605	517.56
519.82	518.56
520.036	522.56
520.251	527.56
520.467	514.56
520.682	527.56
520.898	501.56
521.113	494.56
521.329	549.56
521.544	559.56
521.76	610.56
521.975	847.56
522.19	873.56
522.406	567.56
522.621	514.56
522.836	473.56
523.052	489.56
523.267	497.56
523.482	468.56
523.698	481.56
523.913	481.56
524.128	448.56
524.343	465.56
524.559	471.56
524.774	444.56
524.989	434.56
525.204	454.56
525.419	466.56
525.634	441.56
525.849	450.56
526.064	463.56
526.28	446.56
526.495	441.56
526.71	453.56
526.925	445.56
527.14	443.56
527.355	434.56
527.57	431.56
527.785	440.56
527.999	435.56
528.214	430.56
528.429	437.56
528.644	443.56
528.859	429.56
529.074	440.56
529.289	445.56
529.503	468.56
529.718	455.56
529.933	445.56
530.148	423.56
530.363	433.56
530.577	446.56
530.792	419.56
531.007	411.56
531.221	457.56
531.436	425.56
531.651	447.56
531.865	427.56
532.08	440.56
532.295	427.56
532.509	449.56
532.724	435.56
532.938	441.56
533.153	443.56
533.367	416.56
533.582	422.56
533.796	429.56
534.011	415.56
534.225	420.56
534.44	445.56
534.654	420.56
534.868	445.56
535.083	417.56
535.297	421.56
535.511	426.56
535.726	429.56
535.94	425.56
536.154	415.56
536.369	419.56
536.583	421.56
536.797	377.56
537.011	415.56
537.225	385.56
537.44	405.56
537.654	415.56
537.868	409.56
538.082	397.56
538.296	432.56
538.51	425.56
538.724	407.56
538.938	401.56
539.153	425.56
539.367	408.56
539.581	405.56
539.795	404.56
540.009	396.56
540.222	385.56
540.436	385.56
540.65	391.56
540.864	404.56
541.078	397.56
541.292	411.56
541.506	421.56
541.72	413.56
541.934	404.56
542.147	413.56
542.361	409.56
542.575	391.56
542.789	392.56
543.002	399.56
543.216	403.56
543.43	394.56
543.644	404.56
543.857	391.56
544.071	410.56
544.285	406.56
544.498	411.56
544.712	389.56
544.925	413.56
545.139	412.56
545.352	424.56
545.566	407.56
545.779	422.56
545.993	399.56
546.206	438.56
546.42	436.56
546.633	403.56
546.847	421.56
547.06	420.56
547.274	409.56
547.487	394.56
547.7	410.56
547.914	427.56
548.127	426.56
548.34	408.56
548.554	406.56
548.767	423.56
548.98	422.56
549.193	424.56
549.407	420.56
549.62	417.56
549.833	408.56
550.046	424.56
550.259	412.56
550.473	394.56
550.686	417.56
550.899	399.56
551.112	427.56
551.325	411.56
551.538	408.56
551.751	403.56
551.964	401.56
552.177	409.56
552.39	424.56
552.603	421.56
552.816	454.56
553.029	427.56
553.242	449.56
553.455	435.56
553.667	465.56
553.88	450.56
554.093	448.56
554.306	433.56
554.519	413.56
554.732	408.56
554.944	407.56
555.157	403.56
555.37	386.56
555.583	383.56
555.795	398.56
556.008	392.56
556.221	376.56
556.433	391.56
556.646	398.56
556.859	369.56
557.071	366.56
557.284	361.56
557.496	373.56
557.709	372.56
557.921	386.56
558.134	357.56
558.346	362.56
558.559	376.56
558.771	363.56
558.984	357.56
559.196	349.56
559.409	361.56
559.621	343.56
559.833	349.56
560.046	328.56
560.258	353.56
560.47	351.56
560.683	368.56
560.895	355.56
561.107	374.56
561.32	357.56
561.532	357.56
561.744	357.56
561.956	356.56
562.168	344.56
562.381	363.56
562.593	362.56
562.805	342.56
563.017	363.56
563.229	351.56
563.441	363.56
563.653	362.56
563.865	359.56
564.077	360.56
564.289	377.56
564.501	365.56
564.713	376.56
564.925	403.56
565.137	394.56
565.349	375.56
565.561	409.56
565.773	405.56
565.985	422.56
566.197	449.56
566.408	455.56
566.62	480.56
566.832	530.56
567.044	530.56
567.255	532.56
567.467	542.56
567.679	561.56
567.891	571.56
568.102	587.56
568.314	579.56
568.526	519.56
568.737	493.56
568.949	457.56
569.161	441.56
569.372	410.56
569.584	407.56
569.795	402.56
570.007	377.56
570.218	385.56
570.43	379.56
570.641	363.56
570.853	366.56
571.064	379.56
571.276	367.56
571.487	372.56
571.698	341.56
571.91	339.56
572.121	330.56
572.333	326.56
572.544	321.56
572.755	317.56
572.966	308.56
573.178	321.56
573.389	323.56
573.6	310.56
573.811	316.56
574.023	316.56
574.234	296.56
574.445	309.56
574.656	299.56
574.867	318.56
575.078	327.56
575.289	315.56
575.501	310.56
575.712	301.56
575.923	285.56
576.134	305.56
576.345	291.56
576.556	303.56
576.767	294.56
576.978	293.56
577.188	293.56
577.399	297.56
577.61	293.56
577.821	290.56
578.032	274.56
578.243	314.56
578.454	393.56
578.665	324.56
578.875	298.56
579.086	297.56
579.297	281.56
579.508	288.56
579.718	281.56
579.929	272.56
580.14	272.56
580.35	283.56
580.561	270.56
580.772	278.56
580.982	291.56
581.193	265.56
581.403	276.56
581.614	266.56
581.825	251.56
582.035	293.56
582.246	278.56
582.456	284.56
582.667	281.56
582.877	271.56
583.087	274.56
583.298	280.56
583.508	270.56
583.719	282.56
583.929	275.56
584.139	257.56
584.35	269.56
584.56	290.56
584.77	261.56
584.981	274.56
585.191	259.56
585.401	267.56
585.611	278.56
585.821	249.56
586.032	265.56
586.242	263.56
586.452	254.56
586.662	262.56
586.872	261.56
587.082	257.56
587.292	270.56
587.502	267.56
587.713	267.56
587.923	269.56
588.133	270.56
588.343	262.56
588.553	275.56
588.762	259.56
588.972	270.56
589.182	360.56
589.392	361.56
589.602	304.56
589.812	327.56
590.022	293.56
590.232	274.56
590.441	269.56
590.651	266.56
590.861	257.56
591.071	283.56
591.281	273.56
591.49	282.56
591.7	281.56
591.91	268.56
592.119	293.56
592.329	295.56
592.539	294.56
592.748	300.56
592.958	325.56
593.167	317.56
593.377	314.56
593.587	326.56
593.796	327.56
594.006	341.56
594.215	330.56
594.424	323.56
594.634	331.56
594.843	302.56
595.053	290.56
595.262	300.56
595.472	283.56
595.681	285.56
595.89	277.56
596.1	253.56
596.309	250.56
596.518	274.56
596.727	269.56
596.937	262.56
597.146	258.56
597.355	246.56
597.564	247.56
597.774	245.56
597.983	255.56
598.192	249.56
598.401	251.56
598.61	240.56
598.819	239.56
599.028	254.56
599.237	243.56
599.446	239.56
599.655	251.56
599.864	245.56
600.073	242.56
600.282	255.56
600.491	236.56
600.7	238.56
600.909	238.56
601.118	240.56
601.327	239.56
601.536	239.56
601.745	242.56
601.953	247.56
602.162	240.56
602.371	237.56
602.58	223.56
602.789	230.56
602.997	235.56
603.206	232.56
603.415	235.56
603.623	240.56
603.832	221.56
604.041	239.56
604.249	234.56
604.458	217.56
604.666	230.56
604.875	226.56
605.084	225.56
605.292	222.56
605.501	238.56
605.709	214.56
605.918	235.56
606.126	217.56
606.334	241.56
606.543	242.56
606.751	225.56
606.96	218.56
607.168	231.56
607.376	218.56
607.585	246.56
607.793	220.56
608.001	224.56
608.21	221.56
608.418	230.56
608.626	240.56
608.834	216.56
609.043	232.56
609.251	225.56
609.459	221.56
609.667	222.56
609.875	228.56
610.083	213.56
610.291	223.56
610.499	221.56
610.707	209.56
610.916	214.56
611.124	217.56
611.332	214.56
611.54	247.56
611.748	216.56
611.955	235.56
612.163	215.56
612.371	222.56
612.579	205.56
612.787	221.56
612.995	219.56
613.203	230.56
613.411	211.56
613.618	228.56
613.826	207.56
614.034	207.56
614.242	240.56
614.449	224.56
614.657	210.56
614.865	229.56
615.072	229.56
615.28	213.56
615.488	221.56
615.695	217.56
615.903	223.56
616.111	209.56
616.318	226.56
616.526	233.56
616.733	226.56
616.941	230.56
617.148	230.56
617.356	237.56
617.563	221.56
617.771	212.56
617.978	221.56
618.185	215.56
618.393	218.56
618.6	213.56
618.807	214.56
619.015	231.56
619.222	216.56
619.429	217.56
619.637	210.56
619.844	216.56
620.051	215.56
620.258	202.56
620.466	223.56
620.673	198.56
620.88	209.56
621.087	216.56
621.294	210.56
621.501	206.56
621.708	185.56
621.915	207.56
622.122	210.56
622.329	197.56
622.536	195.56
622.743	216.56
622.95	199.56
623.157	193.56
623.364	205.56
623.571	196.56
623.778	197.56
623.985	198.56
624.192	180.56
624.399	184.56
624.606	205.56
624.812	191.56
625.019	193.56
625.226	195.56
625.433	195.56
625.639	191.56
625.846	199.56
626.053	175.56
626.259	206.56
626.466	184.56
626.673	205.56
626.879	187.56
627.086	211.56
627.293	180.56
627.499	191.56
627.706	198.56
627.912	190.56
628.119	192.56
628.325	198.56
628.532	198.56
628.738	189.56
628.945	189.56
629.151	177.56
629.357	196.56
629.564	180.56
629.77	167.56
629.976	186.56
630.183	189.56
630.389	185.56
630.595	184.56
630.802	196.56
631.008	181.56
631.214	193.56
631.42	169.56
631.627	182.56
631.833	182.56
632.039	169.56
632.245	169.56
632.451	184.56
632.657	177.56
632.863	189.56
633.069	170.56
633.275	168.56
633.481	167.56
633.688	177.56
633.893	172.56
634.099	184.56
634.305	190.56
634.511	195.56
634.717	167.56
634.923	176.56
635.129	187.56
635.335	175.56
635.541	173.56
635.747	179.56
635.952	172.56
636.158	187.56
636.364	173.56
636.57	178.56
636.775	180.56
636.981	173.56
637.187	170.56
637.392	175.56
637.598	180.56
637.804	182.56
638.009	161.56
638.215	175.56
638.421	154.56
638.626	167.56
638.832	169.56
639.037	168.56
639.243	185.56
639.448	171.56
639.654	166.56
639.859	153.56
640.065	182.56
640.27	186.56
640.475	152.56
640.681	157.56
640.886	170.56
641.091	163.56
641.297	169.56
641.502	176.56
641.707	164.56
641.913	153.56
642.118	167.56
642.323	161.56
642.528	161.56
642.733	170.56
642.939	163.56
643.144	164.56
643.349	165.56
643.554	165.56
643.759	167.56
643.964	158.56
644.169	150.56
644.374	164.56
644.579	162.56
644.784	154.56
644.989	157.56
645.194	169.56
645.399	169.56
645.604	159.56
645.809	166.56
646.014	164.56
646.219	147.56
646.423	144.56
646.628	146.56
646.833	159.56
647.038	165.56
647.243	170.56
647.447	161.56
647.652	167.56
647.857	166.56
648.062	177.56
648.266	168.56
648.471	188.56
648.676	166.56
648.88	170.56
649.085	177.56
649.289	158.56
649.494	175.56
649.698	171.56
649.903	186.56
650.107	166.56
650.312	177.56
650.516	151.56
650.721	163.56
650.925	159.56
651.13	158.56
651.334	168.56
651.539	170.56
651.743	149.56
651.947	140.56
652.152	150.56
652.356	130.56
652.56	130.56
652.764	162.56
652.969	154.56
653.173	134.56
653.377	139.56
653.581	132.56
653.785	151.56
653.99	163.56
654.194	141.56
654.398	144.56
654.602	162.56
654.806	150.56
655.01	150.56
655.214	152.56
655.418	149.56
655.622	143.56
655.826	163.56
656.03	149.56
656.234	148.56
656.438	175.56
656.642	169.56
656.846	143.56
657.049	157.56
657.253	135.56
657.457	143.56
657.661	113.56
657.865	134.56
658.068	114.56
658.272	118.56
658.476	113.56
658.68	103.56
658.883	109.56
659.087	105.56
659.291	109.56
659.494	105.56
659.698	96.56
659.901	107.56
660.105	89.56
660.309	84.56
660.512	98.56
660.716	99.56
660.919	79.56
661.123	99.56
661.326	93.56
661.53	89.56
661.733	99.56
661.936	89.56
662.14	98.56
662.343	95.56
662.546	78.56
662.75	93.56
662.953	104.56
663.156	96.56
663.36	80.56
663.563	90.56
663.766	88.56
663.969	99.56
664.173	95.56
664.376	84.56
664.579	84.56
664.782	88.56
664.985	72.56
665.188	88.56
665.391	87.56
665.594	87.56
665.797	83.56
666	91.56
666.203	86.56
666.406	75.56
666.609	91.56
666.812	77.56
667.015	78.56
667.218	91.56
667.421	79.56
667.624	81.56
667.827	85.56
668.03	87.56
668.232	95.56
668.435	97.56
668.638	76.56
668.841	86.56
669.043	90.56
669.246	93.56
669.449	90.56
669.651	84.56
669.854	80.56
670.057	74.56
670.259	86.56
670.462	80.56
670.665	86.56
670.867	97.56
671.07	97.56
671.272	74.56
671.475	89.56
671.677	95.56
671.88	83.56
672.082	82.56
672.284	89.56
672.487	85.56
672.689	73.56
672.892	94.56
