Data from 1960PennyLincolnUp.LampE5.5.200Scan.07172019.P1.ChangedAngle_HRD10591_13-10-22-820.txt Node
Date: Thu Jul 18 13:10:22 EDT 2019
User: cochatt
Spectrometer: HR+D1059
Trigger mode: 1
Integration Time (sec): 1.000000E-1
Scans to average: 1
Electric dark correction enabled: true
Nonlinearity correction enabled: false
Boxcar width: 0
XAxis mode: Wavelengths
Number of Pixels in Spectrum: 2048
>>>>>Begin Spectral Data<<<<<
223.165	-9
223.4	-9
223.635	-9
223.869	-9
224.104	-7
224.338	-6
224.573	-20
224.808	-7
225.042	-10
225.277	-3
225.511	-5
225.746	7
225.98	-7
226.215	11
226.449	1
226.683	15
226.918	20
227.152	29
227.387	53
227.621	49
227.856	44
228.09	50
228.324	55
228.559	59
228.793	53
229.027	69
229.262	77
229.496	83
229.73	90
229.964	76
230.199	79
230.433	86
230.667	88
230.901	81
231.136	79
231.37	72
231.604	85
231.838	103
232.072	102
232.306	96
232.541	94
232.775	78
233.009	91
233.243	95
233.477	91
233.711	96
233.945	95
234.179	69
234.413	85
234.647	78
234.881	77
235.115	90
235.349	87
235.583	88
235.817	90
236.051	73
236.285	73
236.519	82
236.753	110
236.987	95
237.221	105
237.455	106
237.689	95
237.922	105
238.156	93
238.39	96
238.624	89
238.858	83
239.091	86
239.325	86
239.559	84
239.793	87
240.027	89
240.26	104
240.494	102
240.728	97
240.961	97
241.195	108
241.429	79
241.662	92
241.896	89
242.13	83
242.363	60
242.597	77
242.83	94
243.064	89
243.298	97
243.531	95
243.765	86
243.998	101
244.232	107
244.465	77
244.699	76
244.932	96
245.166	80
245.399	88
245.633	96
245.866	93
246.099	105
246.333	83
246.566	106
246.8	96
247.033	101
247.266	101
247.5	87
247.733	100
247.966	88
248.2	87
248.433	105
248.666	89
248.899	96
249.133	88
249.366	117
249.599	112
249.832	101
250.066	113
250.299	108
250.532	92
250.765	105
250.998	121
251.231	112
251.465	99
251.698	103
251.931	105
252.164	95
252.397	99
252.63	105
252.863	116
253.096	121
253.329	111
253.562	110
253.795	120
254.028	108
254.261	103
254.494	110
254.727	107
254.96	114
255.193	123
255.426	119
255.659	99
255.892	104
256.124	107
256.357	107
256.59	104
256.823	91
257.056	115
257.289	110
257.521	105
257.754	110
257.987	109
258.22	105
258.452	95
258.685	110
258.918	108
259.151	102
259.383	96
259.616	112
259.849	120
260.081	109
260.314	112
260.547	107
260.779	95
261.012	95
261.244	104
261.477	111
261.71	128
261.942	112
262.175	112
262.407	104
262.64	113
262.872	110
263.105	121
263.337	113
263.57	93
263.802	111
264.035	107
264.267	108
264.499	111
264.732	117
264.964	115
265.197	100
265.429	101
265.661	103
265.894	89
266.126	111
266.358	98
266.591	109
266.823	100
267.055	111
267.287	100
267.52	113
267.752	109
267.984	91
268.216	109
268.448	96
268.681	115
268.913	117
269.145	109
269.377	90
269.609	109
269.841	117
270.073	121
270.306	125
270.538	119
270.77	121
271.002	125
271.234	105
271.466	114
271.698	136
271.93	132
272.162	134
272.394	137
272.626	121
272.858	127
273.09	125
273.322	110
273.553	100
273.785	106
274.017	112
274.249	117
274.481	109
274.713	117
274.945	117
275.176	128
275.408	122
275.64	113
275.872	123
276.104	113
276.335	117
276.567	111
276.799	111
277.031	132
277.262	128
277.494	110
277.726	121
277.957	113
278.189	128
278.421	118
278.652	115
278.884	111
279.115	109
279.347	128
279.579	124
279.81	148
280.042	127
280.273	113
280.505	113
280.736	121
280.968	112
281.199	120
281.431	100
281.662	105
281.894	106
282.125	114
282.356	133
282.588	132
282.819	127
283.051	112
283.282	109
283.513	121
283.745	114
283.976	114
284.207	115
284.439	111
284.67	113
284.901	120
285.132	109
285.364	125
285.595	109
285.826	111
286.057	109
286.288	111
286.52	119
286.751	112
286.982	109
287.213	103
287.444	121
287.675	99
287.906	109
288.138	116
288.369	111
288.6	112
288.831	113
289.062	110
289.293	110
289.524	112
289.755	109
289.986	113
290.217	124
290.448	104
290.679	126
290.91	117
291.141	112
291.371	103
291.602	111
291.833	116
292.064	105
292.295	98
292.526	115
292.757	110
292.987	117
293.218	115
293.449	119
293.68	105
293.91	115
294.141	107
294.372	111
294.603	108
294.833	119
295.064	111
295.295	125
295.525	112
295.756	115
295.987	100
296.217	121
296.448	120
296.679	103
296.909	105
297.14	119
297.37	120
297.601	119
297.831	118
298.062	133
298.292	114
298.523	126
298.753	109
298.984	119
299.214	116
299.445	125
299.675	116
299.905	123
300.136	109
300.366	113
300.597	108
300.827	108
301.057	126
301.288	118
301.518	129
301.748	115
301.979	106
302.209	126
302.439	127
302.669	123
302.9	116
303.13	105
303.36	124
303.59	115
303.82	130
304.051	121
304.281	113
304.511	112
304.741	113
304.971	122
305.201	117
305.431	108
305.661	120
305.891	111
306.121	130
306.352	116
306.582	126
306.812	117
307.042	135
307.272	126
307.502	117
307.731	124
307.961	139
308.191	117
308.421	122
308.651	127
308.881	128
309.111	126
309.341	134
309.571	117
309.8	137
310.03	125
310.26	123
310.49	136
310.72	143
310.949	130
311.179	155
311.409	140
311.639	135
311.868	135
312.098	125
312.328	134
312.557	144
312.787	146
313.017	139
313.246	134
313.476	121
313.706	125
313.935	137
314.165	136
314.394	147
314.624	131
314.853	133
315.083	120
315.312	119
315.542	107
315.771	136
316.001	115
316.23	134
316.46	129
316.689	117
316.919	129
317.148	128
317.377	139
317.607	139
317.836	127
318.065	134
318.295	123
318.524	121
318.753	121
318.983	124
319.212	121
319.441	120
319.67	128
319.9	130
320.129	111
320.358	111
320.587	121
320.816	123
321.046	124
321.275	144
321.504	133
321.733	121
321.962	137
322.191	144
322.42	152
322.649	152
322.878	149
323.108	152
323.337	164
323.566	171
323.795	183
324.024	203
324.253	265
324.482	316
324.71	441
324.939	504
325.168	442
325.397	301
325.626	196
325.855	170
326.084	153
326.313	155
326.542	173
326.77	172
326.999	218
327.228	286
327.457	364
327.686	414
327.914	294
328.143	218
328.372	213
328.6	185
328.829	204
329.058	202
329.287	200
329.515	170
329.744	172
329.972	172
330.201	187
330.43	181
330.658	198
330.887	194
331.115	200
331.344	176
331.572	157
331.801	171
332.03	175
332.258	159
332.486	143
332.715	157
332.943	156
333.172	129
333.4	137
333.629	141
333.857	164
334.085	153
334.314	150
334.542	174
334.771	149
334.999	151
335.227	150
335.455	142
335.684	145
335.912	146
336.14	149
336.369	140
336.597	135
336.825	129
337.053	143
337.281	135
337.51	117
337.738	157
337.966	143
338.194	150
338.422	161
338.65	135
338.878	142
339.106	145
339.334	153
339.562	158
339.79	133
340.018	129
340.246	133
340.474	136
340.702	129
340.93	135
341.158	134
341.386	123
341.614	131
341.842	132
342.07	134
342.298	140
342.526	145
342.754	123
342.981	118
343.209	111
343.437	140
343.665	125
343.893	138
344.12	123
344.348	128
344.576	132
344.804	136
345.031	150
345.259	150
345.487	150
345.714	142
345.942	132
346.17	128
346.397	137
346.625	150
346.853	129
347.08	132
347.308	123
347.535	141
347.763	135
347.99	132
348.218	141
348.445	129
348.673	149
348.9	128
349.128	139
349.355	125
349.583	119
349.81	118
350.037	132
350.265	145
350.492	123
350.72	144
350.947	134
351.174	141
351.402	139
351.629	157
351.856	148
352.083	161
352.311	136
352.538	163
352.765	149
352.992	139
353.22	141
353.447	144
353.674	134
353.901	125
354.128	133
354.355	122
354.583	126
354.81	138
355.037	129
355.264	140
355.491	127
355.718	111
355.945	138
356.172	121
356.399	130
356.626	121
356.853	138
357.08	144
357.307	128
357.534	125
357.761	132
357.988	131
358.215	132
358.441	136
358.668	137
358.895	141
359.122	132
359.349	143
359.576	147
359.802	147
360.029	173
360.256	172
360.483	162
360.709	144
360.936	151
361.163	151
361.39	137
361.616	140
361.843	143
362.07	154
362.296	151
362.523	126
362.749	142
362.976	140
363.203	131
363.429	144
363.656	122
363.882	129
364.109	143
364.335	139
364.562	135
364.788	121
365.015	120
365.241	131
365.468	137
365.694	156
365.92	132
366.147	129
366.373	128
366.599	129
366.826	121
367.052	137
367.278	135
367.505	129
367.731	140
367.957	156
368.184	139
368.41	142
368.636	135
368.862	126
369.089	123
369.315	128
369.541	127
369.767	127
369.993	136
370.219	123
370.445	110
370.672	123
370.898	129
371.124	132
371.35	141
371.576	118
371.802	127
372.028	140
372.254	128
372.48	133
372.706	141
372.932	123
373.158	134
373.384	141
373.61	136
373.835	127
374.061	135
374.287	127
374.513	135
374.739	148
374.965	142
375.191	141
375.416	133
375.642	129
375.868	132
376.094	119
376.319	125
376.545	137
376.771	144
376.997	139
377.222	127
377.448	122
377.674	119
377.899	131
378.125	126
378.35	141
378.576	131
378.802	129
379.027	125
379.253	130
379.478	132
379.704	133
379.929	126
380.155	129
380.38	136
380.606	142
380.831	116
381.057	141
381.282	130
381.507	133
381.733	137
381.958	128
382.184	139
382.409	128
382.634	132
382.86	125
383.085	136
383.31	131
383.535	127
383.761	137
383.986	134
384.211	131
384.436	138
384.662	120
384.887	131
385.112	139
385.337	148
385.562	142
385.787	121
386.013	137
386.238	130
386.463	141
386.688	141
386.913	125
387.138	136
387.363	123
387.588	151
387.813	130
388.038	135
388.263	142
388.488	134
388.713	124
388.938	133
389.163	127
389.387	139
389.612	126
389.837	131
390.062	133
390.287	133
390.512	130
390.736	139
390.961	135
391.186	129
391.411	125
391.636	134
391.86	133
392.085	151
392.31	137
392.534	143
392.759	159
392.984	167
393.208	175
393.433	236
393.658	205
393.882	154
394.107	154
394.331	136
394.556	124
394.78	135
395.005	139
395.229	127
395.454	141
395.678	147
395.903	144
396.127	151
396.352	165
396.576	156
396.801	194
397.025	192
397.249	175
397.474	141
397.698	128
397.922	134
398.147	151
398.371	147
398.595	140
398.82	143
399.044	124
399.268	149
399.492	151
399.717	132
399.941	161
400.165	159
400.389	156
400.613	160
400.837	138
401.062	149
401.286	139
401.51	149
401.734	148
401.958	144
402.182	152
402.406	163
402.63	143
402.854	157
403.078	152
403.302	144
403.526	141
403.75	151
403.974	161
404.198	156
404.422	156
404.645	162
404.869	176
405.093	152
405.317	153
405.541	163
405.765	159
405.988	153
406.212	162
406.436	176
406.66	173
406.883	172
407.107	152
407.331	161
407.555	181
407.778	167
408.002	161
408.226	167
408.449	167
408.673	151
408.896	169
409.12	177
409.344	174
409.567	142
409.791	153
410.014	149
410.238	139
410.461	164
410.685	157
410.908	153
411.132	159
411.355	165
411.578	172
411.802	154
412.025	159
412.249	155
412.472	154
412.695	156
412.919	144
413.142	158
413.365	153
413.589	151
413.812	148
414.035	142
414.258	148
414.482	147
414.705	138
414.928	145
415.151	143
415.374	150
415.597	142
415.821	147
416.044	155
416.267	149
416.49	157
416.713	143
416.936	136
417.159	145
417.382	157
417.605	165
417.828	173
418.051	149
418.274	165
418.497	154
418.72	158
418.943	154
419.166	159
419.389	166
419.611	159
419.834	169
420.057	153
420.28	151
420.503	153
420.726	168
420.948	174
421.171	161
421.394	160
421.617	160
421.839	181
422.062	159
422.285	149
422.507	187
422.73	205
422.953	190
423.175	161
423.398	154
423.621	158
423.843	167
424.066	167
424.288	186
424.511	188
424.733	171
424.956	198
425.178	184
425.401	195
425.623	196
425.846	185
426.068	171
426.291	157
426.513	172
426.735	173
426.958	191
427.18	177
427.402	204
427.625	244
427.847	233
428.069	208
428.292	197
428.514	186
428.736	164
428.958	147
429.181	151
429.403	174
429.625	145
429.847	169
430.069	167
430.292	196
430.514	163
430.736	165
430.958	151
431.18	165
431.402	159
431.624	154
431.846	156
432.068	145
432.29	155
432.512	144
432.734	152
432.956	157
433.178	174
433.4	182
433.622	161
433.844	160
434.066	155
434.287	145
434.509	153
434.731	137
434.953	150
435.175	155
435.397	173
435.618	166
435.84	172
436.062	171
436.284	199
436.505	180
436.727	181
436.949	172
437.17	168
437.392	153
437.614	161
437.835	179
438.057	201
438.278	208
438.5	211
438.721	216
438.943	198
439.165	183
439.386	187
439.608	167
439.829	168
440.05	187
440.272	188
440.493	169
440.715	162
440.936	177
441.158	175
441.379	172
441.6	167
441.822	185
442.043	192
442.264	204
442.486	203
442.707	179
442.928	186
443.149	184
443.371	169
443.592	187
443.813	193
444.034	200
444.255	201
444.476	179
444.698	181
444.919	187
445.14	297
445.361	233
445.582	197
445.803	207
446.024	197
446.245	200
446.466	197
446.687	190
446.908	189
447.129	170
447.35	168
447.571	176
447.792	160
448.013	170
448.234	185
448.455	182
448.675	200
448.896	221
449.117	178
449.338	209
449.559	208
449.779	203
450	193
450.221	179
450.442	184
450.662	167
450.883	169
451.104	193
451.324	180
451.545	189
451.766	176
451.986	170
452.207	157
452.428	160
452.648	175
452.869	165
453.089	167
453.31	167
453.53	159
453.751	151
453.971	159
454.192	167
454.412	166
454.633	154
454.853	165
455.073	171
455.294	157
455.514	176
455.734	153
455.955	159
456.175	153
456.395	153
456.616	141
456.836	144
457.056	142
457.276	145
457.497	141
457.717	143
457.937	140
458.157	144
458.377	152
458.598	168
458.818	179
459.038	181
459.258	180
459.478	159
459.698	150
459.918	146
460.138	139
460.358	147
460.578	157
460.798	153
461.018	151
461.238	155
461.458	159
461.678	141
461.898	131
462.118	149
462.338	156
462.558	161
462.777	159
462.997	148
463.217	130
463.437	158
463.657	146
463.876	157
464.096	137
464.316	149
464.536	135
464.755	176
464.975	151
465.195	187
465.414	227
465.634	197
465.854	166
466.073	161
466.293	182
466.512	156
466.732	169
466.951	165
467.171	188
467.391	164
467.61	173
467.829	164
468.049	159
468.268	171
468.488	163
468.707	163
468.927	164
469.146	159
469.365	172
469.585	152
469.804	181
470.023	167
470.243	189
470.462	172
470.681	176
470.901	184
471.12	165
471.339	165
471.558	166
471.777	176
471.997	172
472.216	154
472.435	171
472.654	160
472.873	158
473.092	161
473.311	167
473.53	173
473.749	179
473.968	167
474.187	195
474.406	173
474.625	172
474.844	171
475.063	167
475.282	163
475.501	160
475.72	151
475.939	169
476.158	153
476.377	168
476.596	149
476.814	165
477.033	161
477.252	160
477.471	164
477.69	167
477.908	160
478.127	175
478.346	158
478.564	168
478.783	176
479.002	182
479.22	165
479.439	182
479.658	187
479.876	197
480.095	181
480.313	180
480.532	176
480.751	188
480.969	177
481.188	197
481.406	214
481.624	187
481.843	172
482.061	177
482.28	181
482.498	173
482.717	182
482.935	167
483.153	189
483.372	191
483.59	180
483.808	155
484.027	172
484.245	168
484.463	175
484.681	196
484.9	163
485.118	186
485.336	172
485.554	189
485.772	171
485.99	167
486.209	174
486.427	169
486.645	180
486.863	189
487.081	205
487.299	185
487.517	183
487.735	204
487.953	215
488.171	207
488.389	210
488.607	201
488.825	188
489.043	201
489.261	209
489.479	200
489.696	196
489.914	181
490.132	188
490.35	202
490.568	204
490.786	213
491.003	213
491.221	216
491.439	221
491.657	233
491.874	243
492.092	251
492.31	271
492.527	249
492.745	239
492.963	243
493.18	229
493.398	243
493.615	248
493.833	223
494.05	245
494.268	231
494.485	241
494.703	244
494.92	232
495.138	215
495.355	241
495.573	235
495.79	233
496.008	246
496.225	224
496.442	234
496.66	233
496.877	217
497.094	241
497.312	241
497.529	220
497.746	221
497.963	237
498.181	222
498.398	206
498.615	221
498.832	214
499.049	219
499.267	192
499.484	221
499.701	213
499.918	219
500.135	206
500.352	223
500.569	214
500.786	218
501.003	235
501.22	229
501.437	236
501.654	231
501.871	240
502.088	232
502.305	214
502.522	209
502.739	222
502.956	211
503.172	211
503.389	219
503.606	208
503.823	199
504.04	231
504.256	187
504.473	216
504.69	207
504.907	200
505.123	190
505.34	204
505.557	212
505.773	209
505.99	229
506.207	203
506.423	206
506.64	210
506.856	200
507.073	199
507.289	205
507.506	213
507.722	224
507.939	217
508.155	206
508.372	212
508.588	214
508.805	189
509.021	208
509.238	212
509.454	207
509.67	212
509.887	185
510.103	207
510.319	205
510.536	246
510.752	425
510.968	321
511.184	197
511.401	199
511.617	207
511.833	194
512.049	193
512.265	199
512.481	199
512.698	196
512.914	186
513.13	184
513.346	205
513.562	179
513.778	192
513.994	201
514.21	203
514.426	235
514.642	228
514.858	257
515.074	274
515.29	365
515.506	524
515.721	404
515.937	272
516.153	234
516.369	212
516.585	199
516.801	198
517.016	199
517.232	209
517.448	195
517.664	191
517.879	197
518.095	196
518.311	203
518.527	195
518.742	205
518.958	191
519.173	184
519.389	170
519.605	202
519.82	214
520.036	220
520.251	219
520.467	254
520.682	252
520.898	254
521.113	253
521.329	284
521.544	345
521.76	441
521.975	708
522.19	658
522.406	355
522.621	255
522.836	228
523.052	231
523.267	200
523.482	211
523.698	212
523.913	194
524.128	198
524.343	183
524.559	184
524.774	180
524.989	182
525.204	185
525.419	184
525.634	176
525.849	169
526.064	169
526.28	173
526.495	181
526.71	161
526.925	171
527.14	169
527.355	181
527.57	160
527.785	161
527.999	165
528.214	169
528.429	169
528.644	167
528.859	177
529.074	188
529.289	213
529.503	236
529.718	211
529.933	189
530.148	182
530.363	185
530.577	158
530.792	156
531.007	170
531.221	150
531.436	155
531.651	157
531.865	163
532.08	160
532.295	161
532.509	140
532.724	156
532.938	160
533.153	152
533.367	153
533.582	173
533.796	162
534.011	158
534.225	160
534.44	159
534.654	157
534.868	160
535.083	165
535.297	149
535.511	171
535.726	157
535.94	173
536.154	159
536.369	150
536.583	159
536.797	149
537.011	158
537.225	158
537.44	150
537.654	154
537.868	156
538.082	136
538.296	144
538.51	155
538.724	160
538.938	182
539.153	159
539.367	181
539.581	151
539.795	160
540.009	133
540.222	168
540.436	163
540.65	170
540.864	163
541.078	163
541.292	180
541.506	200
541.72	180
541.934	199
542.147	208
542.361	187
542.575	179
542.789	180
543.002	175
543.216	171
543.43	168
543.644	165
543.857	184
544.071	180
544.285	178
544.498	188
544.712	175
544.925	159
545.139	163
545.352	176
545.566	185
545.779	170
545.993	179
546.206	165
546.42	169
546.633	183
546.847	182
547.06	183
547.274	171
547.487	170
547.7	205
547.914	192
548.127	188
548.34	188
548.554	193
548.767	173
548.98	181
549.193	180
549.407	179
549.62	166
549.833	159
550.046	179
550.259	189
550.473	172
550.686	160
550.899	182
551.112	176
551.325	167
551.538	168
551.751	170
551.964	151
552.177	160
552.39	155
552.603	172
552.816	181
553.029	186
553.242	189
553.455	188
553.667	183
553.88	192
554.093	182
554.306	171
554.519	179
554.732	155
554.944	173
555.157	174
555.37	165
555.583	173
555.795	160
556.008	176
556.221	163
556.433	157
556.646	175
556.859	160
557.071	159
557.284	166
557.496	159
557.709	160
557.921	154
558.134	156
558.346	164
558.559	170
558.771	149
558.984	168
559.196	171
559.409	157
559.621	177
559.833	163
560.046	153
560.258	151
560.47	155
560.683	166
560.895	153
561.107	144
561.32	157
561.532	158
561.744	160
561.956	160
562.168	166
562.381	173
562.593	159
562.805	141
563.017	157
563.229	164
563.441	155
563.653	161
563.865	152
564.077	150
564.289	132
564.501	155
564.713	137
564.925	152
565.137	148
565.349	145
565.561	151
565.773	153
565.985	137
566.197	151
566.408	155
566.62	150
566.832	147
567.044	151
567.255	145
567.467	148
567.679	145
567.891	143
568.102	154
568.314	153
568.526	142
568.737	140
568.949	148
569.161	133
569.372	141
569.584	127
569.795	132
570.007	129
570.218	176
570.43	142
570.641	126
570.853	152
571.064	141
571.276	136
571.487	136
571.698	118
571.91	136
572.121	129
572.333	136
572.544	125
572.755	131
572.966	136
573.178	134
573.389	127
573.6	135
573.811	122
574.023	121
574.234	118
574.445	135
574.656	115
574.867	131
575.078	125
575.289	135
575.501	139
575.712	124
575.923	137
576.134	141
576.345	134
576.556	120
576.767	155
576.978	122
577.188	144
577.399	121
577.61	131
577.821	137
578.032	138
578.243	160
578.454	263
578.665	192
578.875	133
579.086	119
579.297	130
579.508	128
579.718	139
579.929	143
580.14	109
580.35	119
580.561	125
580.772	121
580.982	116
581.193	122
581.403	144
581.614	130
581.825	120
582.035	113
582.246	121
582.456	118
582.667	135
582.877	129
583.087	111
583.298	129
583.508	115
583.719	124
583.929	127
584.139	126
584.35	112
584.56	123
584.77	113
584.981	118
585.191	115
585.401	116
585.611	113
585.821	122
586.032	128
586.242	117
586.452	125
586.662	120
586.872	120
587.082	126
587.292	118
587.502	116
587.713	125
587.923	120
588.133	129
588.343	144
588.553	125
588.762	153
588.972	169
589.182	280
589.392	292
589.602	173
589.812	259
590.022	228
590.232	136
590.441	128
590.651	125
590.861	116
591.071	120
591.281	148
591.49	133
591.7	127
591.91	123
592.119	113
592.329	115
592.539	127
592.748	118
592.958	115
593.167	119
593.377	124
593.587	130
593.796	112
594.006	123
594.215	127
594.424	133
594.634	111
594.843	130
595.053	126
595.262	122
595.472	115
595.681	119
595.89	111
596.1	116
596.309	118
596.518	119
596.727	129
596.937	117
597.146	121
597.355	118
597.564	119
597.774	128
597.983	131
598.192	129
598.401	119
598.61	135
598.819	110
599.028	106
599.237	119
599.446	118
599.655	106
599.864	127
600.073	128
600.282	129
600.491	123
600.7	119
600.909	123
601.118	121
601.327	129
601.536	125
601.745	132
601.953	108
602.162	114
602.371	135
602.58	135
602.789	126
602.997	142
603.206	122
603.415	128
603.623	123
603.832	119
604.041	121
604.249	119
604.458	123
604.666	120
604.875	123
605.084	127
605.292	128
605.501	114
605.709	141
605.918	142
606.126	149
606.334	132
606.543	117
606.751	128
606.96	117
607.168	136
607.376	109
607.585	136
607.793	138
608.001	109
608.21	131
608.418	143
608.626	128
608.834	136
609.043	133
609.251	125
609.459	123
609.667	110
609.875	134
610.083	131
610.291	134
610.499	125
610.707	140
610.916	129
611.124	129
611.332	149
611.54	143
611.748	132
611.955	123
612.163	120
612.371	144
612.579	130
612.787	147
612.995	144
613.203	147
613.411	132
613.618	128
613.826	140
614.034	127
614.242	125
614.449	129
614.657	134
614.865	130
615.072	129
615.28	124
615.488	125
615.695	106
615.903	137
616.111	127
616.318	138
616.526	129
616.733	115
616.941	130
617.148	124
617.356	127
617.563	120
617.771	138
617.978	124
618.185	121
618.393	137
618.6	145
618.807	113
619.015	124
619.222	118
619.429	115
619.637	123
619.844	119
620.051	124
620.258	133
620.466	131
620.673	116
620.88	131
621.087	118
621.294	141
621.501	132
621.708	119
621.915	107
622.122	123
622.329	117
622.536	126
622.743	137
622.95	111
623.157	126
623.364	129
623.571	122
623.778	117
623.985	120
624.192	122
624.399	131
624.606	129
624.812	124
625.019	126
625.226	135
625.433	121
625.639	119
625.846	122
626.053	110
626.259	113
626.466	107
626.673	113
626.879	121
627.086	131
627.293	127
627.499	123
627.706	127
627.912	122
628.119	124
628.325	132
628.532	127
628.738	119
628.945	127
629.151	116
629.357	103
629.564	117
629.77	121
629.976	119
630.183	114
630.389	134
630.595	126
630.802	122
631.008	124
631.214	130
631.42	117
631.627	126
631.833	112
632.039	129
632.245	127
632.451	110
632.657	118
632.863	119
633.069	105
633.275	119
633.481	121
633.688	117
633.893	121
634.099	107
634.305	117
634.511	105
634.717	120
634.923	112
635.129	119
635.335	116
635.541	105
635.747	113
635.952	109
636.158	107
636.364	114
636.57	126
636.775	129
636.981	120
637.187	112
637.392	116
637.598	115
637.804	109
638.009	107
638.215	123
638.421	124
638.626	116
638.832	115
639.037	118
639.243	99
639.448	107
639.654	104
639.859	115
640.065	112
640.27	117
640.475	126
640.681	117
640.886	105
641.091	115
641.297	123
641.502	102
641.707	128
641.913	106
642.118	106
642.323	105
642.528	125
642.733	111
642.939	121
643.144	119
643.349	101
643.554	112
643.759	117
643.964	109
644.169	118
644.374	113
644.579	107
644.784	101
644.989	100
645.194	118
645.399	109
645.604	110
645.809	120
646.014	120
646.219	112
646.423	112
646.628	106
646.833	118
647.038	112
647.243	112
647.447	109
647.652	111
647.857	112
648.062	119
648.266	104
648.471	117
648.676	108
648.88	121
649.085	104
649.289	112
649.494	117
649.698	115
649.903	120
650.107	118
650.312	101
650.516	126
650.721	103
650.925	110
651.13	115
651.334	104
651.539	95
651.743	108
651.947	105
652.152	95
652.356	105
652.56	115
652.764	112
652.969	112
653.173	123
653.377	102
653.581	112
653.785	100
653.99	104
654.194	113
654.398	100
654.602	108
654.806	101
655.01	113
655.214	119
655.418	95
655.622	107
655.826	105
656.03	115
656.234	103
656.438	91
656.642	111
656.846	105
657.049	104
657.253	98
657.457	77
657.661	99
657.865	102
658.068	91
658.272	99
658.476	87
658.68	104
658.883	95
659.087	94
659.291	82
659.494	96
659.698	94
659.901	88
660.105	84
660.309	90
660.512	95
660.716	94
660.919	97
661.123	75
661.326	89
661.53	97
661.733	91
661.936	83
662.14	63
662.343	78
662.546	94
662.75	87
662.953	108
663.156	77
663.36	82
663.563	100
663.766	83
663.969	86
664.173	89
664.376	85
664.579	96
664.782	92
664.985	85
665.188	89
665.391	80
665.594	85
665.797	93
666	91
666.203	89
666.406	91
666.609	79
666.812	83
667.015	90
667.218	82
667.421	76
667.624	89
667.827	76
668.03	81
668.232	96
668.435	87
668.638	84
668.841	80
669.043	72
669.246	89
669.449	75
669.651	78
669.854	87
670.057	81
670.259	87
670.462	83
670.665	78
670.867	93
671.07	103
671.272	81
671.475	81
671.677	93
671.88	87
672.082	90
672.284	83
672.487	92
672.689	94
672.892	91
