Data from 1960PennyLincolnUp.LampE5.5.200Scan.07172019.P1.ChangedAngle_HRD10591_13-14-47-821.txt Node
Date: Thu Jul 18 13:14:47 EDT 2019
User: cochatt
Spectrometer: HR+D1059
Trigger mode: 1
Integration Time (sec): 1.000000E-1
Scans to average: 1
Electric dark correction enabled: true
Nonlinearity correction enabled: false
Boxcar width: 0
XAxis mode: Wavelengths
Number of Pixels in Spectrum: 2048
>>>>>Begin Spectral Data<<<<<
223.165	-12.88
223.4	-12.88
223.635	-12.88
223.869	-15.88
224.104	-8.88
224.338	-19.88
224.573	-21.88
224.808	-1.88
225.042	-8.88
225.277	-4.88
225.511	-4.88
225.746	5.12
225.98	6.12
226.215	11.12
226.449	8.12
226.683	20.12
226.918	20.12
227.152	29.12
227.387	32.12
227.621	30.12
227.856	29.12
228.09	44.12
228.324	42.12
228.559	61.12
228.793	60.12
229.027	84.12
229.262	95.12
229.496	97.12
229.73	106.12
229.964	127.12
230.199	113.12
230.433	94.12
230.667	92.12
230.901	100.12
231.136	105.12
231.37	100.12
231.604	103.12
231.838	109.12
232.072	95.12
232.306	106.12
232.541	110.12
232.775	99.12
233.009	106.12
233.243	102.12
233.477	112.12
233.711	104.12
233.945	112.12
234.179	114.12
234.413	100.12
234.647	115.12
234.881	114.12
235.115	99.12
235.349	106.12
235.583	108.12
235.817	103.12
236.051	109.12
236.285	115.12
236.519	102.12
236.753	110.12
236.987	126.12
237.221	162.12
237.455	173.12
237.689	163.12
237.922	123.12
238.156	114.12
238.39	133.12
238.624	105.12
238.858	117.12
239.091	113.12
239.325	111.12
239.559	117.12
239.793	121.12
240.027	115.12
240.26	116.12
240.494	143.12
240.728	129.12
240.961	138.12
241.195	122.12
241.429	134.12
241.662	125.12
241.896	135.12
242.13	111.12
242.363	119.12
242.597	135.12
242.83	117.12
243.064	122.12
243.298	119.12
243.531	126.12
243.765	128.12
243.998	121.12
244.232	127.12
244.465	124.12
244.699	137.12
244.932	141.12
245.166	142.12
245.399	139.12
245.633	147.12
245.866	142.12
246.099	138.12
246.333	140.12
246.566	141.12
246.8	139.12
247.033	150.12
247.266	131.12
247.5	152.12
247.733	142.12
247.966	145.12
248.2	151.12
248.433	152.12
248.666	158.12
248.899	163.12
249.133	175.12
249.366	179.12
249.599	162.12
249.832	175.12
250.066	169.12
250.299	172.12
250.532	165.12
250.765	168.12
250.998	177.12
251.231	199.12
251.465	188.12
251.698	190.12
251.931	172.12
252.164	181.12
252.397	164.12
252.63	175.12
252.863	166.12
253.096	182.12
253.329	194.12
253.562	182.12
253.795	187.12
254.028	202.12
254.261	193.12
254.494	214.12
254.727	212.12
254.96	226.12
255.193	217.12
255.426	213.12
255.659	205.12
255.892	206.12
256.124	218.12
256.357	223.12
256.59	208.12
256.823	195.12
257.056	182.12
257.289	198.12
257.521	194.12
257.754	187.12
257.987	201.12
258.22	196.12
258.452	186.12
258.685	186.12
258.918	204.12
259.151	201.12
259.383	197.12
259.616	206.12
259.849	194.12
260.081	197.12
260.314	205.12
260.547	231.12
260.779	232.12
261.012	211.12
261.244	213.12
261.477	209.12
261.71	210.12
261.942	208.12
262.175	211.12
262.407	217.12
262.64	187.12
262.872	211.12
263.105	211.12
263.337	196.12
263.57	195.12
263.802	212.12
264.035	191.12
264.267	202.12
264.499	196.12
264.732	211.12
264.964	207.12
265.197	206.12
265.429	209.12
265.661	204.12
265.894	203.12
266.126	197.12
266.358	218.12
266.591	212.12
266.823	205.12
267.055	219.12
267.287	206.12
267.52	201.12
267.752	214.12
267.984	216.12
268.216	227.12
268.448	235.12
268.681	218.12
268.913	229.12
269.145	223.12
269.377	262.12
269.609	244.12
269.841	238.12
270.073	249.12
270.306	268.12
270.538	265.12
270.77	256.12
271.002	266.12
271.234	266.12
271.466	277.12
271.698	261.12
271.93	266.12
272.162	273.12
272.394	276.12
272.626	254.12
272.858	257.12
273.09	255.12
273.322	240.12
273.553	246.12
273.785	249.12
274.017	256.12
274.249	246.12
274.481	254.12
274.713	216.12
274.945	243.12
275.176	262.12
275.408	238.12
275.64	243.12
275.872	249.12
276.104	264.12
276.335	259.12
276.567	245.12
276.799	254.12
277.031	267.12
277.262	278.12
277.494	280.12
277.726	271.12
277.957	270.12
278.189	274.12
278.421	259.12
278.652	231.12
278.884	254.12
279.115	264.12
279.347	261.12
279.579	253.12
279.81	269.12
280.042	242.12
280.273	262.12
280.505	258.12
280.736	262.12
280.968	262.12
281.199	285.12
281.431	266.12
281.662	262.12
281.894	270.12
282.125	254.12
282.356	284.12
282.588	282.12
282.819	285.12
283.051	262.12
283.282	251.12
283.513	251.12
283.745	270.12
283.976	257.12
284.207	272.12
284.439	255.12
284.67	269.12
284.901	268.12
285.132	274.12
285.364	284.12
285.595	277.12
285.826	265.12
286.057	277.12
286.288	258.12
286.52	299.12
286.751	267.12
286.982	284.12
287.213	302.12
287.444	291.12
287.675	270.12
287.906	313.12
288.138	290.12
288.369	290.12
288.6	287.12
288.831	295.12
289.062	289.12
289.293	285.12
289.524	276.12
289.755	287.12
289.986	299.12
290.217	305.12
290.448	297.12
290.679	286.12
290.91	275.12
291.141	280.12
291.371	280.12
291.602	284.12
291.833	287.12
292.064	290.12
292.295	272.12
292.526	294.12
292.757	285.12
292.987	291.12
293.218	299.12
293.449	292.12
293.68	287.12
293.91	291.12
294.141	305.12
294.372	293.12
294.603	303.12
294.833	301.12
295.064	289.12
295.295	276.12
295.525	294.12
295.756	299.12
295.987	309.12
296.217	316.12
296.448	322.12
296.679	298.12
296.909	305.12
297.14	289.12
297.37	284.12
297.601	310.12
297.831	284.12
298.062	300.12
298.292	291.12
298.523	313.12
298.753	303.12
298.984	275.12
299.214	324.12
299.445	322.12
299.675	314.12
299.905	309.12
300.136	313.12
300.366	298.12
300.597	306.12
300.827	290.12
301.057	314.12
301.288	325.12
301.518	320.12
301.748	324.12
301.979	319.12
302.209	307.12
302.439	315.12
302.669	339.12
302.9	306.12
303.13	322.12
303.36	323.12
303.59	328.12
303.82	328.12
304.051	330.12
304.281	323.12
304.511	317.12
304.741	328.12
304.971	339.12
305.201	319.12
305.431	330.12
305.661	319.12
305.891	328.12
306.121	327.12
306.352	319.12
306.582	330.12
306.812	322.12
307.042	328.12
307.272	342.12
307.502	337.12
307.731	314.12
307.961	342.12
308.191	327.12
308.421	355.12
308.651	342.12
308.881	334.12
309.111	336.12
309.341	340.12
309.571	336.12
309.8	337.12
310.03	356.12
310.26	351.12
310.49	341.12
310.72	348.12
310.949	372.12
311.179	369.12
311.409	363.12
311.639	355.12
311.868	364.12
312.098	356.12
312.328	377.12
312.557	377.12
312.787	372.12
313.017	379.12
313.246	359.12
313.476	367.12
313.706	365.12
313.935	346.12
314.165	373.12
314.394	371.12
314.624	355.12
314.853	356.12
315.083	364.12
315.312	362.12
315.542	369.12
315.771	377.12
316.001	374.12
316.23	371.12
316.46	364.12
316.689	371.12
316.919	350.12
317.148	355.12
317.377	379.12
317.607	379.12
317.836	369.12
318.065	357.12
318.295	376.12
318.524	369.12
318.753	351.12
318.983	374.12
319.212	361.12
319.441	359.12
319.67	374.12
319.9	363.12
320.129	358.12
320.358	366.12
320.587	365.12
320.816	369.12
321.046	363.12
321.275	377.12
321.504	371.12
321.733	382.12
321.962	383.12
322.191	394.12
322.42	372.12
322.649	395.12
322.878	409.12
323.108	417.12
323.337	403.12
323.566	453.12
323.795	448.12
324.024	473.12
324.253	538.12
324.482	729.12
324.71	1022.12
324.939	1356.12
325.168	1144.12
325.397	683.12
325.626	514.12
325.855	471.12
326.084	469.12
326.313	437.12
326.542	439.12
326.77	473.12
326.999	541.12
327.228	685.12
327.457	933.12
327.686	1059.12
327.914	751.12
328.143	551.12
328.372	520.12
328.6	470.12
328.829	459.12
329.058	451.12
329.287	444.12
329.515	448.12
329.744	446.12
329.972	458.12
330.201	461.12
330.43	476.12
330.658	474.12
330.887	489.12
331.115	481.12
331.344	444.12
331.572	440.12
331.801	442.12
332.03	420.12
332.258	438.12
332.486	418.12
332.715	441.12
332.943	445.12
333.172	435.12
333.4	443.12
333.629	454.12
333.857	455.12
334.085	443.12
334.314	462.12
334.542	453.12
334.771	483.12
334.999	444.12
335.227	437.12
335.455	431.12
335.684	441.12
335.912	427.12
336.14	429.12
336.369	408.12
336.597	435.12
336.825	421.12
337.053	421.12
337.281	421.12
337.51	418.12
337.738	413.12
337.966	410.12
338.194	408.12
338.422	413.12
338.65	416.12
338.878	421.12
339.106	408.12
339.334	395.12
339.562	394.12
339.79	387.12
340.018	403.12
340.246	429.12
340.474	418.12
340.702	403.12
340.93	396.12
341.158	391.12
341.386	406.12
341.614	418.12
341.842	387.12
342.07	420.12
342.298	408.12
342.526	411.12
342.754	375.12
342.981	403.12
343.209	393.12
343.437	423.12
343.665	413.12
343.893	405.12
344.12	427.12
344.348	403.12
344.576	410.12
344.804	413.12
345.031	423.12
345.259	404.12
345.487	403.12
345.714	412.12
345.942	389.12
346.17	411.12
346.397	386.12
346.625	386.12
346.853	392.12
347.08	395.12
347.308	378.12
347.535	389.12
347.763	403.12
347.99	389.12
348.218	371.12
348.445	394.12
348.673	385.12
348.9	379.12
349.128	381.12
349.355	367.12
349.583	378.12
349.81	387.12
350.037	377.12
350.265	380.12
350.492	380.12
350.72	356.12
350.947	395.12
351.174	389.12
351.402	398.12
351.629	376.12
351.856	386.12
352.083	389.12
352.311	393.12
352.538	407.12
352.765	387.12
352.992	377.12
353.22	384.12
353.447	379.12
353.674	370.12
353.901	370.12
354.128	375.12
354.355	343.12
354.583	359.12
354.81	359.12
355.037	355.12
355.264	358.12
355.491	355.12
355.718	358.12
355.945	350.12
356.172	349.12
356.399	361.12
356.626	369.12
356.853	341.12
357.08	346.12
357.307	347.12
357.534	365.12
357.761	357.12
357.988	363.12
358.215	355.12
358.441	365.12
358.668	358.12
358.895	353.12
359.122	341.12
359.349	368.12
359.576	373.12
359.802	397.12
360.029	381.12
360.256	407.12
360.483	394.12
360.709	391.12
360.936	358.12
361.163	370.12
361.39	377.12
361.616	372.12
361.843	348.12
362.07	365.12
362.296	371.12
362.523	361.12
362.749	374.12
362.976	360.12
363.203	361.12
363.429	359.12
363.656	348.12
363.882	353.12
364.109	353.12
364.335	356.12
364.562	367.12
364.788	357.12
365.015	356.12
365.241	373.12
365.468	369.12
365.694	368.12
365.92	372.12
366.147	364.12
366.373	366.12
366.599	371.12
366.826	355.12
367.052	361.12
367.278	359.12
367.505	348.12
367.731	373.12
367.957	359.12
368.184	357.12
368.41	369.12
368.636	362.12
368.862	385.12
369.089	353.12
369.315	365.12
369.541	343.12
369.767	383.12
369.993	353.12
370.219	371.12
370.445	365.12
370.672	364.12
370.898	358.12
371.124	369.12
371.35	367.12
371.576	367.12
371.802	359.12
372.028	384.12
372.254	363.12
372.48	383.12
372.706	359.12
372.932	375.12
373.158	355.12
373.384	365.12
373.61	350.12
373.835	358.12
374.061	355.12
374.287	367.12
374.513	355.12
374.739	369.12
374.965	376.12
375.191	362.12
375.416	362.12
375.642	378.12
375.868	357.12
376.094	361.12
376.319	369.12
376.545	363.12
376.771	364.12
376.997	356.12
377.222	351.12
377.448	350.12
377.674	354.12
377.899	353.12
378.125	357.12
378.35	346.12
378.576	336.12
378.802	354.12
379.027	359.12
379.253	353.12
379.478	359.12
379.704	369.12
379.929	371.12
380.155	354.12
380.38	355.12
380.606	369.12
380.831	353.12
381.057	364.12
381.282	367.12
381.507	355.12
381.733	363.12
381.958	356.12
382.184	365.12
382.409	358.12
382.634	378.12
382.86	372.12
383.085	342.12
383.31	384.12
383.535	382.12
383.761	351.12
383.986	374.12
384.211	377.12
384.436	383.12
384.662	361.12
384.887	388.12
385.112	378.12
385.337	390.12
385.562	373.12
385.787	377.12
386.013	398.12
386.238	382.12
386.463	388.12
386.688	396.12
386.913	377.12
387.138	383.12
387.363	400.12
387.588	391.12
387.813	386.12
388.038	387.12
388.263	382.12
388.488	360.12
388.713	375.12
388.938	402.12
389.163	391.12
389.387	379.12
389.612	380.12
389.837	375.12
390.062	387.12
390.287	371.12
390.512	393.12
390.736	378.12
390.961	393.12
391.186	377.12
391.411	378.12
391.636	396.12
391.86	399.12
392.085	388.12
392.31	400.12
392.534	374.12
392.759	399.12
392.984	380.12
393.208	387.12
393.433	397.12
393.658	385.12
393.882	407.12
394.107	395.12
394.331	384.12
394.556	375.12
394.78	383.12
395.005	397.12
395.229	396.12
395.454	385.12
395.678	397.12
395.903	406.12
396.127	427.12
396.352	421.12
396.576	429.12
396.801	393.12
397.025	374.12
397.249	386.12
397.474	406.12
397.698	413.12
397.922	404.12
398.147	406.12
398.371	407.12
398.595	427.12
398.82	429.12
399.044	431.12
399.268	455.12
399.492	463.12
399.717	494.12
399.941	518.12
400.165	529.12
400.389	511.12
400.613	490.12
400.837	458.12
401.062	425.12
401.286	448.12
401.51	420.12
401.734	427.12
401.958	425.12
402.182	434.12
402.406	431.12
402.63	427.12
402.854	430.12
403.078	423.12
403.302	422.12
403.526	436.12
403.75	441.12
403.974	431.12
404.198	414.12
404.422	433.12
404.645	453.12
404.869	448.12
405.093	468.12
405.317	482.12
405.541	509.12
405.765	465.12
405.988	461.12
406.212	469.12
406.436	460.12
406.66	493.12
406.883	480.12
407.107	484.12
407.331	512.12
407.555	538.12
407.778	545.12
408.002	500.12
408.226	495.12
408.449	484.12
408.673	466.12
408.896	488.12
409.12	531.12
409.344	489.12
409.567	465.12
409.791	459.12
410.014	453.12
410.238	441.12
410.461	427.12
410.685	437.12
410.908	423.12
411.132	465.12
411.355	478.12
411.578	489.12
411.802	457.12
412.025	417.12
412.249	442.12
412.472	466.12
412.695	477.12
412.919	466.12
413.142	427.12
413.365	410.12
413.589	433.12
413.812	430.12
414.035	433.12
414.258	409.12
414.482	424.12
414.705	415.12
414.928	428.12
415.151	413.12
415.374	418.12
415.597	409.12
415.821	415.12
416.044	400.12
416.267	421.12
416.49	401.12
416.713	401.12
416.936	399.12
417.159	423.12
417.382	408.12
417.605	412.12
417.828	415.12
418.051	421.12
418.274	401.12
418.497	408.12
418.72	403.12
418.943	404.12
419.166	434.12
419.389	423.12
419.611	428.12
419.834	439.12
420.057	432.12
420.28	419.12
420.503	423.12
420.726	422.12
420.948	411.12
421.171	470.12
421.394	455.12
421.617	446.12
421.839	414.12
422.062	418.12
422.285	426.12
422.507	471.12
422.73	496.12
422.953	496.12
423.175	452.12
423.398	426.12
423.621	437.12
423.843	439.12
424.066	449.12
424.288	430.12
424.511	462.12
424.733	496.12
424.956	554.12
425.178	525.12
425.401	514.12
425.623	527.12
425.846	457.12
426.068	438.12
426.291	447.12
426.513	438.12
426.735	458.12
426.958	485.12
427.18	531.12
427.402	610.12
427.625	625.12
427.847	557.12
428.069	497.12
428.292	442.12
428.514	429.12
428.736	406.12
428.958	422.12
429.181	417.12
429.403	404.12
429.625	421.12
429.847	438.12
430.069	473.12
430.292	455.12
430.514	423.12
430.736	418.12
430.958	413.12
431.18	408.12
431.402	389.12
431.624	391.12
431.846	423.12
432.068	386.12
432.29	393.12
432.512	398.12
432.734	389.12
432.956	397.12
433.178	395.12
433.4	408.12
433.622	395.12
433.844	394.12
434.066	397.12
434.287	379.12
434.509	381.12
434.731	411.12
434.953	406.12
435.175	409.12
435.397	423.12
435.618	429.12
435.84	466.12
436.062	519.12
436.284	563.12
436.505	477.12
436.727	422.12
436.949	417.12
437.17	417.12
437.392	399.12
437.614	420.12
437.835	426.12
438.057	483.12
438.278	536.12
438.5	551.12
438.721	600.12
438.943	566.12
439.165	467.12
439.386	433.12
439.608	442.12
439.829	412.12
440.05	427.12
440.272	438.12
440.493	437.12
440.715	425.12
440.936	398.12
441.158	398.12
441.379	417.12
441.6	396.12
441.822	435.12
442.043	455.12
442.264	523.12
442.486	538.12
442.707	462.12
442.928	439.12
443.149	453.12
443.371	458.12
443.592	481.12
443.813	519.12
444.034	562.12
444.255	521.12
444.476	445.12
444.698	437.12
444.919	427.12
445.14	532.12
445.361	479.12
445.582	474.12
445.803	509.12
446.024	578.12
446.245	534.12
446.466	506.12
446.687	431.12
446.908	419.12
447.129	407.12
447.35	394.12
447.571	403.12
447.792	403.12
448.013	401.12
448.234	426.12
448.455	447.12
448.675	514.12
448.896	565.12
449.117	511.12
449.338	459.12
449.559	561.12
449.779	591.12
450	471.12
450.221	406.12
450.442	391.12
450.662	386.12
450.883	403.12
451.104	392.12
451.324	393.12
451.545	366.12
451.766	361.12
451.986	339.12
452.207	351.12
452.428	366.12
452.648	371.12
452.869	363.12
453.089	369.12
453.31	379.12
453.53	362.12
453.751	343.12
453.971	365.12
454.192	345.12
454.412	373.12
454.633	356.12
454.853	358.12
455.073	348.12
455.294	389.12
455.514	413.12
455.734	367.12
455.955	364.12
456.175	327.12
456.395	344.12
456.616	338.12
456.836	349.12
457.056	349.12
457.276	333.12
457.497	340.12
457.717	351.12
457.937	344.12
458.157	348.12
458.377	355.12
458.598	367.12
458.818	391.12
459.038	453.12
459.258	469.12
459.478	407.12
459.698	406.12
459.918	421.12
460.138	376.12
460.358	394.12
460.578	394.12
460.798	414.12
461.018	387.12
461.238	404.12
461.458	391.12
461.678	386.12
461.898	403.12
462.118	402.12
462.338	420.12
462.558	421.12
462.777	418.12
462.997	413.12
463.217	432.12
463.437	439.12
463.657	458.12
463.876	427.12
464.096	434.12
464.316	424.12
464.536	458.12
464.755	404.12
464.975	406.12
465.195	444.12
465.414	441.12
465.634	437.12
465.854	417.12
466.073	386.12
466.293	391.12
466.512	386.12
466.732	381.12
466.951	381.12
467.171	380.12
467.391	369.12
467.61	383.12
467.829	383.12
468.049	373.12
468.268	371.12
468.488	378.12
468.707	360.12
468.927	365.12
469.146	360.12
469.365	368.12
469.585	367.12
469.804	381.12
470.023	365.12
470.243	382.12
470.462	371.12
470.681	380.12
470.901	390.12
471.12	381.12
471.339	379.12
471.558	379.12
471.777	377.12
471.997	366.12
472.216	372.12
472.435	379.12
472.654	380.12
472.873	395.12
473.092	392.12
473.311	370.12
473.53	375.12
473.749	407.12
473.968	413.12
474.187	437.12
474.406	489.12
474.625	399.12
474.844	382.12
475.063	362.12
475.282	383.12
475.501	374.12
475.72	373.12
475.939	389.12
476.158	391.12
476.377	372.12
476.596	385.12
476.814	409.12
477.033	390.12
477.252	395.12
477.471	397.12
477.69	420.12
477.908	397.12
478.127	407.12
478.346	413.12
478.564	410.12
478.783	434.12
479.002	439.12
479.22	441.12
479.439	447.12
479.658	443.12
479.876	439.12
480.095	463.12
480.313	467.12
480.532	461.12
480.751	468.12
480.969	463.12
481.188	479.12
481.406	512.12
481.624	456.12
481.843	440.12
482.061	457.12
482.28	452.12
482.498	439.12
482.717	455.12
482.935	443.12
483.153	455.12
483.372	431.12
483.59	442.12
483.808	436.12
484.027	442.12
484.245	453.12
484.463	441.12
484.681	431.12
484.9	429.12
485.118	446.12
485.336	443.12
485.554	451.12
485.772	445.12
485.99	447.12
486.209	468.12
486.427	445.12
486.645	455.12
486.863	463.12
487.081	465.12
487.299	458.12
487.517	477.12
487.735	467.12
487.953	450.12
488.171	460.12
488.389	479.12
488.607	489.12
488.825	475.12
489.043	469.12
489.261	484.12
489.479	457.12
489.696	465.12
489.914	467.12
490.132	468.12
490.35	500.12
490.568	501.12
490.786	450.12
491.003	479.12
491.221	513.12
491.439	501.12
491.657	517.12
491.874	513.12
492.092	501.12
492.31	521.12
492.527	536.12
492.745	524.12
492.963	506.12
493.18	531.12
493.398	515.12
493.615	527.12
493.833	526.12
494.05	534.12
494.268	521.12
494.485	535.12
494.703	522.12
494.92	540.12
495.138	532.12
495.355	548.12
495.573	551.12
495.79	545.12
496.008	534.12
496.225	547.12
496.442	557.12
496.66	540.12
496.877	544.12
497.094	540.12
497.312	537.12
497.529	552.12
497.746	561.12
497.963	560.12
498.181	570.12
498.398	594.12
498.615	612.12
498.832	614.12
499.049	624.12
499.267	645.12
499.484	677.12
499.701	685.12
499.918	726.12
500.135	740.12
500.352	791.12
500.569	792.12
500.786	782.12
501.003	781.12
501.22	763.12
501.437	748.12
501.654	709.12
501.871	677.12
502.088	656.12
502.305	649.12
502.522	612.12
502.739	617.12
502.956	609.12
503.172	571.12
503.389	553.12
503.606	545.12
503.823	558.12
504.04	591.12
504.256	551.12
504.473	546.12
504.69	545.12
504.907	545.12
505.123	507.12
505.34	532.12
505.557	530.12
505.773	515.12
505.99	522.12
506.207	503.12
506.423	484.12
506.64	495.12
506.856	473.12
507.073	494.12
507.289	493.12
507.506	500.12
507.722	491.12
507.939	498.12
508.155	518.12
508.372	474.12
508.588	469.12
508.805	482.12
509.021	462.12
509.238	481.12
509.454	500.12
509.67	488.12
509.887	482.12
510.103	472.12
510.319	489.12
510.536	526.12
510.752	790.12
510.968	606.12
511.184	483.12
511.401	466.12
511.617	483.12
511.833	449.12
512.049	444.12
512.265	452.12
512.481	457.12
512.698	447.12
512.914	455.12
513.13	450.12
513.346	444.12
513.562	445.12
513.778	438.12
513.994	455.12
514.21	454.12
514.426	476.12
514.642	464.12
514.858	514.12
515.074	517.12
515.29	581.12
515.506	746.12
515.721	647.12
515.937	489.12
516.153	499.12
516.369	494.12
516.585	489.12
516.801	479.12
517.016	484.12
517.232	467.12
517.448	483.12
517.664	496.12
517.879	481.12
518.095	481.12
518.311	474.12
518.527	461.12
518.742	483.12
518.958	485.12
519.173	482.12
519.389	441.12
519.605	469.12
519.82	457.12
520.036	452.12
520.251	485.12
520.467	468.12
520.682	462.12
520.898	474.12
521.113	470.12
521.329	488.12
521.544	518.12
521.76	631.12
521.975	923.12
522.19	892.12
522.406	592.12
522.621	484.12
522.836	454.12
523.052	447.12
523.267	427.12
523.482	418.12
523.698	423.12
523.913	429.12
524.128	408.12
524.343	422.12
524.559	407.12
524.774	393.12
524.989	409.12
525.204	398.12
525.419	394.12
525.634	398.12
525.849	404.12
526.064	393.12
526.28	402.12
526.495	402.12
526.71	395.12
526.925	380.12
527.14	398.12
527.355	403.12
527.57	389.12
527.785	397.12
527.999	357.12
528.214	384.12
528.429	392.12
528.644	383.12
528.859	382.12
529.074	392.12
529.289	395.12
529.503	433.12
529.718	420.12
529.933	375.12
530.148	377.12
530.363	378.12
530.577	393.12
530.792	381.12
531.007	384.12
531.221	369.12
531.436	377.12
531.651	379.12
531.865	366.12
532.08	385.12
532.295	365.12
532.509	385.12
532.724	361.12
532.938	370.12
533.153	362.12
533.367	359.12
533.582	359.12
533.796	376.12
534.011	365.12
534.225	366.12
534.44	364.12
534.654	350.12
534.868	377.12
535.083	377.12
535.297	383.12
535.511	369.12
535.726	361.12
535.94	340.12
536.154	385.12
536.369	363.12
536.583	377.12
536.797	368.12
537.011	360.12
537.225	339.12
537.44	347.12
537.654	360.12
537.868	365.12
538.082	331.12
538.296	356.12
538.51	357.12
538.724	357.12
538.938	352.12
539.153	362.12
539.367	361.12
539.581	360.12
539.795	360.12
540.009	343.12
540.222	345.12
540.436	361.12
540.65	345.12
540.864	361.12
541.078	353.12
541.292	369.12
541.506	356.12
541.72	353.12
541.934	336.12
542.147	339.12
542.361	356.12
542.575	358.12
542.789	369.12
543.002	361.12
543.216	363.12
543.43	342.12
543.644	361.12
543.857	358.12
544.071	337.12
544.285	354.12
544.498	334.12
544.712	349.12
544.925	335.12
545.139	360.12
545.352	355.12
545.566	362.12
545.779	358.12
545.993	347.12
546.206	363.12
546.42	355.12
546.633	350.12
546.847	355.12
547.06	335.12
547.274	330.12
547.487	329.12
547.7	349.12
547.914	369.12
548.127	348.12
548.34	346.12
548.554	327.12
548.767	348.12
548.98	364.12
549.193	350.12
549.407	345.12
549.62	351.12
549.833	322.12
550.046	367.12
550.259	353.12
550.473	335.12
550.686	343.12
550.899	345.12
551.112	328.12
551.325	332.12
551.538	340.12
551.751	331.12
551.964	338.12
552.177	362.12
552.39	346.12
552.603	351.12
552.816	343.12
553.029	334.12
553.242	353.12
553.455	346.12
553.667	353.12
553.88	356.12
554.093	342.12
554.306	355.12
554.519	337.12
554.732	325.12
554.944	337.12
555.157	340.12
555.37	347.12
555.583	330.12
555.795	341.12
556.008	329.12
556.221	328.12
556.433	334.12
556.646	324.12
556.859	321.12
557.071	298.12
557.284	318.12
557.496	317.12
557.709	318.12
557.921	327.12
558.134	311.12
558.346	320.12
558.559	307.12
558.771	308.12
558.984	302.12
559.196	308.12
559.409	286.12
559.621	301.12
559.833	316.12
560.046	286.12
560.258	316.12
560.47	308.12
560.683	310.12
560.895	297.12
561.107	292.12
561.32	303.12
561.532	313.12
561.744	324.12
561.956	316.12
562.168	295.12
562.381	296.12
562.593	313.12
562.805	311.12
563.017	294.12
563.229	311.12
563.441	303.12
563.653	300.12
563.865	318.12
564.077	310.12
564.289	315.12
564.501	319.12
564.713	337.12
564.925	325.12
565.137	355.12
565.349	319.12
565.561	333.12
565.773	350.12
565.985	355.12
566.197	377.12
566.408	347.12
566.62	372.12
566.832	361.12
567.044	359.12
567.255	372.12
567.467	372.12
567.679	382.12
567.891	402.12
568.102	406.12
568.314	390.12
568.526	360.12
568.737	367.12
568.949	346.12
569.161	348.12
569.372	343.12
569.584	337.12
569.795	319.12
570.007	321.12
570.218	347.12
570.43	319.12
570.641	318.12
570.853	290.12
571.064	298.12
571.276	302.12
571.487	290.12
571.698	293.12
571.91	280.12
572.121	284.12
572.333	287.12
572.544	293.12
572.755	279.12
572.966	291.12
573.178	256.12
573.389	282.12
573.6	266.12
573.811	273.12
574.023	276.12
574.234	272.12
574.445	275.12
574.656	278.12
574.867	269.12
575.078	267.12
575.289	269.12
575.501	268.12
575.712	274.12
575.923	259.12
576.134	261.12
576.345	254.12
576.556	270.12
576.767	261.12
576.978	271.12
577.188	269.12
577.399	276.12
577.61	242.12
577.821	260.12
578.032	265.12
578.243	302.12
578.454	372.12
578.665	301.12
578.875	261.12
579.086	246.12
579.297	263.12
579.508	279.12
579.718	265.12
579.929	263.12
580.14	243.12
580.35	251.12
580.561	270.12
580.772	264.12
580.982	259.12
581.193	244.12
581.403	230.12
581.614	244.12
581.825	261.12
582.035	251.12
582.246	247.12
582.456	243.12
582.667	253.12
582.877	247.12
583.087	241.12
583.298	250.12
583.508	252.12
583.719	230.12
583.929	242.12
584.139	234.12
584.35	242.12
584.56	244.12
584.77	230.12
584.981	231.12
585.191	245.12
585.401	250.12
585.611	249.12
585.821	234.12
586.032	222.12
586.242	228.12
586.452	249.12
586.662	249.12
586.872	244.12
587.082	236.12
587.292	237.12
587.502	229.12
587.713	227.12
587.923	248.12
588.133	251.12
588.343	243.12
588.553	248.12
588.762	249.12
588.972	255.12
589.182	305.12
589.392	293.12
589.602	263.12
589.812	275.12
590.022	256.12
590.232	231.12
590.441	229.12
590.651	238.12
590.861	251.12
591.071	237.12
591.281	240.12
591.49	237.12
591.7	241.12
591.91	234.12
592.119	233.12
592.329	253.12
592.539	269.12
592.748	244.12
592.958	246.12
593.167	250.12
593.377	265.12
593.587	270.12
593.796	248.12
594.006	255.12
594.215	251.12
594.424	254.12
594.634	238.12
594.843	253.12
595.053	242.12
595.262	234.12
595.472	223.12
595.681	253.12
595.89	238.12
596.1	250.12
596.309	247.12
596.518	227.12
596.727	221.12
596.937	223.12
597.146	234.12
597.355	234.12
597.564	233.12
597.774	218.12
597.983	236.12
598.192	213.12
598.401	229.12
598.61	222.12
598.819	231.12
599.028	230.12
599.237	216.12
599.446	212.12
599.655	212.12
599.864	205.12
600.073	196.12
600.282	216.12
600.491	206.12
600.7	210.12
600.909	204.12
601.118	215.12
601.327	209.12
601.536	222.12
601.745	215.12
601.953	209.12
602.162	210.12
602.371	202.12
602.58	206.12
602.789	196.12
602.997	213.12
603.206	219.12
603.415	214.12
603.623	202.12
603.832	221.12
604.041	205.12
604.249	194.12
604.458	203.12
604.666	200.12
604.875	185.12
605.084	209.12
605.292	209.12
605.501	189.12
605.709	215.12
605.918	202.12
606.126	190.12
606.334	209.12
606.543	206.12
606.751	197.12
606.96	219.12
607.168	211.12
607.376	202.12
607.585	213.12
607.793	211.12
608.001	187.12
608.21	184.12
608.418	190.12
608.626	194.12
608.834	206.12
609.043	191.12
609.251	200.12
609.459	199.12
609.667	201.12
609.875	204.12
610.083	188.12
610.291	196.12
610.499	196.12
610.707	198.12
610.916	191.12
611.124	191.12
611.332	217.12
611.54	207.12
611.748	203.12
611.955	212.12
612.163	195.12
612.371	201.12
612.579	198.12
612.787	183.12
612.995	208.12
613.203	198.12
613.411	204.12
613.618	194.12
613.826	190.12
614.034	180.12
614.242	195.12
614.449	197.12
614.657	192.12
614.865	195.12
615.072	199.12
615.28	186.12
615.488	190.12
615.695	195.12
615.903	190.12
616.111	183.12
616.318	187.12
616.526	204.12
616.733	190.12
616.941	182.12
617.148	201.12
617.356	209.12
617.563	189.12
617.771	206.12
617.978	196.12
618.185	180.12
618.393	194.12
618.6	191.12
618.807	187.12
619.015	189.12
619.222	187.12
619.429	183.12
619.637	179.12
619.844	197.12
620.051	193.12
620.258	190.12
620.466	187.12
620.673	196.12
620.88	171.12
621.087	189.12
621.294	189.12
621.501	203.12
621.708	179.12
621.915	180.12
622.122	181.12
622.329	168.12
622.536	177.12
622.743	171.12
622.95	165.12
623.157	173.12
623.364	179.12
623.571	185.12
623.778	187.12
623.985	183.12
624.192	165.12
624.399	171.12
624.606	170.12
624.812	173.12
625.019	180.12
625.226	179.12
625.433	178.12
625.639	172.12
625.846	169.12
626.053	167.12
626.259	173.12
626.466	184.12
626.673	163.12
626.879	175.12
627.086	176.12
627.293	172.12
627.499	183.12
627.706	183.12
627.912	168.12
628.119	157.12
628.325	158.12
628.532	165.12
628.738	169.12
628.945	174.12
629.151	177.12
629.357	174.12
629.564	173.12
629.77	165.12
629.976	154.12
630.183	152.12
630.389	175.12
630.595	177.12
630.802	178.12
631.008	161.12
631.214	167.12
631.42	156.12
631.627	170.12
631.833	165.12
632.039	162.12
632.245	143.12
632.451	143.12
632.657	176.12
632.863	166.12
633.069	177.12
633.275	166.12
633.481	151.12
633.688	161.12
633.893	170.12
634.099	165.12
634.305	137.12
634.511	148.12
634.717	164.12
634.923	161.12
635.129	165.12
635.335	157.12
635.541	156.12
635.747	167.12
635.952	154.12
636.158	170.12
636.364	147.12
636.57	172.12
636.775	152.12
636.981	165.12
637.187	165.12
637.392	162.12
637.598	158.12
637.804	159.12
638.009	157.12
638.215	154.12
638.421	157.12
638.626	155.12
638.832	145.12
639.037	152.12
639.243	150.12
639.448	158.12
639.654	152.12
639.859	146.12
640.065	147.12
640.27	144.12
640.475	162.12
640.681	139.12
640.886	151.12
641.091	147.12
641.297	141.12
641.502	146.12
641.707	161.12
641.913	149.12
642.118	146.12
642.323	132.12
642.528	149.12
642.733	162.12
642.939	150.12
643.144	149.12
643.349	157.12
643.554	154.12
643.759	135.12
643.964	143.12
644.169	153.12
644.374	155.12
644.579	131.12
644.784	138.12
644.989	148.12
645.194	149.12
645.399	155.12
645.604	141.12
645.809	150.12
646.014	145.12
646.219	127.12
646.423	157.12
646.628	142.12
646.833	147.12
647.038	144.12
647.243	145.12
647.447	139.12
647.652	135.12
647.857	152.12
648.062	148.12
648.266	147.12
648.471	152.12
648.676	152.12
648.88	145.12
649.085	152.12
649.289	137.12
649.494	159.12
649.698	153.12
649.903	139.12
650.107	148.12
650.312	148.12
650.516	140.12
650.721	147.12
650.925	133.12
651.13	137.12
651.334	135.12
651.539	136.12
651.743	150.12
651.947	130.12
652.152	133.12
652.356	131.12
652.56	118.12
652.764	131.12
652.969	133.12
653.173	126.12
653.377	141.12
653.581	137.12
653.785	120.12
653.99	119.12
654.194	128.12
654.398	115.12
654.602	110.12
654.806	133.12
655.01	130.12
655.214	131.12
655.418	125.12
655.622	118.12
655.826	125.12
656.03	117.12
656.234	141.12
656.438	132.12
656.642	132.12
656.846	138.12
657.049	122.12
657.253	130.12
657.457	124.12
657.661	117.12
657.865	110.12
658.068	117.12
658.272	116.12
658.476	107.12
658.68	109.12
658.883	88.12
659.087	111.12
659.291	86.12
659.494	94.12
659.698	98.12
659.901	97.12
660.105	99.12
660.309	88.12
660.512	91.12
660.716	88.12
660.919	78.12
661.123	85.12
661.326	90.12
661.53	84.12
661.733	92.12
661.936	95.12
662.14	75.12
662.343	86.12
662.546	78.12
662.75	90.12
662.953	96.12
663.156	85.12
663.36	92.12
663.563	95.12
663.766	77.12
663.969	71.12
664.173	74.12
664.376	82.12
664.579	79.12
664.782	88.12
664.985	75.12
665.188	89.12
665.391	95.12
665.594	81.12
665.797	84.12
666	88.12
666.203	80.12
666.406	73.12
666.609	80.12
666.812	78.12
667.015	96.12
667.218	81.12
667.421	79.12
667.624	85.12
667.827	84.12
668.03	93.12
668.232	95.12
668.435	83.12
668.638	77.12
668.841	89.12
669.043	77.12
669.246	78.12
669.449	86.12
669.651	71.12
669.854	75.12
670.057	89.12
670.259	78.12
670.462	90.12
670.665	80.12
670.867	78.12
671.07	73.12
671.272	76.12
671.475	79.12
671.677	82.12
671.88	79.12
672.082	82.12
672.284	93.12
672.487	72.12
672.689	85.12
672.892	84.12
