Data from 1960PennyLincolnUp.LampE6.200Scan.07172019.P1_HRD10591_13-05-37-001.txt Node
Date: Thu Jul 18 13:05:37 EDT 2019
User: cochatt
Spectrometer: HR+D1059
Trigger mode: 1
Integration Time (sec): 1.000000E-1
Scans to average: 1
Electric dark correction enabled: true
Nonlinearity correction enabled: false
Boxcar width: 0
XAxis mode: Wavelengths
Number of Pixels in Spectrum: 2048
>>>>>Begin Spectral Data<<<<<
223.165	-10.38
223.4	-10.38
223.635	-10.38
223.869	-15.38
224.104	-14.38
224.338	-11.38
224.573	-24.38
224.808	-9.38
225.042	-10.38
225.277	-9.38
225.511	-9.38
225.746	18.62
225.98	0.62
226.215	10.62
226.449	5.62
226.683	15.62
226.918	28.62
227.152	34.62
227.387	31.62
227.621	33.62
227.856	33.62
228.09	41.62
228.324	34.62
228.559	54.62
228.793	65.62
229.027	69.62
229.262	90.62
229.496	83.62
229.73	102.62
229.964	115.62
230.199	110.62
230.433	98.62
230.667	97.62
230.901	113.62
231.136	89.62
231.37	99.62
231.604	109.62
231.838	108.62
232.072	105.62
232.306	98.62
232.541	94.62
232.775	98.62
233.009	98.62
233.243	97.62
233.477	106.62
233.711	101.62
233.945	108.62
234.179	113.62
234.413	123.62
234.647	92.62
234.881	102.62
235.115	107.62
235.349	115.62
235.583	99.62
235.817	105.62
236.051	112.62
236.285	115.62
236.519	114.62
236.753	120.62
236.987	146.62
237.221	134.62
237.455	168.62
237.689	146.62
237.922	119.62
238.156	118.62
238.39	118.62
238.624	117.62
238.858	122.62
239.091	123.62
239.325	110.62
239.559	104.62
239.793	118.62
240.027	113.62
240.26	131.62
240.494	114.62
240.728	140.62
240.961	124.62
241.195	126.62
241.429	113.62
241.662	126.62
241.896	120.62
242.13	126.62
242.363	136.62
242.597	130.62
242.83	128.62
243.064	132.62
243.298	126.62
243.531	124.62
243.765	133.62
243.998	113.62
244.232	125.62
244.465	136.62
244.699	122.62
244.932	147.62
245.166	133.62
245.399	124.62
245.633	159.62
245.866	143.62
246.099	140.62
246.333	139.62
246.566	144.62
246.8	131.62
247.033	141.62
247.266	141.62
247.5	161.62
247.733	149.62
247.966	156.62
248.2	149.62
248.433	147.62
248.666	158.62
248.899	159.62
249.133	165.62
249.366	178.62
249.599	168.62
249.832	163.62
250.066	158.62
250.299	158.62
250.532	188.62
250.765	183.62
250.998	181.62
251.231	208.62
251.465	169.62
251.698	180.62
251.931	172.62
252.164	172.62
252.397	175.62
252.63	187.62
252.863	186.62
253.096	176.62
253.329	190.62
253.562	186.62
253.795	194.62
254.028	179.62
254.261	158.62
254.494	190.62
254.727	185.62
254.96	219.62
255.193	208.62
255.426	201.62
255.659	194.62
255.892	195.62
256.124	202.62
256.357	218.62
256.59	207.62
256.823	196.62
257.056	173.62
257.289	182.62
257.521	184.62
257.754	190.62
257.987	200.62
258.22	180.62
258.452	177.62
258.685	177.62
258.918	189.62
259.151	180.62
259.383	201.62
259.616	190.62
259.849	188.62
260.081	194.62
260.314	212.62
260.547	206.62
260.779	208.62
261.012	208.62
261.244	203.62
261.477	210.62
261.71	211.62
261.942	205.62
262.175	186.62
262.407	206.62
262.64	202.62
262.872	188.62
263.105	187.62
263.337	197.62
263.57	209.62
263.802	200.62
264.035	201.62
264.267	191.62
264.499	200.62
264.732	185.62
264.964	195.62
265.197	212.62
265.429	198.62
265.661	180.62
265.894	204.62
266.126	212.62
266.358	209.62
266.591	213.62
266.823	205.62
267.055	206.62
267.287	193.62
267.52	203.62
267.752	217.62
267.984	207.62
268.216	223.62
268.448	215.62
268.681	206.62
268.913	245.62
269.145	236.62
269.377	236.62
269.609	252.62
269.841	233.62
270.073	229.62
270.306	251.62
270.538	268.62
270.77	241.62
271.002	244.62
271.234	244.62
271.466	252.62
271.698	252.62
271.93	245.62
272.162	273.62
272.394	265.62
272.626	258.62
272.858	247.62
273.09	239.62
273.322	225.62
273.553	252.62
273.785	228.62
274.017	242.62
274.249	234.62
274.481	240.62
274.713	252.62
274.945	233.62
275.176	245.62
275.408	248.62
275.64	238.62
275.872	249.62
276.104	259.62
276.335	242.62
276.567	247.62
276.799	256.62
277.031	270.62
277.262	276.62
277.494	284.62
277.726	265.62
277.957	270.62
278.189	246.62
278.421	240.62
278.652	233.62
278.884	258.62
279.115	267.62
279.347	237.62
279.579	253.62
279.81	258.62
280.042	265.62
280.273	252.62
280.505	268.62
280.736	253.62
280.968	261.62
281.199	262.62
281.431	281.62
281.662	253.62
281.894	269.62
282.125	265.62
282.356	287.62
282.588	282.62
282.819	289.62
283.051	264.62
283.282	269.62
283.513	277.62
283.745	268.62
283.976	274.62
284.207	286.62
284.439	267.62
284.67	281.62
284.901	264.62
285.132	286.62
285.364	272.62
285.595	282.62
285.826	272.62
286.057	276.62
286.288	287.62
286.52	288.62
286.751	299.62
286.982	290.62
287.213	273.62
287.444	278.62
287.675	293.62
287.906	295.62
288.138	303.62
288.369	310.62
288.6	306.62
288.831	309.62
289.062	291.62
289.293	305.62
289.524	277.62
289.755	287.62
289.986	290.62
290.217	299.62
290.448	300.62
290.679	290.62
290.91	308.62
291.141	282.62
291.371	283.62
291.602	301.62
291.833	289.62
292.064	291.62
292.295	278.62
292.526	304.62
292.757	292.62
292.987	301.62
293.218	302.62
293.449	285.62
293.68	284.62
293.91	303.62
294.141	277.62
294.372	285.62
294.603	293.62
294.833	284.62
295.064	299.62
295.295	293.62
295.525	296.62
295.756	295.62
295.987	325.62
296.217	305.62
296.448	297.62
296.679	306.62
296.909	325.62
297.14	308.62
297.37	317.62
297.601	310.62
297.831	305.62
298.062	307.62
298.292	307.62
298.523	331.62
298.753	293.62
298.984	300.62
299.214	318.62
299.445	319.62
299.675	322.62
299.905	324.62
300.136	324.62
300.366	302.62
300.597	316.62
300.827	340.62
301.057	331.62
301.288	327.62
301.518	337.62
301.748	336.62
301.979	333.62
302.209	327.62
302.439	334.62
302.669	321.62
302.9	330.62
303.13	328.62
303.36	342.62
303.59	333.62
303.82	340.62
304.051	340.62
304.281	326.62
304.511	321.62
304.741	313.62
304.971	313.62
305.201	317.62
305.431	337.62
305.661	329.62
305.891	337.62
306.121	333.62
306.352	353.62
306.582	344.62
306.812	327.62
307.042	314.62
307.272	331.62
307.502	323.62
307.731	333.62
307.961	344.62
308.191	310.62
308.421	321.62
308.651	320.62
308.881	342.62
309.111	346.62
309.341	321.62
309.571	330.62
309.8	359.62
310.03	341.62
310.26	362.62
310.49	360.62
310.72	355.62
310.949	356.62
311.179	364.62
311.409	354.62
311.639	347.62
311.868	361.62
312.098	368.62
312.328	374.62
312.557	366.62
312.787	394.62
313.017	375.62
313.246	373.62
313.476	364.62
313.706	354.62
313.935	352.62
314.165	370.62
314.394	375.62
314.624	370.62
314.853	370.62
315.083	368.62
315.312	378.62
315.542	377.62
315.771	348.62
316.001	364.62
316.23	373.62
316.46	356.62
316.689	380.62
316.919	383.62
317.148	368.62
317.377	352.62
317.607	370.62
317.836	372.62
318.065	358.62
318.295	377.62
318.524	360.62
318.753	352.62
318.983	363.62
319.212	354.62
319.441	351.62
319.67	377.62
319.9	372.62
320.129	378.62
320.358	380.62
320.587	362.62
320.816	372.62
321.046	378.62
321.275	379.62
321.504	364.62
321.733	388.62
321.962	374.62
322.191	363.62
322.42	398.62
322.649	384.62
322.878	389.62
323.108	384.62
323.337	417.62
323.566	418.62
323.795	421.62
324.024	453.62
324.253	515.62
324.482	659.62
324.71	947.62
324.939	1276.62
325.168	1044.62
325.397	570.62
325.626	457.62
325.855	429.62
326.084	432.62
326.313	412.62
326.542	431.62
326.77	458.62
326.999	524.62
327.228	653.62
327.457	866.62
327.686	977.62
327.914	667.62
328.143	505.62
328.372	459.62
328.6	478.62
328.829	472.62
329.058	452.62
329.287	448.62
329.515	432.62
329.744	430.62
329.972	433.62
330.201	459.62
330.43	457.62
330.658	480.62
330.887	492.62
331.115	475.62
331.344	442.62
331.572	449.62
331.801	433.62
332.03	467.62
332.258	465.62
332.486	459.62
332.715	458.62
332.943	466.62
333.172	481.62
333.4	491.62
333.629	510.62
333.857	486.62
334.085	514.62
334.314	529.62
334.542	521.62
334.771	540.62
334.999	496.62
335.227	512.62
335.455	479.62
335.684	466.62
335.912	475.62
336.14	448.62
336.369	463.62
336.597	463.62
336.825	453.62
337.053	437.62
337.281	438.62
337.51	452.62
337.738	441.62
337.966	438.62
338.194	447.62
338.422	444.62
338.65	441.62
338.878	446.62
339.106	438.62
339.334	431.62
339.562	413.62
339.79	431.62
340.018	400.62
340.246	410.62
340.474	417.62
340.702	419.62
340.93	421.62
341.158	419.62
341.386	427.62
341.614	433.62
341.842	443.62
342.07	408.62
342.298	415.62
342.526	433.62
342.754	410.62
342.981	414.62
343.209	413.62
343.437	433.62
343.665	419.62
343.893	467.62
344.12	472.62
344.348	460.62
344.576	454.62
344.804	446.62
345.031	431.62
345.259	441.62
345.487	451.62
345.714	426.62
345.942	416.62
346.17	415.62
346.397	380.62
346.625	392.62
346.853	391.62
347.08	402.62
347.308	398.62
347.535	417.62
347.763	393.62
347.99	408.62
348.218	404.62
348.445	404.62
348.673	413.62
348.9	399.62
349.128	382.62
349.355	394.62
349.583	389.62
349.81	404.62
350.037	388.62
350.265	388.62
350.492	391.62
350.72	389.62
350.947	406.62
351.174	389.62
351.402	401.62
351.629	412.62
351.856	395.62
352.083	394.62
352.311	417.62
352.538	400.62
352.765	406.62
352.992	403.62
353.22	400.62
353.447	390.62
353.674	408.62
353.901	402.62
354.128	402.62
354.355	387.62
354.583	395.62
354.81	410.62
355.037	388.62
355.264	395.62
355.491	380.62
355.718	389.62
355.945	382.62
356.172	393.62
356.399	388.62
356.626	398.62
356.853	405.62
357.08	386.62
357.307	399.62
357.534	393.62
357.761	372.62
357.988	395.62
358.215	394.62
358.441	400.62
358.668	421.62
358.895	424.62
359.122	399.62
359.349	408.62
359.576	384.62
359.802	411.62
360.029	409.62
360.256	410.62
360.483	408.62
360.709	392.62
360.936	396.62
361.163	389.62
361.39	410.62
361.616	412.62
361.843	396.62
362.07	404.62
362.296	399.62
362.523	389.62
362.749	392.62
362.976	407.62
363.203	400.62
363.429	384.62
363.656	395.62
363.882	373.62
364.109	382.62
364.335	361.62
364.562	405.62
364.788	400.62
365.015	393.62
365.241	380.62
365.468	404.62
365.694	391.62
365.92	399.62
366.147	397.62
366.373	398.62
366.599	370.62
366.826	389.62
367.052	388.62
367.278	384.62
367.505	392.62
367.731	382.62
367.957	387.62
368.184	394.62
368.41	396.62
368.636	415.62
368.862	398.62
369.089	403.62
369.315	395.62
369.541	400.62
369.767	393.62
369.993	402.62
370.219	413.62
370.445	404.62
370.672	398.62
370.898	366.62
371.124	413.62
371.35	416.62
371.576	409.62
371.802	411.62
372.028	407.62
372.254	417.62
372.48	421.62
372.706	406.62
372.932	430.62
373.158	429.62
373.384	409.62
373.61	429.62
373.835	416.62
374.061	411.62
374.287	421.62
374.513	432.62
374.739	424.62
374.965	454.62
375.191	436.62
375.416	421.62
375.642	419.62
375.868	446.62
376.094	425.62
376.319	430.62
376.545	429.62
376.771	421.62
376.997	412.62
377.222	392.62
377.448	388.62
377.674	394.62
377.899	392.62
378.125	424.62
378.35	398.62
378.576	402.62
378.802	424.62
379.027	393.62
379.253	392.62
379.478	388.62
379.704	430.62
379.929	404.62
380.155	410.62
380.38	396.62
380.606	403.62
380.831	399.62
381.057	425.62
381.282	392.62
381.507	434.62
381.733	428.62
381.958	417.62
382.184	419.62
382.409	423.62
382.634	436.62
382.86	441.62
383.085	430.62
383.31	433.62
383.535	424.62
383.761	431.62
383.986	453.62
384.211	443.62
384.436	457.62
384.662	475.62
384.887	474.62
385.112	464.62
385.337	483.62
385.562	468.62
385.787	465.62
386.013	491.62
386.238	471.62
386.463	480.62
386.688	475.62
386.913	439.62
387.138	438.62
387.363	455.62
387.588	462.62
387.813	452.62
388.038	437.62
388.263	473.62
388.488	462.62
388.713	468.62
388.938	488.62
389.163	460.62
389.387	479.62
389.612	458.62
389.837	477.62
390.062	458.62
390.287	444.62
390.512	448.62
390.736	462.62
390.961	478.62
391.186	481.62
391.411	475.62
391.636	490.62
391.86	520.62
392.085	534.62
392.31	520.62
392.534	495.62
392.759	516.62
392.984	484.62
393.208	497.62
393.433	501.62
393.658	475.62
393.882	484.62
394.107	498.62
394.331	460.62
394.556	454.62
394.78	505.62
395.005	492.62
395.229	506.62
395.454	494.62
395.678	510.62
395.903	507.62
396.127	530.62
396.352	513.62
396.576	504.62
396.801	501.62
397.025	513.62
397.249	533.62
397.474	504.62
397.698	514.62
397.922	509.62
398.147	537.62
398.371	544.62
398.595	548.62
398.82	559.62
399.044	564.62
399.268	642.62
399.492	687.62
399.717	732.62
399.941	765.62
400.165	717.62
400.389	675.62
400.613	638.62
400.837	609.62
401.062	582.62
401.286	553.62
401.51	560.62
401.734	539.62
401.958	556.62
402.182	543.62
402.406	558.62
402.63	593.62
402.854	580.62
403.078	592.62
403.302	579.62
403.526	619.62
403.75	603.62
403.974	628.62
404.198	622.62
404.422	630.62
404.645	604.62
404.869	643.62
405.093	628.62
405.317	646.62
405.541	666.62
405.765	631.62
405.988	602.62
406.212	626.62
406.436	623.62
406.66	641.62
406.883	621.62
407.107	671.62
407.331	676.62
407.555	729.62
407.778	719.62
408.002	702.62
408.226	658.62
408.449	644.62
408.673	629.62
408.896	640.62
409.12	640.62
409.344	654.62
409.567	620.62
409.791	606.62
410.014	569.62
410.238	606.62
410.461	618.62
410.685	605.62
410.908	586.62
411.132	600.62
411.355	613.62
411.578	601.62
411.802	580.62
412.025	576.62
412.249	578.62
412.472	601.62
412.695	611.62
412.919	598.62
413.142	590.62
413.365	570.62
413.589	558.62
413.812	557.62
414.035	548.62
414.258	558.62
414.482	551.62
414.705	546.62
414.928	562.62
415.151	543.62
415.374	546.62
415.597	563.62
415.821	548.62
416.044	539.62
416.267	548.62
416.49	521.62
416.713	530.62
416.936	532.62
417.159	546.62
417.382	530.62
417.605	549.62
417.828	575.62
418.051	554.62
418.274	552.62
418.497	539.62
418.72	568.62
418.943	555.62
419.166	565.62
419.389	591.62
419.611	602.62
419.834	580.62
420.057	583.62
420.28	569.62
420.503	562.62
420.726	564.62
420.948	572.62
421.171	564.62
421.394	587.62
421.617	573.62
421.839	564.62
422.062	547.62
422.285	571.62
422.507	613.62
422.73	639.62
422.953	634.62
423.175	570.62
423.398	575.62
423.621	582.62
423.843	598.62
424.066	584.62
424.288	592.62
424.511	588.62
424.733	611.62
424.956	648.62
425.178	618.62
425.401	632.62
425.623	653.62
425.846	606.62
426.068	558.62
426.291	551.62
426.513	565.62
426.735	567.62
426.958	562.62
427.18	612.62
427.402	680.62
427.625	738.62
427.847	650.62
428.069	596.62
428.292	565.62
428.514	542.62
428.736	504.62
428.958	523.62
429.181	507.62
429.403	522.62
429.625	517.62
429.847	516.62
430.069	553.62
430.292	575.62
430.514	507.62
430.736	509.62
430.958	499.62
431.18	508.62
431.402	476.62
431.624	512.62
431.846	502.62
432.068	499.62
432.29	515.62
432.512	502.62
432.734	490.62
432.956	523.62
433.178	509.62
433.4	502.62
433.622	492.62
433.844	503.62
434.066	505.62
434.287	506.62
434.509	512.62
434.731	553.62
434.953	548.62
435.175	550.62
435.397	557.62
435.618	542.62
435.84	553.62
436.062	623.62
436.284	649.62
436.505	565.62
436.727	544.62
436.949	501.62
437.17	502.62
437.392	512.62
437.614	528.62
437.835	517.62
438.057	576.62
438.278	619.62
438.5	639.62
438.721	651.62
438.943	658.62
439.165	547.62
439.386	538.62
439.608	536.62
439.829	536.62
440.05	540.62
440.272	551.62
440.493	547.62
440.715	500.62
440.936	542.62
441.158	521.62
441.379	527.62
441.6	562.62
441.822	577.62
442.043	572.62
442.264	607.62
442.486	640.62
442.707	579.62
442.928	560.62
443.149	583.62
443.371	585.62
443.592	582.62
443.813	651.62
444.034	718.62
444.255	650.62
444.476	592.62
444.698	605.62
444.919	622.62
445.14	712.62
445.361	636.62
445.582	616.62
445.803	609.62
446.024	656.62
446.245	661.62
446.466	610.62
446.687	545.62
446.908	523.62
447.129	513.62
447.35	508.62
447.571	498.62
447.792	492.62
448.013	493.62
448.234	518.62
448.455	540.62
448.675	579.62
448.896	645.62
449.117	564.62
449.338	542.62
449.559	611.62
449.779	682.62
450	558.62
450.221	523.62
450.442	499.62
450.662	480.62
450.883	486.62
451.104	497.62
451.324	474.62
451.545	464.62
451.766	456.62
451.986	451.62
452.207	460.62
452.428	436.62
452.648	455.62
452.869	446.62
453.089	452.62
453.31	460.62
453.53	426.62
453.751	455.62
453.971	425.62
454.192	465.62
454.412	464.62
454.633	450.62
454.853	428.62
455.073	439.62
455.294	440.62
455.514	476.62
455.734	464.62
455.955	427.62
456.175	433.62
456.395	423.62
456.616	413.62
456.836	420.62
457.056	419.62
457.276	435.62
457.497	436.62
457.717	415.62
457.937	425.62
458.157	426.62
458.377	442.62
458.598	456.62
458.818	482.62
459.038	537.62
459.258	543.62
459.478	509.62
459.698	512.62
459.918	498.62
460.138	507.62
460.358	538.62
460.578	538.62
460.798	556.62
461.018	556.62
461.238	525.62
461.458	510.62
461.678	522.62
461.898	539.62
462.118	548.62
462.338	570.62
462.558	560.62
462.777	585.62
462.997	605.62
463.217	638.62
463.437	663.62
463.657	610.62
463.876	582.62
464.096	586.62
464.316	575.62
464.536	597.62
464.755	584.62
464.975	587.62
465.195	576.62
465.414	595.62
465.634	537.62
465.854	505.62
466.073	502.62
466.293	492.62
466.512	477.62
466.732	451.62
466.951	462.62
467.171	468.62
467.391	474.62
467.61	492.62
467.829	474.62
468.049	472.62
468.268	461.62
468.488	467.62
468.707	452.62
468.927	458.62
469.146	441.62
469.365	455.62
469.585	465.62
469.804	485.62
470.023	500.62
470.243	480.62
470.462	483.62
470.681	491.62
470.901	496.62
471.12	493.62
471.339	465.62
471.558	475.62
471.777	470.62
471.997	457.62
472.216	476.62
472.435	488.62
472.654	466.62
472.873	455.62
473.092	434.62
473.311	472.62
473.53	447.62
473.749	462.62
473.968	480.62
474.187	508.62
474.406	546.62
474.625	467.62
474.844	438.62
475.063	451.62
475.282	478.62
475.501	468.62
475.72	476.62
475.939	466.62
476.158	470.62
476.377	454.62
476.596	475.62
476.814	490.62
477.033	484.62
477.252	463.62
477.471	493.62
477.69	515.62
477.908	524.62
478.127	519.62
478.346	524.62
478.564	520.62
478.783	534.62
479.002	544.62
479.22	562.62
479.439	558.62
479.658	570.62
479.876	554.62
480.095	563.62
480.313	614.62
480.532	569.62
480.751	586.62
480.969	581.62
481.188	607.62
481.406	620.62
481.624	561.62
481.843	515.62
482.061	528.62
482.28	529.62
482.498	534.62
482.717	543.62
482.935	541.62
483.153	532.62
483.372	540.62
483.59	531.62
483.808	538.62
484.027	527.62
484.245	532.62
484.463	527.62
484.681	536.62
484.9	524.62
485.118	550.62
485.336	544.62
485.554	558.62
485.772	550.62
485.99	553.62
486.209	546.62
486.427	570.62
486.645	560.62
486.863	565.62
487.081	552.62
487.299	555.62
487.517	560.62
487.735	546.62
487.953	554.62
488.171	544.62
488.389	555.62
488.607	576.62
488.825	560.62
489.043	530.62
489.261	556.62
489.479	557.62
489.696	573.62
489.914	581.62
490.132	573.62
490.35	578.62
490.568	608.62
490.786	604.62
491.003	594.62
491.221	600.62
491.439	614.62
491.657	625.62
491.874	624.62
492.092	638.62
492.31	629.62
492.527	608.62
492.745	642.62
492.963	623.62
493.18	612.62
493.398	638.62
493.615	650.62
493.833	653.62
494.05	648.62
494.268	631.62
494.485	629.62
494.703	658.62
494.92	657.62
495.138	630.62
495.355	656.62
495.573	653.62
495.79	654.62
496.008	648.62
496.225	652.62
496.442	641.62
496.66	666.62
496.877	637.62
497.094	653.62
497.312	650.62
497.529	682.62
497.746	664.62
497.963	700.62
498.181	722.62
498.398	751.62
498.615	765.62
498.832	808.62
499.049	821.62
499.267	840.62
499.484	922.62
499.701	987.62
499.918	1029.62
500.135	1117.62
500.352	1270.62
500.569	1302.62
500.786	1271.62
501.003	1228.62
501.22	1140.62
501.437	1064.62
501.654	980.62
501.871	929.62
502.088	852.62
502.305	818.62
502.522	750.62
502.739	783.62
502.956	726.62
503.172	711.62
503.389	722.62
503.606	677.62
503.823	697.62
504.04	674.62
504.256	657.62
504.473	703.62
504.69	689.62
504.907	669.62
505.123	655.62
505.34	622.62
505.557	611.62
505.773	625.62
505.99	604.62
506.207	595.62
506.423	592.62
506.64	578.62
506.856	578.62
507.073	578.62
507.289	581.62
507.506	553.62
507.722	578.62
507.939	586.62
508.155	556.62
508.372	549.62
508.588	562.62
508.805	538.62
509.021	563.62
509.238	546.62
509.454	545.62
509.67	584.62
509.887	536.62
510.103	522.62
510.319	550.62
510.536	608.62
510.752	833.62
510.968	731.62
511.184	548.62
511.401	538.62
511.617	522.62
511.833	520.62
512.049	507.62
512.265	510.62
512.481	522.62
512.698	491.62
512.914	512.62
513.13	526.62
513.346	523.62
513.562	508.62
513.778	515.62
513.994	517.62
514.21	496.62
514.426	518.62
514.642	537.62
514.858	563.62
515.074	589.62
515.29	669.62
515.506	877.62
515.721	770.62
515.937	580.62
516.153	581.62
516.369	553.62
516.585	558.62
516.801	573.62
517.016	565.62
517.232	574.62
517.448	600.62
517.664	648.62
517.879	637.62
518.095	635.62
518.311	608.62
518.527	605.62
518.742	584.62
518.958	575.62
519.173	567.62
519.389	563.62
519.605	533.62
519.82	540.62
520.036	543.62
520.251	556.62
520.467	562.62
520.682	527.62
520.898	531.62
521.113	542.62
521.329	560.62
521.544	603.62
521.76	712.62
521.975	1015.62
522.19	1039.62
522.406	639.62
522.621	538.62
522.836	508.62
523.052	478.62
523.267	475.62
523.482	481.62
523.698	482.62
523.913	462.62
524.128	469.62
524.343	478.62
524.559	438.62
524.774	462.62
524.989	452.62
525.204	451.62
525.419	472.62
525.634	432.62
525.849	444.62
526.064	433.62
526.28	464.62
526.495	450.62
526.71	427.62
526.925	433.62
527.14	426.62
527.355	429.62
527.57	435.62
527.785	437.62
527.999	431.62
528.214	451.62
528.429	445.62
528.644	451.62
528.859	453.62
529.074	452.62
529.289	474.62
529.503	482.62
529.718	474.62
529.933	479.62
530.148	441.62
530.363	438.62
530.577	431.62
530.792	407.62
531.007	409.62
531.221	450.62
531.436	440.62
531.651	438.62
531.865	448.62
532.08	440.62
532.295	429.62
532.509	413.62
532.724	443.62
532.938	428.62
533.153	430.62
533.367	437.62
533.582	427.62
533.796	413.62
534.011	431.62
534.225	430.62
534.44	421.62
534.654	427.62
534.868	417.62
535.083	445.62
535.297	425.62
535.511	421.62
535.726	422.62
535.94	430.62
536.154	430.62
536.369	402.62
536.583	405.62
536.797	413.62
537.011	396.62
537.225	399.62
537.44	405.62
537.654	412.62
537.868	410.62
538.082	402.62
538.296	410.62
538.51	436.62
538.724	413.62
538.938	415.62
539.153	401.62
539.367	411.62
539.581	410.62
539.795	422.62
540.009	417.62
540.222	403.62
540.436	411.62
540.65	400.62
540.864	404.62
541.078	399.62
541.292	410.62
541.506	405.62
541.72	424.62
541.934	418.62
542.147	404.62
542.361	420.62
542.575	427.62
542.789	405.62
543.002	414.62
543.216	407.62
543.43	388.62
543.644	408.62
543.857	404.62
544.071	421.62
544.285	406.62
544.498	412.62
544.712	442.62
544.925	405.62
545.139	412.62
545.352	411.62
545.566	411.62
545.779	413.62
545.993	419.62
546.206	428.62
546.42	409.62
546.633	424.62
546.847	400.62
547.06	408.62
547.274	418.62
547.487	398.62
547.7	422.62
547.914	408.62
548.127	401.62
548.34	414.62
548.554	404.62
548.767	410.62
548.98	418.62
549.193	398.62
549.407	408.62
549.62	424.62
549.833	417.62
550.046	414.62
550.259	400.62
550.473	400.62
550.686	388.62
550.899	410.62
551.112	401.62
551.325	405.62
551.538	396.62
551.751	404.62
551.964	417.62
552.177	416.62
552.39	401.62
552.603	429.62
552.816	408.62
553.029	431.62
553.242	430.62
553.455	456.62
553.667	436.62
553.88	454.62
554.093	454.62
554.306	433.62
554.519	430.62
554.732	414.62
554.944	427.62
555.157	386.62
555.37	417.62
555.583	372.62
555.795	395.62
556.008	378.62
556.221	370.62
556.433	380.62
556.646	364.62
556.859	387.62
557.071	362.62
557.284	375.62
557.496	366.62
557.709	364.62
557.921	374.62
558.134	361.62
558.346	382.62
558.559	358.62
558.771	365.62
558.984	367.62
559.196	360.62
559.409	366.62
559.621	351.62
559.833	350.62
560.046	374.62
560.258	348.62
560.47	348.62
560.683	346.62
560.895	357.62
561.107	347.62
561.32	330.62
561.532	368.62
561.744	355.62
561.956	358.62
562.168	358.62
562.381	354.62
562.593	358.62
562.805	356.62
563.017	350.62
563.229	354.62
563.441	366.62
563.653	360.62
563.865	362.62
564.077	361.62
564.289	380.62
564.501	370.62
564.713	372.62
564.925	387.62
565.137	389.62
565.349	394.62
565.561	396.62
565.773	399.62
565.985	410.62
566.197	423.62
566.408	479.62
566.62	502.62
566.832	507.62
567.044	528.62
567.255	502.62
567.467	527.62
567.679	563.62
567.891	590.62
568.102	600.62
568.314	552.62
568.526	513.62
568.737	489.62
568.949	449.62
569.161	416.62
569.372	389.62
569.584	397.62
569.795	377.62
570.007	378.62
570.218	380.62
570.43	374.62
570.641	383.62
570.853	363.62
571.064	354.62
571.276	359.62
571.487	365.62
571.698	352.62
571.91	348.62
572.121	340.62
572.333	328.62
572.544	313.62
572.755	318.62
572.966	307.62
573.178	313.62
573.389	320.62
573.6	310.62
573.811	299.62
574.023	304.62
574.234	302.62
574.445	297.62
574.656	312.62
574.867	296.62
575.078	308.62
575.289	315.62
575.501	305.62
575.712	299.62
575.923	296.62
576.134	316.62
576.345	304.62
576.556	307.62
576.767	305.62
576.978	306.62
577.188	283.62
577.399	294.62
577.61	309.62
577.821	286.62
578.032	288.62
578.243	293.62
578.454	399.62
578.665	339.62
578.875	297.62
579.086	282.62
579.297	289.62
579.508	272.62
579.718	276.62
579.929	260.62
580.14	275.62
580.35	272.62
580.561	257.62
580.772	283.62
580.982	277.62
581.193	268.62
581.403	266.62
581.614	265.62
581.825	264.62
582.035	262.62
582.246	265.62
582.456	272.62
582.667	271.62
582.877	250.62
583.087	260.62
583.298	269.62
583.508	262.62
583.719	265.62
583.929	285.62
584.139	261.62
584.35	263.62
584.56	257.62
584.77	282.62
584.981	263.62
585.191	280.62
585.401	265.62
585.611	257.62
585.821	251.62
586.032	269.62
586.242	269.62
586.452	264.62
586.662	246.62
586.872	264.62
587.082	284.62
587.292	261.62
587.502	244.62
587.713	252.62
587.923	275.62
588.133	264.62
588.343	251.62
588.553	261.62
588.762	271.62
588.972	273.62
589.182	322.62
589.392	297.62
589.602	290.62
589.812	292.62
590.022	266.62
590.232	268.62
590.441	255.62
590.651	258.62
590.861	254.62
591.071	272.62
591.281	263.62
591.49	257.62
591.7	274.62
591.91	277.62
592.119	291.62
592.329	285.62
592.539	296.62
592.748	302.62
592.958	302.62
593.167	301.62
593.377	325.62
593.587	311.62
593.796	304.62
594.006	327.62
594.215	321.62
594.424	300.62
594.634	312.62
594.843	312.62
595.053	310.62
595.262	276.62
595.472	296.62
595.681	259.62
595.89	270.62
596.1	255.62
596.309	268.62
596.518	272.62
596.727	240.62
596.937	252.62
597.146	236.62
597.355	246.62
597.564	258.62
597.774	251.62
597.983	242.62
598.192	238.62
598.401	252.62
598.61	243.62
598.819	237.62
599.028	233.62
599.237	245.62
599.446	228.62
599.655	209.62
599.864	236.62
600.073	222.62
600.282	231.62
600.491	238.62
600.7	232.62
600.909	220.62
601.118	223.62
601.327	218.62
601.536	232.62
601.745	233.62
601.953	248.62
602.162	236.62
602.371	218.62
602.58	246.62
602.789	250.62
602.997	222.62
603.206	237.62
603.415	216.62
603.623	208.62
603.832	202.62
604.041	217.62
604.249	228.62
604.458	218.62
604.666	204.62
604.875	211.62
605.084	218.62
605.292	218.62
605.501	220.62
605.709	206.62
605.918	216.62
606.126	216.62
606.334	220.62
606.543	223.62
606.751	212.62
606.96	211.62
607.168	216.62
607.376	216.62
607.585	230.62
607.793	225.62
608.001	238.62
608.21	207.62
608.418	208.62
608.626	218.62
608.834	200.62
609.043	212.62
609.251	226.62
609.459	211.62
609.667	216.62
609.875	205.62
610.083	200.62
610.291	200.62
610.499	218.62
610.707	217.62
610.916	205.62
611.124	220.62
611.332	227.62
611.54	219.62
611.748	209.62
611.955	203.62
612.163	205.62
612.371	195.62
612.579	206.62
612.787	220.62
612.995	209.62
613.203	225.62
613.411	200.62
613.618	211.62
613.826	225.62
614.034	204.62
614.242	224.62
614.449	208.62
614.657	208.62
614.865	209.62
615.072	227.62
615.28	217.62
615.488	219.62
615.695	222.62
615.903	235.62
616.111	210.62
616.318	225.62
616.526	205.62
616.733	221.62
616.941	224.62
617.148	208.62
617.356	217.62
617.563	203.62
617.771	204.62
617.978	205.62
618.185	210.62
618.393	227.62
618.6	209.62
618.807	208.62
619.015	200.62
619.222	205.62
619.429	203.62
619.637	219.62
619.844	202.62
620.051	194.62
620.258	188.62
620.466	190.62
620.673	194.62
620.88	194.62
621.087	188.62
621.294	201.62
621.501	196.62
621.708	205.62
621.915	186.62
622.122	198.62
622.329	191.62
622.536	187.62
622.743	216.62
622.95	212.62
623.157	186.62
623.364	192.62
623.571	198.62
623.778	186.62
623.985	186.62
624.192	208.62
624.399	201.62
624.606	196.62
624.812	197.62
625.019	201.62
625.226	182.62
625.433	194.62
625.639	190.62
625.846	197.62
626.053	185.62
626.259	181.62
626.466	189.62
626.673	189.62
626.879	190.62
627.086	194.62
627.293	184.62
627.499	185.62
627.706	182.62
627.912	201.62
628.119	189.62
628.325	184.62
628.532	173.62
628.738	186.62
628.945	190.62
629.151	179.62
629.357	176.62
629.564	175.62
629.77	188.62
629.976	182.62
630.183	178.62
630.389	170.62
630.595	185.62
630.802	202.62
631.008	172.62
631.214	168.62
631.42	179.62
631.627	180.62
631.833	185.62
632.039	173.62
632.245	172.62
632.451	173.62
632.657	178.62
632.863	163.62
633.069	160.62
633.275	167.62
633.481	168.62
633.688	177.62
633.893	175.62
634.099	150.62
634.305	148.62
634.511	170.62
634.717	161.62
634.923	162.62
635.129	160.62
635.335	160.62
635.541	168.62
635.747	146.62
635.952	166.62
636.158	169.62
636.364	173.62
636.57	167.62
636.775	171.62
636.981	172.62
637.187	164.62
637.392	181.62
637.598	172.62
637.804	166.62
638.009	166.62
638.215	154.62
638.421	178.62
638.626	178.62
638.832	156.62
639.037	145.62
639.243	146.62
639.448	155.62
639.654	160.62
639.859	154.62
640.065	160.62
640.27	158.62
640.475	152.62
640.681	165.62
640.886	169.62
641.091	163.62
641.297	164.62
641.502	156.62
641.707	148.62
641.913	162.62
642.118	152.62
642.323	150.62
642.528	158.62
642.733	148.62
642.939	154.62
643.144	149.62
643.349	160.62
643.554	153.62
643.759	149.62
643.964	168.62
644.169	132.62
644.374	162.62
644.579	149.62
644.784	155.62
644.989	162.62
645.194	151.62
645.399	152.62
645.604	137.62
645.809	148.62
646.014	139.62
646.219	153.62
646.423	158.62
646.628	156.62
646.833	152.62
647.038	165.62
647.243	172.62
647.447	155.62
647.652	157.62
647.857	156.62
648.062	165.62
648.266	155.62
648.471	165.62
648.676	168.62
648.88	157.62
649.085	159.62
649.289	143.62
649.494	166.62
649.698	187.62
649.903	168.62
650.107	141.62
650.312	158.62
650.516	160.62
650.721	141.62
650.925	155.62
651.13	161.62
651.334	157.62
651.539	137.62
651.743	137.62
651.947	140.62
652.152	145.62
652.356	155.62
652.56	143.62
652.764	142.62
652.969	131.62
653.173	122.62
653.377	127.62
653.581	131.62
653.785	130.62
653.99	138.62
654.194	130.62
654.398	136.62
654.602	128.62
654.806	140.62
655.01	138.62
655.214	149.62
655.418	128.62
655.622	128.62
655.826	145.62
656.03	124.62
656.234	141.62
656.438	140.62
656.642	140.62
656.846	138.62
657.049	142.62
657.253	129.62
657.457	117.62
657.661	117.62
657.865	119.62
658.068	99.62
658.272	113.62
658.476	110.62
658.68	116.62
658.883	101.62
659.087	108.62
659.291	86.62
659.494	96.62
659.698	92.62
659.901	99.62
660.105	104.62
660.309	85.62
660.512	99.62
660.716	77.62
660.919	99.62
661.123	105.62
661.326	95.62
661.53	84.62
661.733	83.62
661.936	81.62
662.14	74.62
662.343	85.62
662.546	86.62
662.75	75.62
662.953	94.62
663.156	68.62
663.36	80.62
663.563	97.62
663.766	69.62
663.969	88.62
664.173	83.62
664.376	69.62
664.579	91.62
664.782	94.62
664.985	76.62
665.188	80.62
665.391	81.62
665.594	83.62
665.797	80.62
666	73.62
666.203	86.62
666.406	82.62
666.609	83.62
666.812	80.62
667.015	93.62
667.218	88.62
667.421	90.62
667.624	93.62
667.827	72.62
668.03	72.62
668.232	81.62
668.435	87.62
668.638	95.62
668.841	89.62
669.043	83.62
669.246	86.62
669.449	73.62
669.651	67.62
669.854	74.62
670.057	76.62
670.259	79.62
670.462	91.62
670.665	70.62
670.867	60.62
671.07	77.62
671.272	72.62
671.475	98.62
671.677	82.62
671.88	73.62
672.082	88.62
672.284	72.62
672.487	84.62
672.689	79.62
672.892	78.62
