Data from 1960PennyLincolnUp.LampE6.200Scan.07172019.P1_HRD10591_13-05-48-002.txt Node
Date: Thu Jul 18 13:05:48 EDT 2019
User: cochatt
Spectrometer: HR+D1059
Trigger mode: 1
Integration Time (sec): 1.000000E-1
Scans to average: 1
Electric dark correction enabled: true
Nonlinearity correction enabled: false
Boxcar width: 0
XAxis mode: Wavelengths
Number of Pixels in Spectrum: 2048
>>>>>Begin Spectral Data<<<<<
223.165	-12.44
223.4	-12.44
223.635	-12.44
223.869	-17.44
224.104	-12.44
224.338	-15.44
224.573	-13.44
224.808	-15.44
225.042	-12.44
225.277	-16.44
225.511	-0.44
225.746	-8.44
225.98	20.56
226.215	17.56
226.449	23.56
226.683	17.56
226.918	12.56
227.152	32.56
227.387	25.56
227.621	15.56
227.856	45.56
228.09	51.56
228.324	47.56
228.559	56.56
228.793	66.56
229.027	90.56
229.262	94.56
229.496	95.56
229.73	106.56
229.964	135.56
230.199	99.56
230.433	106.56
230.667	106.56
230.901	90.56
231.136	96.56
231.37	94.56
231.604	111.56
231.838	106.56
232.072	108.56
232.306	108.56
232.541	116.56
232.775	106.56
233.009	112.56
233.243	106.56
233.477	108.56
233.711	107.56
233.945	105.56
234.179	109.56
234.413	112.56
234.647	113.56
234.881	107.56
235.115	100.56
235.349	115.56
235.583	105.56
235.817	111.56
236.051	105.56
236.285	116.56
236.519	124.56
236.753	119.56
236.987	129.56
237.221	148.56
237.455	160.56
237.689	148.56
237.922	141.56
238.156	117.56
238.39	122.56
238.624	128.56
238.858	120.56
239.091	118.56
239.325	119.56
239.559	109.56
239.793	132.56
240.027	124.56
240.26	125.56
240.494	134.56
240.728	114.56
240.961	127.56
241.195	134.56
241.429	119.56
241.662	133.56
241.896	120.56
242.13	132.56
242.363	118.56
242.597	117.56
242.83	125.56
243.064	114.56
243.298	126.56
243.531	136.56
243.765	134.56
243.998	133.56
244.232	128.56
244.465	139.56
244.699	138.56
244.932	140.56
245.166	131.56
245.399	137.56
245.633	135.56
245.866	143.56
246.099	130.56
246.333	142.56
246.566	136.56
246.8	149.56
247.033	148.56
247.266	138.56
247.5	139.56
247.733	140.56
247.966	160.56
248.2	158.56
248.433	141.56
248.666	167.56
248.899	174.56
249.133	168.56
249.366	170.56
249.599	174.56
249.832	156.56
250.066	161.56
250.299	164.56
250.532	177.56
250.765	192.56
250.998	219.56
251.231	186.56
251.465	176.56
251.698	165.56
251.931	170.56
252.164	177.56
252.397	178.56
252.63	175.56
252.863	187.56
253.096	183.56
253.329	196.56
253.562	192.56
253.795	188.56
254.028	204.56
254.261	183.56
254.494	214.56
254.727	201.56
254.96	249.56
255.193	230.56
255.426	206.56
255.659	188.56
255.892	184.56
256.124	213.56
256.357	213.56
256.59	199.56
256.823	189.56
257.056	183.56
257.289	179.56
257.521	180.56
257.754	178.56
257.987	183.56
258.22	193.56
258.452	191.56
258.685	162.56
258.918	186.56
259.151	187.56
259.383	203.56
259.616	197.56
259.849	197.56
260.081	211.56
260.314	215.56
260.547	240.56
260.779	226.56
261.012	206.56
261.244	209.56
261.477	203.56
261.71	190.56
261.942	198.56
262.175	180.56
262.407	218.56
262.64	204.56
262.872	190.56
263.105	207.56
263.337	208.56
263.57	223.56
263.802	203.56
264.035	200.56
264.267	191.56
264.499	206.56
264.732	208.56
264.964	204.56
265.197	211.56
265.429	195.56
265.661	201.56
265.894	207.56
266.126	182.56
266.358	204.56
266.591	218.56
266.823	227.56
267.055	219.56
267.287	236.56
267.52	220.56
267.752	222.56
267.984	227.56
268.216	206.56
268.448	228.56
268.681	227.56
268.913	231.56
269.145	238.56
269.377	247.56
269.609	246.56
269.841	219.56
270.073	232.56
270.306	262.56
270.538	287.56
270.77	276.56
271.002	251.56
271.234	247.56
271.466	244.56
271.698	268.56
271.93	274.56
272.162	292.56
272.394	279.56
272.626	281.56
272.858	258.56
273.09	264.56
273.322	249.56
273.553	225.56
273.785	244.56
274.017	255.56
274.249	254.56
274.481	244.56
274.713	265.56
274.945	249.56
275.176	251.56
275.408	261.56
275.64	262.56
275.872	259.56
276.104	249.56
276.335	263.56
276.567	247.56
276.799	251.56
277.031	292.56
277.262	289.56
277.494	290.56
277.726	282.56
277.957	272.56
278.189	258.56
278.421	269.56
278.652	261.56
278.884	253.56
279.115	251.56
279.347	263.56
279.579	246.56
279.81	266.56
280.042	263.56
280.273	264.56
280.505	265.56
280.736	267.56
280.968	256.56
281.199	272.56
281.431	271.56
281.662	270.56
281.894	265.56
282.125	261.56
282.356	303.56
282.588	293.56
282.819	268.56
283.051	294.56
283.282	274.56
283.513	276.56
283.745	279.56
283.976	284.56
284.207	292.56
284.439	281.56
284.67	273.56
284.901	288.56
285.132	301.56
285.364	290.56
285.595	294.56
285.826	283.56
286.057	292.56
286.288	288.56
286.52	296.56
286.751	273.56
286.982	283.56
287.213	290.56
287.444	299.56
287.675	278.56
287.906	294.56
288.138	318.56
288.369	316.56
288.6	293.56
288.831	332.56
289.062	298.56
289.293	301.56
289.524	302.56
289.755	304.56
289.986	288.56
290.217	285.56
290.448	289.56
290.679	304.56
290.91	299.56
291.141	294.56
291.371	284.56
291.602	298.56
291.833	290.56
292.064	309.56
292.295	299.56
292.526	317.56
292.757	303.56
292.987	307.56
293.218	314.56
293.449	309.56
293.68	300.56
293.91	300.56
294.141	294.56
294.372	302.56
294.603	309.56
294.833	302.56
295.064	293.56
295.295	291.56
295.525	310.56
295.756	313.56
295.987	313.56
296.217	341.56
296.448	335.56
296.679	307.56
296.909	313.56
297.14	320.56
297.37	302.56
297.601	312.56
297.831	311.56
298.062	324.56
298.292	318.56
298.523	321.56
298.753	301.56
298.984	323.56
299.214	321.56
299.445	303.56
299.675	305.56
299.905	341.56
300.136	329.56
300.366	333.56
300.597	326.56
300.827	349.56
301.057	338.56
301.288	346.56
301.518	333.56
301.748	328.56
301.979	362.56
302.209	354.56
302.439	347.56
302.669	346.56
302.9	348.56
303.13	330.56
303.36	326.56
303.59	339.56
303.82	342.56
304.051	351.56
304.281	324.56
304.511	332.56
304.741	332.56
304.971	356.56
305.201	358.56
305.431	336.56
305.661	314.56
305.891	326.56
306.121	347.56
306.352	322.56
306.582	329.56
306.812	325.56
307.042	338.56
307.272	350.56
307.502	333.56
307.731	333.56
307.961	337.56
308.191	322.56
308.421	353.56
308.651	348.56
308.881	340.56
309.111	340.56
309.341	354.56
309.571	352.56
309.8	333.56
310.03	370.56
310.26	366.56
310.49	359.56
310.72	352.56
310.949	344.56
311.179	366.56
311.409	340.56
311.639	349.56
311.868	354.56
312.098	362.56
312.328	372.56
312.557	379.56
312.787	383.56
313.017	392.56
313.246	358.56
313.476	359.56
313.706	371.56
313.935	376.56
314.165	379.56
314.394	385.56
314.624	385.56
314.853	392.56
315.083	367.56
315.312	366.56
315.542	376.56
315.771	379.56
316.001	389.56
316.23	383.56
316.46	364.56
316.689	379.56
316.919	383.56
317.148	384.56
317.377	380.56
317.607	378.56
317.836	369.56
318.065	387.56
318.295	370.56
318.524	395.56
318.753	352.56
318.983	361.56
319.212	361.56
319.441	369.56
319.67	393.56
319.9	389.56
320.129	386.56
320.358	402.56
320.587	387.56
320.816	389.56
321.046	379.56
321.275	380.56
321.504	381.56
321.733	398.56
321.962	387.56
322.191	395.56
322.42	403.56
322.649	381.56
322.878	412.56
323.108	415.56
323.337	424.56
323.566	419.56
323.795	453.56
324.024	470.56
324.253	540.56
324.482	694.56
324.71	990.56
324.939	1308.56
325.168	1107.56
325.397	612.56
325.626	480.56
325.855	466.56
326.084	442.56
326.313	438.56
326.542	450.56
326.77	466.56
326.999	515.56
327.228	680.56
327.457	900.56
327.686	1068.56
327.914	698.56
328.143	530.56
328.372	500.56
328.6	464.56
328.829	474.56
329.058	480.56
329.287	482.56
329.515	466.56
329.744	462.56
329.972	463.56
330.201	466.56
330.43	512.56
330.658	522.56
330.887	512.56
331.115	523.56
331.344	487.56
331.572	456.56
331.801	465.56
332.03	464.56
332.258	458.56
332.486	448.56
332.715	455.56
332.943	467.56
333.172	486.56
333.4	518.56
333.629	489.56
333.857	520.56
334.085	515.56
334.314	534.56
334.542	542.56
334.771	562.56
334.999	506.56
335.227	518.56
335.455	485.56
335.684	471.56
335.912	474.56
336.14	484.56
336.369	484.56
336.597	477.56
336.825	495.56
337.053	463.56
337.281	468.56
337.51	433.56
337.738	452.56
337.966	450.56
338.194	451.56
338.422	452.56
338.65	452.56
338.878	434.56
339.106	440.56
339.334	439.56
339.562	450.56
339.79	430.56
340.018	435.56
340.246	429.56
340.474	453.56
340.702	442.56
340.93	430.56
341.158	445.56
341.386	430.56
341.614	449.56
341.842	437.56
342.07	425.56
342.298	419.56
342.526	438.56
342.754	407.56
342.981	424.56
343.209	443.56
343.437	440.56
343.665	467.56
343.893	492.56
344.12	471.56
344.348	461.56
344.576	469.56
344.804	461.56
345.031	463.56
345.259	432.56
345.487	436.56
345.714	419.56
345.942	405.56
346.17	421.56
346.397	431.56
346.625	406.56
346.853	392.56
347.08	410.56
347.308	423.56
347.535	424.56
347.763	420.56
347.99	402.56
348.218	405.56
348.445	404.56
348.673	413.56
348.9	449.56
349.128	403.56
349.355	408.56
349.583	406.56
349.81	391.56
350.037	434.56
350.265	414.56
350.492	410.56
350.72	398.56
350.947	403.56
351.174	401.56
351.402	410.56
351.629	400.56
351.856	411.56
352.083	414.56
352.311	415.56
352.538	408.56
352.765	426.56
352.992	422.56
353.22	408.56
353.447	402.56
353.674	408.56
353.901	414.56
354.128	411.56
354.355	384.56
354.583	397.56
354.81	397.56
355.037	391.56
355.264	405.56
355.491	395.56
355.718	398.56
355.945	403.56
356.172	395.56
356.399	401.56
356.626	393.56
356.853	386.56
357.08	403.56
357.307	389.56
357.534	379.56
357.761	395.56
357.988	405.56
358.215	382.56
358.441	386.56
358.668	394.56
358.895	415.56
359.122	412.56
359.349	406.56
359.576	419.56
359.802	422.56
360.029	436.56
360.256	438.56
360.483	433.56
360.709	412.56
360.936	426.56
361.163	398.56
361.39	432.56
361.616	410.56
361.843	409.56
362.07	420.56
362.296	407.56
362.523	406.56
362.749	416.56
362.976	412.56
363.203	408.56
363.429	414.56
363.656	422.56
363.882	408.56
364.109	379.56
364.335	406.56
364.562	406.56
364.788	406.56
365.015	387.56
365.241	383.56
365.468	384.56
365.694	421.56
365.92	401.56
366.147	404.56
366.373	397.56
366.599	389.56
366.826	403.56
367.052	408.56
367.278	409.56
367.505	382.56
367.731	389.56
367.957	375.56
368.184	387.56
368.41	406.56
368.636	408.56
368.862	415.56
369.089	423.56
369.315	401.56
369.541	387.56
369.767	418.56
369.993	424.56
370.219	407.56
370.445	408.56
370.672	405.56
370.898	412.56
371.124	422.56
371.35	435.56
371.576	413.56
371.802	447.56
372.028	414.56
372.254	418.56
372.48	416.56
372.706	434.56
372.932	424.56
373.158	426.56
373.384	444.56
373.61	423.56
373.835	433.56
374.061	425.56
374.287	430.56
374.513	422.56
374.739	428.56
374.965	433.56
375.191	440.56
375.416	443.56
375.642	441.56
375.868	444.56
376.094	427.56
376.319	432.56
376.545	433.56
376.771	412.56
376.997	435.56
377.222	413.56
377.448	420.56
377.674	436.56
377.899	402.56
378.125	405.56
378.35	418.56
378.576	418.56
378.802	430.56
379.027	414.56
379.253	406.56
379.478	416.56
379.704	397.56
379.929	417.56
380.155	434.56
380.38	414.56
380.606	417.56
380.831	402.56
381.057	409.56
381.282	404.56
381.507	407.56
381.733	418.56
381.958	421.56
382.184	445.56
382.409	432.56
382.634	437.56
382.86	434.56
383.085	440.56
383.31	424.56
383.535	436.56
383.761	435.56
383.986	453.56
384.211	459.56
384.436	465.56
384.662	463.56
384.887	472.56
385.112	481.56
385.337	478.56
385.562	487.56
385.787	480.56
386.013	474.56
386.238	492.56
386.463	494.56
386.688	479.56
386.913	471.56
387.138	485.56
387.363	481.56
387.588	469.56
387.813	490.56
388.038	470.56
388.263	477.56
388.488	487.56
388.713	476.56
388.938	474.56
389.163	471.56
389.387	479.56
389.612	485.56
389.837	499.56
390.062	469.56
390.287	491.56
390.512	472.56
390.736	492.56
390.961	473.56
391.186	481.56
391.411	478.56
391.636	519.56
391.86	497.56
392.085	504.56
392.31	511.56
392.534	517.56
392.759	510.56
392.984	499.56
393.208	501.56
393.433	503.56
393.658	499.56
393.882	478.56
394.107	478.56
394.331	494.56
394.556	501.56
394.78	497.56
395.005	496.56
395.229	504.56
395.454	530.56
395.678	514.56
395.903	528.56
396.127	529.56
396.352	500.56
396.576	517.56
396.801	486.56
397.025	528.56
397.249	499.56
397.474	488.56
397.698	509.56
397.922	514.56
398.147	556.56
398.371	544.56
398.595	526.56
398.82	550.56
399.044	594.56
399.268	641.56
399.492	695.56
399.717	765.56
399.941	786.56
400.165	735.56
400.389	685.56
400.613	619.56
400.837	586.56
401.062	580.56
401.286	569.56
401.51	568.56
401.734	535.56
401.958	572.56
402.182	570.56
402.406	588.56
402.63	580.56
402.854	580.56
403.078	585.56
403.302	609.56
403.526	622.56
403.75	619.56
403.974	646.56
404.198	591.56
404.422	628.56
404.645	647.56
404.869	610.56
405.093	660.56
405.317	693.56
405.541	703.56
405.765	667.56
405.988	630.56
406.212	611.56
406.436	618.56
406.66	640.56
406.883	639.56
407.107	661.56
407.331	688.56
407.555	738.56
407.778	748.56
408.002	713.56
408.226	652.56
408.449	663.56
408.673	676.56
408.896	650.56
409.12	662.56
409.344	634.56
409.567	594.56
409.791	606.56
410.014	612.56
410.238	613.56
410.461	597.56
410.685	581.56
410.908	608.56
411.132	628.56
411.355	621.56
411.578	624.56
411.802	597.56
412.025	586.56
412.249	601.56
412.472	605.56
412.695	624.56
412.919	609.56
413.142	598.56
413.365	560.56
413.589	538.56
413.812	555.56
414.035	558.56
414.258	563.56
414.482	550.56
414.705	565.56
414.928	572.56
415.151	582.56
415.374	570.56
415.597	582.56
415.821	559.56
416.044	536.56
416.267	565.56
416.49	553.56
416.713	549.56
416.936	567.56
417.159	551.56
417.382	545.56
417.605	546.56
417.828	568.56
418.051	574.56
418.274	554.56
418.497	557.56
418.72	572.56
418.943	560.56
419.166	583.56
419.389	632.56
419.611	625.56
419.834	600.56
420.057	592.56
420.28	584.56
420.503	570.56
420.726	561.56
420.948	562.56
421.171	610.56
421.394	585.56
421.617	588.56
421.839	587.56
422.062	583.56
422.285	593.56
422.507	624.56
422.73	649.56
422.953	654.56
423.175	596.56
423.398	610.56
423.621	588.56
423.843	608.56
424.066	585.56
424.288	617.56
424.511	615.56
424.733	637.56
424.956	679.56
425.178	669.56
425.401	661.56
425.623	675.56
425.846	587.56
426.068	576.56
426.291	554.56
426.513	558.56
426.735	555.56
426.958	589.56
427.18	635.56
427.402	728.56
427.625	766.56
427.847	666.56
428.069	626.56
428.292	557.56
428.514	530.56
428.736	526.56
428.958	502.56
429.181	509.56
429.403	509.56
429.625	515.56
429.847	549.56
430.069	581.56
430.292	579.56
430.514	523.56
430.736	530.56
430.958	514.56
431.18	510.56
431.402	493.56
431.624	503.56
431.846	520.56
432.068	518.56
432.29	514.56
432.512	485.56
432.734	538.56
432.956	519.56
433.178	521.56
433.4	535.56
433.622	535.56
433.844	525.56
434.066	512.56
434.287	510.56
434.509	545.56
434.731	540.56
434.953	539.56
435.175	578.56
435.397	596.56
435.618	580.56
435.84	598.56
436.062	619.56
436.284	678.56
436.505	589.56
436.727	543.56
436.949	538.56
437.17	523.56
437.392	516.56
437.614	499.56
437.835	531.56
438.057	592.56
438.278	638.56
438.5	665.56
438.721	704.56
438.943	656.56
439.165	553.56
439.386	554.56
439.608	578.56
439.829	555.56
440.05	564.56
440.272	627.56
440.493	574.56
440.715	536.56
440.936	530.56
441.158	533.56
441.379	535.56
441.6	552.56
441.822	588.56
442.043	599.56
442.264	664.56
442.486	684.56
442.707	594.56
442.928	564.56
443.149	571.56
443.371	586.56
443.592	616.56
443.813	701.56
444.034	700.56
444.255	642.56
444.476	600.56
444.698	594.56
444.919	620.56
445.14	732.56
445.361	654.56
445.582	594.56
445.803	626.56
446.024	683.56
446.245	686.56
446.466	639.56
446.687	535.56
446.908	535.56
447.129	527.56
447.35	508.56
447.571	499.56
447.792	498.56
448.013	498.56
448.234	501.56
448.455	556.56
448.675	596.56
448.896	674.56
449.117	584.56
449.338	589.56
449.559	624.56
449.779	689.56
450	576.56
450.221	525.56
450.442	495.56
450.662	486.56
450.883	486.56
451.104	510.56
451.324	471.56
451.545	485.56
451.766	483.56
451.986	445.56
452.207	453.56
452.428	459.56
452.648	455.56
452.869	443.56
453.089	466.56
453.31	484.56
453.53	447.56
453.751	477.56
453.971	451.56
454.192	483.56
454.412	451.56
454.633	443.56
454.853	430.56
455.073	453.56
455.294	482.56
455.514	510.56
455.734	475.56
455.955	428.56
456.175	431.56
456.395	414.56
456.616	439.56
456.836	445.56
457.056	446.56
457.276	441.56
457.497	454.56
457.717	440.56
457.937	438.56
458.157	437.56
458.377	450.56
458.598	458.56
458.818	490.56
459.038	559.56
459.258	582.56
459.478	530.56
459.698	515.56
459.918	522.56
460.138	519.56
460.358	529.56
460.578	554.56
460.798	549.56
461.018	540.56
461.238	531.56
461.458	519.56
461.678	541.56
461.898	524.56
462.118	533.56
462.338	553.56
462.558	574.56
462.777	582.56
462.997	641.56
463.217	640.56
463.437	647.56
463.657	612.56
463.876	605.56
464.096	582.56
464.316	591.56
464.536	604.56
464.755	593.56
464.975	583.56
465.195	582.56
465.414	586.56
465.634	540.56
465.854	523.56
466.073	488.56
466.293	482.56
466.512	495.56
466.732	463.56
466.951	499.56
467.171	486.56
467.391	504.56
467.61	471.56
467.829	476.56
468.049	475.56
468.268	470.56
468.488	454.56
468.707	462.56
468.927	461.56
469.146	458.56
469.365	474.56
469.585	456.56
469.804	486.56
470.023	494.56
470.243	486.56
470.462	480.56
470.681	492.56
470.901	503.56
471.12	483.56
471.339	492.56
471.558	474.56
471.777	505.56
471.997	484.56
472.216	485.56
472.435	507.56
472.654	488.56
472.873	476.56
473.092	452.56
473.311	466.56
473.53	454.56
473.749	460.56
473.968	492.56
474.187	558.56
474.406	543.56
474.625	492.56
474.844	471.56
475.063	464.56
475.282	455.56
475.501	459.56
475.72	462.56
475.939	478.56
476.158	479.56
476.377	484.56
476.596	494.56
476.814	507.56
477.033	487.56
477.252	490.56
477.471	519.56
477.69	510.56
477.908	535.56
478.127	506.56
478.346	527.56
478.564	546.56
478.783	554.56
479.002	539.56
479.22	558.56
479.439	558.56
479.658	580.56
479.876	571.56
480.095	566.56
480.313	614.56
480.532	613.56
480.751	599.56
480.969	589.56
481.188	642.56
481.406	638.56
481.624	587.56
481.843	565.56
482.061	524.56
482.28	546.56
482.498	538.56
482.717	526.56
482.935	528.56
483.153	555.56
483.372	527.56
483.59	547.56
483.808	543.56
484.027	559.56
484.245	539.56
484.463	547.56
484.681	559.56
484.9	554.56
485.118	549.56
485.336	560.56
485.554	556.56
485.772	568.56
485.99	571.56
486.209	564.56
486.427	572.56
486.645	559.56
486.863	596.56
487.081	605.56
487.299	566.56
487.517	574.56
487.735	572.56
487.953	582.56
488.171	581.56
488.389	586.56
488.607	561.56
488.825	575.56
489.043	565.56
489.261	589.56
489.479	573.56
489.696	564.56
489.914	586.56
490.132	584.56
490.35	609.56
490.568	579.56
490.786	613.56
491.003	622.56
491.221	610.56
491.439	599.56
491.657	642.56
491.874	656.56
492.092	636.56
492.31	645.56
492.527	661.56
492.745	652.56
492.963	659.56
493.18	660.56
493.398	654.56
493.615	687.56
493.833	655.56
494.05	654.56
494.268	667.56
494.485	652.56
494.703	655.56
494.92	646.56
495.138	656.56
495.355	661.56
495.573	678.56
495.79	653.56
496.008	632.56
496.225	636.56
496.442	676.56
496.66	670.56
496.877	669.56
497.094	676.56
497.312	680.56
497.529	692.56
497.746	701.56
497.963	709.56
498.181	747.56
498.398	772.56
498.615	778.56
498.832	814.56
499.049	846.56
499.267	880.56
499.484	939.56
499.701	1027.56
499.918	1075.56
500.135	1141.56
500.352	1264.56
500.569	1278.56
500.786	1280.56
501.003	1215.56
501.22	1170.56
501.437	1087.56
501.654	1010.56
501.871	924.56
502.088	920.56
502.305	836.56
502.522	814.56
502.739	764.56
502.956	766.56
503.172	742.56
503.389	692.56
503.606	695.56
503.823	684.56
504.04	689.56
504.256	693.56
504.473	711.56
504.69	690.56
504.907	705.56
505.123	673.56
505.34	625.56
505.557	603.56
505.773	645.56
505.99	627.56
506.207	599.56
506.423	587.56
506.64	623.56
506.856	583.56
507.073	590.56
507.289	601.56
507.506	595.56
507.722	572.56
507.939	615.56
508.155	594.56
508.372	578.56
508.588	556.56
508.805	583.56
509.021	567.56
509.238	571.56
509.454	549.56
509.67	584.56
509.887	565.56
510.103	573.56
510.319	571.56
510.536	619.56
510.752	867.56
510.968	719.56
511.184	559.56
511.401	531.56
511.617	531.56
511.833	532.56
512.049	518.56
512.265	542.56
512.481	523.56
512.698	534.56
512.914	511.56
513.13	524.56
513.346	517.56
513.562	523.56
513.778	527.56
513.994	549.56
514.21	535.56
514.426	546.56
514.642	563.56
514.858	576.56
515.074	600.56
515.29	673.56
515.506	904.56
515.721	796.56
515.937	611.56
516.153	589.56
516.369	579.56
516.585	599.56
516.801	567.56
517.016	601.56
517.232	592.56
517.448	631.56
517.664	634.56
517.879	608.56
518.095	634.56
518.311	628.56
518.527	618.56
518.742	617.56
518.958	606.56
519.173	578.56
519.389	567.56
519.605	558.56
519.82	567.56
520.036	562.56
520.251	550.56
520.467	554.56
520.682	548.56
520.898	545.56
521.113	561.56
521.329	572.56
521.544	607.56
521.76	717.56
521.975	1094.56
522.19	1100.56
522.406	693.56
522.621	555.56
522.836	506.56
523.052	525.56
523.267	500.56
523.482	498.56
523.698	488.56
523.913	489.56
524.128	463.56
524.343	459.56
524.559	473.56
524.774	463.56
524.989	490.56
525.204	476.56
525.419	460.56
525.634	474.56
525.849	447.56
526.064	455.56
526.28	446.56
526.495	472.56
526.71	474.56
526.925	454.56
527.14	440.56
527.355	454.56
527.57	462.56
527.785	493.56
527.999	462.56
528.214	446.56
528.429	452.56
528.644	453.56
528.859	467.56
529.074	453.56
529.289	477.56
529.503	520.56
529.718	488.56
529.933	472.56
530.148	461.56
530.363	444.56
530.577	433.56
530.792	458.56
531.007	454.56
531.221	434.56
531.436	456.56
531.651	450.56
531.865	430.56
532.08	446.56
532.295	457.56
532.509	456.56
532.724	448.56
532.938	447.56
533.153	446.56
533.367	449.56
533.582	448.56
533.796	462.56
534.011	442.56
534.225	434.56
534.44	449.56
534.654	441.56
534.868	435.56
535.083	436.56
535.297	428.56
535.511	431.56
535.726	425.56
535.94	439.56
536.154	452.56
536.369	434.56
536.583	418.56
536.797	411.56
537.011	427.56
537.225	406.56
537.44	431.56
537.654	423.56
537.868	418.56
538.082	432.56
538.296	424.56
538.51	431.56
538.724	431.56
538.938	429.56
539.153	414.56
539.367	429.56
539.581	451.56
539.795	410.56
540.009	414.56
540.222	403.56
540.436	416.56
540.65	414.56
540.864	421.56
541.078	431.56
541.292	425.56
541.506	443.56
541.72	435.56
541.934	421.56
542.147	437.56
542.361	440.56
542.575	415.56
542.789	416.56
543.002	419.56
543.216	402.56
543.43	417.56
543.644	428.56
543.857	420.56
544.071	404.56
544.285	425.56
544.498	416.56
544.712	410.56
544.925	424.56
545.139	416.56
545.352	416.56
545.566	426.56
545.779	416.56
545.993	414.56
546.206	428.56
546.42	422.56
546.633	430.56
546.847	439.56
547.06	421.56
547.274	411.56
547.487	428.56
547.7	438.56
547.914	415.56
548.127	417.56
548.34	424.56
548.554	428.56
548.767	428.56
548.98	412.56
549.193	430.56
549.407	435.56
549.62	441.56
549.833	438.56
550.046	412.56
550.259	420.56
550.473	415.56
550.686	434.56
550.899	414.56
551.112	411.56
551.325	406.56
551.538	416.56
551.751	394.56
551.964	402.56
552.177	406.56
552.39	414.56
552.603	441.56
552.816	435.56
553.029	443.56
553.242	450.56
553.455	426.56
553.667	454.56
553.88	450.56
554.093	438.56
554.306	453.56
554.519	430.56
554.732	402.56
554.944	410.56
555.157	412.56
555.37	422.56
555.583	393.56
555.795	414.56
556.008	404.56
556.221	374.56
556.433	383.56
556.646	382.56
556.859	376.56
557.071	371.56
557.284	383.56
557.496	370.56
557.709	372.56
557.921	362.56
558.134	354.56
558.346	371.56
558.559	369.56
558.771	364.56
558.984	360.56
559.196	370.56
559.409	350.56
559.621	325.56
559.833	373.56
560.046	358.56
560.258	371.56
560.47	388.56
560.683	364.56
560.895	363.56
561.107	361.56
561.32	356.56
561.532	355.56
561.744	352.56
561.956	351.56
562.168	369.56
562.381	371.56
562.593	365.56
562.805	372.56
563.017	376.56
563.229	371.56
563.441	382.56
563.653	347.56
563.865	375.56
564.077	352.56
564.289	370.56
564.501	368.56
564.713	376.56
564.925	374.56
565.137	408.56
565.349	414.56
565.561	382.56
565.773	406.56
565.985	419.56
566.197	444.56
566.408	447.56
566.62	476.56
566.832	512.56
567.044	496.56
567.255	539.56
567.467	538.56
567.679	560.56
567.891	590.56
568.102	603.56
568.314	578.56
568.526	514.56
568.737	493.56
568.949	466.56
569.161	436.56
569.372	414.56
569.584	390.56
569.795	400.56
570.007	398.56
570.218	420.56
570.43	403.56
570.641	368.56
570.853	358.56
571.064	362.56
571.276	367.56
571.487	360.56
571.698	368.56
571.91	354.56
572.121	336.56
572.333	326.56
572.544	328.56
572.755	324.56
572.966	317.56
573.178	317.56
573.389	329.56
573.6	303.56
573.811	315.56
574.023	304.56
574.234	293.56
574.445	311.56
574.656	312.56
574.867	313.56
575.078	306.56
575.289	293.56
575.501	290.56
575.712	313.56
575.923	294.56
576.134	300.56
576.345	298.56
576.556	289.56
576.767	301.56
576.978	307.56
577.188	298.56
577.399	290.56
577.61	300.56
577.821	293.56
578.032	284.56
578.243	298.56
578.454	413.56
578.665	339.56
578.875	285.56
579.086	284.56
579.297	293.56
579.508	294.56
579.718	278.56
579.929	278.56
580.14	285.56
580.35	275.56
580.561	276.56
580.772	283.56
580.982	266.56
581.193	268.56
581.403	279.56
581.614	277.56
581.825	278.56
582.035	267.56
582.246	287.56
582.456	258.56
582.667	276.56
582.877	285.56
583.087	264.56
583.298	282.56
583.508	275.56
583.719	266.56
583.929	271.56
584.139	254.56
584.35	265.56
584.56	262.56
584.77	278.56
584.981	258.56
585.191	256.56
585.401	277.56
585.611	270.56
585.821	261.56
586.032	255.56
586.242	269.56
586.452	268.56
586.662	270.56
586.872	262.56
587.082	259.56
587.292	248.56
587.502	269.56
587.713	242.56
587.923	257.56
588.133	264.56
588.343	250.56
588.553	265.56
588.762	273.56
588.972	274.56
589.182	313.56
589.392	303.56
589.602	266.56
589.812	300.56
590.022	306.56
590.232	267.56
590.441	272.56
590.651	274.56
590.861	264.56
591.071	270.56
591.281	276.56
591.49	263.56
591.7	286.56
591.91	266.56
592.119	282.56
592.329	298.56
592.539	292.56
592.748	304.56
592.958	300.56
593.167	303.56
593.377	300.56
593.587	333.56
593.796	327.56
594.006	316.56
594.215	305.56
594.424	309.56
594.634	295.56
594.843	311.56
595.053	282.56
595.262	309.56
595.472	275.56
595.681	282.56
595.89	253.56
596.1	275.56
596.309	270.56
596.518	263.56
596.727	261.56
596.937	270.56
597.146	258.56
597.355	277.56
597.564	240.56
597.774	257.56
597.983	239.56
598.192	242.56
598.401	246.56
598.61	242.56
598.819	238.56
599.028	238.56
599.237	247.56
599.446	242.56
599.655	227.56
599.864	242.56
600.073	256.56
600.282	238.56
600.491	243.56
600.7	247.56
600.909	231.56
601.118	220.56
601.327	233.56
601.536	237.56
601.745	233.56
601.953	246.56
602.162	237.56
602.371	218.56
602.58	249.56
602.789	238.56
602.997	242.56
603.206	225.56
603.415	234.56
603.623	222.56
603.832	235.56
604.041	229.56
604.249	242.56
604.458	224.56
604.666	212.56
604.875	215.56
605.084	207.56
605.292	215.56
605.501	220.56
605.709	216.56
605.918	236.56
606.126	221.56
606.334	234.56
606.543	220.56
606.751	233.56
606.96	241.56
607.168	227.56
607.376	224.56
607.585	215.56
607.793	220.56
608.001	218.56
608.21	221.56
608.418	206.56
608.626	213.56
608.834	215.56
609.043	214.56
609.251	193.56
609.459	229.56
609.667	230.56
609.875	213.56
610.083	224.56
610.291	222.56
610.499	199.56
610.707	232.56
610.916	240.56
611.124	245.56
611.332	226.56
611.54	222.56
611.748	211.56
611.955	216.56
612.163	216.56
612.371	206.56
612.579	210.56
612.787	222.56
612.995	220.56
613.203	214.56
613.411	207.56
613.618	202.56
613.826	222.56
614.034	218.56
614.242	219.56
614.449	223.56
614.657	210.56
614.865	222.56
615.072	216.56
615.28	202.56
615.488	220.56
615.695	208.56
615.903	226.56
616.111	218.56
616.318	216.56
616.526	236.56
616.733	221.56
616.941	211.56
617.148	211.56
617.356	218.56
617.563	222.56
617.771	211.56
617.978	215.56
618.185	219.56
618.393	220.56
618.6	230.56
618.807	219.56
619.015	211.56
619.222	212.56
619.429	196.56
619.637	204.56
619.844	211.56
620.051	194.56
620.258	204.56
620.466	199.56
620.673	191.56
620.88	193.56
621.087	190.56
621.294	209.56
621.501	196.56
621.708	204.56
621.915	194.56
622.122	213.56
622.329	196.56
622.536	206.56
622.743	195.56
622.95	190.56
623.157	200.56
623.364	213.56
623.571	197.56
623.778	206.56
623.985	202.56
624.192	193.56
624.399	162.56
624.606	191.56
624.812	206.56
625.019	205.56
625.226	194.56
625.433	189.56
625.639	179.56
625.846	196.56
626.053	193.56
626.259	189.56
626.466	194.56
626.673	210.56
626.879	193.56
627.086	194.56
627.293	193.56
627.499	190.56
627.706	175.56
627.912	180.56
628.119	185.56
628.325	205.56
628.532	174.56
628.738	175.56
628.945	190.56
629.151	194.56
629.357	164.56
629.564	179.56
629.77	175.56
629.976	171.56
630.183	185.56
630.389	180.56
630.595	184.56
630.802	178.56
631.008	168.56
631.214	174.56
631.42	174.56
631.627	170.56
631.833	154.56
632.039	186.56
632.245	192.56
632.451	197.56
632.657	166.56
632.863	190.56
633.069	157.56
633.275	170.56
633.481	160.56
633.688	155.56
633.893	171.56
634.099	158.56
634.305	179.56
634.511	172.56
634.717	150.56
634.923	172.56
635.129	172.56
635.335	164.56
635.541	171.56
635.747	164.56
635.952	147.56
636.158	168.56
636.364	171.56
636.57	170.56
636.775	173.56
636.981	167.56
637.187	166.56
637.392	188.56
637.598	177.56
637.804	180.56
638.009	165.56
638.215	171.56
638.421	170.56
638.626	174.56
638.832	170.56
639.037	160.56
639.243	170.56
639.448	172.56
639.654	163.56
639.859	161.56
640.065	165.56
640.27	168.56
640.475	177.56
640.681	167.56
640.886	165.56
641.091	157.56
641.297	176.56
641.502	151.56
641.707	150.56
641.913	160.56
642.118	151.56
642.323	157.56
642.528	151.56
642.733	161.56
642.939	166.56
643.144	177.56
643.349	171.56
643.554	165.56
643.759	145.56
643.964	155.56
644.169	167.56
644.374	149.56
644.579	157.56
644.784	154.56
644.989	143.56
645.194	151.56
645.399	164.56
645.604	158.56
645.809	162.56
646.014	160.56
646.219	150.56
646.423	150.56
646.628	145.56
646.833	148.56
647.038	170.56
647.243	154.56
647.447	162.56
647.652	165.56
647.857	170.56
648.062	149.56
648.266	163.56
648.471	166.56
648.676	165.56
648.88	177.56
649.085	170.56
649.289	154.56
649.494	165.56
649.698	163.56
649.903	164.56
650.107	165.56
650.312	172.56
650.516	139.56
650.721	171.56
650.925	148.56
651.13	139.56
651.334	138.56
651.539	155.56
651.743	151.56
651.947	138.56
652.152	141.56
652.356	152.56
652.56	136.56
652.764	134.56
652.969	143.56
653.173	133.56
653.377	127.56
653.581	128.56
653.785	144.56
653.99	143.56
654.194	143.56
654.398	134.56
654.602	138.56
654.806	139.56
655.01	132.56
655.214	128.56
655.418	130.56
655.622	147.56
655.826	148.56
656.03	141.56
656.234	131.56
656.438	150.56
656.642	145.56
656.846	138.56
657.049	132.56
657.253	128.56
657.457	111.56
657.661	131.56
657.865	111.56
658.068	132.56
658.272	116.56
658.476	104.56
658.68	95.56
658.883	109.56
659.087	99.56
659.291	101.56
659.494	108.56
659.698	94.56
659.901	99.56
660.105	99.56
660.309	97.56
660.512	101.56
660.716	87.56
660.919	80.56
661.123	98.56
661.326	94.56
661.53	91.56
661.733	84.56
661.936	74.56
662.14	84.56
662.343	85.56
662.546	78.56
662.75	88.56
662.953	106.56
663.156	91.56
663.36	72.56
663.563	88.56
663.766	78.56
663.969	90.56
664.173	86.56
664.376	87.56
664.579	75.56
664.782	68.56
664.985	86.56
665.188	74.56
665.391	80.56
665.594	74.56
665.797	79.56
666	78.56
666.203	74.56
666.406	74.56
666.609	59.56
666.812	92.56
667.015	93.56
667.218	79.56
667.421	67.56
667.624	77.56
667.827	93.56
668.03	86.56
668.232	74.56
668.435	61.56
668.638	86.56
668.841	87.56
669.043	78.56
669.246	88.56
669.449	85.56
669.651	66.56
669.854	89.56
670.057	75.56
670.259	85.56
670.462	69.56
670.665	74.56
670.867	89.56
671.07	80.56
671.272	84.56
671.475	75.56
671.677	82.56
671.88	68.56
672.082	74.56
672.284	78.56
672.487	77.56
672.689	72.56
672.892	95.56
