Data from 1960PennyLincolnUp.LampE5.5.200Scan.07172019.P1.ChangedAngle_HRD10591_13-15-18-821.txt Node
Date: Thu Jul 18 13:15:18 EDT 2019
User: cochatt
Spectrometer: HR+D1059
Trigger mode: 1
Integration Time (sec): 1.000000E-1
Scans to average: 1
Electric dark correction enabled: true
Nonlinearity correction enabled: false
Boxcar width: 0
XAxis mode: Wavelengths
Number of Pixels in Spectrum: 2048
>>>>>Begin Spectral Data<<<<<
223.165	-16.25
223.4	-16.25
223.635	-16.25
223.869	-22.25
224.104	-23.25
224.338	-10.25
224.573	-17.25
224.808	-28.25
225.042	-16.25
225.277	-7.25
225.511	15.75
225.746	12.75
225.98	6.75
226.215	18.75
226.449	10.75
226.683	23.75
226.918	15.75
227.152	36.75
227.387	35.75
227.621	36.75
227.856	39.75
228.09	43.75
228.324	56.75
228.559	62.75
228.793	71.75
229.027	87.75
229.262	78.75
229.496	96.75
229.73	114.75
229.964	121.75
230.199	105.75
230.433	99.75
230.667	98.75
230.901	115.75
231.136	105.75
231.37	103.75
231.604	119.75
231.838	103.75
232.072	113.75
232.306	128.75
232.541	126.75
232.775	96.75
233.009	115.75
233.243	106.75
233.477	119.75
233.711	113.75
233.945	117.75
234.179	107.75
234.413	125.75
234.647	105.75
234.881	113.75
235.115	109.75
235.349	112.75
235.583	117.75
235.817	115.75
236.051	108.75
236.285	125.75
236.519	120.75
236.753	131.75
236.987	122.75
237.221	139.75
237.455	193.75
237.689	154.75
237.922	114.75
238.156	126.75
238.39	133.75
238.624	130.75
238.858	115.75
239.091	111.75
239.325	131.75
239.559	115.75
239.793	121.75
240.027	105.75
240.26	144.75
240.494	131.75
240.728	144.75
240.961	133.75
241.195	135.75
241.429	134.75
241.662	129.75
241.896	133.75
242.13	118.75
242.363	129.75
242.597	115.75
242.83	135.75
243.064	139.75
243.298	137.75
243.531	129.75
243.765	132.75
243.998	132.75
244.232	133.75
244.465	133.75
244.699	135.75
244.932	133.75
245.166	137.75
245.399	138.75
245.633	148.75
245.866	135.75
246.099	156.75
246.333	137.75
246.566	125.75
246.8	135.75
247.033	153.75
247.266	143.75
247.5	159.75
247.733	148.75
247.966	165.75
248.2	167.75
248.433	169.75
248.666	148.75
248.899	179.75
249.133	171.75
249.366	188.75
249.599	170.75
249.832	169.75
250.066	181.75
250.299	181.75
250.532	185.75
250.765	193.75
250.998	181.75
251.231	202.75
251.465	196.75
251.698	195.75
251.931	193.75
252.164	198.75
252.397	191.75
252.63	197.75
252.863	194.75
253.096	198.75
253.329	199.75
253.562	181.75
253.795	192.75
254.028	196.75
254.261	188.75
254.494	193.75
254.727	213.75
254.96	230.75
255.193	246.75
255.426	212.75
255.659	206.75
255.892	214.75
256.124	215.75
256.357	221.75
256.59	206.75
256.823	206.75
257.056	203.75
257.289	227.75
257.521	208.75
257.754	184.75
257.987	186.75
258.22	196.75
258.452	202.75
258.685	185.75
258.918	218.75
259.151	212.75
259.383	221.75
259.616	201.75
259.849	216.75
260.081	208.75
260.314	227.75
260.547	229.75
260.779	228.75
261.012	216.75
261.244	215.75
261.477	220.75
261.71	213.75
261.942	209.75
262.175	220.75
262.407	201.75
262.64	190.75
262.872	202.75
263.105	203.75
263.337	211.75
263.57	225.75
263.802	212.75
264.035	223.75
264.267	199.75
264.499	202.75
264.732	211.75
264.964	215.75
265.197	211.75
265.429	211.75
265.661	198.75
265.894	208.75
266.126	217.75
266.358	193.75
266.591	216.75
266.823	198.75
267.055	213.75
267.287	217.75
267.52	216.75
267.752	221.75
267.984	212.75
268.216	223.75
268.448	232.75
268.681	227.75
268.913	242.75
269.145	222.75
269.377	252.75
269.609	252.75
269.841	248.75
270.073	256.75
270.306	254.75
270.538	287.75
270.77	271.75
271.002	283.75
271.234	277.75
271.466	273.75
271.698	297.75
271.93	276.75
272.162	273.75
272.394	277.75
272.626	263.75
272.858	265.75
273.09	248.75
273.322	267.75
273.553	264.75
273.785	254.75
274.017	252.75
274.249	276.75
274.481	266.75
274.713	256.75
274.945	260.75
275.176	270.75
275.408	255.75
275.64	258.75
275.872	262.75
276.104	258.75
276.335	253.75
276.567	254.75
276.799	284.75
277.031	283.75
277.262	272.75
277.494	289.75
277.726	291.75
277.957	275.75
278.189	274.75
278.421	256.75
278.652	280.75
278.884	262.75
279.115	273.75
279.347	271.75
279.579	262.75
279.81	273.75
280.042	246.75
280.273	251.75
280.505	280.75
280.736	266.75
280.968	263.75
281.199	265.75
281.431	284.75
281.662	261.75
281.894	273.75
282.125	287.75
282.356	270.75
282.588	284.75
282.819	285.75
283.051	294.75
283.282	268.75
283.513	270.75
283.745	278.75
283.976	268.75
284.207	278.75
284.439	280.75
284.67	293.75
284.901	271.75
285.132	284.75
285.364	285.75
285.595	271.75
285.826	287.75
286.057	266.75
286.288	289.75
286.52	273.75
286.751	269.75
286.982	292.75
287.213	278.75
287.444	272.75
287.675	281.75
287.906	292.75
288.138	306.75
288.369	294.75
288.6	280.75
288.831	312.75
289.062	272.75
289.293	291.75
289.524	276.75
289.755	291.75
289.986	280.75
290.217	313.75
290.448	296.75
290.679	302.75
290.91	298.75
291.141	287.75
291.371	275.75
291.602	284.75
291.833	309.75
292.064	300.75
292.295	281.75
292.526	297.75
292.757	279.75
292.987	291.75
293.218	279.75
293.449	307.75
293.68	296.75
293.91	291.75
294.141	302.75
294.372	296.75
294.603	295.75
294.833	308.75
295.064	307.75
295.295	302.75
295.525	293.75
295.756	291.75
295.987	317.75
296.217	309.75
296.448	337.75
296.679	318.75
296.909	294.75
297.14	296.75
297.37	316.75
297.601	289.75
297.831	310.75
298.062	311.75
298.292	301.75
298.523	284.75
298.753	304.75
298.984	306.75
299.214	318.75
299.445	326.75
299.675	305.75
299.905	321.75
300.136	308.75
300.366	310.75
300.597	314.75
300.827	319.75
301.057	322.75
301.288	332.75
301.518	324.75
301.748	316.75
301.979	320.75
302.209	327.75
302.439	300.75
302.669	332.75
302.9	324.75
303.13	324.75
303.36	339.75
303.59	337.75
303.82	334.75
304.051	333.75
304.281	327.75
304.511	333.75
304.741	335.75
304.971	317.75
305.201	303.75
305.431	339.75
305.661	355.75
305.891	325.75
306.121	325.75
306.352	333.75
306.582	353.75
306.812	319.75
307.042	315.75
307.272	339.75
307.502	350.75
307.731	340.75
307.961	327.75
308.191	325.75
308.421	332.75
308.651	322.75
308.881	335.75
309.111	335.75
309.341	336.75
309.571	361.75
309.8	350.75
310.03	351.75
310.26	364.75
310.49	352.75
310.72	347.75
310.949	373.75
311.179	371.75
311.409	360.75
311.639	364.75
311.868	350.75
312.098	357.75
312.328	371.75
312.557	384.75
312.787	381.75
313.017	373.75
313.246	362.75
313.476	389.75
313.706	358.75
313.935	364.75
314.165	379.75
314.394	391.75
314.624	376.75
314.853	376.75
315.083	372.75
315.312	359.75
315.542	369.75
315.771	368.75
316.001	367.75
316.23	370.75
316.46	381.75
316.689	383.75
316.919	368.75
317.148	391.75
317.377	376.75
317.607	373.75
317.836	365.75
318.065	365.75
318.295	346.75
318.524	365.75
318.753	373.75
318.983	364.75
319.212	365.75
319.441	385.75
319.67	396.75
319.9	388.75
320.129	388.75
320.358	375.75
320.587	385.75
320.816	365.75
321.046	380.75
321.275	366.75
321.504	380.75
321.733	373.75
321.962	407.75
322.191	405.75
322.42	402.75
322.649	398.75
322.878	420.75
323.108	412.75
323.337	432.75
323.566	447.75
323.795	468.75
324.024	507.75
324.253	596.75
324.482	814.75
324.71	1145.75
324.939	1513.75
325.168	1282.75
325.397	723.75
325.626	537.75
325.855	486.75
326.084	469.75
326.313	447.75
326.542	460.75
326.77	498.75
326.999	568.75
327.228	730.75
327.457	985.75
327.686	1145.75
327.914	779.75
328.143	581.75
328.372	525.75
328.6	508.75
328.829	480.75
329.058	490.75
329.287	505.75
329.515	469.75
329.744	457.75
329.972	475.75
330.201	468.75
330.43	512.75
330.658	526.75
330.887	503.75
331.115	486.75
331.344	470.75
331.572	443.75
331.801	458.75
332.03	443.75
332.258	434.75
332.486	440.75
332.715	433.75
332.943	439.75
333.172	444.75
333.4	449.75
333.629	445.75
333.857	451.75
334.085	461.75
334.314	470.75
334.542	495.75
334.771	511.75
334.999	471.75
335.227	447.75
335.455	449.75
335.684	427.75
335.912	449.75
336.14	428.75
336.369	443.75
336.597	435.75
336.825	435.75
337.053	429.75
337.281	419.75
337.51	423.75
337.738	424.75
337.966	428.75
338.194	409.75
338.422	438.75
338.65	427.75
338.878	410.75
339.106	415.75
339.334	419.75
339.562	411.75
339.79	403.75
340.018	406.75
340.246	423.75
340.474	412.75
340.702	421.75
340.93	430.75
341.158	411.75
341.386	397.75
341.614	390.75
341.842	412.75
342.07	399.75
342.298	395.75
342.526	422.75
342.754	393.75
342.981	411.75
343.209	399.75
343.437	401.75
343.665	403.75
343.893	443.75
344.12	409.75
344.348	423.75
344.576	415.75
344.804	425.75
345.031	438.75
345.259	419.75
345.487	407.75
345.714	421.75
345.942	405.75
346.17	400.75
346.397	397.75
346.625	394.75
346.853	381.75
347.08	375.75
347.308	383.75
347.535	391.75
347.763	383.75
347.99	392.75
348.218	396.75
348.445	420.75
348.673	379.75
348.9	426.75
349.128	398.75
349.355	393.75
349.583	382.75
349.81	367.75
350.037	386.75
350.265	367.75
350.492	377.75
350.72	366.75
350.947	382.75
351.174	377.75
351.402	377.75
351.629	397.75
351.856	375.75
352.083	397.75
352.311	400.75
352.538	395.75
352.765	403.75
352.992	393.75
353.22	375.75
353.447	379.75
353.674	369.75
353.901	348.75
354.128	360.75
354.355	367.75
354.583	357.75
354.81	358.75
355.037	373.75
355.264	373.75
355.491	383.75
355.718	350.75
355.945	375.75
356.172	350.75
356.399	363.75
356.626	359.75
356.853	351.75
357.08	361.75
357.307	349.75
357.534	365.75
357.761	370.75
357.988	352.75
358.215	341.75
358.441	361.75
358.668	374.75
358.895	375.75
359.122	383.75
359.349	373.75
359.576	395.75
359.802	401.75
360.029	413.75
360.256	392.75
360.483	407.75
360.709	375.75
360.936	365.75
361.163	371.75
361.39	372.75
361.616	398.75
361.843	366.75
362.07	384.75
362.296	380.75
362.523	373.75
362.749	376.75
362.976	357.75
363.203	373.75
363.429	372.75
363.656	372.75
363.882	366.75
364.109	363.75
364.335	349.75
364.562	371.75
364.788	367.75
365.015	370.75
365.241	356.75
365.468	389.75
365.694	378.75
365.92	367.75
366.147	377.75
366.373	353.75
366.599	361.75
366.826	359.75
367.052	348.75
367.278	353.75
367.505	368.75
367.731	371.75
367.957	370.75
368.184	386.75
368.41	379.75
368.636	371.75
368.862	395.75
369.089	381.75
369.315	363.75
369.541	364.75
369.767	366.75
369.993	362.75
370.219	376.75
370.445	366.75
370.672	384.75
370.898	358.75
371.124	363.75
371.35	365.75
371.576	366.75
371.802	343.75
372.028	364.75
372.254	361.75
372.48	357.75
372.706	364.75
372.932	381.75
373.158	357.75
373.384	367.75
373.61	355.75
373.835	379.75
374.061	353.75
374.287	379.75
374.513	352.75
374.739	377.75
374.965	376.75
375.191	374.75
375.416	386.75
375.642	376.75
375.868	389.75
376.094	376.75
376.319	370.75
376.545	373.75
376.771	353.75
376.997	353.75
377.222	362.75
377.448	368.75
377.674	340.75
377.899	353.75
378.125	349.75
378.35	366.75
378.576	345.75
378.802	355.75
379.027	357.75
379.253	357.75
379.478	348.75
379.704	379.75
379.929	379.75
380.155	350.75
380.38	345.75
380.606	358.75
380.831	352.75
381.057	357.75
381.282	355.75
381.507	363.75
381.733	339.75
381.958	379.75
382.184	356.75
382.409	373.75
382.634	365.75
382.86	366.75
383.085	380.75
383.31	379.75
383.535	380.75
383.761	366.75
383.986	358.75
384.211	376.75
384.436	389.75
384.662	391.75
384.887	386.75
385.112	365.75
385.337	385.75
385.562	360.75
385.787	382.75
386.013	397.75
386.238	384.75
386.463	388.75
386.688	391.75
386.913	400.75
387.138	394.75
387.363	403.75
387.588	388.75
387.813	397.75
388.038	405.75
388.263	380.75
388.488	386.75
388.713	395.75
388.938	400.75
389.163	399.75
389.387	405.75
389.612	390.75
389.837	369.75
390.062	361.75
390.287	361.75
390.512	397.75
390.736	387.75
390.961	382.75
391.186	385.75
391.411	418.75
391.636	400.75
391.86	397.75
392.085	392.75
392.31	398.75
392.534	396.75
392.759	408.75
392.984	407.75
393.208	399.75
393.433	378.75
393.658	390.75
393.882	410.75
394.107	397.75
394.331	410.75
394.556	383.75
394.78	412.75
395.005	403.75
395.229	393.75
395.454	396.75
395.678	391.75
395.903	396.75
396.127	431.75
396.352	413.75
396.576	411.75
396.801	407.75
397.025	414.75
397.249	399.75
397.474	405.75
397.698	407.75
397.922	405.75
398.147	434.75
398.371	424.75
398.595	412.75
398.82	431.75
399.044	440.75
399.268	475.75
399.492	478.75
399.717	490.75
399.941	525.75
400.165	510.75
400.389	514.75
400.613	478.75
400.837	458.75
401.062	454.75
401.286	424.75
401.51	427.75
401.734	427.75
401.958	427.75
402.182	444.75
402.406	455.75
402.63	453.75
402.854	434.75
403.078	412.75
403.302	409.75
403.526	456.75
403.75	426.75
403.974	433.75
404.198	440.75
404.422	433.75
404.645	459.75
404.869	448.75
405.093	485.75
405.317	479.75
405.541	533.75
405.765	483.75
405.988	469.75
406.212	461.75
406.436	467.75
406.66	490.75
406.883	468.75
407.107	498.75
407.331	509.75
407.555	542.75
407.778	563.75
408.002	534.75
408.226	470.75
408.449	500.75
408.673	495.75
408.896	478.75
409.12	514.75
409.344	488.75
409.567	449.75
409.791	450.75
410.014	462.75
410.238	444.75
410.461	457.75
410.685	432.75
410.908	458.75
411.132	494.75
411.355	503.75
411.578	481.75
411.802	450.75
412.025	437.75
412.249	485.75
412.472	464.75
412.695	487.75
412.919	487.75
413.142	466.75
413.365	437.75
413.589	427.75
413.812	409.75
414.035	423.75
414.258	420.75
414.482	432.75
414.705	432.75
414.928	412.75
415.151	402.75
415.374	403.75
415.597	403.75
415.821	407.75
416.044	404.75
416.267	406.75
416.49	408.75
416.713	408.75
416.936	416.75
417.159	413.75
417.382	413.75
417.605	402.75
417.828	428.75
418.051	420.75
418.274	442.75
418.497	416.75
418.72	416.75
418.943	415.75
419.166	427.75
419.389	423.75
419.611	439.75
419.834	419.75
420.057	447.75
420.28	424.75
420.503	419.75
420.726	412.75
420.948	415.75
421.171	443.75
421.394	506.75
421.617	463.75
421.839	425.75
422.062	410.75
422.285	431.75
422.507	468.75
422.73	520.75
422.953	490.75
423.175	461.75
423.398	416.75
423.621	447.75
423.843	461.75
424.066	469.75
424.288	444.75
424.511	448.75
424.733	501.75
424.956	507.75
425.178	522.75
425.401	534.75
425.623	555.75
425.846	489.75
426.068	436.75
426.291	443.75
426.513	431.75
426.735	443.75
426.958	485.75
427.18	550.75
427.402	618.75
427.625	675.75
427.847	575.75
428.069	528.75
428.292	480.75
428.514	423.75
428.736	428.75
428.958	414.75
429.181	408.75
429.403	407.75
429.625	424.75
429.847	447.75
430.069	483.75
430.292	471.75
430.514	413.75
430.736	403.75
430.958	389.75
431.18	395.75
431.402	412.75
431.624	381.75
431.846	403.75
432.068	410.75
432.29	393.75
432.512	375.75
432.734	385.75
432.956	411.75
433.178	398.75
433.4	403.75
433.622	405.75
433.844	394.75
434.066	389.75
434.287	408.75
434.509	394.75
434.731	397.75
434.953	407.75
435.175	436.75
435.397	431.75
435.618	452.75
435.84	459.75
436.062	518.75
436.284	572.75
436.505	507.75
436.727	470.75
436.949	425.75
437.17	415.75
437.392	399.75
437.614	426.75
437.835	469.75
438.057	497.75
438.278	574.75
438.5	568.75
438.721	635.75
438.943	603.75
439.165	485.75
439.386	433.75
439.608	440.75
439.829	458.75
440.05	456.75
440.272	507.75
440.493	462.75
440.715	433.75
440.936	417.75
441.158	407.75
441.379	425.75
441.6	411.75
441.822	436.75
442.043	449.75
442.264	520.75
442.486	522.75
442.707	473.75
442.928	445.75
443.149	449.75
443.371	493.75
443.592	500.75
443.813	579.75
444.034	614.75
444.255	511.75
444.476	455.75
444.698	449.75
444.919	450.75
445.14	523.75
445.361	481.75
445.582	469.75
445.803	519.75
446.024	576.75
446.245	605.75
446.466	526.75
446.687	476.75
446.908	448.75
447.129	431.75
447.35	427.75
447.571	413.75
447.792	392.75
448.013	408.75
448.234	415.75
448.455	446.75
448.675	515.75
448.896	601.75
449.117	500.75
449.338	497.75
449.559	554.75
449.779	622.75
450	489.75
450.221	443.75
450.442	424.75
450.662	393.75
450.883	427.75
451.104	395.75
451.324	391.75
451.545	375.75
451.766	367.75
451.986	363.75
452.207	355.75
452.428	376.75
452.648	408.75
452.869	360.75
453.089	377.75
453.31	368.75
453.53	377.75
453.751	365.75
453.971	360.75
454.192	360.75
454.412	357.75
454.633	353.75
454.853	363.75
455.073	361.75
455.294	367.75
455.514	411.75
455.734	421.75
455.955	366.75
456.175	344.75
456.395	346.75
456.616	353.75
456.836	357.75
457.056	353.75
457.276	352.75
457.497	358.75
457.717	339.75
457.937	355.75
458.157	363.75
458.377	375.75
458.598	379.75
458.818	412.75
459.038	436.75
459.258	474.75
459.478	428.75
459.698	405.75
459.918	390.75
460.138	370.75
460.358	411.75
460.578	394.75
460.798	414.75
461.018	405.75
461.238	404.75
461.458	397.75
461.678	410.75
461.898	432.75
462.118	409.75
462.338	404.75
462.558	433.75
462.777	428.75
462.997	442.75
463.217	442.75
463.437	423.75
463.657	439.75
463.876	435.75
464.096	421.75
464.316	443.75
464.536	442.75
464.755	443.75
464.975	456.75
465.195	456.75
465.414	453.75
465.634	442.75
465.854	408.75
466.073	424.75
466.293	397.75
466.512	393.75
466.732	384.75
466.951	373.75
467.171	392.75
467.391	403.75
467.61	380.75
467.829	369.75
468.049	403.75
468.268	374.75
468.488	391.75
468.707	377.75
468.927	377.75
469.146	352.75
469.365	359.75
469.585	351.75
469.804	373.75
470.023	393.75
470.243	374.75
470.462	390.75
470.681	383.75
470.901	389.75
471.12	372.75
471.339	395.75
471.558	397.75
471.777	385.75
471.997	382.75
472.216	401.75
472.435	403.75
472.654	411.75
472.873	396.75
473.092	389.75
473.311	387.75
473.53	400.75
473.749	387.75
473.968	427.75
474.187	487.75
474.406	511.75
474.625	437.75
474.844	416.75
475.063	380.75
475.282	389.75
475.501	392.75
475.72	400.75
475.939	390.75
476.158	389.75
476.377	392.75
476.596	400.75
476.814	399.75
477.033	399.75
477.252	382.75
477.471	401.75
477.69	409.75
477.908	408.75
478.127	431.75
478.346	429.75
478.564	422.75
478.783	419.75
479.002	441.75
479.22	419.75
479.439	451.75
479.658	446.75
479.876	464.75
480.095	460.75
480.313	476.75
480.532	460.75
480.751	460.75
480.969	468.75
481.188	524.75
481.406	512.75
481.624	492.75
481.843	475.75
482.061	455.75
482.28	454.75
482.498	451.75
482.717	432.75
482.935	431.75
483.153	440.75
483.372	471.75
483.59	433.75
483.808	439.75
484.027	458.75
484.245	440.75
484.463	436.75
484.681	458.75
484.9	451.75
485.118	473.75
485.336	470.75
485.554	470.75
485.772	448.75
485.99	457.75
486.209	465.75
486.427	471.75
486.645	450.75
486.863	465.75
487.081	470.75
487.299	461.75
487.517	493.75
487.735	469.75
487.953	476.75
488.171	454.75
488.389	485.75
488.607	461.75
488.825	479.75
489.043	484.75
489.261	471.75
489.479	473.75
489.696	474.75
489.914	467.75
490.132	501.75
490.35	483.75
490.568	470.75
490.786	499.75
491.003	509.75
491.221	514.75
491.439	509.75
491.657	527.75
491.874	517.75
492.092	508.75
492.31	528.75
492.527	532.75
492.745	510.75
492.963	516.75
493.18	528.75
493.398	509.75
493.615	529.75
493.833	538.75
494.05	544.75
494.268	553.75
494.485	527.75
494.703	539.75
494.92	551.75
495.138	557.75
495.355	550.75
495.573	548.75
495.79	550.75
496.008	541.75
496.225	530.75
496.442	533.75
496.66	552.75
496.877	547.75
497.094	541.75
497.312	568.75
497.529	560.75
497.746	554.75
497.963	608.75
498.181	584.75
498.398	618.75
498.615	614.75
498.832	628.75
499.049	625.75
499.267	656.75
499.484	679.75
499.701	700.75
499.918	721.75
500.135	768.75
500.352	799.75
500.569	783.75
500.786	791.75
501.003	812.75
501.22	771.75
501.437	748.75
501.654	729.75
501.871	701.75
502.088	677.75
502.305	664.75
502.522	618.75
502.739	631.75
502.956	599.75
503.172	558.75
503.389	583.75
503.606	581.75
503.823	570.75
504.04	563.75
504.256	540.75
504.473	555.75
504.69	535.75
504.907	558.75
505.123	535.75
505.34	542.75
505.557	543.75
505.773	520.75
505.99	540.75
506.207	514.75
506.423	512.75
506.64	513.75
506.856	496.75
507.073	505.75
507.289	491.75
507.506	498.75
507.722	511.75
507.939	520.75
508.155	510.75
508.372	485.75
508.588	488.75
508.805	485.75
509.021	501.75
509.238	511.75
509.454	510.75
509.67	498.75
509.887	487.75
510.103	477.75
510.319	476.75
510.536	552.75
510.752	803.75
510.968	655.75
511.184	495.75
511.401	472.75
511.617	470.75
511.833	447.75
512.049	460.75
512.265	478.75
512.481	449.75
512.698	464.75
512.914	456.75
513.13	454.75
513.346	482.75
513.562	451.75
513.778	466.75
513.994	458.75
514.21	460.75
514.426	464.75
514.642	494.75
514.858	500.75
515.074	510.75
515.29	597.75
515.506	806.75
515.721	673.75
515.937	533.75
516.153	508.75
516.369	492.75
516.585	490.75
516.801	459.75
517.016	496.75
517.232	501.75
517.448	484.75
517.664	489.75
517.879	483.75
518.095	502.75
518.311	483.75
518.527	475.75
518.742	467.75
518.958	471.75
519.173	452.75
519.389	477.75
519.605	471.75
519.82	468.75
520.036	473.75
520.251	477.75
520.467	487.75
520.682	473.75
520.898	471.75
521.113	495.75
521.329	523.75
521.544	583.75
521.76	657.75
521.975	1009.75
522.19	958.75
522.406	579.75
522.621	485.75
522.836	468.75
523.052	449.75
523.267	430.75
523.482	428.75
523.698	426.75
523.913	424.75
524.128	424.75
524.343	416.75
524.559	428.75
524.774	412.75
524.989	413.75
525.204	408.75
525.419	409.75
525.634	405.75
525.849	427.75
526.064	401.75
526.28	392.75
526.495	367.75
526.71	397.75
526.925	393.75
527.14	384.75
527.355	400.75
527.57	409.75
527.785	384.75
527.999	390.75
528.214	395.75
528.429	389.75
528.644	396.75
528.859	388.75
529.074	382.75
529.289	393.75
529.503	440.75
529.718	425.75
529.933	422.75
530.148	404.75
530.363	399.75
530.577	371.75
530.792	364.75
531.007	395.75
531.221	395.75
531.436	395.75
531.651	363.75
531.865	390.75
532.08	382.75
532.295	367.75
532.509	367.75
532.724	370.75
532.938	370.75
533.153	385.75
533.367	389.75
533.582	368.75
533.796	360.75
534.011	364.75
534.225	372.75
534.44	386.75
534.654	363.75
534.868	385.75
535.083	373.75
535.297	379.75
535.511	364.75
535.726	367.75
535.94	362.75
536.154	361.75
536.369	369.75
536.583	368.75
536.797	346.75
537.011	352.75
537.225	349.75
537.44	369.75
537.654	388.75
537.868	372.75
538.082	359.75
538.296	386.75
538.51	353.75
538.724	369.75
538.938	355.75
539.153	383.75
539.367	377.75
539.581	383.75
539.795	367.75
540.009	380.75
540.222	369.75
540.436	351.75
540.65	372.75
540.864	373.75
541.078	365.75
541.292	362.75
541.506	372.75
541.72	349.75
541.934	375.75
542.147	358.75
542.361	369.75
542.575	357.75
542.789	358.75
543.002	358.75
543.216	365.75
543.43	368.75
543.644	354.75
543.857	353.75
544.071	346.75
544.285	365.75
544.498	362.75
544.712	359.75
544.925	351.75
545.139	356.75
545.352	365.75
545.566	351.75
545.779	371.75
545.993	381.75
546.206	379.75
546.42	344.75
546.633	357.75
546.847	347.75
547.06	339.75
547.274	352.75
547.487	359.75
547.7	350.75
547.914	362.75
548.127	351.75
548.34	355.75
548.554	351.75
548.767	339.75
548.98	340.75
549.193	338.75
549.407	336.75
549.62	345.75
549.833	357.75
550.046	359.75
550.259	347.75
550.473	354.75
550.686	347.75
550.899	351.75
551.112	327.75
551.325	349.75
551.538	343.75
551.751	319.75
551.964	341.75
552.177	357.75
552.39	347.75
552.603	359.75
552.816	327.75
553.029	361.75
553.242	367.75
553.455	350.75
553.667	359.75
553.88	373.75
554.093	341.75
554.306	348.75
554.519	360.75
554.732	343.75
554.944	344.75
555.157	340.75
555.37	331.75
555.583	346.75
555.795	338.75
556.008	310.75
556.221	335.75
556.433	330.75
556.646	315.75
556.859	332.75
557.071	313.75
557.284	321.75
557.496	321.75
557.709	302.75
557.921	328.75
558.134	311.75
558.346	320.75
558.559	310.75
558.771	311.75
558.984	292.75
559.196	298.75
559.409	304.75
559.621	300.75
559.833	312.75
560.046	299.75
560.258	303.75
560.47	297.75
560.683	317.75
560.895	315.75
561.107	298.75
561.32	312.75
561.532	315.75
561.744	309.75
561.956	308.75
562.168	303.75
562.381	327.75
562.593	319.75
562.805	299.75
563.017	329.75
563.229	324.75
563.441	313.75
563.653	309.75
563.865	298.75
564.077	310.75
564.289	311.75
564.501	329.75
564.713	324.75
564.925	337.75
565.137	358.75
565.349	338.75
565.561	339.75
565.773	326.75
565.985	340.75
566.197	349.75
566.408	359.75
566.62	359.75
566.832	369.75
567.044	412.75
567.255	384.75
567.467	384.75
567.679	379.75
567.891	409.75
568.102	389.75
568.314	376.75
568.526	396.75
568.737	362.75
568.949	346.75
569.161	348.75
569.372	320.75
569.584	330.75
569.795	320.75
570.007	321.75
570.218	339.75
570.43	321.75
570.641	314.75
570.853	300.75
571.064	332.75
571.276	297.75
571.487	301.75
571.698	287.75
571.91	291.75
572.121	299.75
572.333	275.75
572.544	275.75
572.755	293.75
572.966	296.75
573.178	290.75
573.389	279.75
573.6	279.75
573.811	278.75
574.023	262.75
574.234	293.75
574.445	297.75
574.656	280.75
574.867	270.75
575.078	268.75
575.289	267.75
575.501	272.75
575.712	255.75
575.923	278.75
576.134	269.75
576.345	269.75
576.556	251.75
576.767	265.75
576.978	259.75
577.188	265.75
577.399	259.75
577.61	276.75
577.821	260.75
578.032	261.75
578.243	291.75
578.454	413.75
578.665	316.75
578.875	261.75
579.086	261.75
579.297	255.75
579.508	268.75
579.718	267.75
579.929	244.75
580.14	259.75
580.35	242.75
580.561	246.75
580.772	250.75
580.982	247.75
581.193	227.75
581.403	254.75
581.614	249.75
581.825	237.75
582.035	243.75
582.246	253.75
582.456	253.75
582.667	248.75
582.877	236.75
583.087	250.75
583.298	250.75
583.508	267.75
583.719	235.75
583.929	242.75
584.139	245.75
584.35	239.75
584.56	260.75
584.77	243.75
584.981	236.75
585.191	227.75
585.401	253.75
585.611	247.75
585.821	255.75
586.032	232.75
586.242	231.75
586.452	261.75
586.662	268.75
586.872	241.75
587.082	223.75
587.292	234.75
587.502	245.75
587.713	231.75
587.923	253.75
588.133	249.75
588.343	232.75
588.553	249.75
588.762	243.75
588.972	250.75
589.182	285.75
589.392	287.75
589.602	253.75
589.812	276.75
590.022	266.75
590.232	223.75
590.441	245.75
590.651	236.75
590.861	250.75
591.071	247.75
591.281	223.75
591.49	244.75
591.7	254.75
591.91	246.75
592.119	237.75
592.329	264.75
592.539	249.75
592.748	229.75
592.958	264.75
593.167	241.75
593.377	248.75
593.587	262.75
593.796	257.75
594.006	256.75
594.215	242.75
594.424	227.75
594.634	252.75
594.843	253.75
595.053	233.75
595.262	247.75
595.472	236.75
595.681	239.75
595.89	224.75
596.1	221.75
596.309	231.75
596.518	240.75
596.727	217.75
596.937	236.75
597.146	223.75
597.355	253.75
597.564	209.75
597.774	231.75
597.983	224.75
598.192	232.75
598.401	214.75
598.61	227.75
598.819	225.75
599.028	214.75
599.237	239.75
599.446	227.75
599.655	215.75
599.864	228.75
600.073	222.75
600.282	229.75
600.491	215.75
600.7	212.75
600.909	214.75
601.118	199.75
601.327	203.75
601.536	220.75
601.745	217.75
601.953	220.75
602.162	220.75
602.371	187.75
602.58	196.75
602.789	199.75
602.997	224.75
603.206	212.75
603.415	237.75
603.623	189.75
603.832	219.75
604.041	196.75
604.249	207.75
604.458	202.75
604.666	206.75
604.875	197.75
605.084	209.75
605.292	206.75
605.501	196.75
605.709	197.75
605.918	209.75
606.126	203.75
606.334	192.75
606.543	190.75
606.751	200.75
606.96	194.75
607.168	184.75
607.376	199.75
607.585	215.75
607.793	203.75
608.001	194.75
608.21	206.75
608.418	190.75
608.626	209.75
608.834	184.75
609.043	184.75
609.251	200.75
609.459	186.75
609.667	183.75
609.875	206.75
610.083	192.75
610.291	182.75
610.499	200.75
610.707	203.75
610.916	212.75
611.124	203.75
611.332	206.75
611.54	175.75
611.748	195.75
611.955	199.75
612.163	213.75
612.371	188.75
612.579	196.75
612.787	204.75
612.995	208.75
613.203	204.75
613.411	195.75
613.618	204.75
613.826	195.75
614.034	197.75
614.242	198.75
614.449	190.75
614.657	193.75
614.865	203.75
615.072	192.75
615.28	196.75
615.488	211.75
615.695	197.75
615.903	198.75
616.111	206.75
616.318	193.75
616.526	197.75
616.733	212.75
616.941	214.75
617.148	194.75
617.356	188.75
617.563	199.75
617.771	203.75
617.978	185.75
618.185	192.75
618.393	193.75
618.6	195.75
618.807	200.75
619.015	198.75
619.222	175.75
619.429	194.75
619.637	187.75
619.844	193.75
620.051	179.75
620.258	184.75
620.466	212.75
620.673	164.75
620.88	163.75
621.087	192.75
621.294	170.75
621.501	186.75
621.708	189.75
621.915	188.75
622.122	167.75
622.329	179.75
622.536	176.75
622.743	186.75
622.95	181.75
623.157	183.75
623.364	161.75
623.571	174.75
623.778	173.75
623.985	195.75
624.192	192.75
624.399	175.75
624.606	173.75
624.812	173.75
625.019	174.75
625.226	172.75
625.433	167.75
625.639	170.75
625.846	180.75
626.053	164.75
626.259	173.75
626.466	166.75
626.673	180.75
626.879	182.75
627.086	161.75
627.293	172.75
627.499	179.75
627.706	174.75
627.912	159.75
628.119	151.75
628.325	189.75
628.532	168.75
628.738	171.75
628.945	171.75
629.151	175.75
629.357	176.75
629.564	154.75
629.77	160.75
629.976	167.75
630.183	145.75
630.389	176.75
630.595	156.75
630.802	167.75
631.008	169.75
631.214	164.75
631.42	161.75
631.627	165.75
631.833	175.75
632.039	161.75
632.245	166.75
632.451	155.75
632.657	163.75
632.863	181.75
633.069	159.75
633.275	157.75
633.481	169.75
633.688	159.75
633.893	170.75
634.099	165.75
634.305	165.75
634.511	179.75
634.717	171.75
634.923	162.75
635.129	156.75
635.335	150.75
635.541	147.75
635.747	150.75
635.952	159.75
636.158	176.75
636.364	159.75
636.57	161.75
636.775	158.75
636.981	153.75
637.187	163.75
637.392	151.75
637.598	160.75
637.804	167.75
638.009	164.75
638.215	141.75
638.421	141.75
638.626	153.75
638.832	163.75
639.037	153.75
639.243	150.75
639.448	151.75
639.654	152.75
639.859	161.75
640.065	143.75
640.27	159.75
640.475	160.75
640.681	153.75
640.886	162.75
641.091	160.75
641.297	151.75
641.502	145.75
641.707	150.75
641.913	135.75
642.118	147.75
642.323	125.75
642.528	135.75
642.733	161.75
642.939	145.75
643.144	147.75
643.349	148.75
643.554	141.75
643.759	158.75
643.964	150.75
644.169	146.75
644.374	148.75
644.579	148.75
644.784	142.75
644.989	141.75
645.194	151.75
645.399	130.75
645.604	136.75
645.809	140.75
646.014	150.75
646.219	150.75
646.423	153.75
646.628	143.75
646.833	137.75
647.038	145.75
647.243	143.75
647.447	153.75
647.652	138.75
647.857	140.75
648.062	163.75
648.266	140.75
648.471	145.75
648.676	150.75
648.88	139.75
649.085	156.75
649.289	157.75
649.494	135.75
649.698	152.75
649.903	174.75
650.107	152.75
650.312	159.75
650.516	155.75
650.721	118.75
650.925	169.75
651.13	139.75
651.334	139.75
651.539	144.75
651.743	130.75
651.947	136.75
652.152	130.75
652.356	150.75
652.56	135.75
652.764	127.75
652.969	128.75
653.173	124.75
653.377	111.75
653.581	123.75
653.785	133.75
653.99	126.75
654.194	121.75
654.398	121.75
654.602	123.75
654.806	121.75
655.01	129.75
655.214	142.75
655.418	121.75
655.622	123.75
655.826	127.75
656.03	132.75
656.234	139.75
656.438	133.75
656.642	121.75
656.846	121.75
657.049	119.75
657.253	114.75
657.457	121.75
657.661	126.75
657.865	123.75
658.068	120.75
658.272	107.75
658.476	109.75
658.68	114.75
658.883	91.75
659.087	104.75
659.291	119.75
659.494	96.75
659.698	99.75
659.901	109.75
660.105	96.75
660.309	95.75
660.512	101.75
660.716	97.75
660.919	92.75
661.123	104.75
661.326	91.75
661.53	81.75
661.733	86.75
661.936	93.75
662.14	93.75
662.343	87.75
662.546	91.75
662.75	80.75
662.953	94.75
663.156	91.75
663.36	77.75
663.563	88.75
663.766	72.75
663.969	87.75
664.173	85.75
664.376	87.75
664.579	80.75
664.782	79.75
664.985	81.75
665.188	77.75
665.391	87.75
665.594	77.75
665.797	85.75
666	85.75
666.203	71.75
666.406	99.75
666.609	82.75
666.812	99.75
667.015	100.75
667.218	89.75
667.421	77.75
667.624	87.75
667.827	83.75
668.03	95.75
668.232	73.75
668.435	61.75
668.638	83.75
668.841	87.75
669.043	89.75
669.246	95.75
669.449	90.75
669.651	93.75
669.854	90.75
670.057	82.75
670.259	70.75
670.462	87.75
670.665	71.75
670.867	94.75
671.07	88.75
671.272	77.75
671.475	84.75
671.677	78.75
671.88	78.75
672.082	84.75
672.284	76.75
672.487	80.75
672.689	89.75
672.892	87.75
