Data from 1960PennyLincolnUp.LampE5.5.200Scan.07172019.P1.ChangedAngle_HRD10591_13-14-18-820.txt Node
Date: Thu Jul 18 13:14:18 EDT 2019
User: cochatt
Spectrometer: HR+D1059
Trigger mode: 1
Integration Time (sec): 1.000000E-1
Scans to average: 1
Electric dark correction enabled: true
Nonlinearity correction enabled: false
Boxcar width: 0
XAxis mode: Wavelengths
Number of Pixels in Spectrum: 2048
>>>>>Begin Spectral Data<<<<<
223.165	-14.81
223.4	-14.81
223.635	-14.81
223.869	-14.81
224.104	-12.81
224.338	-7.81
224.573	-2.81
224.808	-19.81
225.042	-3.81
225.277	-0.81
225.511	-9.81
225.746	4.19
225.98	11.19
226.215	4.19
226.449	11.19
226.683	15.19
226.918	12.19
227.152	29.19
227.387	37.19
227.621	35.19
227.856	39.19
228.09	65.19
228.324	54.19
228.559	57.19
228.793	69.19
229.027	76.19
229.262	72.19
229.496	88.19
229.73	98.19
229.964	118.19
230.199	90.19
230.433	89.19
230.667	93.19
230.901	103.19
231.136	99.19
231.37	104.19
231.604	110.19
231.838	104.19
232.072	101.19
232.306	102.19
232.541	98.19
232.775	101.19
233.009	103.19
233.243	109.19
233.477	100.19
233.711	108.19
233.945	101.19
234.179	111.19
234.413	106.19
234.647	112.19
234.881	106.19
235.115	98.19
235.349	110.19
235.583	115.19
235.817	108.19
236.051	106.19
236.285	108.19
236.519	94.19
236.753	92.19
236.987	108.19
237.221	134.19
237.455	174.19
237.689	127.19
237.922	106.19
238.156	120.19
238.39	113.19
238.624	106.19
238.858	110.19
239.091	119.19
239.325	107.19
239.559	113.19
239.793	114.19
240.027	121.19
240.26	119.19
240.494	132.19
240.728	131.19
240.961	127.19
241.195	119.19
241.429	124.19
241.662	116.19
241.896	117.19
242.13	113.19
242.363	122.19
242.597	114.19
242.83	124.19
243.064	111.19
243.298	108.19
243.531	118.19
243.765	112.19
243.998	129.19
244.232	151.19
244.465	119.19
244.699	124.19
244.932	120.19
245.166	124.19
245.399	138.19
245.633	123.19
245.866	134.19
246.099	139.19
246.333	128.19
246.566	137.19
246.8	127.19
247.033	138.19
247.266	144.19
247.5	148.19
247.733	131.19
247.966	142.19
248.2	142.19
248.433	150.19
248.666	136.19
248.899	152.19
249.133	152.19
249.366	158.19
249.599	155.19
249.832	164.19
250.066	152.19
250.299	140.19
250.532	160.19
250.765	178.19
250.998	173.19
251.231	178.19
251.465	173.19
251.698	173.19
251.931	165.19
252.164	160.19
252.397	146.19
252.63	178.19
252.863	172.19
253.096	175.19
253.329	176.19
253.562	194.19
253.795	188.19
254.028	170.19
254.261	180.19
254.494	183.19
254.727	193.19
254.96	205.19
255.193	187.19
255.426	183.19
255.659	185.19
255.892	191.19
256.124	202.19
256.357	208.19
256.59	189.19
256.823	169.19
257.056	176.19
257.289	170.19
257.521	179.19
257.754	176.19
257.987	178.19
258.22	153.19
258.452	179.19
258.685	162.19
258.918	164.19
259.151	188.19
259.383	189.19
259.616	195.19
259.849	186.19
260.081	186.19
260.314	208.19
260.547	192.19
260.779	193.19
261.012	199.19
261.244	193.19
261.477	182.19
261.71	199.19
261.942	204.19
262.175	197.19
262.407	188.19
262.64	198.19
262.872	190.19
263.105	186.19
263.337	195.19
263.57	194.19
263.802	186.19
264.035	177.19
264.267	188.19
264.499	199.19
264.732	173.19
264.964	179.19
265.197	165.19
265.429	200.19
265.661	204.19
265.894	180.19
266.126	182.19
266.358	189.19
266.591	169.19
266.823	196.19
267.055	190.19
267.287	198.19
267.52	195.19
267.752	196.19
267.984	208.19
268.216	201.19
268.448	201.19
268.681	205.19
268.913	218.19
269.145	206.19
269.377	219.19
269.609	224.19
269.841	224.19
270.073	221.19
270.306	239.19
270.538	237.19
270.77	238.19
271.002	227.19
271.234	244.19
271.466	237.19
271.698	228.19
271.93	233.19
272.162	237.19
272.394	258.19
272.626	252.19
272.858	234.19
273.09	217.19
273.322	233.19
273.553	206.19
273.785	239.19
274.017	208.19
274.249	222.19
274.481	237.19
274.713	222.19
274.945	222.19
275.176	225.19
275.408	208.19
275.64	231.19
275.872	228.19
276.104	234.19
276.335	237.19
276.567	227.19
276.799	235.19
277.031	259.19
277.262	262.19
277.494	262.19
277.726	247.19
277.957	234.19
278.189	249.19
278.421	251.19
278.652	242.19
278.884	242.19
279.115	243.19
279.347	237.19
279.579	244.19
279.81	242.19
280.042	242.19
280.273	242.19
280.505	240.19
280.736	231.19
280.968	236.19
281.199	245.19
281.431	237.19
281.662	252.19
281.894	220.19
282.125	252.19
282.356	241.19
282.588	255.19
282.819	248.19
283.051	246.19
283.282	252.19
283.513	244.19
283.745	247.19
283.976	246.19
284.207	264.19
284.439	264.19
284.67	249.19
284.901	263.19
285.132	242.19
285.364	247.19
285.595	258.19
285.826	249.19
286.057	257.19
286.288	247.19
286.52	260.19
286.751	255.19
286.982	251.19
287.213	261.19
287.444	254.19
287.675	270.19
287.906	258.19
288.138	275.19
288.369	277.19
288.6	265.19
288.831	271.19
289.062	274.19
289.293	244.19
289.524	284.19
289.755	249.19
289.986	251.19
290.217	264.19
290.448	264.19
290.679	257.19
290.91	265.19
291.141	240.19
291.371	286.19
291.602	262.19
291.833	267.19
292.064	268.19
292.295	277.19
292.526	255.19
292.757	247.19
292.987	261.19
293.218	248.19
293.449	260.19
293.68	260.19
293.91	267.19
294.141	274.19
294.372	259.19
294.603	264.19
294.833	266.19
295.064	265.19
295.295	260.19
295.525	282.19
295.756	284.19
295.987	291.19
296.217	275.19
296.448	279.19
296.679	267.19
296.909	269.19
297.14	260.19
297.37	283.19
297.601	289.19
297.831	271.19
298.062	268.19
298.292	281.19
298.523	265.19
298.753	278.19
298.984	273.19
299.214	272.19
299.445	291.19
299.675	279.19
299.905	267.19
300.136	264.19
300.366	280.19
300.597	294.19
300.827	290.19
301.057	285.19
301.288	287.19
301.518	280.19
301.748	296.19
301.979	277.19
302.209	299.19
302.439	288.19
302.669	285.19
302.9	300.19
303.13	288.19
303.36	287.19
303.59	291.19
303.82	284.19
304.051	296.19
304.281	299.19
304.511	293.19
304.741	302.19
304.971	283.19
305.201	310.19
305.431	285.19
305.661	296.19
305.891	303.19
306.121	310.19
306.352	304.19
306.582	310.19
306.812	290.19
307.042	299.19
307.272	309.19
307.502	300.19
307.731	297.19
307.961	296.19
308.191	290.19
308.421	304.19
308.651	298.19
308.881	306.19
309.111	312.19
309.341	300.19
309.571	305.19
309.8	297.19
310.03	312.19
310.26	302.19
310.49	317.19
310.72	313.19
310.949	321.19
311.179	326.19
311.409	323.19
311.639	322.19
311.868	317.19
312.098	323.19
312.328	333.19
312.557	328.19
312.787	321.19
313.017	352.19
313.246	321.19
313.476	302.19
313.706	316.19
313.935	323.19
314.165	331.19
314.394	322.19
314.624	325.19
314.853	314.19
315.083	330.19
315.312	320.19
315.542	330.19
315.771	327.19
316.001	323.19
316.23	319.19
316.46	352.19
316.689	336.19
316.919	332.19
317.148	335.19
317.377	326.19
317.607	354.19
317.836	316.19
318.065	322.19
318.295	324.19
318.524	330.19
318.753	321.19
318.983	337.19
319.212	332.19
319.441	331.19
319.67	325.19
319.9	326.19
320.129	344.19
320.358	328.19
320.587	316.19
320.816	332.19
321.046	329.19
321.275	344.19
321.504	321.19
321.733	328.19
321.962	343.19
322.191	342.19
322.42	342.19
322.649	355.19
322.878	354.19
323.108	374.19
323.337	378.19
323.566	386.19
323.795	390.19
324.024	412.19
324.253	486.19
324.482	588.19
324.71	845.19
324.939	1125.19
325.168	959.19
325.397	563.19
325.626	444.19
325.855	405.19
326.084	402.19
326.313	394.19
326.542	403.19
326.77	416.19
326.999	450.19
327.228	549.19
327.457	760.19
327.686	876.19
327.914	626.19
328.143	461.19
328.372	422.19
328.6	406.19
328.829	411.19
329.058	402.19
329.287	429.19
329.515	382.19
329.744	393.19
329.972	400.19
330.201	407.19
330.43	411.19
330.658	424.19
330.887	414.19
331.115	417.19
331.344	410.19
331.572	364.19
331.801	397.19
332.03	373.19
332.258	371.19
332.486	364.19
332.715	388.19
332.943	370.19
333.172	378.19
333.4	394.19
333.629	389.19
333.857	387.19
334.085	390.19
334.314	427.19
334.542	408.19
334.771	420.19
334.999	396.19
335.227	385.19
335.455	375.19
335.684	400.19
335.912	392.19
336.14	375.19
336.369	352.19
336.597	379.19
336.825	376.19
337.053	362.19
337.281	375.19
337.51	364.19
337.738	395.19
337.966	368.19
338.194	358.19
338.422	380.19
338.65	389.19
338.878	361.19
339.106	375.19
339.334	358.19
339.562	372.19
339.79	342.19
340.018	356.19
340.246	346.19
340.474	356.19
340.702	378.19
340.93	368.19
341.158	378.19
341.386	372.19
341.614	372.19
341.842	383.19
342.07	335.19
342.298	343.19
342.526	357.19
342.754	356.19
342.981	347.19
343.209	356.19
343.437	370.19
343.665	355.19
343.893	386.19
344.12	386.19
344.348	394.19
344.576	368.19
344.804	380.19
345.031	380.19
345.259	365.19
345.487	366.19
345.714	383.19
345.942	362.19
346.17	356.19
346.397	352.19
346.625	371.19
346.853	332.19
347.08	360.19
347.308	332.19
347.535	342.19
347.763	353.19
347.99	340.19
348.218	340.19
348.445	356.19
348.673	344.19
348.9	349.19
349.128	357.19
349.355	329.19
349.583	334.19
349.81	336.19
350.037	338.19
350.265	345.19
350.492	353.19
350.72	338.19
350.947	332.19
351.174	350.19
351.402	345.19
351.629	350.19
351.856	340.19
352.083	342.19
352.311	336.19
352.538	342.19
352.765	336.19
352.992	335.19
353.22	342.19
353.447	344.19
353.674	319.19
353.901	318.19
354.128	326.19
354.355	308.19
354.583	322.19
354.81	336.19
355.037	335.19
355.264	325.19
355.491	328.19
355.718	329.19
355.945	320.19
356.172	323.19
356.399	327.19
356.626	326.19
356.853	313.19
357.08	332.19
357.307	320.19
357.534	330.19
357.761	332.19
357.988	310.19
358.215	328.19
358.441	332.19
358.668	319.19
358.895	340.19
359.122	335.19
359.349	318.19
359.576	324.19
359.802	341.19
360.029	358.19
360.256	345.19
360.483	330.19
360.709	345.19
360.936	347.19
361.163	343.19
361.39	328.19
361.616	341.19
361.843	329.19
362.07	330.19
362.296	325.19
362.523	330.19
362.749	366.19
362.976	331.19
363.203	339.19
363.429	330.19
363.656	332.19
363.882	323.19
364.109	342.19
364.335	328.19
364.562	328.19
364.788	318.19
365.015	332.19
365.241	328.19
365.468	325.19
365.694	325.19
365.92	322.19
366.147	312.19
366.373	311.19
366.599	317.19
366.826	329.19
367.052	329.19
367.278	323.19
367.505	316.19
367.731	340.19
367.957	338.19
368.184	340.19
368.41	344.19
368.636	330.19
368.862	325.19
369.089	350.19
369.315	323.19
369.541	341.19
369.767	325.19
369.993	329.19
370.219	329.19
370.445	349.19
370.672	343.19
370.898	333.19
371.124	346.19
371.35	313.19
371.576	315.19
371.802	321.19
372.028	331.19
372.254	329.19
372.48	334.19
372.706	317.19
372.932	329.19
373.158	329.19
373.384	337.19
373.61	323.19
373.835	328.19
374.061	345.19
374.287	317.19
374.513	323.19
374.739	329.19
374.965	339.19
375.191	327.19
375.416	338.19
375.642	338.19
375.868	317.19
376.094	318.19
376.319	325.19
376.545	324.19
376.771	334.19
376.997	313.19
377.222	319.19
377.448	326.19
377.674	300.19
377.899	318.19
378.125	333.19
378.35	296.19
378.576	316.19
378.802	309.19
379.027	325.19
379.253	328.19
379.478	312.19
379.704	309.19
379.929	324.19
380.155	336.19
380.38	324.19
380.606	332.19
380.831	320.19
381.057	322.19
381.282	337.19
381.507	334.19
381.733	317.19
381.958	330.19
382.184	321.19
382.409	337.19
382.634	334.19
382.86	344.19
383.085	331.19
383.31	346.19
383.535	336.19
383.761	353.19
383.986	343.19
384.211	344.19
384.436	318.19
384.662	325.19
384.887	362.19
385.112	354.19
385.337	340.19
385.562	347.19
385.787	340.19
386.013	370.19
386.238	349.19
386.463	360.19
386.688	360.19
386.913	347.19
387.138	340.19
387.363	360.19
387.588	352.19
387.813	347.19
388.038	347.19
388.263	340.19
388.488	355.19
388.713	352.19
388.938	356.19
389.163	326.19
389.387	341.19
389.612	348.19
389.837	345.19
390.062	373.19
390.287	350.19
390.512	352.19
390.736	348.19
390.961	354.19
391.186	356.19
391.411	347.19
391.636	348.19
391.86	374.19
392.085	339.19
392.31	339.19
392.534	361.19
392.759	348.19
392.984	354.19
393.208	360.19
393.433	354.19
393.658	374.19
393.882	360.19
394.107	348.19
394.331	359.19
394.556	334.19
394.78	356.19
395.005	356.19
395.229	360.19
395.454	366.19
395.678	362.19
395.903	349.19
396.127	370.19
396.352	377.19
396.576	387.19
396.801	358.19
397.025	369.19
397.249	355.19
397.474	369.19
397.698	375.19
397.922	372.19
398.147	387.19
398.371	395.19
398.595	382.19
398.82	402.19
399.044	398.19
399.268	374.19
399.492	441.19
399.717	465.19
399.941	465.19
400.165	474.19
400.389	457.19
400.613	451.19
400.837	421.19
401.062	401.19
401.286	403.19
401.51	375.19
401.734	392.19
401.958	387.19
402.182	382.19
402.406	371.19
402.63	388.19
402.854	379.19
403.078	394.19
403.302	386.19
403.526	401.19
403.75	404.19
403.974	378.19
404.198	379.19
404.422	405.19
404.645	403.19
404.869	397.19
405.093	412.19
405.317	428.19
405.541	445.19
405.765	432.19
405.988	400.19
406.212	410.19
406.436	424.19
406.66	436.19
406.883	439.19
407.107	442.19
407.331	454.19
407.555	513.19
407.778	492.19
408.002	460.19
408.226	455.19
408.449	450.19
408.673	434.19
408.896	462.19
409.12	457.19
409.344	450.19
409.567	424.19
409.791	425.19
410.014	406.19
410.238	390.19
410.461	397.19
410.685	408.19
410.908	399.19
411.132	412.19
411.355	431.19
411.578	418.19
411.802	410.19
412.025	406.19
412.249	394.19
412.472	426.19
412.695	433.19
412.919	401.19
413.142	389.19
413.365	382.19
413.589	392.19
413.812	395.19
414.035	370.19
414.258	381.19
414.482	383.19
414.705	396.19
414.928	375.19
415.151	371.19
415.374	361.19
415.597	371.19
415.821	380.19
416.044	369.19
416.267	364.19
416.49	370.19
416.713	388.19
416.936	368.19
417.159	376.19
417.382	379.19
417.605	379.19
417.828	367.19
418.051	370.19
418.274	368.19
418.497	366.19
418.72	362.19
418.943	358.19
419.166	360.19
419.389	388.19
419.611	392.19
419.834	403.19
420.057	376.19
420.28	385.19
420.503	374.19
420.726	372.19
420.948	372.19
421.171	393.19
421.394	439.19
421.617	398.19
421.839	385.19
422.062	381.19
422.285	402.19
422.507	412.19
422.73	454.19
422.953	437.19
423.175	417.19
423.398	390.19
423.621	386.19
423.843	411.19
424.066	420.19
424.288	399.19
424.511	401.19
424.733	458.19
424.956	484.19
425.178	461.19
425.401	442.19
425.623	453.19
425.846	416.19
426.068	407.19
426.291	390.19
426.513	383.19
426.735	379.19
426.958	411.19
427.18	470.19
427.402	554.19
427.625	579.19
427.847	467.19
428.069	441.19
428.292	412.19
428.514	389.19
428.736	380.19
428.958	381.19
429.181	380.19
429.403	360.19
429.625	365.19
429.847	385.19
430.069	405.19
430.292	419.19
430.514	368.19
430.736	372.19
430.958	352.19
431.18	344.19
431.402	364.19
431.624	357.19
431.846	367.19
432.068	365.19
432.29	342.19
432.512	347.19
432.734	362.19
432.956	352.19
433.178	370.19
433.4	364.19
433.622	344.19
433.844	376.19
434.066	355.19
434.287	358.19
434.509	352.19
434.731	369.19
434.953	370.19
435.175	364.19
435.397	384.19
435.618	397.19
435.84	406.19
436.062	452.19
436.284	469.19
436.505	427.19
436.727	387.19
436.949	393.19
437.17	362.19
437.392	339.19
437.614	394.19
437.835	380.19
438.057	431.19
438.278	497.19
438.5	480.19
438.721	539.19
438.943	506.19
439.165	429.19
439.386	416.19
439.608	378.19
439.829	405.19
440.05	400.19
440.272	398.19
440.493	403.19
440.715	385.19
440.936	383.19
441.158	375.19
441.379	362.19
441.6	372.19
441.822	386.19
442.043	427.19
442.264	454.19
442.486	473.19
442.707	395.19
442.928	428.19
443.149	396.19
443.371	405.19
443.592	427.19
443.813	473.19
444.034	506.19
444.255	448.19
444.476	414.19
444.698	397.19
444.919	385.19
445.14	509.19
445.361	448.19
445.582	412.19
445.803	455.19
446.024	489.19
446.245	485.19
446.466	442.19
446.687	407.19
446.908	395.19
447.129	358.19
447.35	359.19
447.571	357.19
447.792	361.19
448.013	349.19
448.234	355.19
448.455	413.19
448.675	465.19
448.896	526.19
449.117	465.19
449.338	442.19
449.559	493.19
449.779	557.19
450	446.19
450.221	388.19
450.442	354.19
450.662	352.19
450.883	352.19
451.104	339.19
451.324	359.19
451.545	348.19
451.766	325.19
451.986	344.19
452.207	347.19
452.428	322.19
452.648	317.19
452.869	322.19
453.089	333.19
453.31	338.19
453.53	347.19
453.751	338.19
453.971	335.19
454.192	311.19
454.412	334.19
454.633	341.19
454.853	322.19
455.073	315.19
455.294	315.19
455.514	354.19
455.734	360.19
455.955	328.19
456.175	325.19
456.395	312.19
456.616	312.19
456.836	299.19
457.056	334.19
457.276	309.19
457.497	330.19
457.717	312.19
457.937	319.19
458.157	316.19
458.377	316.19
458.598	326.19
458.818	333.19
459.038	392.19
459.258	411.19
459.478	355.19
459.698	345.19
459.918	344.19
460.138	361.19
460.358	364.19
460.578	355.19
460.798	362.19
461.018	372.19
461.238	373.19
461.458	380.19
461.678	360.19
461.898	361.19
462.118	357.19
462.338	385.19
462.558	400.19
462.777	367.19
462.997	393.19
463.217	375.19
463.437	408.19
463.657	388.19
463.876	373.19
464.096	386.19
464.316	373.19
464.536	389.19
464.755	379.19
464.975	379.19
465.195	404.19
465.414	409.19
465.634	364.19
465.854	374.19
466.073	369.19
466.293	353.19
466.512	353.19
466.732	351.19
466.951	347.19
467.171	340.19
467.391	337.19
467.61	350.19
467.829	342.19
468.049	328.19
468.268	355.19
468.488	343.19
468.707	333.19
468.927	336.19
469.146	323.19
469.365	330.19
469.585	333.19
469.804	332.19
470.023	338.19
470.243	336.19
470.462	341.19
470.681	357.19
470.901	338.19
471.12	330.19
471.339	347.19
471.558	343.19
471.777	348.19
471.997	347.19
472.216	333.19
472.435	345.19
472.654	330.19
472.873	333.19
473.092	349.19
473.311	349.19
473.53	343.19
473.749	344.19
473.968	388.19
474.187	422.19
474.406	418.19
474.625	390.19
474.844	331.19
475.063	344.19
475.282	353.19
475.501	348.19
475.72	357.19
475.939	349.19
476.158	358.19
476.377	354.19
476.596	354.19
476.814	371.19
477.033	351.19
477.252	373.19
477.471	366.19
477.69	360.19
477.908	369.19
478.127	361.19
478.346	366.19
478.564	397.19
478.783	390.19
479.002	384.19
479.22	392.19
479.439	397.19
479.658	383.19
479.876	388.19
480.095	402.19
480.313	431.19
480.532	404.19
480.751	435.19
480.969	410.19
481.188	437.19
481.406	449.19
481.624	423.19
481.843	402.19
482.061	386.19
482.28	394.19
482.498	401.19
482.717	397.19
482.935	400.19
483.153	396.19
483.372	407.19
483.59	392.19
483.808	409.19
484.027	387.19
484.245	411.19
484.463	399.19
484.681	429.19
484.9	393.19
485.118	402.19
485.336	404.19
485.554	399.19
485.772	411.19
485.99	400.19
486.209	408.19
486.427	428.19
486.645	429.19
486.863	429.19
487.081	423.19
487.299	408.19
487.517	401.19
487.735	417.19
487.953	432.19
488.171	419.19
488.389	426.19
488.607	433.19
488.825	427.19
489.043	409.19
489.261	422.19
489.479	437.19
489.696	441.19
489.914	420.19
490.132	433.19
490.35	440.19
490.568	426.19
490.786	426.19
491.003	426.19
491.221	436.19
491.439	449.19
491.657	465.19
491.874	449.19
492.092	456.19
492.31	447.19
492.527	466.19
492.745	453.19
492.963	463.19
493.18	457.19
493.398	468.19
493.615	466.19
493.833	467.19
494.05	451.19
494.268	475.19
494.485	485.19
494.703	465.19
494.92	468.19
495.138	454.19
495.355	464.19
495.573	484.19
495.79	474.19
496.008	496.19
496.225	483.19
496.442	481.19
496.66	482.19
496.877	494.19
497.094	504.19
497.312	492.19
497.529	508.19
497.746	517.19
497.963	508.19
498.181	516.19
498.398	536.19
498.615	546.19
498.832	550.19
499.049	559.19
499.267	581.19
499.484	606.19
499.701	618.19
499.918	630.19
500.135	646.19
500.352	709.19
500.569	702.19
500.786	706.19
501.003	691.19
501.22	657.19
501.437	649.19
501.654	639.19
501.871	603.19
502.088	584.19
502.305	589.19
502.522	553.19
502.739	564.19
502.956	532.19
503.172	522.19
503.389	522.19
503.606	498.19
503.823	525.19
504.04	528.19
504.256	521.19
504.473	514.19
504.69	504.19
504.907	504.19
505.123	476.19
505.34	465.19
505.557	470.19
505.773	452.19
505.99	472.19
506.207	452.19
506.423	464.19
506.64	453.19
506.856	436.19
507.073	429.19
507.289	442.19
507.506	441.19
507.722	433.19
507.939	439.19
508.155	441.19
508.372	420.19
508.588	431.19
508.805	434.19
509.021	424.19
509.238	445.19
509.454	441.19
509.67	452.19
509.887	410.19
510.103	422.19
510.319	413.19
510.536	476.19
510.752	643.19
510.968	566.19
511.184	424.19
511.401	441.19
511.617	412.19
511.833	404.19
512.049	419.19
512.265	410.19
512.481	396.19
512.698	395.19
512.914	427.19
513.13	413.19
513.346	404.19
513.562	410.19
513.778	429.19
513.994	386.19
514.21	414.19
514.426	414.19
514.642	422.19
514.858	449.19
515.074	431.19
515.29	505.19
515.506	630.19
515.721	540.19
515.937	456.19
516.153	454.19
516.369	438.19
516.585	417.19
516.801	426.19
517.016	429.19
517.232	426.19
517.448	441.19
517.664	426.19
517.879	428.19
518.095	423.19
518.311	429.19
518.527	417.19
518.742	439.19
518.958	396.19
519.173	400.19
519.389	402.19
519.605	413.19
519.82	399.19
520.036	394.19
520.251	427.19
520.467	422.19
520.682	422.19
520.898	416.19
521.113	406.19
521.329	416.19
521.544	473.19
521.76	546.19
521.975	756.19
522.19	714.19
522.406	480.19
522.621	430.19
522.836	396.19
523.052	381.19
523.267	376.19
523.482	370.19
523.698	397.19
523.913	378.19
524.128	392.19
524.343	379.19
524.559	349.19
524.774	372.19
524.989	372.19
525.204	381.19
525.419	357.19
525.634	343.19
525.849	374.19
526.064	360.19
526.28	368.19
526.495	340.19
526.71	344.19
526.925	345.19
527.14	350.19
527.355	349.19
527.57	357.19
527.785	363.19
527.999	331.19
528.214	354.19
528.429	358.19
528.644	360.19
528.859	349.19
529.074	356.19
529.289	368.19
529.503	372.19
529.718	389.19
529.933	365.19
530.148	333.19
530.363	354.19
530.577	348.19
530.792	336.19
531.007	352.19
531.221	353.19
531.436	363.19
531.651	368.19
531.865	353.19
532.08	368.19
532.295	351.19
532.509	344.19
532.724	351.19
532.938	335.19
533.153	333.19
533.367	336.19
533.582	322.19
533.796	340.19
534.011	358.19
534.225	329.19
534.44	324.19
534.654	327.19
534.868	328.19
535.083	331.19
535.297	341.19
535.511	338.19
535.726	314.19
535.94	331.19
536.154	354.19
536.369	349.19
536.583	335.19
536.797	332.19
537.011	345.19
537.225	333.19
537.44	347.19
537.654	317.19
537.868	326.19
538.082	324.19
538.296	338.19
538.51	335.19
538.724	326.19
538.938	334.19
539.153	339.19
539.367	340.19
539.581	325.19
539.795	330.19
540.009	324.19
540.222	334.19
540.436	317.19
540.65	326.19
540.864	337.19
541.078	338.19
541.292	330.19
541.506	327.19
541.72	320.19
541.934	331.19
542.147	324.19
542.361	319.19
542.575	318.19
542.789	319.19
543.002	341.19
543.216	321.19
543.43	332.19
543.644	317.19
543.857	333.19
544.071	322.19
544.285	313.19
544.498	329.19
544.712	305.19
544.925	326.19
545.139	324.19
545.352	331.19
545.566	334.19
545.779	301.19
545.993	318.19
546.206	322.19
546.42	336.19
546.633	314.19
546.847	329.19
547.06	343.19
547.274	313.19
547.487	330.19
547.7	325.19
547.914	329.19
548.127	311.19
548.34	323.19
548.554	317.19
548.767	318.19
548.98	308.19
549.193	304.19
549.407	311.19
549.62	314.19
549.833	329.19
550.046	313.19
550.259	299.19
550.473	305.19
550.686	318.19
550.899	323.19
551.112	329.19
551.325	307.19
551.538	318.19
551.751	310.19
551.964	308.19
552.177	314.19
552.39	310.19
552.603	329.19
552.816	329.19
553.029	320.19
553.242	322.19
553.455	305.19
553.667	339.19
553.88	336.19
554.093	329.19
554.306	317.19
554.519	305.19
554.732	323.19
554.944	313.19
555.157	307.19
555.37	305.19
555.583	317.19
555.795	316.19
556.008	306.19
556.221	308.19
556.433	309.19
556.646	274.19
556.859	317.19
557.071	295.19
557.284	307.19
557.496	291.19
557.709	290.19
557.921	268.19
558.134	288.19
558.346	296.19
558.559	292.19
558.771	272.19
558.984	292.19
559.196	292.19
559.409	277.19
559.621	280.19
559.833	279.19
560.046	292.19
560.258	281.19
560.47	295.19
560.683	291.19
560.895	276.19
561.107	292.19
561.32	293.19
561.532	296.19
561.744	283.19
561.956	285.19
562.168	291.19
562.381	292.19
562.593	278.19
562.805	282.19
563.017	298.19
563.229	292.19
563.441	274.19
563.653	287.19
563.865	292.19
564.077	283.19
564.289	281.19
564.501	291.19
564.713	293.19
564.925	299.19
565.137	315.19
565.349	285.19
565.561	309.19
565.773	312.19
565.985	317.19
566.197	311.19
566.408	330.19
566.62	334.19
566.832	352.19
567.044	332.19
567.255	353.19
567.467	360.19
567.679	367.19
567.891	363.19
568.102	373.19
568.314	372.19
568.526	358.19
568.737	337.19
568.949	304.19
569.161	314.19
569.372	299.19
569.584	316.19
569.795	307.19
570.007	305.19
570.218	305.19
570.43	297.19
570.641	289.19
570.853	293.19
571.064	290.19
571.276	284.19
571.487	290.19
571.698	278.19
571.91	293.19
572.121	261.19
572.333	254.19
572.544	270.19
572.755	277.19
572.966	276.19
573.178	265.19
573.389	241.19
573.6	258.19
573.811	254.19
574.023	238.19
574.234	260.19
574.445	266.19
574.656	252.19
574.867	244.19
575.078	261.19
575.289	250.19
575.501	239.19
575.712	244.19
575.923	254.19
576.134	251.19
576.345	255.19
576.556	244.19
576.767	232.19
576.978	234.19
577.188	232.19
577.399	215.19
577.61	244.19
577.821	237.19
578.032	239.19
578.243	256.19
578.454	342.19
578.665	280.19
578.875	253.19
579.086	236.19
579.297	250.19
579.508	229.19
579.718	240.19
579.929	236.19
580.14	234.19
580.35	223.19
580.561	241.19
580.772	237.19
580.982	242.19
581.193	222.19
581.403	230.19
581.614	252.19
581.825	216.19
582.035	227.19
582.246	224.19
582.456	230.19
582.667	232.19
582.877	215.19
583.087	222.19
583.298	226.19
583.508	224.19
583.719	242.19
583.929	242.19
584.139	219.19
584.35	215.19
584.56	249.19
584.77	217.19
584.981	225.19
585.191	225.19
585.401	222.19
585.611	232.19
585.821	226.19
586.032	224.19
586.242	224.19
586.452	221.19
586.662	217.19
586.872	237.19
587.082	228.19
587.292	229.19
587.502	221.19
587.713	229.19
587.923	226.19
588.133	224.19
588.343	207.19
588.553	217.19
588.762	253.19
588.972	256.19
589.182	354.19
589.392	330.19
589.602	254.19
589.812	315.19
590.022	269.19
590.232	227.19
590.441	229.19
590.651	217.19
590.861	226.19
591.071	226.19
591.281	229.19
591.49	212.19
591.7	228.19
591.91	226.19
592.119	225.19
592.329	232.19
592.539	226.19
592.748	251.19
592.958	234.19
593.167	214.19
593.377	246.19
593.587	232.19
593.796	228.19
594.006	231.19
594.215	227.19
594.424	224.19
594.634	224.19
594.843	227.19
595.053	225.19
595.262	241.19
595.472	221.19
595.681	224.19
595.89	227.19
596.1	227.19
596.309	222.19
596.518	216.19
596.727	225.19
596.937	226.19
597.146	204.19
597.355	210.19
597.564	200.19
597.774	215.19
597.983	204.19
598.192	206.19
598.401	196.19
598.61	204.19
598.819	200.19
599.028	207.19
599.237	209.19
599.446	213.19
599.655	222.19
599.864	219.19
600.073	197.19
600.282	202.19
600.491	199.19
600.7	194.19
600.909	214.19
601.118	184.19
601.327	204.19
601.536	195.19
601.745	185.19
601.953	199.19
602.162	212.19
602.371	209.19
602.58	198.19
602.789	189.19
602.997	199.19
603.206	190.19
603.415	198.19
603.623	209.19
603.832	200.19
604.041	189.19
604.249	198.19
604.458	182.19
604.666	192.19
604.875	187.19
605.084	191.19
605.292	201.19
605.501	198.19
605.709	192.19
605.918	197.19
606.126	198.19
606.334	195.19
606.543	190.19
606.751	205.19
606.96	205.19
607.168	193.19
607.376	184.19
607.585	191.19
607.793	179.19
608.001	193.19
608.21	210.19
608.418	197.19
608.626	188.19
608.834	189.19
609.043	190.19
609.251	195.19
609.459	196.19
609.667	196.19
609.875	185.19
610.083	185.19
610.291	195.19
610.499	191.19
610.707	191.19
610.916	195.19
611.124	208.19
611.332	176.19
611.54	181.19
611.748	205.19
611.955	190.19
612.163	196.19
612.371	182.19
612.579	194.19
612.787	185.19
612.995	183.19
613.203	192.19
613.411	180.19
613.618	172.19
613.826	157.19
614.034	182.19
614.242	191.19
614.449	184.19
614.657	180.19
614.865	186.19
615.072	186.19
615.28	188.19
615.488	190.19
615.695	189.19
615.903	188.19
616.111	196.19
616.318	194.19
616.526	186.19
616.733	193.19
616.941	184.19
617.148	185.19
617.356	198.19
617.563	184.19
617.771	178.19
617.978	187.19
618.185	172.19
618.393	194.19
618.6	164.19
618.807	193.19
619.015	197.19
619.222	189.19
619.429	163.19
619.637	186.19
619.844	174.19
620.051	166.19
620.258	178.19
620.466	182.19
620.673	171.19
620.88	192.19
621.087	164.19
621.294	170.19
621.501	178.19
621.708	195.19
621.915	183.19
622.122	190.19
622.329	163.19
622.536	179.19
622.743	165.19
622.95	162.19
623.157	173.19
623.364	170.19
623.571	166.19
623.778	160.19
623.985	164.19
624.192	174.19
624.399	169.19
624.606	168.19
624.812	166.19
625.019	172.19
625.226	166.19
625.433	184.19
625.639	162.19
625.846	163.19
626.053	180.19
626.259	171.19
626.466	170.19
626.673	157.19
626.879	166.19
627.086	154.19
627.293	182.19
627.499	166.19
627.706	166.19
627.912	148.19
628.119	161.19
628.325	166.19
628.532	173.19
628.738	167.19
628.945	169.19
629.151	161.19
629.357	141.19
629.564	160.19
629.77	153.19
629.976	157.19
630.183	169.19
630.389	149.19
630.595	152.19
630.802	157.19
631.008	153.19
631.214	172.19
631.42	145.19
631.627	146.19
631.833	151.19
632.039	151.19
632.245	159.19
632.451	176.19
632.657	169.19
632.863	139.19
633.069	154.19
633.275	171.19
633.481	153.19
633.688	162.19
633.893	155.19
634.099	139.19
634.305	172.19
634.511	160.19
634.717	153.19
634.923	154.19
635.129	153.19
635.335	148.19
635.541	149.19
635.747	159.19
635.952	151.19
636.158	161.19
636.364	150.19
636.57	150.19
636.775	169.19
636.981	130.19
637.187	165.19
637.392	163.19
637.598	168.19
637.804	162.19
638.009	152.19
638.215	132.19
638.421	149.19
638.626	149.19
638.832	162.19
639.037	136.19
639.243	152.19
639.448	141.19
639.654	157.19
639.859	138.19
640.065	138.19
640.27	152.19
640.475	142.19
640.681	138.19
640.886	162.19
641.091	151.19
641.297	146.19
641.502	146.19
641.707	150.19
641.913	149.19
642.118	135.19
642.323	149.19
642.528	138.19
642.733	133.19
642.939	149.19
643.144	147.19
643.349	142.19
643.554	135.19
643.759	120.19
643.964	132.19
644.169	148.19
644.374	139.19
644.579	125.19
644.784	148.19
644.989	141.19
645.194	131.19
645.399	153.19
645.604	135.19
645.809	152.19
646.014	144.19
646.219	137.19
646.423	139.19
646.628	135.19
646.833	138.19
647.038	146.19
647.243	133.19
647.447	146.19
647.652	155.19
647.857	141.19
648.062	151.19
648.266	149.19
648.471	147.19
648.676	151.19
648.88	138.19
649.085	153.19
649.289	144.19
649.494	132.19
649.698	153.19
649.903	156.19
650.107	139.19
650.312	146.19
650.516	138.19
650.721	134.19
650.925	148.19
651.13	145.19
651.334	135.19
651.539	113.19
651.743	129.19
651.947	122.19
652.152	115.19
652.356	134.19
652.56	130.19
652.764	135.19
652.969	116.19
653.173	124.19
653.377	130.19
653.581	112.19
653.785	122.19
653.99	122.19
654.194	130.19
654.398	130.19
654.602	114.19
654.806	122.19
655.01	130.19
655.214	132.19
655.418	125.19
655.622	125.19
655.826	137.19
656.03	137.19
656.234	119.19
656.438	137.19
656.642	125.19
656.846	134.19
657.049	129.19
657.253	128.19
657.457	129.19
657.661	125.19
657.865	101.19
658.068	114.19
658.272	112.19
658.476	108.19
658.68	107.19
658.883	90.19
659.087	92.19
659.291	87.19
659.494	111.19
659.698	101.19
659.901	92.19
660.105	97.19
660.309	98.19
660.512	83.19
660.716	95.19
660.919	81.19
661.123	85.19
661.326	75.19
661.53	80.19
661.733	91.19
661.936	96.19
662.14	77.19
662.343	100.19
662.546	81.19
662.75	88.19
662.953	83.19
663.156	74.19
663.36	80.19
663.563	89.19
663.766	80.19
663.969	80.19
664.173	80.19
664.376	78.19
664.579	82.19
664.782	74.19
664.985	59.19
665.188	73.19
665.391	80.19
665.594	72.19
665.797	82.19
666	74.19
666.203	83.19
666.406	90.19
666.609	92.19
666.812	88.19
667.015	72.19
667.218	92.19
667.421	76.19
667.624	92.19
667.827	89.19
668.03	93.19
668.232	78.19
668.435	81.19
668.638	83.19
668.841	88.19
669.043	90.19
669.246	69.19
669.449	79.19
669.651	85.19
669.854	83.19
670.057	90.19
670.259	85.19
670.462	103.19
670.665	96.19
670.867	90.19
671.07	100.19
671.272	72.19
671.475	78.19
671.677	79.19
671.88	77.19
672.082	85.19
672.284	88.19
672.487	84.19
672.689	85.19
672.892	76.19
