Data from 1960PennyLincolnUp.LampE5.5.200Scan.07172019.P1.ChangedAngle_HRD10591_13-14-35-822.txt Node
Date: Thu Jul 18 13:14:35 EDT 2019
User: cochatt
Spectrometer: HR+D1059
Trigger mode: 1
Integration Time (sec): 1.000000E-1
Scans to average: 1
Electric dark correction enabled: true
Nonlinearity correction enabled: false
Boxcar width: 0
XAxis mode: Wavelengths
Number of Pixels in Spectrum: 2048
>>>>>Begin Spectral Data<<<<<
223.165	9.5
223.4	9.5
223.635	9.5
223.869	-30.5
224.104	-31.5
224.338	-12.5
224.573	-17.5
224.808	-12.5
225.042	-13.5
225.277	-8.5
225.511	-6.5
225.746	-5.5
225.98	12.5
226.215	25.5
226.449	7.5
226.683	17.5
226.918	27.5
227.152	38.5
227.387	37.5
227.621	48.5
227.856	29.5
228.09	47.5
228.324	47.5
228.559	50.5
228.793	65.5
229.027	80.5
229.262	81.5
229.496	78.5
229.73	103.5
229.964	110.5
230.199	113.5
230.433	101.5
230.667	103.5
230.901	108.5
231.136	98.5
231.37	78.5
231.604	120.5
231.838	100.5
232.072	84.5
232.306	105.5
232.541	108.5
232.775	103.5
233.009	111.5
233.243	99.5
233.477	114.5
233.711	107.5
233.945	102.5
234.179	113.5
234.413	105.5
234.647	94.5
234.881	113.5
235.115	105.5
235.349	116.5
235.583	113.5
235.817	113.5
236.051	112.5
236.285	111.5
236.519	117.5
236.753	120.5
236.987	109.5
237.221	138.5
237.455	159.5
237.689	146.5
237.922	113.5
238.156	125.5
238.39	110.5
238.624	114.5
238.858	102.5
239.091	101.5
239.325	116.5
239.559	125.5
239.793	135.5
240.027	108.5
240.26	119.5
240.494	127.5
240.728	118.5
240.961	126.5
241.195	141.5
241.429	126.5
241.662	122.5
241.896	125.5
242.13	117.5
242.363	109.5
242.597	113.5
242.83	108.5
243.064	128.5
243.298	133.5
243.531	126.5
243.765	121.5
243.998	134.5
244.232	121.5
244.465	128.5
244.699	125.5
244.932	139.5
245.166	132.5
245.399	133.5
245.633	123.5
245.866	145.5
246.099	137.5
246.333	145.5
246.566	131.5
246.8	139.5
247.033	140.5
247.266	124.5
247.5	155.5
247.733	156.5
247.966	151.5
248.2	149.5
248.433	158.5
248.666	157.5
248.899	163.5
249.133	171.5
249.366	175.5
249.599	176.5
249.832	150.5
250.066	161.5
250.299	164.5
250.532	171.5
250.765	181.5
250.998	171.5
251.231	181.5
251.465	189.5
251.698	182.5
251.931	162.5
252.164	172.5
252.397	166.5
252.63	161.5
252.863	176.5
253.096	174.5
253.329	196.5
253.562	182.5
253.795	190.5
254.028	172.5
254.261	184.5
254.494	196.5
254.727	208.5
254.96	212.5
255.193	213.5
255.426	203.5
255.659	197.5
255.892	199.5
256.124	189.5
256.357	195.5
256.59	203.5
256.823	187.5
257.056	192.5
257.289	174.5
257.521	190.5
257.754	180.5
257.987	188.5
258.22	197.5
258.452	185.5
258.685	188.5
258.918	188.5
259.151	183.5
259.383	204.5
259.616	197.5
259.849	194.5
260.081	211.5
260.314	217.5
260.547	203.5
260.779	216.5
261.012	209.5
261.244	208.5
261.477	195.5
261.71	186.5
261.942	201.5
262.175	205.5
262.407	187.5
262.64	179.5
262.872	194.5
263.105	199.5
263.337	195.5
263.57	199.5
263.802	183.5
264.035	200.5
264.267	193.5
264.499	201.5
264.732	187.5
264.964	185.5
265.197	197.5
265.429	200.5
265.661	211.5
265.894	209.5
266.126	199.5
266.358	194.5
266.591	195.5
266.823	226.5
267.055	203.5
267.287	214.5
267.52	218.5
267.752	207.5
267.984	217.5
268.216	222.5
268.448	215.5
268.681	226.5
268.913	220.5
269.145	239.5
269.377	243.5
269.609	235.5
269.841	249.5
270.073	220.5
270.306	257.5
270.538	263.5
270.77	273.5
271.002	259.5
271.234	276.5
271.466	235.5
271.698	259.5
271.93	273.5
272.162	283.5
272.394	266.5
272.626	258.5
272.858	246.5
273.09	245.5
273.322	262.5
273.553	234.5
273.785	238.5
274.017	230.5
274.249	250.5
274.481	238.5
274.713	245.5
274.945	268.5
275.176	247.5
275.408	251.5
275.64	245.5
275.872	242.5
276.104	232.5
276.335	250.5
276.567	260.5
276.799	255.5
277.031	265.5
277.262	249.5
277.494	267.5
277.726	279.5
277.957	256.5
278.189	271.5
278.421	247.5
278.652	239.5
278.884	250.5
279.115	259.5
279.347	258.5
279.579	253.5
279.81	257.5
280.042	247.5
280.273	253.5
280.505	252.5
280.736	261.5
280.968	264.5
281.199	242.5
281.431	259.5
281.662	245.5
281.894	241.5
282.125	253.5
282.356	259.5
282.588	283.5
282.819	279.5
283.051	254.5
283.282	290.5
283.513	274.5
283.745	255.5
283.976	271.5
284.207	269.5
284.439	264.5
284.67	279.5
284.901	256.5
285.132	271.5
285.364	277.5
285.595	246.5
285.826	269.5
286.057	270.5
286.288	268.5
286.52	276.5
286.751	259.5
286.982	284.5
287.213	255.5
287.444	254.5
287.675	284.5
287.906	273.5
288.138	291.5
288.369	293.5
288.6	290.5
288.831	284.5
289.062	257.5
289.293	282.5
289.524	271.5
289.755	282.5
289.986	304.5
290.217	278.5
290.448	269.5
290.679	272.5
290.91	271.5
291.141	272.5
291.371	285.5
291.602	271.5
291.833	271.5
292.064	310.5
292.295	297.5
292.526	279.5
292.757	294.5
292.987	269.5
293.218	269.5
293.449	268.5
293.68	285.5
293.91	272.5
294.141	295.5
294.372	281.5
294.603	273.5
294.833	301.5
295.064	280.5
295.295	280.5
295.525	276.5
295.756	291.5
295.987	307.5
296.217	323.5
296.448	299.5
296.679	301.5
296.909	289.5
297.14	298.5
297.37	296.5
297.601	293.5
297.831	277.5
298.062	303.5
298.292	269.5
298.523	282.5
298.753	306.5
298.984	276.5
299.214	285.5
299.445	299.5
299.675	284.5
299.905	309.5
300.136	283.5
300.366	303.5
300.597	291.5
300.827	307.5
301.057	302.5
301.288	303.5
301.518	301.5
301.748	308.5
301.979	319.5
302.209	313.5
302.439	323.5
302.669	308.5
302.9	285.5
303.13	299.5
303.36	322.5
303.59	328.5
303.82	306.5
304.051	314.5
304.281	334.5
304.511	326.5
304.741	307.5
304.971	307.5
305.201	322.5
305.431	322.5
305.661	304.5
305.891	325.5
306.121	337.5
306.352	316.5
306.582	329.5
306.812	310.5
307.042	316.5
307.272	306.5
307.502	300.5
307.731	307.5
307.961	333.5
308.191	316.5
308.421	331.5
308.651	307.5
308.881	336.5
309.111	319.5
309.341	325.5
309.571	335.5
309.8	328.5
310.03	330.5
310.26	338.5
310.49	357.5
310.72	338.5
310.949	359.5
311.179	345.5
311.409	347.5
311.639	351.5
311.868	348.5
312.098	344.5
312.328	343.5
312.557	346.5
312.787	355.5
313.017	375.5
313.246	343.5
313.476	331.5
313.706	349.5
313.935	350.5
314.165	365.5
314.394	352.5
314.624	374.5
314.853	371.5
315.083	373.5
315.312	357.5
315.542	340.5
315.771	347.5
316.001	358.5
316.23	335.5
316.46	350.5
316.689	354.5
316.919	359.5
317.148	357.5
317.377	358.5
317.607	346.5
317.836	360.5
318.065	360.5
318.295	371.5
318.524	370.5
318.753	360.5
318.983	353.5
319.212	367.5
319.441	365.5
319.67	344.5
319.9	355.5
320.129	354.5
320.358	347.5
320.587	342.5
320.816	370.5
321.046	366.5
321.275	365.5
321.504	327.5
321.733	349.5
321.962	371.5
322.191	376.5
322.42	395.5
322.649	404.5
322.878	392.5
323.108	405.5
323.337	394.5
323.566	400.5
323.795	430.5
324.024	460.5
324.253	532.5
324.482	679.5
324.71	990.5
324.939	1285.5
325.168	1093.5
325.397	643.5
325.626	482.5
325.855	448.5
326.084	419.5
326.313	438.5
326.542	419.5
326.77	435.5
326.999	490.5
327.228	634.5
327.457	896.5
327.686	982.5
327.914	720.5
328.143	540.5
328.372	456.5
328.6	453.5
328.829	441.5
329.058	440.5
329.287	465.5
329.515	429.5
329.744	417.5
329.972	426.5
330.201	437.5
330.43	449.5
330.658	459.5
330.887	448.5
331.115	463.5
331.344	445.5
331.572	429.5
331.801	440.5
332.03	395.5
332.258	398.5
332.486	413.5
332.715	437.5
332.943	407.5
333.172	410.5
333.4	434.5
333.629	411.5
333.857	439.5
334.085	437.5
334.314	459.5
334.542	467.5
334.771	483.5
334.999	457.5
335.227	444.5
335.455	437.5
335.684	425.5
335.912	434.5
336.14	405.5
336.369	406.5
336.597	398.5
336.825	419.5
337.053	411.5
337.281	387.5
337.51	367.5
337.738	409.5
337.966	418.5
338.194	415.5
338.422	394.5
338.65	401.5
338.878	389.5
339.106	394.5
339.334	396.5
339.562	382.5
339.79	397.5
340.018	409.5
340.246	386.5
340.474	403.5
340.702	399.5
340.93	385.5
341.158	402.5
341.386	390.5
341.614	373.5
341.842	393.5
342.07	394.5
342.298	379.5
342.526	382.5
342.754	384.5
342.981	377.5
343.209	387.5
343.437	399.5
343.665	388.5
343.893	408.5
344.12	415.5
344.348	408.5
344.576	395.5
344.804	393.5
345.031	405.5
345.259	409.5
345.487	409.5
345.714	373.5
345.942	361.5
346.17	361.5
346.397	392.5
346.625	366.5
346.853	362.5
347.08	367.5
347.308	388.5
347.535	383.5
347.763	400.5
347.99	369.5
348.218	397.5
348.445	388.5
348.673	379.5
348.9	377.5
349.128	364.5
349.355	375.5
349.583	364.5
349.81	364.5
350.037	362.5
350.265	391.5
350.492	387.5
350.72	358.5
350.947	378.5
351.174	363.5
351.402	388.5
351.629	387.5
351.856	349.5
352.083	369.5
352.311	383.5
352.538	357.5
352.765	376.5
352.992	375.5
353.22	395.5
353.447	350.5
353.674	357.5
353.901	357.5
354.128	359.5
354.355	362.5
354.583	342.5
354.81	355.5
355.037	348.5
355.264	363.5
355.491	359.5
355.718	330.5
355.945	338.5
356.172	355.5
356.399	363.5
356.626	354.5
356.853	350.5
357.08	371.5
357.307	362.5
357.534	356.5
357.761	359.5
357.988	335.5
358.215	349.5
358.441	348.5
358.668	345.5
358.895	351.5
359.122	358.5
359.349	361.5
359.576	363.5
359.802	367.5
360.029	373.5
360.256	384.5
360.483	363.5
360.709	361.5
360.936	357.5
361.163	357.5
361.39	358.5
361.616	360.5
361.843	369.5
362.07	373.5
362.296	355.5
362.523	365.5
362.749	375.5
362.976	351.5
363.203	364.5
363.429	357.5
363.656	347.5
363.882	341.5
364.109	346.5
364.335	357.5
364.562	341.5
364.788	341.5
365.015	348.5
365.241	349.5
365.468	347.5
365.694	346.5
365.92	355.5
366.147	350.5
366.373	355.5
366.599	337.5
366.826	361.5
367.052	339.5
367.278	353.5
367.505	338.5
367.731	347.5
367.957	344.5
368.184	339.5
368.41	356.5
368.636	365.5
368.862	364.5
369.089	358.5
369.315	346.5
369.541	345.5
369.767	345.5
369.993	355.5
370.219	361.5
370.445	347.5
370.672	359.5
370.898	363.5
371.124	350.5
371.35	347.5
371.576	348.5
371.802	353.5
372.028	349.5
372.254	359.5
372.48	361.5
372.706	359.5
372.932	345.5
373.158	354.5
373.384	365.5
373.61	346.5
373.835	357.5
374.061	361.5
374.287	336.5
374.513	365.5
374.739	367.5
374.965	362.5
375.191	353.5
375.416	350.5
375.642	351.5
375.868	363.5
376.094	371.5
376.319	354.5
376.545	345.5
376.771	346.5
376.997	335.5
377.222	344.5
377.448	338.5
377.674	350.5
377.899	345.5
378.125	348.5
378.35	337.5
378.576	344.5
378.802	348.5
379.027	361.5
379.253	353.5
379.478	333.5
379.704	361.5
379.929	347.5
380.155	337.5
380.38	347.5
380.606	331.5
380.831	348.5
381.057	345.5
381.282	341.5
381.507	342.5
381.733	355.5
381.958	355.5
382.184	363.5
382.409	351.5
382.634	342.5
382.86	346.5
383.085	355.5
383.31	367.5
383.535	364.5
383.761	344.5
383.986	354.5
384.211	353.5
384.436	372.5
384.662	368.5
384.887	369.5
385.112	367.5
385.337	369.5
385.562	381.5
385.787	371.5
386.013	378.5
386.238	409.5
386.463	375.5
386.688	374.5
386.913	375.5
387.138	365.5
387.363	382.5
387.588	359.5
387.813	370.5
388.038	374.5
388.263	391.5
388.488	390.5
388.713	375.5
388.938	370.5
389.163	363.5
389.387	369.5
389.612	382.5
389.837	370.5
390.062	373.5
390.287	393.5
390.512	376.5
390.736	381.5
390.961	372.5
391.186	385.5
391.411	374.5
391.636	396.5
391.86	387.5
392.085	379.5
392.31	392.5
392.534	369.5
392.759	397.5
392.984	375.5
393.208	371.5
393.433	376.5
393.658	367.5
393.882	370.5
394.107	375.5
394.331	356.5
394.556	374.5
394.78	388.5
395.005	368.5
395.229	370.5
395.454	377.5
395.678	383.5
395.903	391.5
396.127	411.5
396.352	409.5
396.576	396.5
396.801	372.5
397.025	395.5
397.249	397.5
397.474	398.5
397.698	396.5
397.922	409.5
398.147	408.5
398.371	402.5
398.595	420.5
398.82	406.5
399.044	427.5
399.268	454.5
399.492	462.5
399.717	511.5
399.941	494.5
400.165	534.5
400.389	506.5
400.613	460.5
400.837	433.5
401.062	442.5
401.286	437.5
401.51	420.5
401.734	426.5
401.958	411.5
402.182	417.5
402.406	437.5
402.63	414.5
402.854	429.5
403.078	433.5
403.302	412.5
403.526	419.5
403.75	431.5
403.974	435.5
404.198	424.5
404.422	433.5
404.645	432.5
404.869	429.5
405.093	467.5
405.317	461.5
405.541	501.5
405.765	469.5
405.988	469.5
406.212	460.5
406.436	474.5
406.66	459.5
406.883	447.5
407.107	505.5
407.331	498.5
407.555	551.5
407.778	527.5
408.002	517.5
408.226	481.5
408.449	466.5
408.673	459.5
408.896	457.5
409.12	505.5
409.344	467.5
409.567	463.5
409.791	418.5
410.014	446.5
410.238	420.5
410.461	406.5
410.685	426.5
410.908	439.5
411.132	451.5
411.355	461.5
411.578	474.5
411.802	421.5
412.025	435.5
412.249	435.5
412.472	450.5
412.695	455.5
412.919	454.5
413.142	410.5
413.365	417.5
413.589	409.5
413.812	412.5
414.035	401.5
414.258	414.5
414.482	419.5
414.705	403.5
414.928	409.5
415.151	405.5
415.374	419.5
415.597	403.5
415.821	393.5
416.044	396.5
416.267	402.5
416.49	406.5
416.713	401.5
416.936	403.5
417.159	391.5
417.382	398.5
417.605	398.5
417.828	405.5
418.051	414.5
418.274	384.5
418.497	393.5
418.72	395.5
418.943	413.5
419.166	436.5
419.389	424.5
419.611	418.5
419.834	415.5
420.057	425.5
420.28	420.5
420.503	401.5
420.726	412.5
420.948	403.5
421.171	430.5
421.394	457.5
421.617	432.5
421.839	413.5
422.062	436.5
422.285	424.5
422.507	466.5
422.73	484.5
422.953	467.5
423.175	452.5
423.398	419.5
423.621	435.5
423.843	435.5
424.066	446.5
424.288	434.5
424.511	444.5
424.733	474.5
424.956	497.5
425.178	482.5
425.401	499.5
425.623	514.5
425.846	455.5
426.068	408.5
426.291	421.5
426.513	431.5
426.735	417.5
426.958	433.5
427.18	491.5
427.402	571.5
427.625	644.5
427.847	548.5
428.069	457.5
428.292	430.5
428.514	410.5
428.736	407.5
428.958	405.5
429.181	391.5
429.403	395.5
429.625	406.5
429.847	422.5
430.069	456.5
430.292	436.5
430.514	417.5
430.736	390.5
430.958	378.5
431.18	371.5
431.402	379.5
431.624	362.5
431.846	370.5
432.068	382.5
432.29	370.5
432.512	370.5
432.734	387.5
432.956	372.5
433.178	387.5
433.4	397.5
433.622	393.5
433.844	381.5
434.066	394.5
434.287	383.5
434.509	378.5
434.731	391.5
434.953	402.5
435.175	391.5
435.397	391.5
435.618	410.5
435.84	452.5
436.062	487.5
436.284	535.5
436.505	445.5
436.727	423.5
436.949	405.5
437.17	394.5
437.392	408.5
437.614	389.5
437.835	433.5
438.057	463.5
438.278	512.5
438.5	540.5
438.721	581.5
438.943	542.5
439.165	452.5
439.386	446.5
439.608	419.5
439.829	418.5
440.05	438.5
440.272	465.5
440.493	446.5
440.715	419.5
440.936	389.5
441.158	397.5
441.379	392.5
441.6	391.5
441.822	417.5
442.043	430.5
442.264	499.5
442.486	500.5
442.707	438.5
442.928	421.5
443.149	433.5
443.371	461.5
443.592	461.5
443.813	548.5
444.034	538.5
444.255	462.5
444.476	437.5
444.698	418.5
444.919	425.5
445.14	560.5
445.361	482.5
445.582	468.5
445.803	481.5
446.024	527.5
446.245	545.5
446.466	477.5
446.687	445.5
446.908	418.5
447.129	411.5
447.35	407.5
447.571	387.5
447.792	396.5
448.013	383.5
448.234	400.5
448.455	429.5
448.675	494.5
448.896	564.5
449.117	501.5
449.338	470.5
449.559	510.5
449.779	596.5
450	479.5
450.221	421.5
450.442	399.5
450.662	385.5
450.883	381.5
451.104	365.5
451.324	383.5
451.545	387.5
451.766	360.5
451.986	354.5
452.207	331.5
452.428	362.5
452.648	347.5
452.869	347.5
453.089	329.5
453.31	366.5
453.53	353.5
453.751	360.5
453.971	350.5
454.192	363.5
454.412	355.5
454.633	347.5
454.853	341.5
455.073	345.5
455.294	360.5
455.514	391.5
455.734	373.5
455.955	357.5
456.175	361.5
456.395	328.5
456.616	331.5
456.836	328.5
457.056	334.5
457.276	324.5
457.497	349.5
457.717	331.5
457.937	348.5
458.157	350.5
458.377	357.5
458.598	363.5
458.818	389.5
459.038	423.5
459.258	425.5
459.478	383.5
459.698	377.5
459.918	367.5
460.138	368.5
460.358	385.5
460.578	383.5
460.798	389.5
461.018	402.5
461.238	387.5
461.458	381.5
461.678	386.5
461.898	380.5
462.118	394.5
462.338	392.5
462.558	398.5
462.777	417.5
462.997	436.5
463.217	441.5
463.437	440.5
463.657	418.5
463.876	413.5
464.096	422.5
464.316	411.5
464.536	409.5
464.755	403.5
464.975	414.5
465.195	413.5
465.414	447.5
465.634	412.5
465.854	410.5
466.073	395.5
466.293	364.5
466.512	371.5
466.732	368.5
466.951	382.5
467.171	353.5
467.391	375.5
467.61	369.5
467.829	368.5
468.049	372.5
468.268	369.5
468.488	359.5
468.707	357.5
468.927	367.5
469.146	364.5
469.365	357.5
469.585	345.5
469.804	365.5
470.023	351.5
470.243	365.5
470.462	361.5
470.681	363.5
470.901	364.5
471.12	373.5
471.339	380.5
471.558	363.5
471.777	393.5
471.997	367.5
472.216	376.5
472.435	408.5
472.654	369.5
472.873	366.5
473.092	383.5
473.311	357.5
473.53	369.5
473.749	378.5
473.968	379.5
474.187	424.5
474.406	482.5
474.625	394.5
474.844	387.5
475.063	361.5
475.282	378.5
475.501	365.5
475.72	379.5
475.939	360.5
476.158	379.5
476.377	383.5
476.596	368.5
476.814	380.5
477.033	396.5
477.252	376.5
477.471	395.5
477.69	405.5
477.908	381.5
478.127	412.5
478.346	393.5
478.564	410.5
478.783	418.5
479.002	405.5
479.22	417.5
479.439	435.5
479.658	443.5
479.876	437.5
480.095	430.5
480.313	442.5
480.532	466.5
480.751	452.5
480.969	434.5
481.188	474.5
481.406	474.5
481.624	450.5
481.843	453.5
482.061	437.5
482.28	418.5
482.498	429.5
482.717	414.5
482.935	452.5
483.153	432.5
483.372	417.5
483.59	428.5
483.808	442.5
484.027	434.5
484.245	441.5
484.463	421.5
484.681	435.5
484.9	433.5
485.118	412.5
485.336	447.5
485.554	441.5
485.772	451.5
485.99	428.5
486.209	446.5
486.427	434.5
486.645	457.5
486.863	444.5
487.081	450.5
487.299	436.5
487.517	444.5
487.735	425.5
487.953	429.5
488.171	458.5
488.389	459.5
488.607	441.5
488.825	468.5
489.043	443.5
489.261	441.5
489.479	456.5
489.696	457.5
489.914	453.5
490.132	451.5
490.35	455.5
490.568	462.5
490.786	465.5
491.003	478.5
491.221	477.5
491.439	478.5
491.657	479.5
491.874	483.5
492.092	479.5
492.31	492.5
492.527	517.5
492.745	489.5
492.963	513.5
493.18	511.5
493.398	493.5
493.615	490.5
493.833	505.5
494.05	524.5
494.268	501.5
494.485	509.5
494.703	494.5
494.92	489.5
495.138	504.5
495.355	515.5
495.573	502.5
495.79	514.5
496.008	521.5
496.225	507.5
496.442	520.5
496.66	511.5
496.877	536.5
497.094	549.5
497.312	508.5
497.529	538.5
497.746	575.5
497.963	543.5
498.181	595.5
498.398	589.5
498.615	574.5
498.832	602.5
499.049	612.5
499.267	629.5
499.484	648.5
499.701	682.5
499.918	692.5
500.135	739.5
500.352	753.5
500.569	754.5
500.786	762.5
501.003	738.5
501.22	712.5
501.437	712.5
501.654	694.5
501.871	662.5
502.088	624.5
502.305	601.5
502.522	605.5
502.739	598.5
502.956	551.5
503.172	566.5
503.389	541.5
503.606	549.5
503.823	575.5
504.04	533.5
504.256	547.5
504.473	537.5
504.69	522.5
504.907	529.5
505.123	530.5
505.34	498.5
505.557	498.5
505.773	510.5
505.99	486.5
506.207	462.5
506.423	499.5
506.64	487.5
506.856	472.5
507.073	473.5
507.289	487.5
507.506	460.5
507.722	486.5
507.939	504.5
508.155	485.5
508.372	471.5
508.588	457.5
508.805	464.5
509.021	453.5
509.238	478.5
509.454	452.5
509.67	473.5
509.887	437.5
510.103	462.5
510.319	473.5
510.536	515.5
510.752	723.5
510.968	592.5
511.184	467.5
511.401	463.5
511.617	453.5
511.833	450.5
512.049	428.5
512.265	436.5
512.481	461.5
512.698	434.5
512.914	438.5
513.13	450.5
513.346	435.5
513.562	432.5
513.778	439.5
513.994	425.5
514.21	447.5
514.426	447.5
514.642	466.5
514.858	473.5
515.074	496.5
515.29	559.5
515.506	731.5
515.721	635.5
515.937	513.5
516.153	477.5
516.369	471.5
516.585	476.5
516.801	448.5
517.016	445.5
517.232	441.5
517.448	471.5
517.664	465.5
517.879	485.5
518.095	453.5
518.311	466.5
518.527	461.5
518.742	465.5
518.958	452.5
519.173	454.5
519.389	452.5
519.605	454.5
519.82	439.5
520.036	459.5
520.251	463.5
520.467	460.5
520.682	470.5
520.898	451.5
521.113	460.5
521.329	498.5
521.544	517.5
521.76	595.5
521.975	869.5
522.19	842.5
522.406	555.5
522.621	441.5
522.836	423.5
523.052	422.5
523.267	431.5
523.482	411.5
523.698	387.5
523.913	404.5
524.128	406.5
524.343	407.5
524.559	404.5
524.774	381.5
524.989	391.5
525.204	395.5
525.419	388.5
525.634	392.5
525.849	401.5
526.064	412.5
526.28	380.5
526.495	382.5
526.71	398.5
526.925	386.5
527.14	382.5
527.355	386.5
527.57	380.5
527.785	364.5
527.999	375.5
528.214	375.5
528.429	355.5
528.644	375.5
528.859	379.5
529.074	355.5
529.289	372.5
529.503	418.5
529.718	402.5
529.933	389.5
530.148	392.5
530.363	390.5
530.577	371.5
530.792	370.5
531.007	357.5
531.221	379.5
531.436	361.5
531.651	373.5
531.865	351.5
532.08	366.5
532.295	377.5
532.509	371.5
532.724	370.5
532.938	361.5
533.153	364.5
533.367	379.5
533.582	366.5
533.796	360.5
534.011	366.5
534.225	348.5
534.44	345.5
534.654	362.5
534.868	365.5
535.083	350.5
535.297	361.5
535.511	381.5
535.726	373.5
535.94	382.5
536.154	353.5
536.369	331.5
536.583	357.5
536.797	362.5
537.011	339.5
537.225	356.5
537.44	341.5
537.654	331.5
537.868	332.5
538.082	330.5
538.296	341.5
538.51	351.5
538.724	363.5
538.938	362.5
539.153	361.5
539.367	350.5
539.581	340.5
539.795	343.5
540.009	362.5
540.222	359.5
540.436	362.5
540.65	340.5
540.864	343.5
541.078	363.5
541.292	351.5
541.506	344.5
541.72	344.5
541.934	321.5
542.147	353.5
542.361	342.5
542.575	342.5
542.789	348.5
543.002	346.5
543.216	356.5
543.43	357.5
543.644	348.5
543.857	350.5
544.071	359.5
544.285	343.5
544.498	340.5
544.712	338.5
544.925	341.5
545.139	338.5
545.352	365.5
545.566	358.5
545.779	334.5
545.993	333.5
546.206	338.5
546.42	332.5
546.633	348.5
546.847	331.5
547.06	329.5
547.274	322.5
547.487	334.5
547.7	320.5
547.914	340.5
548.127	353.5
548.34	339.5
548.554	340.5
548.767	335.5
548.98	341.5
549.193	337.5
549.407	344.5
549.62	323.5
549.833	334.5
550.046	331.5
550.259	334.5
550.473	327.5
550.686	311.5
550.899	337.5
551.112	325.5
551.325	343.5
551.538	318.5
551.751	324.5
551.964	315.5
552.177	329.5
552.39	364.5
552.603	332.5
552.816	338.5
553.029	336.5
553.242	317.5
553.455	361.5
553.667	329.5
553.88	345.5
554.093	350.5
554.306	337.5
554.519	330.5
554.732	339.5
554.944	330.5
555.157	327.5
555.37	340.5
555.583	333.5
555.795	316.5
556.008	313.5
556.221	307.5
556.433	305.5
556.646	326.5
556.859	305.5
557.071	294.5
557.284	303.5
557.496	306.5
557.709	290.5
557.921	289.5
558.134	280.5
558.346	294.5
558.559	300.5
558.771	291.5
558.984	305.5
559.196	310.5
559.409	303.5
559.621	311.5
559.833	316.5
560.046	298.5
560.258	298.5
560.47	300.5
560.683	293.5
560.895	308.5
561.107	295.5
561.32	312.5
561.532	297.5
561.744	301.5
561.956	304.5
562.168	285.5
562.381	300.5
562.593	285.5
562.805	323.5
563.017	301.5
563.229	286.5
563.441	295.5
563.653	312.5
563.865	306.5
564.077	305.5
564.289	294.5
564.501	310.5
564.713	314.5
564.925	322.5
565.137	328.5
565.349	327.5
565.561	315.5
565.773	333.5
565.985	340.5
566.197	326.5
566.408	340.5
566.62	343.5
566.832	369.5
567.044	364.5
567.255	379.5
567.467	384.5
567.679	381.5
567.891	374.5
568.102	383.5
568.314	404.5
568.526	365.5
568.737	346.5
568.949	330.5
569.161	331.5
569.372	337.5
569.584	327.5
569.795	317.5
570.007	297.5
570.218	326.5
570.43	329.5
570.641	311.5
570.853	304.5
571.064	293.5
571.276	297.5
571.487	283.5
571.698	283.5
571.91	289.5
572.121	293.5
572.333	292.5
572.544	287.5
572.755	267.5
572.966	281.5
573.178	278.5
573.389	261.5
573.6	269.5
573.811	283.5
574.023	276.5
574.234	274.5
574.445	266.5
574.656	259.5
574.867	268.5
575.078	265.5
575.289	268.5
575.501	269.5
575.712	267.5
575.923	276.5
576.134	257.5
576.345	257.5
576.556	250.5
576.767	264.5
576.978	266.5
577.188	256.5
577.399	268.5
577.61	264.5
577.821	241.5
578.032	261.5
578.243	270.5
578.454	373.5
578.665	273.5
578.875	248.5
579.086	245.5
579.297	250.5
579.508	242.5
579.718	251.5
579.929	245.5
580.14	251.5
580.35	246.5
580.561	256.5
580.772	242.5
580.982	224.5
581.193	220.5
581.403	243.5
581.614	252.5
581.825	253.5
582.035	244.5
582.246	256.5
582.456	250.5
582.667	251.5
582.877	239.5
583.087	230.5
583.298	242.5
583.508	235.5
583.719	242.5
583.929	251.5
584.139	244.5
584.35	243.5
584.56	230.5
584.77	246.5
584.981	249.5
585.191	238.5
585.401	229.5
585.611	235.5
585.821	237.5
586.032	230.5
586.242	233.5
586.452	242.5
586.662	241.5
586.872	233.5
587.082	242.5
587.292	230.5
587.502	251.5
587.713	250.5
587.923	233.5
588.133	232.5
588.343	252.5
588.553	221.5
588.762	219.5
588.972	245.5
589.182	319.5
589.392	318.5
589.602	255.5
589.812	291.5
590.022	263.5
590.232	236.5
590.441	242.5
590.651	222.5
590.861	244.5
591.071	214.5
591.281	237.5
591.49	229.5
591.7	248.5
591.91	248.5
592.119	225.5
592.329	229.5
592.539	251.5
592.748	237.5
592.958	251.5
593.167	249.5
593.377	250.5
593.587	247.5
593.796	244.5
594.006	240.5
594.215	257.5
594.424	235.5
594.634	248.5
594.843	234.5
595.053	243.5
595.262	233.5
595.472	234.5
595.681	231.5
595.89	235.5
596.1	246.5
596.309	219.5
596.518	227.5
596.727	227.5
596.937	238.5
597.146	209.5
597.355	227.5
597.564	204.5
597.774	204.5
597.983	222.5
598.192	217.5
598.401	212.5
598.61	215.5
598.819	219.5
599.028	223.5
599.237	217.5
599.446	208.5
599.655	222.5
599.864	225.5
600.073	203.5
600.282	194.5
600.491	207.5
600.7	211.5
600.909	205.5
601.118	194.5
601.327	211.5
601.536	198.5
601.745	199.5
601.953	198.5
602.162	196.5
602.371	205.5
602.58	207.5
602.789	195.5
602.997	206.5
603.206	205.5
603.415	195.5
603.623	209.5
603.832	209.5
604.041	213.5
604.249	213.5
604.458	203.5
604.666	204.5
604.875	203.5
605.084	197.5
605.292	204.5
605.501	219.5
605.709	212.5
605.918	204.5
606.126	216.5
606.334	201.5
606.543	195.5
606.751	200.5
606.96	208.5
607.168	191.5
607.376	188.5
607.585	202.5
607.793	184.5
608.001	185.5
608.21	169.5
608.418	194.5
608.626	204.5
608.834	203.5
609.043	187.5
609.251	197.5
609.459	186.5
609.667	205.5
609.875	205.5
610.083	198.5
610.291	199.5
610.499	180.5
610.707	194.5
610.916	193.5
611.124	197.5
611.332	191.5
611.54	190.5
611.748	194.5
611.955	200.5
612.163	191.5
612.371	184.5
612.579	193.5
612.787	166.5
612.995	191.5
613.203	196.5
613.411	197.5
613.618	197.5
613.826	197.5
614.034	195.5
614.242	186.5
614.449	204.5
614.657	169.5
614.865	186.5
615.072	201.5
615.28	185.5
615.488	203.5
615.695	206.5
615.903	200.5
616.111	190.5
616.318	196.5
616.526	201.5
616.733	192.5
616.941	187.5
617.148	184.5
617.356	199.5
617.563	189.5
617.771	179.5
617.978	186.5
618.185	190.5
618.393	204.5
618.6	199.5
618.807	190.5
619.015	188.5
619.222	213.5
619.429	183.5
619.637	185.5
619.844	198.5
620.051	189.5
620.258	185.5
620.466	172.5
620.673	179.5
620.88	184.5
621.087	184.5
621.294	188.5
621.501	197.5
621.708	197.5
621.915	165.5
622.122	186.5
622.329	188.5
622.536	178.5
622.743	182.5
622.95	192.5
623.157	186.5
623.364	186.5
623.571	174.5
623.778	186.5
623.985	176.5
624.192	176.5
624.399	174.5
624.606	175.5
624.812	185.5
625.019	178.5
625.226	170.5
625.433	174.5
625.639	190.5
625.846	176.5
626.053	163.5
626.259	165.5
626.466	177.5
626.673	167.5
626.879	175.5
627.086	165.5
627.293	164.5
627.499	148.5
627.706	165.5
627.912	169.5
628.119	173.5
628.325	175.5
628.532	163.5
628.738	156.5
628.945	169.5
629.151	161.5
629.357	164.5
629.564	159.5
629.77	153.5
629.976	153.5
630.183	179.5
630.389	153.5
630.595	168.5
630.802	163.5
631.008	167.5
631.214	168.5
631.42	170.5
631.627	181.5
631.833	149.5
632.039	159.5
632.245	178.5
632.451	177.5
632.657	163.5
632.863	157.5
633.069	157.5
633.275	162.5
633.481	148.5
633.688	165.5
633.893	146.5
634.099	158.5
634.305	165.5
634.511	171.5
634.717	152.5
634.923	161.5
635.129	154.5
635.335	148.5
635.541	150.5
635.747	166.5
635.952	150.5
636.158	157.5
636.364	141.5
636.57	166.5
636.775	163.5
636.981	176.5
637.187	150.5
637.392	171.5
637.598	155.5
637.804	151.5
638.009	157.5
638.215	151.5
638.421	147.5
638.626	146.5
638.832	158.5
639.037	150.5
639.243	157.5
639.448	151.5
639.654	138.5
639.859	151.5
640.065	145.5
640.27	156.5
640.475	150.5
640.681	145.5
640.886	154.5
641.091	147.5
641.297	156.5
641.502	129.5
641.707	169.5
641.913	150.5
642.118	142.5
642.323	153.5
642.528	136.5
642.733	146.5
642.939	157.5
643.144	151.5
643.349	151.5
643.554	146.5
643.759	143.5
643.964	151.5
644.169	134.5
644.374	131.5
644.579	145.5
644.784	151.5
644.989	137.5
645.194	155.5
645.399	157.5
645.604	139.5
645.809	142.5
646.014	151.5
646.219	139.5
646.423	139.5
646.628	151.5
646.833	145.5
647.038	155.5
647.243	162.5
647.447	162.5
647.652	152.5
647.857	127.5
648.062	140.5
648.266	151.5
648.471	149.5
648.676	143.5
648.88	155.5
649.085	145.5
649.289	163.5
649.494	157.5
649.698	141.5
649.903	175.5
650.107	148.5
650.312	144.5
650.516	145.5
650.721	132.5
650.925	147.5
651.13	125.5
651.334	131.5
651.539	132.5
651.743	154.5
651.947	131.5
652.152	144.5
652.356	151.5
652.56	138.5
652.764	122.5
652.969	119.5
653.173	136.5
653.377	119.5
653.581	122.5
653.785	126.5
653.99	145.5
654.194	131.5
654.398	124.5
654.602	124.5
654.806	126.5
655.01	148.5
655.214	137.5
655.418	118.5
655.622	120.5
655.826	123.5
656.03	116.5
656.234	141.5
656.438	139.5
656.642	135.5
656.846	126.5
657.049	127.5
657.253	118.5
657.457	117.5
657.661	133.5
657.865	110.5
658.068	115.5
658.272	111.5
658.476	118.5
658.68	100.5
658.883	112.5
659.087	99.5
659.291	118.5
659.494	105.5
659.698	95.5
659.901	104.5
660.105	103.5
660.309	94.5
660.512	107.5
660.716	89.5
660.919	94.5
661.123	85.5
661.326	96.5
661.53	105.5
661.733	84.5
661.936	87.5
662.14	102.5
662.343	85.5
662.546	91.5
662.75	89.5
662.953	94.5
663.156	68.5
663.36	65.5
663.563	84.5
663.766	70.5
663.969	82.5
664.173	93.5
664.376	83.5
664.579	89.5
664.782	92.5
664.985	79.5
665.188	97.5
665.391	91.5
665.594	86.5
665.797	97.5
666	62.5
666.203	90.5
666.406	87.5
666.609	83.5
666.812	70.5
667.015	82.5
667.218	67.5
667.421	54.5
667.624	71.5
667.827	90.5
668.03	88.5
668.232	94.5
668.435	87.5
668.638	60.5
668.841	80.5
669.043	71.5
669.246	74.5
669.449	101.5
669.651	89.5
669.854	88.5
670.057	86.5
670.259	63.5
670.462	86.5
670.665	73.5
670.867	94.5
671.07	90.5
671.272	91.5
671.475	80.5
671.677	90.5
671.88	90.5
672.082	79.5
672.284	83.5
672.487	82.5
672.689	83.5
672.892	93.5
