Data from 1960PennyLincolnUp.LampE6.200Scan.07172019.P1_HRD10591_13-05-11-002.txt Node
Date: Thu Jul 18 13:05:11 EDT 2019
User: cochatt
Spectrometer: HR+D1059
Trigger mode: 1
Integration Time (sec): 1.000000E-1
Scans to average: 1
Electric dark correction enabled: true
Nonlinearity correction enabled: false
Boxcar width: 0
XAxis mode: Wavelengths
Number of Pixels in Spectrum: 2048
>>>>>Begin Spectral Data<<<<<
223.165	-16.69
223.4	-16.69
223.635	-16.69
223.869	-18.69
224.104	-13.69
224.338	-4.69
224.573	-9.69
224.808	-10.69
225.042	-8.69
225.277	-3.69
225.511	-6.69
225.746	-8.69
225.98	19.31
226.215	13.31
226.449	20.31
226.683	6.31
226.918	13.31
227.152	29.31
227.387	35.31
227.621	32.31
227.856	37.31
228.09	44.31
228.324	36.31
228.559	46.31
228.793	62.31
229.027	83.31
229.262	78.31
229.496	100.31
229.73	96.31
229.964	114.31
230.199	117.31
230.433	102.31
230.667	101.31
230.901	105.31
231.136	101.31
231.37	88.31
231.604	102.31
231.838	103.31
232.072	120.31
232.306	105.31
232.541	118.31
232.775	114.31
233.009	103.31
233.243	105.31
233.477	109.31
233.711	117.31
233.945	109.31
234.179	92.31
234.413	94.31
234.647	113.31
234.881	121.31
235.115	107.31
235.349	104.31
235.583	98.31
235.817	127.31
236.051	112.31
236.285	116.31
236.519	103.31
236.753	110.31
236.987	122.31
237.221	133.31
237.455	164.31
237.689	138.31
237.922	123.31
238.156	109.31
238.39	111.31
238.624	118.31
238.858	106.31
239.091	122.31
239.325	101.31
239.559	103.31
239.793	112.31
240.027	120.31
240.26	132.31
240.494	126.31
240.728	111.31
240.961	141.31
241.195	129.31
241.429	129.31
241.662	136.31
241.896	118.31
242.13	122.31
242.363	101.31
242.597	117.31
242.83	127.31
243.064	138.31
243.298	120.31
243.531	124.31
243.765	125.31
243.998	129.31
244.232	132.31
244.465	126.31
244.699	123.31
244.932	133.31
245.166	127.31
245.399	135.31
245.633	128.31
245.866	127.31
246.099	124.31
246.333	138.31
246.566	133.31
246.8	132.31
247.033	136.31
247.266	131.31
247.5	150.31
247.733	148.31
247.966	149.31
248.2	155.31
248.433	140.31
248.666	138.31
248.899	166.31
249.133	150.31
249.366	168.31
249.599	182.31
249.832	169.31
250.066	153.31
250.299	161.31
250.532	164.31
250.765	183.31
250.998	199.31
251.231	171.31
251.465	189.31
251.698	172.31
251.931	167.31
252.164	176.31
252.397	177.31
252.63	175.31
252.863	190.31
253.096	184.31
253.329	183.31
253.562	182.31
253.795	161.31
254.028	177.31
254.261	176.31
254.494	166.31
254.727	194.31
254.96	209.31
255.193	204.31
255.426	193.31
255.659	189.31
255.892	193.31
256.124	190.31
256.357	204.31
256.59	174.31
256.823	190.31
257.056	190.31
257.289	181.31
257.521	199.31
257.754	169.31
257.987	165.31
258.22	176.31
258.452	175.31
258.685	182.31
258.918	177.31
259.151	172.31
259.383	192.31
259.616	184.31
259.849	203.31
260.081	211.31
260.314	210.31
260.547	210.31
260.779	195.31
261.012	204.31
261.244	201.31
261.477	198.31
261.71	182.31
261.942	190.31
262.175	192.31
262.407	200.31
262.64	177.31
262.872	173.31
263.105	188.31
263.337	201.31
263.57	204.31
263.802	192.31
264.035	186.31
264.267	194.31
264.499	199.31
264.732	205.31
264.964	201.31
265.197	212.31
265.429	188.31
265.661	189.31
265.894	190.31
266.126	204.31
266.358	198.31
266.591	200.31
266.823	192.31
267.055	216.31
267.287	197.31
267.52	205.31
267.752	197.31
267.984	192.31
268.216	222.31
268.448	216.31
268.681	201.31
268.913	228.31
269.145	236.31
269.377	226.31
269.609	221.31
269.841	230.31
270.073	229.31
270.306	247.31
270.538	247.31
270.77	260.31
271.002	239.31
271.234	224.31
271.466	226.31
271.698	260.31
271.93	252.31
272.162	250.31
272.394	271.31
272.626	254.31
272.858	226.31
273.09	230.31
273.322	236.31
273.553	215.31
273.785	234.31
274.017	234.31
274.249	236.31
274.481	241.31
274.713	245.31
274.945	239.31
275.176	238.31
275.408	239.31
275.64	244.31
275.872	254.31
276.104	237.31
276.335	231.31
276.567	249.31
276.799	243.31
277.031	259.31
277.262	266.31
277.494	266.31
277.726	268.31
277.957	248.31
278.189	251.31
278.421	247.31
278.652	235.31
278.884	256.31
279.115	258.31
279.347	250.31
279.579	254.31
279.81	265.31
280.042	265.31
280.273	258.31
280.505	266.31
280.736	262.31
280.968	259.31
281.199	257.31
281.431	248.31
281.662	244.31
281.894	262.31
282.125	263.31
282.356	265.31
282.588	255.31
282.819	257.31
283.051	257.31
283.282	268.31
283.513	280.31
283.745	265.31
283.976	271.31
284.207	266.31
284.439	259.31
284.67	285.31
284.901	271.31
285.132	276.31
285.364	277.31
285.595	277.31
285.826	299.31
286.057	279.31
286.288	279.31
286.52	283.31
286.751	281.31
286.982	286.31
287.213	264.31
287.444	276.31
287.675	287.31
287.906	260.31
288.138	284.31
288.369	284.31
288.6	284.31
288.831	297.31
289.062	287.31
289.293	280.31
289.524	286.31
289.755	286.31
289.986	288.31
290.217	294.31
290.448	280.31
290.679	282.31
290.91	304.31
291.141	298.31
291.371	298.31
291.602	291.31
291.833	286.31
292.064	290.31
292.295	289.31
292.526	296.31
292.757	287.31
292.987	292.31
293.218	285.31
293.449	293.31
293.68	278.31
293.91	294.31
294.141	300.31
294.372	305.31
294.603	288.31
294.833	295.31
295.064	299.31
295.295	302.31
295.525	285.31
295.756	280.31
295.987	292.31
296.217	322.31
296.448	307.31
296.679	296.31
296.909	313.31
297.14	303.31
297.37	317.31
297.601	296.31
297.831	293.31
298.062	302.31
298.292	327.31
298.523	310.31
298.753	334.31
298.984	296.31
299.214	297.31
299.445	309.31
299.675	322.31
299.905	328.31
300.136	324.31
300.366	312.31
300.597	307.31
300.827	328.31
301.057	332.31
301.288	329.31
301.518	329.31
301.748	325.31
301.979	313.31
302.209	323.31
302.439	335.31
302.669	328.31
302.9	327.31
303.13	318.31
303.36	318.31
303.59	333.31
303.82	330.31
304.051	327.31
304.281	329.31
304.511	333.31
304.741	331.31
304.971	320.31
305.201	333.31
305.431	336.31
305.661	349.31
305.891	333.31
306.121	338.31
306.352	328.31
306.582	349.31
306.812	324.31
307.042	327.31
307.272	344.31
307.502	333.31
307.731	320.31
307.961	329.31
308.191	335.31
308.421	312.31
308.651	332.31
308.881	334.31
309.111	317.31
309.341	365.31
309.571	343.31
309.8	345.31
310.03	342.31
310.26	338.31
310.49	340.31
310.72	348.31
310.949	345.31
311.179	362.31
311.409	347.31
311.639	342.31
311.868	350.31
312.098	340.31
312.328	355.31
312.557	336.31
312.787	364.31
313.017	358.31
313.246	360.31
313.476	350.31
313.706	349.31
313.935	364.31
314.165	372.31
314.394	369.31
314.624	371.31
314.853	370.31
315.083	371.31
315.312	367.31
315.542	377.31
315.771	360.31
316.001	366.31
316.23	354.31
316.46	350.31
316.689	354.31
316.919	350.31
317.148	368.31
317.377	361.31
317.607	361.31
317.836	357.31
318.065	354.31
318.295	353.31
318.524	349.31
318.753	345.31
318.983	356.31
319.212	341.31
319.441	358.31
319.67	372.31
319.9	350.31
320.129	358.31
320.358	366.31
320.587	366.31
320.816	370.31
321.046	355.31
321.275	360.31
321.504	371.31
321.733	366.31
321.962	384.31
322.191	379.31
322.42	384.31
322.649	365.31
322.878	396.31
323.108	412.31
323.337	384.31
323.566	394.31
323.795	419.31
324.024	426.31
324.253	461.31
324.482	591.31
324.71	826.31
324.939	1049.31
325.168	904.31
325.397	544.31
325.626	443.31
325.855	396.31
326.084	424.31
326.313	395.31
326.542	414.31
326.77	457.31
326.999	463.31
327.228	584.31
327.457	766.31
327.686	844.31
327.914	619.31
328.143	489.31
328.372	458.31
328.6	452.31
328.829	414.31
329.058	430.31
329.287	434.31
329.515	421.31
329.744	423.31
329.972	431.31
330.201	438.31
330.43	459.31
330.658	470.31
330.887	446.31
331.115	460.31
331.344	434.31
331.572	412.31
331.801	432.31
332.03	452.31
332.258	448.31
332.486	448.31
332.715	450.31
332.943	468.31
333.172	466.31
333.4	471.31
333.629	486.31
333.857	494.31
334.085	498.31
334.314	495.31
334.542	506.31
334.771	519.31
334.999	480.31
335.227	493.31
335.455	468.31
335.684	453.31
335.912	455.31
336.14	465.31
336.369	458.31
336.597	441.31
336.825	469.31
337.053	438.31
337.281	438.31
337.51	441.31
337.738	445.31
337.966	426.31
338.194	438.31
338.422	430.31
338.65	415.31
338.878	431.31
339.106	416.31
339.334	421.31
339.562	419.31
339.79	421.31
340.018	413.31
340.246	403.31
340.474	406.31
340.702	418.31
340.93	421.31
341.158	415.31
341.386	404.31
341.614	426.31
341.842	422.31
342.07	408.31
342.298	398.31
342.526	405.31
342.754	418.31
342.981	399.31
343.209	428.31
343.437	445.31
343.665	429.31
343.893	470.31
344.12	457.31
344.348	460.31
344.576	454.31
344.804	426.31
345.031	432.31
345.259	449.31
345.487	420.31
345.714	409.31
345.942	402.31
346.17	392.31
346.397	412.31
346.625	388.31
346.853	380.31
347.08	389.31
347.308	396.31
347.535	406.31
347.763	405.31
347.99	418.31
348.218	400.31
348.445	404.31
348.673	400.31
348.9	406.31
349.128	377.31
349.355	389.31
349.583	374.31
349.81	363.31
350.037	402.31
350.265	393.31
350.492	389.31
350.72	383.31
350.947	394.31
351.174	372.31
351.402	399.31
351.629	382.31
351.856	400.31
352.083	406.31
352.311	404.31
352.538	401.31
352.765	382.31
352.992	403.31
353.22	402.31
353.447	404.31
353.674	377.31
353.901	364.31
354.128	376.31
354.355	379.31
354.583	394.31
354.81	393.31
355.037	388.31
355.264	388.31
355.491	389.31
355.718	377.31
355.945	386.31
356.172	397.31
356.399	401.31
356.626	396.31
356.853	358.31
357.08	388.31
357.307	382.31
357.534	377.31
357.761	389.31
357.988	391.31
358.215	377.31
358.441	364.31
358.668	382.31
358.895	394.31
359.122	386.31
359.349	394.31
359.576	369.31
359.802	406.31
360.029	399.31
360.256	412.31
360.483	398.31
360.709	398.31
360.936	390.31
361.163	386.31
361.39	367.31
361.616	398.31
361.843	388.31
362.07	407.31
362.296	390.31
362.523	412.31
362.749	385.31
362.976	398.31
363.203	387.31
363.429	376.31
363.656	396.31
363.882	374.31
364.109	384.31
364.335	396.31
364.562	388.31
364.788	409.31
365.015	391.31
365.241	373.31
365.468	393.31
365.694	404.31
365.92	379.31
366.147	400.31
366.373	386.31
366.599	378.31
366.826	377.31
367.052	392.31
367.278	388.31
367.505	389.31
367.731	392.31
367.957	381.31
368.184	373.31
368.41	397.31
368.636	399.31
368.862	385.31
369.089	400.31
369.315	401.31
369.541	391.31
369.767	400.31
369.993	390.31
370.219	397.31
370.445	388.31
370.672	395.31
370.898	397.31
371.124	404.31
371.35	412.31
371.576	403.31
371.802	397.31
372.028	405.31
372.254	405.31
372.48	402.31
372.706	403.31
372.932	419.31
373.158	400.31
373.384	401.31
373.61	424.31
373.835	396.31
374.061	404.31
374.287	416.31
374.513	415.31
374.739	426.31
374.965	408.31
375.191	446.31
375.416	457.31
375.642	432.31
375.868	427.31
376.094	414.31
376.319	412.31
376.545	431.31
376.771	431.31
376.997	410.31
377.222	408.31
377.448	406.31
377.674	428.31
377.899	414.31
378.125	403.31
378.35	407.31
378.576	392.31
378.802	398.31
379.027	380.31
379.253	417.31
379.478	418.31
379.704	412.31
379.929	403.31
380.155	392.31
380.38	383.31
380.606	409.31
380.831	432.31
381.057	402.31
381.282	403.31
381.507	404.31
381.733	407.31
381.958	420.31
382.184	437.31
382.409	422.31
382.634	412.31
382.86	424.31
383.085	425.31
383.31	441.31
383.535	427.31
383.761	449.31
383.986	438.31
384.211	467.31
384.436	452.31
384.662	454.31
384.887	479.31
385.112	469.31
385.337	473.31
385.562	477.31
385.787	477.31
386.013	473.31
386.238	476.31
386.463	466.31
386.688	485.31
386.913	460.31
387.138	467.31
387.363	471.31
387.588	449.31
387.813	444.31
388.038	465.31
388.263	485.31
388.488	500.31
388.713	457.31
388.938	452.31
389.163	454.31
389.387	472.31
389.612	453.31
389.837	447.31
390.062	465.31
390.287	469.31
390.512	461.31
390.736	459.31
390.961	456.31
391.186	465.31
391.411	480.31
391.636	504.31
391.86	514.31
392.085	501.31
392.31	527.31
392.534	501.31
392.759	477.31
392.984	480.31
393.208	492.31
393.433	518.31
393.658	486.31
393.882	501.31
394.107	485.31
394.331	493.31
394.556	478.31
394.78	474.31
395.005	470.31
395.229	492.31
395.454	464.31
395.678	511.31
395.903	521.31
396.127	510.31
396.352	519.31
396.576	479.31
396.801	495.31
397.025	490.31
397.249	511.31
397.474	504.31
397.698	504.31
397.922	488.31
398.147	507.31
398.371	516.31
398.595	522.31
398.82	549.31
399.044	585.31
399.268	600.31
399.492	689.31
399.717	732.31
399.941	728.31
400.165	682.31
400.389	678.31
400.613	617.31
400.837	585.31
401.062	575.31
401.286	558.31
401.51	558.31
401.734	530.31
401.958	549.31
402.182	559.31
402.406	574.31
402.63	570.31
402.854	586.31
403.078	597.31
403.302	591.31
403.526	604.31
403.75	608.31
403.974	590.31
404.198	606.31
404.422	612.31
404.645	620.31
404.869	610.31
405.093	627.31
405.317	632.31
405.541	631.31
405.765	598.31
405.988	596.31
406.212	612.31
406.436	615.31
406.66	642.31
406.883	615.31
407.107	644.31
407.331	687.31
407.555	723.31
407.778	723.31
408.002	672.31
408.226	653.31
408.449	643.31
408.673	625.31
408.896	631.31
409.12	632.31
409.344	613.31
409.567	586.31
409.791	594.31
410.014	618.31
410.238	570.31
410.461	578.31
410.685	595.31
410.908	574.31
411.132	618.31
411.355	607.31
411.578	582.31
411.802	571.31
412.025	567.31
412.249	561.31
412.472	611.31
412.695	625.31
412.919	599.31
413.142	552.31
413.365	550.31
413.589	548.31
413.812	544.31
414.035	533.31
414.258	550.31
414.482	531.31
414.705	539.31
414.928	545.31
415.151	563.31
415.374	547.31
415.597	554.31
415.821	516.31
416.044	553.31
416.267	559.31
416.49	532.31
416.713	512.31
416.936	550.31
417.159	530.31
417.382	551.31
417.605	559.31
417.828	538.31
418.051	571.31
418.274	567.31
418.497	553.31
418.72	557.31
418.943	549.31
419.166	580.31
419.389	580.31
419.611	589.31
419.834	568.31
420.057	567.31
420.28	571.31
420.503	556.31
420.726	566.31
420.948	542.31
421.171	585.31
421.394	586.31
421.617	548.31
421.839	538.31
422.062	546.31
422.285	542.31
422.507	592.31
422.73	629.31
422.953	626.31
423.175	601.31
423.398	592.31
423.621	581.31
423.843	575.31
424.066	604.31
424.288	590.31
424.511	569.31
424.733	618.31
424.956	646.31
425.178	634.31
425.401	602.31
425.623	627.31
425.846	582.31
426.068	542.31
426.291	545.31
426.513	528.31
426.735	533.31
426.958	562.31
427.18	603.31
427.402	670.31
427.625	694.31
427.847	615.31
428.069	562.31
428.292	520.31
428.514	506.31
428.736	518.31
428.958	515.31
429.181	503.31
429.403	504.31
429.625	509.31
429.847	522.31
430.069	551.31
430.292	560.31
430.514	497.31
430.736	504.31
430.958	501.31
431.18	487.31
431.402	496.31
431.624	488.31
431.846	481.31
432.068	481.31
432.29	510.31
432.512	482.31
432.734	506.31
432.956	498.31
433.178	488.31
433.4	510.31
433.622	518.31
433.844	484.31
434.066	501.31
434.287	512.31
434.509	506.31
434.731	532.31
434.953	560.31
435.175	544.31
435.397	540.31
435.618	551.31
435.84	552.31
436.062	598.31
436.284	636.31
436.505	549.31
436.727	540.31
436.949	500.31
437.17	498.31
437.392	492.31
437.614	510.31
437.835	504.31
438.057	544.31
438.278	594.31
438.5	622.31
438.721	640.31
438.943	624.31
439.165	548.31
439.386	523.31
439.608	513.31
439.829	512.31
440.05	519.31
440.272	557.31
440.493	521.31
440.715	500.31
440.936	512.31
441.158	533.31
441.379	536.31
441.6	544.31
441.822	558.31
442.043	562.31
442.264	606.31
442.486	633.31
442.707	594.31
442.928	568.31
443.149	564.31
443.371	567.31
443.592	568.31
443.813	632.31
444.034	657.31
444.255	601.31
444.476	582.31
444.698	585.31
444.919	598.31
445.14	677.31
445.361	614.31
445.582	574.31
445.803	569.31
446.024	616.31
446.245	638.31
446.466	612.31
446.687	527.31
446.908	508.31
447.129	501.31
447.35	498.31
447.571	485.31
447.792	460.31
448.013	480.31
448.234	495.31
448.455	524.31
448.675	564.31
448.896	620.31
449.117	555.31
449.338	528.31
449.559	575.31
449.779	656.31
450	542.31
450.221	494.31
450.442	472.31
450.662	482.31
450.883	465.31
451.104	460.31
451.324	453.31
451.545	462.31
451.766	457.31
451.986	437.31
452.207	428.31
452.428	439.31
452.648	432.31
452.869	446.31
453.089	441.31
453.31	452.31
453.53	460.31
453.751	437.31
453.971	418.31
454.192	436.31
454.412	412.31
454.633	432.31
454.853	439.31
455.073	423.31
455.294	455.31
455.514	458.31
455.734	465.31
455.955	425.31
456.175	432.31
456.395	408.31
456.616	430.31
456.836	409.31
457.056	416.31
457.276	400.31
457.497	424.31
457.717	416.31
457.937	448.31
458.157	426.31
458.377	437.31
458.598	456.31
458.818	460.31
459.038	514.31
459.258	531.31
459.478	508.31
459.698	519.31
459.918	491.31
460.138	514.31
460.358	531.31
460.578	534.31
460.798	542.31
461.018	554.31
461.238	530.31
461.458	529.31
461.678	542.31
461.898	534.31
462.118	538.31
462.338	527.31
462.558	580.31
462.777	584.31
462.997	618.31
463.217	634.31
463.437	646.31
463.657	597.31
463.876	588.31
464.096	582.31
464.316	583.31
464.536	585.31
464.755	586.31
464.975	588.31
465.195	540.31
465.414	554.31
465.634	522.31
465.854	515.31
466.073	494.31
466.293	496.31
466.512	474.31
466.732	466.31
466.951	473.31
467.171	469.31
467.391	457.31
467.61	465.31
467.829	469.31
468.049	478.31
468.268	463.31
468.488	470.31
468.707	459.31
468.927	454.31
469.146	448.31
469.365	477.31
469.585	470.31
469.804	454.31
470.023	449.31
470.243	480.31
470.462	483.31
470.681	485.31
470.901	497.31
471.12	489.31
471.339	476.31
471.558	463.31
471.777	479.31
471.997	446.31
472.216	452.31
472.435	473.31
472.654	461.31
472.873	442.31
473.092	451.31
473.311	453.31
473.53	468.31
473.749	421.31
473.968	447.31
474.187	526.31
474.406	517.31
474.625	458.31
474.844	456.31
475.063	472.31
475.282	444.31
475.501	462.31
475.72	460.31
475.939	463.31
476.158	463.31
476.377	441.31
476.596	452.31
476.814	471.31
477.033	484.31
477.252	468.31
477.471	478.31
477.69	482.31
477.908	517.31
478.127	524.31
478.346	494.31
478.564	500.31
478.783	529.31
479.002	556.31
479.22	546.31
479.439	533.31
479.658	546.31
479.876	563.31
480.095	556.31
480.313	578.31
480.532	608.31
480.751	574.31
480.969	615.31
481.188	590.31
481.406	586.31
481.624	560.31
481.843	540.31
482.061	530.31
482.28	536.31
482.498	542.31
482.717	512.31
482.935	542.31
483.153	502.31
483.372	532.31
483.59	539.31
483.808	522.31
484.027	526.31
484.245	548.31
484.463	530.31
484.681	536.31
484.9	552.31
485.118	528.31
485.336	546.31
485.554	574.31
485.772	568.31
485.99	566.31
486.209	549.31
486.427	558.31
486.645	552.31
486.863	572.31
487.081	557.31
487.299	528.31
487.517	543.31
487.735	573.31
487.953	559.31
488.171	582.31
488.389	569.31
488.607	559.31
488.825	571.31
489.043	535.31
489.261	546.31
489.479	553.31
489.696	569.31
489.914	569.31
490.132	567.31
490.35	561.31
490.568	549.31
490.786	607.31
491.003	588.31
491.221	601.31
491.439	583.31
491.657	609.31
491.874	613.31
492.092	596.31
492.31	633.31
492.527	608.31
492.745	635.31
492.963	622.31
493.18	644.31
493.398	629.31
493.615	633.31
493.833	644.31
494.05	637.31
494.268	614.31
494.485	595.31
494.703	638.31
494.92	640.31
495.138	612.31
495.355	617.31
495.573	635.31
495.79	608.31
496.008	645.31
496.225	638.31
496.442	634.31
496.66	635.31
496.877	670.31
497.094	648.31
497.312	630.31
497.529	673.31
497.746	657.31
497.963	697.31
498.181	686.31
498.398	720.31
498.615	750.31
498.832	793.31
499.049	808.31
499.267	883.31
499.484	932.31
499.701	993.31
499.918	1041.31
500.135	1149.31
500.352	1270.31
500.569	1312.31
500.786	1240.31
501.003	1207.31
501.22	1142.31
501.437	1054.31
501.654	964.31
501.871	916.31
502.088	851.31
502.305	805.31
502.522	760.31
502.739	752.31
502.956	717.31
503.172	720.31
503.389	685.31
503.606	657.31
503.823	674.31
504.04	655.31
504.256	661.31
504.473	688.31
504.69	670.31
504.907	655.31
505.123	650.31
505.34	632.31
505.557	594.31
505.773	613.31
505.99	602.31
506.207	578.31
506.423	590.31
506.64	569.31
506.856	551.31
507.073	557.31
507.289	573.31
507.506	557.31
507.722	536.31
507.939	556.31
508.155	543.31
508.372	529.31
508.588	513.31
508.805	542.31
509.021	536.31
509.238	536.31
509.454	541.31
509.67	500.31
509.887	530.31
510.103	527.31
510.319	529.31
510.536	546.31
510.752	722.31
510.968	629.31
511.184	520.31
511.401	502.31
511.617	506.31
511.833	510.31
512.049	518.31
512.265	504.31
512.481	509.31
512.698	496.31
512.914	505.31
513.13	479.31
513.346	506.31
513.562	497.31
513.778	510.31
513.994	504.31
514.21	488.31
514.426	509.31
514.642	518.31
514.858	535.31
515.074	537.31
515.29	611.31
515.506	738.31
515.721	683.31
515.937	564.31
516.153	569.31
516.369	561.31
516.585	527.31
516.801	567.31
517.016	580.31
517.232	618.31
517.448	596.31
517.664	610.31
517.879	650.31
518.095	631.31
518.311	590.31
518.527	597.31
518.742	564.31
518.958	576.31
519.173	540.31
519.389	542.31
519.605	524.31
519.82	515.31
520.036	518.31
520.251	525.31
520.467	522.31
520.682	542.31
520.898	505.31
521.113	516.31
521.329	532.31
521.544	518.31
521.76	606.31
521.975	838.31
522.19	845.31
522.406	570.31
522.621	507.31
522.836	486.31
523.052	469.31
523.267	466.31
523.482	471.31
523.698	466.31
523.913	479.31
524.128	459.31
524.343	439.31
524.559	452.31
524.774	444.31
524.989	459.31
525.204	447.31
525.419	461.31
525.634	439.31
525.849	450.31
526.064	446.31
526.28	453.31
526.495	432.31
526.71	437.31
526.925	428.31
527.14	431.31
527.355	440.31
527.57	441.31
527.785	441.31
527.999	445.31
528.214	435.31
528.429	440.31
528.644	442.31
528.859	437.31
529.074	456.31
529.289	449.31
529.503	468.31
529.718	448.31
529.933	446.31
530.148	456.31
530.363	456.31
530.577	427.31
530.792	448.31
531.007	414.31
531.221	439.31
531.436	436.31
531.651	424.31
531.865	434.31
532.08	427.31
532.295	429.31
532.509	434.31
532.724	427.31
532.938	438.31
533.153	431.31
533.367	425.31
533.582	420.31
533.796	437.31
534.011	428.31
534.225	431.31
534.44	420.31
534.654	462.31
534.868	440.31
535.083	422.31
535.297	430.31
535.511	419.31
535.726	432.31
535.94	424.31
536.154	426.31
536.369	411.31
536.583	420.31
536.797	422.31
537.011	398.31
537.225	398.31
537.44	415.31
537.654	428.31
537.868	402.31
538.082	400.31
538.296	403.31
538.51	405.31
538.724	394.31
538.938	416.31
539.153	412.31
539.367	416.31
539.581	417.31
539.795	398.31
540.009	398.31
540.222	415.31
540.436	405.31
540.65	392.31
540.864	420.31
541.078	413.31
541.292	405.31
541.506	404.31
541.72	416.31
541.934	424.31
542.147	419.31
542.361	413.31
542.575	414.31
542.789	389.31
543.002	404.31
543.216	397.31
543.43	394.31
543.644	409.31
543.857	402.31
544.071	391.31
544.285	408.31
544.498	408.31
544.712	397.31
544.925	409.31
545.139	436.31
545.352	412.31
545.566	396.31
545.779	417.31
545.993	437.31
546.206	420.31
546.42	405.31
546.633	424.31
546.847	425.31
547.06	416.31
547.274	402.31
547.487	408.31
547.7	419.31
547.914	412.31
548.127	429.31
548.34	414.31
548.554	409.31
548.767	414.31
548.98	409.31
549.193	414.31
549.407	428.31
549.62	415.31
549.833	406.31
550.046	405.31
550.259	406.31
550.473	415.31
550.686	410.31
550.899	410.31
551.112	405.31
551.325	402.31
551.538	403.31
551.751	403.31
551.964	398.31
552.177	417.31
552.39	405.31
552.603	426.31
552.816	419.31
553.029	434.31
553.242	441.31
553.455	426.31
553.667	435.31
553.88	453.31
554.093	421.31
554.306	433.31
554.519	425.31
554.732	389.31
554.944	414.31
555.157	394.31
555.37	375.31
555.583	390.31
555.795	374.31
556.008	372.31
556.221	361.31
556.433	366.31
556.646	365.31
556.859	369.31
557.071	378.31
557.284	373.31
557.496	375.31
557.709	361.31
557.921	342.31
558.134	354.31
558.346	350.31
558.559	368.31
558.771	368.31
558.984	342.31
559.196	348.31
559.409	362.31
559.621	361.31
559.833	364.31
560.046	350.31
560.258	348.31
560.47	354.31
560.683	350.31
560.895	363.31
561.107	343.31
561.32	350.31
561.532	350.31
561.744	361.31
561.956	349.31
562.168	349.31
562.381	346.31
562.593	358.31
562.805	343.31
563.017	353.31
563.229	359.31
563.441	348.31
563.653	342.31
563.865	372.31
564.077	354.31
564.289	371.31
564.501	375.31
564.713	377.31
564.925	388.31
565.137	400.31
565.349	397.31
565.561	415.31
565.773	406.31
565.985	432.31
566.197	456.31
566.408	451.31
566.62	481.31
566.832	508.31
567.044	507.31
567.255	528.31
567.467	556.31
567.679	548.31
567.891	566.31
568.102	608.31
568.314	550.31
568.526	502.31
568.737	492.31
568.949	469.31
569.161	424.31
569.372	384.31
569.584	378.31
569.795	388.31
570.007	378.31
570.218	392.31
570.43	375.31
570.641	363.31
570.853	365.31
571.064	376.31
571.276	368.31
571.487	368.31
571.698	368.31
571.91	343.31
572.121	318.31
572.333	326.31
572.544	335.31
572.755	304.31
572.966	306.31
573.178	321.31
573.389	315.31
573.6	304.31
573.811	305.31
574.023	325.31
574.234	333.31
574.445	315.31
574.656	320.31
574.867	310.31
575.078	302.31
575.289	301.31
575.501	286.31
575.712	294.31
575.923	279.31
576.134	305.31
576.345	298.31
576.556	288.31
576.767	296.31
576.978	285.31
577.188	287.31
577.399	290.31
577.61	269.31
577.821	296.31
578.032	297.31
578.243	302.31
578.454	368.31
578.665	306.31
578.875	287.31
579.086	293.31
579.297	272.31
579.508	254.31
579.718	269.31
579.929	275.31
580.14	272.31
580.35	255.31
580.561	277.31
580.772	271.31
580.982	272.31
581.193	274.31
581.403	288.31
581.614	284.31
581.825	260.31
582.035	288.31
582.246	270.31
582.456	266.31
582.667	265.31
582.877	270.31
583.087	273.31
583.298	278.31
583.508	249.31
583.719	276.31
583.929	273.31
584.139	252.31
584.35	270.31
584.56	263.31
584.77	268.31
584.981	260.31
585.191	281.31
585.401	256.31
585.611	264.31
585.821	265.31
586.032	233.31
586.242	252.31
586.452	259.31
586.662	276.31
586.872	273.31
587.082	258.31
587.292	266.31
587.502	277.31
587.713	265.31
587.923	264.31
588.133	253.31
588.343	274.31
588.553	268.31
588.762	256.31
588.972	276.31
589.182	341.31
589.392	337.31
589.602	299.31
589.812	329.31
590.022	291.31
590.232	275.31
590.441	261.31
590.651	249.31
590.861	265.31
591.071	263.31
591.281	273.31
591.49	273.31
591.7	274.31
591.91	296.31
592.119	266.31
592.329	286.31
592.539	293.31
592.748	304.31
592.958	302.31
593.167	314.31
593.377	311.31
593.587	332.31
593.796	330.31
594.006	308.31
594.215	311.31
594.424	310.31
594.634	330.31
594.843	337.31
595.053	312.31
595.262	302.31
595.472	289.31
595.681	272.31
595.89	276.31
596.1	272.31
596.309	276.31
596.518	248.31
596.727	248.31
596.937	267.31
597.146	261.31
597.355	220.31
597.564	244.31
597.774	242.31
597.983	247.31
598.192	242.31
598.401	255.31
598.61	238.31
598.819	265.31
599.028	226.31
599.237	251.31
599.446	237.31
599.655	246.31
599.864	238.31
600.073	238.31
600.282	240.31
600.491	220.31
600.7	238.31
600.909	239.31
601.118	244.31
601.327	227.31
601.536	232.31
601.745	240.31
601.953	234.31
602.162	242.31
602.371	240.31
602.58	227.31
602.789	239.31
602.997	226.31
603.206	231.31
603.415	240.31
603.623	220.31
603.832	239.31
604.041	229.31
604.249	206.31
604.458	221.31
604.666	215.31
604.875	220.31
605.084	233.31
605.292	207.31
605.501	227.31
605.709	228.31
605.918	208.31
606.126	220.31
606.334	217.31
606.543	218.31
606.751	225.31
606.96	221.31
607.168	217.31
607.376	221.31
607.585	213.31
607.793	224.31
608.001	218.31
608.21	227.31
608.418	212.31
608.626	216.31
608.834	203.31
609.043	221.31
609.251	230.31
609.459	192.31
609.667	207.31
609.875	233.31
610.083	222.31
610.291	214.31
610.499	208.31
610.707	226.31
610.916	240.31
611.124	209.31
611.332	206.31
611.54	220.31
611.748	216.31
611.955	224.31
612.163	222.31
612.371	205.31
612.579	209.31
612.787	217.31
612.995	200.31
613.203	231.31
613.411	221.31
613.618	217.31
613.826	205.31
614.034	205.31
614.242	209.31
614.449	215.31
614.657	204.31
614.865	203.31
615.072	220.31
615.28	215.31
615.488	211.31
615.695	213.31
615.903	223.31
616.111	221.31
616.318	226.31
616.526	240.31
616.733	220.31
616.941	225.31
617.148	225.31
617.356	210.31
617.563	222.31
617.771	226.31
617.978	218.31
618.185	197.31
618.393	220.31
618.6	221.31
618.807	207.31
619.015	209.31
619.222	216.31
619.429	199.31
619.637	226.31
619.844	204.31
620.051	206.31
620.258	217.31
620.466	208.31
620.673	215.31
620.88	200.31
621.087	204.31
621.294	203.31
621.501	205.31
621.708	192.31
621.915	202.31
622.122	199.31
622.329	178.31
622.536	205.31
622.743	221.31
622.95	222.31
623.157	213.31
623.364	197.31
623.571	183.31
623.778	195.31
623.985	202.31
624.192	207.31
624.399	210.31
624.606	188.31
624.812	195.31
625.019	189.31
625.226	207.31
625.433	178.31
625.639	183.31
625.846	188.31
626.053	183.31
626.259	202.31
626.466	196.31
626.673	194.31
626.879	180.31
627.086	201.31
627.293	188.31
627.499	197.31
627.706	205.31
627.912	197.31
628.119	198.31
628.325	184.31
628.532	184.31
628.738	173.31
628.945	196.31
629.151	170.31
629.357	171.31
629.564	188.31
629.77	187.31
629.976	180.31
630.183	171.31
630.389	166.31
630.595	173.31
630.802	195.31
631.008	196.31
631.214	174.31
631.42	179.31
631.627	176.31
631.833	171.31
632.039	181.31
632.245	176.31
632.451	176.31
632.657	178.31
632.863	185.31
633.069	165.31
633.275	180.31
633.481	183.31
633.688	188.31
633.893	176.31
634.099	169.31
634.305	173.31
634.511	164.31
634.717	166.31
634.923	149.31
635.129	150.31
635.335	181.31
635.541	184.31
635.747	163.31
635.952	163.31
636.158	183.31
636.364	180.31
636.57	172.31
636.775	160.31
636.981	176.31
637.187	177.31
637.392	178.31
637.598	164.31
637.804	176.31
638.009	175.31
638.215	154.31
638.421	172.31
638.626	175.31
638.832	168.31
639.037	167.31
639.243	176.31
639.448	164.31
639.654	159.31
639.859	164.31
640.065	156.31
640.27	166.31
640.475	166.31
640.681	173.31
640.886	164.31
641.091	162.31
641.297	173.31
641.502	170.31
641.707	166.31
641.913	161.31
642.118	153.31
642.323	159.31
642.528	166.31
642.733	157.31
642.939	178.31
643.144	169.31
643.349	144.31
643.554	158.31
643.759	150.31
643.964	151.31
644.169	157.31
644.374	156.31
644.579	159.31
644.784	171.31
644.989	153.31
645.194	159.31
645.399	152.31
645.604	164.31
645.809	148.31
646.014	157.31
646.219	161.31
646.423	148.31
646.628	146.31
646.833	152.31
647.038	155.31
647.243	167.31
647.447	149.31
647.652	163.31
647.857	170.31
648.062	164.31
648.266	157.31
648.471	169.31
648.676	175.31
648.88	161.31
649.085	166.31
649.289	162.31
649.494	150.31
649.698	164.31
649.903	181.31
650.107	178.31
650.312	155.31
650.516	160.31
650.721	150.31
650.925	160.31
651.13	160.31
651.334	137.31
651.539	144.31
651.743	146.31
651.947	144.31
652.152	140.31
652.356	156.31
652.56	140.31
652.764	134.31
652.969	142.31
653.173	146.31
653.377	142.31
653.581	149.31
653.785	126.31
653.99	128.31
654.194	130.31
654.398	142.31
654.602	135.31
654.806	139.31
655.01	141.31
655.214	157.31
655.418	141.31
655.622	133.31
655.826	130.31
656.03	155.31
656.234	154.31
656.438	158.31
656.642	170.31
656.846	151.31
657.049	134.31
657.253	131.31
657.457	136.31
657.661	122.31
657.865	119.31
658.068	118.31
658.272	105.31
658.476	115.31
658.68	116.31
658.883	103.31
659.087	108.31
659.291	97.31
659.494	100.31
659.698	98.31
659.901	100.31
660.105	87.31
660.309	101.31
660.512	97.31
660.716	109.31
660.919	100.31
661.123	104.31
661.326	99.31
661.53	102.31
661.733	90.31
661.936	85.31
662.14	77.31
662.343	86.31
662.546	101.31
662.75	106.31
662.953	77.31
663.156	90.31
663.36	78.31
663.563	88.31
663.766	86.31
663.969	77.31
664.173	79.31
664.376	75.31
664.579	79.31
664.782	84.31
664.985	90.31
665.188	77.31
665.391	88.31
665.594	77.31
665.797	63.31
666	77.31
666.203	89.31
666.406	77.31
666.609	70.31
666.812	66.31
667.015	78.31
667.218	79.31
667.421	85.31
667.624	64.31
667.827	85.31
668.03	81.31
668.232	78.31
668.435	82.31
668.638	84.31
668.841	78.31
669.043	97.31
669.246	78.31
669.449	76.31
669.651	84.31
669.854	76.31
670.057	70.31
670.259	86.31
670.462	73.31
670.665	69.31
670.867	94.31
671.07	97.31
671.272	72.31
671.475	92.31
671.677	83.31
671.88	74.31
672.082	82.31
672.284	85.31
672.487	69.31
672.689	80.31
672.892	78.31
