Data from 1961.PennyLincolnUp.Lamp.En5.5.200Scan.071719.P1._HRD10591_13-46-19-056.txt Node
Date: Thu Jul 18 13:46:19 EDT 2019
User: cochatt
Spectrometer: HR+D1059
Trigger mode: 1
Integration Time (sec): 1.000000E-1
Scans to average: 1
Electric dark correction enabled: true
Nonlinearity correction enabled: false
Boxcar width: 0
XAxis mode: Wavelengths
Number of Pixels in Spectrum: 2048
>>>>>Begin Spectral Data<<<<<
223.165	-7.06
223.4	-7.06
223.635	-7.06
223.869	-13.06
224.104	-11.06
224.338	-11.06
224.573	-18.06
224.808	-5.06
225.042	-15.06
225.277	0.94
225.511	-13.06
225.746	2.94
225.98	1.94
226.215	13.94
226.449	7.94
226.683	12.94
226.918	26.94
227.152	25.94
227.387	34.94
227.621	36.94
227.856	33.94
228.09	47.94
228.324	38.94
228.559	51.94
228.793	66.94
229.027	90.94
229.262	75.94
229.496	89.94
229.73	112.94
229.964	109.94
230.199	111.94
230.433	99.94
230.667	95.94
230.901	100.94
231.136	93.94
231.37	111.94
231.604	96.94
231.838	97.94
232.072	98.94
232.306	97.94
232.541	103.94
232.775	109.94
233.009	98.94
233.243	105.94
233.477	93.94
233.711	90.94
233.945	99.94
234.179	90.94
234.413	109.94
234.647	97.94
234.881	105.94
235.115	98.94
235.349	98.94
235.583	107.94
235.817	94.94
236.051	89.94
236.285	104.94
236.519	96.94
236.753	114.94
236.987	111.94
237.221	144.94
237.455	163.94
237.689	134.94
237.922	96.94
238.156	111.94
238.39	129.94
238.624	99.94
238.858	118.94
239.091	105.94
239.325	93.94
239.559	96.94
239.793	114.94
240.027	104.94
240.26	115.94
240.494	121.94
240.728	129.94
240.961	120.94
241.195	111.94
241.429	101.94
241.662	101.94
241.896	90.94
242.13	97.94
242.363	97.94
242.597	98.94
242.83	109.94
243.064	120.94
243.298	109.94
243.531	109.94
243.765	122.94
243.998	119.94
244.232	114.94
244.465	117.94
244.699	114.94
244.932	123.94
245.166	114.94
245.399	99.94
245.633	112.94
245.866	121.94
246.099	106.94
246.333	127.94
246.566	121.94
246.8	114.94
247.033	112.94
247.266	120.94
247.5	121.94
247.733	138.94
247.966	120.94
248.2	125.94
248.433	129.94
248.666	128.94
248.899	122.94
249.133	129.94
249.366	154.94
249.599	137.94
249.832	127.94
250.066	128.94
250.299	134.94
250.532	147.94
250.765	143.94
250.998	162.94
251.231	155.94
251.465	146.94
251.698	149.94
251.931	155.94
252.164	139.94
252.397	141.94
252.63	149.94
252.863	129.94
253.096	154.94
253.329	147.94
253.562	143.94
253.795	174.94
254.028	170.94
254.261	146.94
254.494	159.94
254.727	168.94
254.96	184.94
255.193	175.94
255.426	164.94
255.659	163.94
255.892	151.94
256.124	172.94
256.357	157.94
256.59	155.94
256.823	154.94
257.056	154.94
257.289	134.94
257.521	163.94
257.754	145.94
257.987	148.94
258.22	144.94
258.452	143.94
258.685	144.94
258.918	153.94
259.151	149.94
259.383	142.94
259.616	159.94
259.849	169.94
260.081	156.94
260.314	163.94
260.547	165.94
260.779	157.94
261.012	174.94
261.244	157.94
261.477	175.94
261.71	147.94
261.942	154.94
262.175	152.94
262.407	157.94
262.64	152.94
262.872	151.94
263.105	153.94
263.337	132.94
263.57	145.94
263.802	137.94
264.035	149.94
264.267	161.94
264.499	146.94
264.732	134.94
264.964	145.94
265.197	164.94
265.429	154.94
265.661	151.94
265.894	165.94
266.126	124.94
266.358	150.94
266.591	165.94
266.823	158.94
267.055	160.94
267.287	159.94
267.52	149.94
267.752	159.94
267.984	157.94
268.216	144.94
268.448	164.94
268.681	164.94
268.913	176.94
269.145	176.94
269.377	165.94
269.609	173.94
269.841	167.94
270.073	187.94
270.306	193.94
270.538	196.94
270.77	190.94
271.002	203.94
271.234	177.94
271.466	188.94
271.698	211.94
271.93	207.94
272.162	201.94
272.394	205.94
272.626	187.94
272.858	194.94
273.09	179.94
273.322	174.94
273.553	189.94
273.785	185.94
274.017	168.94
274.249	183.94
274.481	168.94
274.713	175.94
274.945	173.94
275.176	176.94
275.408	173.94
275.64	187.94
275.872	174.94
276.104	183.94
276.335	185.94
276.567	186.94
276.799	174.94
277.031	190.94
277.262	201.94
277.494	198.94
277.726	184.94
277.957	175.94
278.189	183.94
278.421	178.94
278.652	189.94
278.884	179.94
279.115	179.94
279.347	189.94
279.579	187.94
279.81	195.94
280.042	171.94
280.273	175.94
280.505	192.94
280.736	182.94
280.968	171.94
281.199	180.94
281.431	189.94
281.662	176.94
281.894	190.94
282.125	177.94
282.356	193.94
282.588	185.94
282.819	198.94
283.051	185.94
283.282	191.94
283.513	189.94
283.745	200.94
283.976	185.94
284.207	167.94
284.439	179.94
284.67	200.94
284.901	186.94
285.132	193.94
285.364	178.94
285.595	191.94
285.826	203.94
286.057	189.94
286.288	177.94
286.52	188.94
286.751	180.94
286.982	189.94
287.213	198.94
287.444	171.94
287.675	192.94
287.906	185.94
288.138	194.94
288.369	196.94
288.6	192.94
288.831	195.94
289.062	199.94
289.293	187.94
289.524	180.94
289.755	191.94
289.986	176.94
290.217	185.94
290.448	187.94
290.679	200.94
290.91	195.94
291.141	175.94
291.371	192.94
291.602	192.94
291.833	200.94
292.064	189.94
292.295	202.94
292.526	200.94
292.757	199.94
292.987	201.94
293.218	195.94
293.449	194.94
293.68	191.94
293.91	196.94
294.141	190.94
294.372	193.94
294.603	186.94
294.833	191.94
295.064	213.94
295.295	193.94
295.525	215.94
295.756	206.94
295.987	202.94
296.217	210.94
296.448	202.94
296.679	202.94
296.909	183.94
297.14	191.94
297.37	205.94
297.601	185.94
297.831	190.94
298.062	190.94
298.292	197.94
298.523	209.94
298.753	202.94
298.984	206.94
299.214	184.94
299.445	194.94
299.675	215.94
299.905	200.94
300.136	210.94
300.366	224.94
300.597	201.94
300.827	209.94
301.057	211.94
301.288	212.94
301.518	234.94
301.748	206.94
301.979	216.94
302.209	210.94
302.439	211.94
302.669	198.94
302.9	222.94
303.13	197.94
303.36	226.94
303.59	218.94
303.82	222.94
304.051	217.94
304.281	197.94
304.511	218.94
304.741	192.94
304.971	209.94
305.201	203.94
305.431	207.94
305.661	216.94
305.891	218.94
306.121	222.94
306.352	218.94
306.582	225.94
306.812	218.94
307.042	228.94
307.272	222.94
307.502	211.94
307.731	223.94
307.961	215.94
308.191	216.94
308.421	239.94
308.651	242.94
308.881	232.94
309.111	227.94
309.341	206.94
309.571	236.94
309.8	226.94
310.03	217.94
310.26	253.94
310.49	241.94
310.72	238.94
310.949	242.94
311.179	256.94
311.409	258.94
311.639	233.94
311.868	245.94
312.098	245.94
312.328	225.94
312.557	257.94
312.787	251.94
313.017	259.94
313.246	260.94
313.476	242.94
313.706	232.94
313.935	245.94
314.165	259.94
314.394	267.94
314.624	249.94
314.853	232.94
315.083	246.94
315.312	257.94
315.542	239.94
315.771	243.94
316.001	235.94
316.23	244.94
316.46	227.94
316.689	250.94
316.919	267.94
317.148	255.94
317.377	234.94
317.607	235.94
317.836	255.94
318.065	238.94
318.295	254.94
318.524	253.94
318.753	260.94
318.983	267.94
319.212	238.94
319.441	241.94
319.67	239.94
319.9	255.94
320.129	265.94
320.358	239.94
320.587	259.94
320.816	248.94
321.046	267.94
321.275	276.94
321.504	262.94
321.733	258.94
321.962	259.94
322.191	256.94
322.42	275.94
322.649	279.94
322.878	290.94
323.108	294.94
323.337	292.94
323.566	314.94
323.795	325.94
324.024	368.94
324.253	422.94
324.482	585.94
324.71	897.94
324.939	1186.94
325.168	1000.94
325.397	553.94
325.626	408.94
325.855	338.94
326.084	332.94
326.313	321.94
326.542	337.94
326.77	345.94
326.999	398.94
327.228	551.94
327.457	771.94
327.686	906.94
327.914	621.94
328.143	421.94
328.372	383.94
328.6	353.94
328.829	349.94
329.058	347.94
329.287	345.94
329.515	334.94
329.744	323.94
329.972	327.94
330.201	327.94
330.43	364.94
330.658	364.94
330.887	366.94
331.115	344.94
331.344	341.94
331.572	305.94
331.801	310.94
332.03	319.94
332.258	287.94
332.486	303.94
332.715	286.94
332.943	272.94
333.172	290.94
333.4	303.94
333.629	298.94
333.857	269.94
334.085	311.94
334.314	303.94
334.542	316.94
334.771	343.94
334.999	319.94
335.227	282.94
335.455	295.94
335.684	290.94
335.912	296.94
336.14	296.94
336.369	266.94
336.597	282.94
336.825	287.94
337.053	274.94
337.281	288.94
337.51	285.94
337.738	277.94
337.966	277.94
338.194	275.94
338.422	295.94
338.65	284.94
338.878	246.94
339.106	279.94
339.334	278.94
339.562	276.94
339.79	275.94
340.018	285.94
340.246	283.94
340.474	293.94
340.702	277.94
340.93	284.94
341.158	285.94
341.386	273.94
341.614	287.94
341.842	294.94
342.07	261.94
342.298	266.94
342.526	267.94
342.754	279.94
342.981	263.94
343.209	274.94
343.437	303.94
343.665	296.94
343.893	289.94
344.12	286.94
344.348	288.94
344.576	305.94
344.804	291.94
345.031	283.94
345.259	287.94
345.487	258.94
345.714	290.94
345.942	263.94
346.17	288.94
346.397	265.94
346.625	282.94
346.853	253.94
347.08	270.94
347.308	281.94
347.535	291.94
347.763	290.94
347.99	275.94
348.218	265.94
348.445	274.94
348.673	267.94
348.9	290.94
349.128	282.94
349.355	277.94
349.583	279.94
349.81	276.94
350.037	259.94
350.265	257.94
350.492	254.94
350.72	270.94
350.947	263.94
351.174	268.94
351.402	282.94
351.629	270.94
351.856	283.94
352.083	275.94
352.311	285.94
352.538	274.94
352.765	285.94
352.992	278.94
353.22	258.94
353.447	273.94
353.674	278.94
353.901	263.94
354.128	267.94
354.355	270.94
354.583	258.94
354.81	261.94
355.037	234.94
355.264	263.94
355.491	274.94
355.718	263.94
355.945	256.94
356.172	273.94
356.399	253.94
356.626	267.94
356.853	275.94
357.08	267.94
357.307	247.94
357.534	282.94
357.761	263.94
357.988	280.94
358.215	261.94
358.441	267.94
358.668	248.94
358.895	254.94
359.122	275.94
359.349	267.94
359.576	261.94
359.802	282.94
360.029	303.94
360.256	271.94
360.483	294.94
360.709	282.94
360.936	284.94
361.163	262.94
361.39	269.94
361.616	275.94
361.843	279.94
362.07	280.94
362.296	285.94
362.523	288.94
362.749	277.94
362.976	272.94
363.203	258.94
363.429	269.94
363.656	266.94
363.882	246.94
364.109	287.94
364.335	267.94
364.562	269.94
364.788	269.94
365.015	279.94
365.241	266.94
365.468	283.94
365.694	269.94
365.92	287.94
366.147	262.94
366.373	280.94
366.599	284.94
366.826	277.94
367.052	278.94
367.278	276.94
367.505	276.94
367.731	271.94
367.957	269.94
368.184	265.94
368.41	279.94
368.636	276.94
368.862	253.94
369.089	249.94
369.315	248.94
369.541	269.94
369.767	281.94
369.993	283.94
370.219	278.94
370.445	290.94
370.672	289.94
370.898	281.94
371.124	266.94
371.35	281.94
371.576	274.94
371.802	276.94
372.028	274.94
372.254	262.94
372.48	274.94
372.706	277.94
372.932	282.94
373.158	279.94
373.384	286.94
373.61	279.94
373.835	271.94
374.061	274.94
374.287	268.94
374.513	289.94
374.739	267.94
374.965	285.94
375.191	281.94
375.416	246.94
375.642	281.94
375.868	275.94
376.094	271.94
376.319	264.94
376.545	267.94
376.771	263.94
376.997	268.94
377.222	265.94
377.448	293.94
377.674	282.94
377.899	278.94
378.125	276.94
378.35	276.94
378.576	275.94
378.802	280.94
379.027	275.94
379.253	251.94
379.478	278.94
379.704	287.94
379.929	263.94
380.155	277.94
380.38	267.94
380.606	269.94
380.831	262.94
381.057	287.94
381.282	280.94
381.507	279.94
381.733	291.94
381.958	280.94
382.184	278.94
382.409	280.94
382.634	302.94
382.86	281.94
383.085	291.94
383.31	286.94
383.535	267.94
383.761	277.94
383.986	288.94
384.211	291.94
384.436	280.94
384.662	303.94
384.887	288.94
385.112	291.94
385.337	297.94
385.562	286.94
385.787	293.94
386.013	308.94
386.238	315.94
386.463	296.94
386.688	296.94
386.913	308.94
387.138	297.94
387.363	275.94
387.588	306.94
387.813	298.94
388.038	311.94
388.263	314.94
388.488	305.94
388.713	299.94
388.938	284.94
389.163	299.94
389.387	299.94
389.612	293.94
389.837	296.94
390.062	309.94
390.287	296.94
390.512	287.94
390.736	303.94
390.961	307.94
391.186	288.94
391.411	290.94
391.636	318.94
391.86	314.94
392.085	298.94
392.31	303.94
392.534	298.94
392.759	312.94
392.984	319.94
393.208	298.94
393.433	318.94
393.658	331.94
393.882	309.94
394.107	306.94
394.331	321.94
394.556	307.94
394.78	322.94
395.005	316.94
395.229	307.94
395.454	319.94
395.678	309.94
395.903	322.94
396.127	349.94
396.352	335.94
396.576	311.94
396.801	313.94
397.025	320.94
397.249	317.94
397.474	324.94
397.698	323.94
397.922	337.94
398.147	339.94
398.371	352.94
398.595	324.94
398.82	336.94
399.044	325.94
399.268	341.94
399.492	335.94
399.717	369.94
399.941	387.94
400.165	390.94
400.389	403.94
400.613	378.94
400.837	355.94
401.062	347.94
401.286	341.94
401.51	346.94
401.734	346.94
401.958	328.94
402.182	345.94
402.406	340.94
402.63	335.94
402.854	341.94
403.078	337.94
403.302	355.94
403.526	355.94
403.75	334.94
403.974	335.94
404.198	344.94
404.422	360.94
404.645	340.94
404.869	357.94
405.093	379.94
405.317	389.94
405.541	413.94
405.765	378.94
405.988	352.94
406.212	351.94
406.436	384.94
406.66	386.94
406.883	388.94
407.107	377.94
407.331	401.94
407.555	442.94
407.778	451.94
408.002	406.94
408.226	398.94
408.449	377.94
408.673	385.94
408.896	403.94
409.12	416.94
409.344	389.94
409.567	363.94
409.791	334.94
410.014	374.94
410.238	360.94
410.461	344.94
410.685	356.94
410.908	375.94
411.132	376.94
411.355	389.94
411.578	375.94
411.802	353.94
412.025	353.94
412.249	350.94
412.472	378.94
412.695	401.94
412.919	389.94
413.142	353.94
413.365	337.94
413.589	350.94
413.812	341.94
414.035	341.94
414.258	327.94
414.482	333.94
414.705	349.94
414.928	337.94
415.151	344.94
415.374	342.94
415.597	341.94
415.821	328.94
416.044	344.94
416.267	349.94
416.49	333.94
416.713	336.94
416.936	351.94
417.159	325.94
417.382	323.94
417.605	321.94
417.828	336.94
418.051	341.94
418.274	339.94
418.497	325.94
418.72	327.94
418.943	320.94
419.166	343.94
419.389	354.94
419.611	355.94
419.834	343.94
420.057	336.94
420.28	341.94
420.503	347.94
420.726	341.94
420.948	373.94
421.171	361.94
421.394	395.94
421.617	365.94
421.839	345.94
422.062	358.94
422.285	369.94
422.507	389.94
422.73	437.94
422.953	420.94
423.175	367.94
423.398	365.94
423.621	359.94
423.843	373.94
424.066	367.94
424.288	357.94
424.511	362.94
424.733	422.94
424.956	446.94
425.178	441.94
425.401	480.94
425.623	455.94
425.846	405.94
426.068	373.94
426.291	365.94
426.513	362.94
426.735	383.94
426.958	399.94
427.18	436.94
427.402	536.94
427.625	576.94
427.847	487.94
428.069	437.94
428.292	413.94
428.514	372.94
428.736	357.94
428.958	365.94
429.181	341.94
429.403	335.94
429.625	313.94
429.847	376.94
430.069	406.94
430.292	413.94
430.514	364.94
430.736	342.94
430.958	362.94
431.18	338.94
431.402	355.94
431.624	322.94
431.846	318.94
432.068	322.94
432.29	340.94
432.512	329.94
432.734	339.94
432.956	338.94
433.178	352.94
433.4	333.94
433.622	327.94
433.844	341.94
434.066	342.94
434.287	331.94
434.509	329.94
434.731	330.94
434.953	358.94
435.175	359.94
435.397	368.94
435.618	367.94
435.84	414.94
436.062	455.94
436.284	477.94
436.505	423.94
436.727	370.94
436.949	357.94
437.17	339.94
437.392	352.94
437.614	334.94
437.835	386.94
438.057	433.94
438.278	465.94
438.5	501.94
438.721	537.94
438.943	518.94
439.165	409.94
439.386	381.94
439.608	366.94
439.829	377.94
440.05	408.94
440.272	406.94
440.493	379.94
440.715	365.94
440.936	351.94
441.158	341.94
441.379	358.94
441.6	346.94
441.822	360.94
442.043	400.94
442.264	451.94
442.486	462.94
442.707	385.94
442.928	387.94
443.149	386.94
443.371	422.94
443.592	421.94
443.813	466.94
444.034	517.94
444.255	424.94
444.476	384.94
444.698	388.94
444.919	373.94
445.14	486.94
445.361	421.94
445.582	387.94
445.803	425.94
446.024	495.94
446.245	480.94
446.466	446.94
446.687	394.94
446.908	370.94
447.129	350.94
447.35	351.94
447.571	350.94
447.792	347.94
448.013	354.94
448.234	369.94
448.455	385.94
448.675	448.94
448.896	536.94
449.117	449.94
449.338	438.94
449.559	493.94
449.779	573.94
450	443.94
450.221	376.94
450.442	359.94
450.662	329.94
450.883	335.94
451.104	365.94
451.324	335.94
451.545	336.94
451.766	312.94
451.986	323.94
452.207	309.94
452.428	322.94
452.648	313.94
452.869	324.94
453.089	325.94
453.31	321.94
453.53	308.94
453.751	311.94
453.971	318.94
454.192	326.94
454.412	311.94
454.633	329.94
454.853	318.94
455.073	298.94
455.294	331.94
455.514	369.94
455.734	359.94
455.955	310.94
456.175	310.94
456.395	309.94
456.616	301.94
456.836	296.94
457.056	289.94
457.276	273.94
457.497	307.94
457.717	320.94
457.937	303.94
458.157	309.94
458.377	309.94
458.598	317.94
458.818	359.94
459.038	388.94
459.258	403.94
459.478	354.94
459.698	336.94
459.918	339.94
460.138	330.94
460.358	329.94
460.578	340.94
460.798	333.94
461.018	333.94
461.238	327.94
461.458	342.94
461.678	331.94
461.898	337.94
462.118	335.94
462.338	341.94
462.558	329.94
462.777	369.94
462.997	353.94
463.217	365.94
463.437	376.94
463.657	340.94
463.876	349.94
464.096	346.94
464.316	369.94
464.536	361.94
464.755	355.94
464.975	368.94
465.195	381.94
465.414	392.94
465.634	375.94
465.854	352.94
466.073	361.94
466.293	334.94
466.512	315.94
466.732	335.94
466.951	345.94
467.171	336.94
467.391	330.94
467.61	314.94
467.829	341.94
468.049	336.94
468.268	326.94
468.488	334.94
468.707	325.94
468.927	306.94
469.146	311.94
469.365	320.94
469.585	331.94
469.804	339.94
470.023	312.94
470.243	344.94
470.462	347.94
470.681	337.94
470.901	328.94
471.12	330.94
471.339	325.94
471.558	335.94
471.777	358.94
471.997	343.94
472.216	343.94
472.435	346.94
472.654	331.94
472.873	323.94
473.092	338.94
473.311	343.94
473.53	349.94
473.749	334.94
473.968	394.94
474.187	418.94
474.406	406.94
474.625	360.94
474.844	337.94
475.063	336.94
475.282	331.94
475.501	333.94
475.72	347.94
475.939	327.94
476.158	339.94
476.377	356.94
476.596	357.94
476.814	347.94
477.033	342.94
477.252	337.94
477.471	352.94
477.69	327.94
477.908	348.94
478.127	349.94
478.346	355.94
478.564	369.94
478.783	372.94
479.002	369.94
479.22	390.94
479.439	371.94
479.658	410.94
479.876	398.94
480.095	372.94
480.313	397.94
480.532	414.94
480.751	407.94
480.969	402.94
481.188	440.94
481.406	467.94
481.624	381.94
481.843	387.94
482.061	396.94
482.28	387.94
482.498	401.94
482.717	410.94
482.935	384.94
483.153	391.94
483.372	369.94
483.59	367.94
483.808	399.94
484.027	384.94
484.245	401.94
484.463	387.94
484.681	398.94
484.9	401.94
485.118	403.94
485.336	395.94
485.554	389.94
485.772	397.94
485.99	394.94
486.209	395.94
486.427	402.94
486.645	406.94
486.863	425.94
487.081	396.94
487.299	432.94
487.517	424.94
487.735	411.94
487.953	405.94
488.171	401.94
488.389	429.94
488.607	405.94
488.825	418.94
489.043	410.94
489.261	417.94
489.479	394.94
489.696	406.94
489.914	442.94
490.132	433.94
490.35	430.94
490.568	459.94
490.786	455.94
491.003	451.94
491.221	422.94
491.439	455.94
491.657	455.94
491.874	463.94
492.092	466.94
492.31	456.94
492.527	472.94
492.745	484.94
492.963	468.94
493.18	455.94
493.398	473.94
493.615	465.94
493.833	474.94
494.05	467.94
494.268	465.94
494.485	475.94
494.703	486.94
494.92	500.94
495.138	468.94
495.355	480.94
495.573	497.94
495.79	509.94
496.008	497.94
496.225	500.94
496.442	487.94
496.66	497.94
496.877	488.94
497.094	487.94
497.312	481.94
497.529	496.94
497.746	505.94
497.963	491.94
498.181	523.94
498.398	540.94
498.615	559.94
498.832	563.94
499.049	570.94
499.267	575.94
499.484	551.94
499.701	587.94
499.918	595.94
500.135	609.94
500.352	606.94
500.569	666.94
500.786	647.94
501.003	618.94
501.22	641.94
501.437	617.94
501.654	607.94
501.871	612.94
502.088	579.94
502.305	567.94
502.522	540.94
502.739	537.94
502.956	552.94
503.172	528.94
503.389	528.94
503.606	536.94
503.823	513.94
504.04	523.94
504.256	507.94
504.473	510.94
504.69	486.94
504.907	474.94
505.123	474.94
505.34	458.94
505.557	479.94
505.773	473.94
505.99	470.94
506.207	470.94
506.423	472.94
506.64	466.94
506.856	458.94
507.073	453.94
507.289	463.94
507.506	464.94
507.722	473.94
507.939	455.94
508.155	459.94
508.372	433.94
508.588	445.94
508.805	442.94
509.021	439.94
509.238	431.94
509.454	445.94
509.67	455.94
509.887	442.94
510.103	450.94
510.319	438.94
510.536	502.94
510.752	700.94
510.968	610.94
511.184	457.94
511.401	433.94
511.617	408.94
511.833	404.94
512.049	406.94
512.265	415.94
512.481	435.94
512.698	426.94
512.914	405.94
513.13	431.94
513.346	425.94
513.562	414.94
513.778	423.94
513.994	433.94
514.21	427.94
514.426	439.94
514.642	453.94
514.858	454.94
515.074	488.94
515.29	545.94
515.506	711.94
515.721	621.94
515.937	497.94
516.153	463.94
516.369	450.94
516.585	435.94
516.801	420.94
517.016	424.94
517.232	427.94
517.448	438.94
517.664	442.94
517.879	437.94
518.095	431.94
518.311	429.94
518.527	425.94
518.742	418.94
518.958	421.94
519.173	424.94
519.389	424.94
519.605	427.94
519.82	411.94
520.036	418.94
520.251	422.94
520.467	422.94
520.682	442.94
520.898	446.94
521.113	471.94
521.329	475.94
521.544	530.94
521.76	614.94
521.975	904.94
522.19	881.94
522.406	550.94
522.621	439.94
522.836	429.94
523.052	401.94
523.267	412.94
523.482	420.94
523.698	418.94
523.913	400.94
524.128	398.94
524.343	376.94
524.559	385.94
524.774	369.94
524.989	387.94
525.204	389.94
525.419	368.94
525.634	368.94
525.849	369.94
526.064	360.94
526.28	375.94
526.495	377.94
526.71	359.94
526.925	354.94
527.14	357.94
527.355	362.94
527.57	354.94
527.785	360.94
527.999	366.94
528.214	358.94
528.429	379.94
528.644	375.94
528.859	366.94
529.074	362.94
529.289	362.94
529.503	417.94
529.718	393.94
529.933	387.94
530.148	381.94
530.363	365.94
530.577	338.94
530.792	355.94
531.007	358.94
531.221	347.94
531.436	349.94
531.651	350.94
531.865	338.94
532.08	349.94
532.295	352.94
532.509	345.94
532.724	339.94
532.938	351.94
533.153	335.94
533.367	331.94
533.582	353.94
533.796	330.94
534.011	341.94
534.225	326.94
534.44	326.94
534.654	342.94
534.868	343.94
535.083	346.94
535.297	343.94
535.511	347.94
535.726	351.94
535.94	374.94
536.154	330.94
536.369	341.94
536.583	360.94
536.797	343.94
537.011	321.94
537.225	334.94
537.44	321.94
537.654	344.94
537.868	335.94
538.082	339.94
538.296	336.94
538.51	337.94
538.724	348.94
538.938	348.94
539.153	333.94
539.367	354.94
539.581	336.94
539.795	331.94
540.009	338.94
540.222	344.94
540.436	337.94
540.65	331.94
540.864	320.94
541.078	348.94
541.292	339.94
541.506	352.94
541.72	342.94
541.934	336.94
542.147	345.94
542.361	333.94
542.575	330.94
542.789	323.94
543.002	341.94
543.216	325.94
543.43	324.94
543.644	350.94
543.857	347.94
544.071	329.94
544.285	329.94
544.498	342.94
544.712	326.94
544.925	314.94
545.139	321.94
545.352	321.94
545.566	320.94
545.779	330.94
545.993	323.94
546.206	342.94
546.42	341.94
546.633	332.94
546.847	325.94
547.06	329.94
547.274	301.94
547.487	331.94
547.7	319.94
547.914	308.94
548.127	325.94
548.34	337.94
548.554	308.94
548.767	350.94
548.98	332.94
549.193	319.94
549.407	299.94
549.62	336.94
549.833	327.94
550.046	329.94
550.259	319.94
550.473	317.94
550.686	326.94
550.899	322.94
551.112	321.94
551.325	321.94
551.538	320.94
551.751	316.94
551.964	331.94
552.177	305.94
552.39	308.94
552.603	298.94
552.816	329.94
553.029	330.94
553.242	312.94
553.455	322.94
553.667	327.94
553.88	331.94
554.093	316.94
554.306	324.94
554.519	323.94
554.732	309.94
554.944	322.94
555.157	308.94
555.37	315.94
555.583	293.94
555.795	324.94
556.008	284.94
556.221	303.94
556.433	306.94
556.646	313.94
556.859	306.94
557.071	302.94
557.284	306.94
557.496	292.94
557.709	305.94
557.921	302.94
558.134	304.94
558.346	303.94
558.559	295.94
558.771	304.94
558.984	286.94
559.196	311.94
559.409	296.94
559.621	296.94
559.833	294.94
560.046	301.94
560.258	285.94
560.47	300.94
560.683	280.94
560.895	290.94
561.107	298.94
561.32	291.94
561.532	293.94
561.744	303.94
561.956	289.94
562.168	289.94
562.381	299.94
562.593	296.94
562.805	283.94
563.017	306.94
563.229	285.94
563.441	298.94
563.653	301.94
563.865	293.94
564.077	277.94
564.289	302.94
564.501	295.94
564.713	298.94
564.925	299.94
565.137	298.94
565.349	313.94
565.561	326.94
565.773	343.94
565.985	321.94
566.197	329.94
566.408	328.94
566.62	322.94
566.832	336.94
567.044	337.94
567.255	340.94
567.467	321.94
567.679	344.94
567.891	325.94
568.102	350.94
568.314	338.94
568.526	341.94
568.737	307.94
568.949	306.94
569.161	306.94
569.372	302.94
569.584	311.94
569.795	297.94
570.007	308.94
570.218	315.94
570.43	304.94
570.641	281.94
570.853	295.94
571.064	285.94
571.276	270.94
571.487	288.94
571.698	295.94
571.91	282.94
572.121	281.94
572.333	272.94
572.544	272.94
572.755	262.94
572.966	260.94
573.178	282.94
573.389	262.94
573.6	265.94
573.811	261.94
574.023	256.94
574.234	245.94
574.445	261.94
574.656	258.94
574.867	250.94
575.078	262.94
575.289	246.94
575.501	278.94
575.712	242.94
575.923	267.94
576.134	257.94
576.345	249.94
576.556	235.94
576.767	229.94
576.978	275.94
577.188	250.94
577.399	238.94
577.61	243.94
577.821	256.94
578.032	238.94
578.243	268.94
578.454	367.94
578.665	287.94
578.875	241.94
579.086	229.94
579.297	246.94
579.508	244.94
579.718	245.94
579.929	248.94
580.14	239.94
580.35	243.94
580.561	254.94
580.772	213.94
580.982	239.94
581.193	241.94
581.403	218.94
581.614	230.94
581.825	225.94
582.035	239.94
582.246	229.94
582.456	243.94
582.667	220.94
582.877	230.94
583.087	225.94
583.298	220.94
583.508	238.94
583.719	240.94
583.929	234.94
584.139	230.94
584.35	217.94
584.56	234.94
584.77	240.94
584.981	237.94
585.191	240.94
585.401	230.94
585.611	229.94
585.821	233.94
586.032	242.94
586.242	233.94
586.452	226.94
586.662	228.94
586.872	213.94
587.082	215.94
587.292	230.94
587.502	218.94
587.713	226.94
587.923	226.94
588.133	207.94
588.343	226.94
588.553	234.94
588.762	223.94
588.972	219.94
589.182	238.94
589.392	234.94
589.602	220.94
589.812	245.94
590.022	227.94
590.232	224.94
590.441	213.94
590.651	223.94
590.861	231.94
591.071	246.94
591.281	237.94
591.49	226.94
591.7	230.94
591.91	214.94
592.119	213.94
592.329	220.94
592.539	234.94
592.748	246.94
592.958	224.94
593.167	228.94
593.377	222.94
593.587	223.94
593.796	237.94
594.006	239.94
594.215	239.94
594.424	222.94
594.634	230.94
594.843	241.94
595.053	230.94
595.262	211.94
595.472	224.94
595.681	222.94
595.89	230.94
596.1	222.94
596.309	211.94
596.518	226.94
596.727	208.94
596.937	193.94
597.146	216.94
597.355	214.94
597.564	197.94
597.774	210.94
597.983	210.94
598.192	202.94
598.401	206.94
598.61	184.94
598.819	225.94
599.028	218.94
599.237	205.94
599.446	198.94
599.655	190.94
599.864	195.94
600.073	198.94
600.282	220.94
600.491	205.94
600.7	200.94
600.909	186.94
601.118	207.94
601.327	202.94
601.536	184.94
601.745	192.94
601.953	212.94
602.162	214.94
602.371	209.94
602.58	201.94
602.789	197.94
602.997	191.94
603.206	197.94
603.415	189.94
603.623	201.94
603.832	199.94
604.041	198.94
604.249	197.94
604.458	186.94
604.666	189.94
604.875	189.94
605.084	191.94
605.292	197.94
605.501	176.94
605.709	197.94
605.918	186.94
606.126	213.94
606.334	200.94
606.543	207.94
606.751	206.94
606.96	206.94
607.168	180.94
607.376	189.94
607.585	200.94
607.793	189.94
608.001	178.94
608.21	181.94
608.418	197.94
608.626	184.94
608.834	179.94
609.043	181.94
609.251	179.94
609.459	192.94
609.667	177.94
609.875	193.94
610.083	204.94
610.291	190.94
610.499	198.94
610.707	202.94
610.916	196.94
611.124	197.94
611.332	186.94
611.54	201.94
611.748	208.94
611.955	189.94
612.163	187.94
612.371	183.94
612.579	181.94
612.787	201.94
612.995	184.94
613.203	191.94
613.411	174.94
613.618	200.94
613.826	174.94
614.034	165.94
614.242	168.94
614.449	174.94
614.657	202.94
614.865	183.94
615.072	178.94
615.28	182.94
615.488	197.94
615.695	162.94
615.903	188.94
616.111	190.94
616.318	168.94
616.526	188.94
616.733	173.94
616.941	171.94
617.148	175.94
617.356	205.94
617.563	192.94
617.771	176.94
617.978	193.94
618.185	192.94
618.393	191.94
618.6	182.94
618.807	167.94
619.015	163.94
619.222	176.94
619.429	200.94
619.637	176.94
619.844	174.94
620.051	190.94
620.258	182.94
620.466	177.94
620.673	185.94
620.88	179.94
621.087	171.94
621.294	164.94
621.501	150.94
621.708	185.94
621.915	180.94
622.122	164.94
622.329	171.94
622.536	177.94
622.743	169.94
622.95	183.94
623.157	185.94
623.364	175.94
623.571	160.94
623.778	186.94
623.985	158.94
624.192	183.94
624.399	163.94
624.606	177.94
624.812	165.94
625.019	180.94
625.226	164.94
625.433	179.94
625.639	165.94
625.846	181.94
626.053	164.94
626.259	161.94
626.466	170.94
626.673	176.94
626.879	168.94
627.086	172.94
627.293	153.94
627.499	162.94
627.706	165.94
627.912	182.94
628.119	173.94
628.325	149.94
628.532	163.94
628.738	168.94
628.945	173.94
629.151	155.94
629.357	190.94
629.564	155.94
629.77	149.94
629.976	155.94
630.183	146.94
630.389	156.94
630.595	156.94
630.802	154.94
631.008	159.94
631.214	161.94
631.42	168.94
631.627	154.94
631.833	151.94
632.039	149.94
632.245	147.94
632.451	169.94
632.657	168.94
632.863	161.94
633.069	145.94
633.275	165.94
633.481	157.94
633.688	156.94
633.893	147.94
634.099	152.94
634.305	140.94
634.511	147.94
634.717	146.94
634.923	158.94
635.129	144.94
635.335	151.94
635.541	145.94
635.747	143.94
635.952	154.94
636.158	149.94
636.364	156.94
636.57	145.94
636.775	149.94
636.981	149.94
637.187	163.94
637.392	138.94
637.598	151.94
637.804	142.94
638.009	145.94
638.215	166.94
638.421	149.94
638.626	138.94
638.832	156.94
639.037	145.94
639.243	148.94
639.448	138.94
639.654	139.94
639.859	146.94
640.065	151.94
640.27	139.94
640.475	151.94
640.681	120.94
640.886	138.94
641.091	146.94
641.297	154.94
641.502	149.94
641.707	135.94
641.913	149.94
642.118	144.94
642.323	137.94
642.528	126.94
642.733	149.94
642.939	137.94
643.144	154.94
643.349	144.94
643.554	153.94
643.759	145.94
643.964	129.94
644.169	135.94
644.374	139.94
644.579	152.94
644.784	137.94
644.989	134.94
645.194	133.94
645.399	141.94
645.604	136.94
645.809	144.94
646.014	126.94
646.219	146.94
646.423	130.94
646.628	139.94
646.833	156.94
647.038	138.94
647.243	140.94
647.447	138.94
647.652	132.94
647.857	137.94
648.062	143.94
648.266	153.94
648.471	143.94
648.676	138.94
648.88	129.94
649.085	134.94
649.289	129.94
649.494	145.94
649.698	165.94
649.903	153.94
650.107	150.94
650.312	114.94
650.516	154.94
650.721	133.94
650.925	139.94
651.13	145.94
651.334	141.94
651.539	142.94
651.743	120.94
651.947	127.94
652.152	133.94
652.356	122.94
652.56	139.94
652.764	129.94
652.969	130.94
653.173	118.94
653.377	130.94
653.581	137.94
653.785	127.94
653.99	124.94
654.194	116.94
654.398	125.94
654.602	122.94
654.806	122.94
655.01	123.94
655.214	140.94
655.418	135.94
655.622	114.94
655.826	130.94
656.03	119.94
656.234	123.94
656.438	123.94
656.642	120.94
656.846	124.94
657.049	117.94
657.253	116.94
657.457	117.94
657.661	106.94
657.865	107.94
658.068	105.94
658.272	102.94
658.476	95.94
658.68	109.94
658.883	116.94
659.087	90.94
659.291	87.94
659.494	100.94
659.698	100.94
659.901	110.94
660.105	90.94
660.309	83.94
660.512	89.94
660.716	90.94
660.919	98.94
661.123	94.94
661.326	91.94
661.53	77.94
661.733	93.94
661.936	79.94
662.14	93.94
662.343	82.94
662.546	89.94
662.75	92.94
662.953	77.94
663.156	95.94
663.36	85.94
663.563	82.94
663.766	84.94
663.969	91.94
664.173	97.94
664.376	78.94
664.579	93.94
664.782	74.94
664.985	86.94
665.188	86.94
665.391	79.94
665.594	80.94
665.797	73.94
666	93.94
666.203	86.94
666.406	81.94
666.609	72.94
666.812	83.94
667.015	93.94
667.218	75.94
667.421	79.94
667.624	84.94
667.827	81.94
668.03	90.94
668.232	70.94
668.435	74.94
668.638	75.94
668.841	81.94
669.043	86.94
669.246	93.94
669.449	83.94
669.651	83.94
669.854	81.94
670.057	67.94
670.259	87.94
670.462	84.94
670.665	75.94
670.867	87.94
671.07	78.94
671.272	87.94
671.475	93.94
671.677	83.94
671.88	87.94
672.082	91.94
672.284	85.94
672.487	85.94
672.689	73.94
672.892	79.94
