Data from 1961.PennyLincolnUp.Lamp.En5.5.200Scan.071719.P1._HRD10591_13-46-15-057.txt Node
Date: Thu Jul 18 13:46:15 EDT 2019
User: cochatt
Spectrometer: HR+D1059
Trigger mode: 1
Integration Time (sec): 1.000000E-1
Scans to average: 1
Electric dark correction enabled: true
Nonlinearity correction enabled: false
Boxcar width: 0
XAxis mode: Wavelengths
Number of Pixels in Spectrum: 2048
>>>>>Begin Spectral Data<<<<<
223.165	-28.31
223.4	-28.31
223.635	-28.31
223.869	-23.31
224.104	-17.31
224.338	-7.31
224.573	-10.31
224.808	-4.31
225.042	6.69
225.277	-7.31
225.511	-9.31
225.746	3.69
225.98	7.69
226.215	-2.31
226.449	2.69
226.683	21.69
226.918	35.69
227.152	31.69
227.387	37.69
227.621	36.69
227.856	28.69
228.09	44.69
228.324	38.69
228.559	50.69
228.793	66.69
229.027	80.69
229.262	81.69
229.496	84.69
229.73	89.69
229.964	112.69
230.199	93.69
230.433	102.69
230.667	90.69
230.901	92.69
231.136	91.69
231.37	99.69
231.604	95.69
231.838	93.69
232.072	100.69
232.306	102.69
232.541	90.69
232.775	95.69
233.009	86.69
233.243	99.69
233.477	89.69
233.711	90.69
233.945	93.69
234.179	105.69
234.413	97.69
234.647	97.69
234.881	100.69
235.115	103.69
235.349	104.69
235.583	121.69
235.817	113.69
236.051	95.69
236.285	80.69
236.519	98.69
236.753	105.69
236.987	114.69
237.221	121.69
237.455	157.69
237.689	124.69
237.922	103.69
238.156	103.69
238.39	105.69
238.624	110.69
238.858	111.69
239.091	97.69
239.325	97.69
239.559	87.69
239.793	110.69
240.027	102.69
240.26	115.69
240.494	108.69
240.728	130.69
240.961	112.69
241.195	110.69
241.429	97.69
241.662	100.69
241.896	106.69
242.13	112.69
242.363	92.69
242.597	103.69
242.83	117.69
243.064	107.69
243.298	109.69
243.531	120.69
243.765	106.69
243.998	99.69
244.232	111.69
244.465	118.69
244.699	116.69
244.932	103.69
245.166	119.69
245.399	110.69
245.633	117.69
245.866	111.69
246.099	108.69
246.333	91.69
246.566	122.69
246.8	114.69
247.033	119.69
247.266	126.69
247.5	128.69
247.733	125.69
247.966	133.69
248.2	143.69
248.433	136.69
248.666	133.69
248.899	127.69
249.133	127.69
249.366	161.69
249.599	148.69
249.832	133.69
250.066	130.69
250.299	157.69
250.532	125.69
250.765	145.69
250.998	138.69
251.231	144.69
251.465	159.69
251.698	133.69
251.931	145.69
252.164	151.69
252.397	140.69
252.63	145.69
252.863	137.69
253.096	146.69
253.329	158.69
253.562	150.69
253.795	168.69
254.028	144.69
254.261	148.69
254.494	159.69
254.727	164.69
254.96	169.69
255.193	161.69
255.426	168.69
255.659	167.69
255.892	165.69
256.124	182.69
256.357	146.69
256.59	148.69
256.823	153.69
257.056	134.69
257.289	159.69
257.521	146.69
257.754	130.69
257.987	133.69
258.22	154.69
258.452	142.69
258.685	140.69
258.918	151.69
259.151	131.69
259.383	149.69
259.616	142.69
259.849	158.69
260.081	145.69
260.314	170.69
260.547	161.69
260.779	152.69
261.012	163.69
261.244	169.69
261.477	165.69
261.71	145.69
261.942	151.69
262.175	146.69
262.407	158.69
262.64	160.69
262.872	161.69
263.105	158.69
263.337	152.69
263.57	156.69
263.802	137.69
264.035	157.69
264.267	144.69
264.499	124.69
264.732	129.69
264.964	145.69
265.197	150.69
265.429	156.69
265.661	151.69
265.894	158.69
266.126	141.69
266.358	138.69
266.591	163.69
266.823	141.69
267.055	154.69
267.287	148.69
267.52	164.69
267.752	160.69
267.984	161.69
268.216	170.69
268.448	168.69
268.681	148.69
268.913	153.69
269.145	165.69
269.377	193.69
269.609	181.69
269.841	182.69
270.073	179.69
270.306	184.69
270.538	184.69
270.77	204.69
271.002	185.69
271.234	201.69
271.466	189.69
271.698	205.69
271.93	209.69
272.162	210.69
272.394	194.69
272.626	189.69
272.858	188.69
273.09	182.69
273.322	192.69
273.553	180.69
273.785	170.69
274.017	163.69
274.249	175.69
274.481	174.69
274.713	175.69
274.945	192.69
275.176	181.69
275.408	175.69
275.64	172.69
275.872	157.69
276.104	176.69
276.335	198.69
276.567	185.69
276.799	190.69
277.031	190.69
277.262	189.69
277.494	190.69
277.726	191.69
277.957	186.69
278.189	184.69
278.421	185.69
278.652	177.69
278.884	176.69
279.115	178.69
279.347	169.69
279.579	190.69
279.81	188.69
280.042	184.69
280.273	176.69
280.505	181.69
280.736	186.69
280.968	174.69
281.199	189.69
281.431	180.69
281.662	188.69
281.894	172.69
282.125	166.69
282.356	192.69
282.588	180.69
282.819	196.69
283.051	184.69
283.282	184.69
283.513	185.69
283.745	195.69
283.976	186.69
284.207	205.69
284.439	176.69
284.67	202.69
284.901	200.69
285.132	185.69
285.364	184.69
285.595	179.69
285.826	188.69
286.057	187.69
286.288	188.69
286.52	192.69
286.751	190.69
286.982	180.69
287.213	173.69
287.444	194.69
287.675	191.69
287.906	199.69
288.138	177.69
288.369	186.69
288.6	183.69
288.831	205.69
289.062	186.69
289.293	184.69
289.524	192.69
289.755	181.69
289.986	206.69
290.217	197.69
290.448	203.69
290.679	187.69
290.91	195.69
291.141	194.69
291.371	199.69
291.602	174.69
291.833	193.69
292.064	185.69
292.295	206.69
292.526	188.69
292.757	191.69
292.987	202.69
293.218	189.69
293.449	181.69
293.68	215.69
293.91	184.69
294.141	190.69
294.372	187.69
294.603	200.69
294.833	193.69
295.064	191.69
295.295	192.69
295.525	202.69
295.756	192.69
295.987	186.69
296.217	202.69
296.448	224.69
296.679	197.69
296.909	199.69
297.14	186.69
297.37	209.69
297.601	205.69
297.831	186.69
298.062	200.69
298.292	202.69
298.523	198.69
298.753	198.69
298.984	194.69
299.214	201.69
299.445	211.69
299.675	205.69
299.905	219.69
300.136	207.69
300.366	193.69
300.597	194.69
300.827	199.69
301.057	212.69
301.288	212.69
301.518	216.69
301.748	220.69
301.979	207.69
302.209	219.69
302.439	203.69
302.669	213.69
302.9	214.69
303.13	212.69
303.36	209.69
303.59	233.69
303.82	220.69
304.051	204.69
304.281	203.69
304.511	208.69
304.741	230.69
304.971	204.69
305.201	226.69
305.431	227.69
305.661	221.69
305.891	225.69
306.121	212.69
306.352	216.69
306.582	230.69
306.812	212.69
307.042	212.69
307.272	211.69
307.502	204.69
307.731	211.69
307.961	216.69
308.191	214.69
308.421	212.69
308.651	229.69
308.881	216.69
309.111	202.69
309.341	218.69
309.571	240.69
309.8	222.69
310.03	252.69
310.26	214.69
310.49	228.69
310.72	252.69
310.949	221.69
311.179	255.69
311.409	238.69
311.639	246.69
311.868	239.69
312.098	254.69
312.328	223.69
312.557	253.69
312.787	257.69
313.017	242.69
313.246	248.69
313.476	253.69
313.706	253.69
313.935	254.69
314.165	259.69
314.394	245.69
314.624	245.69
314.853	261.69
315.083	254.69
315.312	257.69
315.542	254.69
315.771	253.69
316.001	237.69
316.23	238.69
316.46	218.69
316.689	248.69
316.919	226.69
317.148	256.69
317.377	255.69
317.607	252.69
317.836	252.69
318.065	247.69
318.295	254.69
318.524	237.69
318.753	257.69
318.983	229.69
319.212	242.69
319.441	264.69
319.67	260.69
319.9	245.69
320.129	243.69
320.358	255.69
320.587	255.69
320.816	268.69
321.046	240.69
321.275	272.69
321.504	264.69
321.733	256.69
321.962	256.69
322.191	286.69
322.42	275.69
322.649	276.69
322.878	274.69
323.108	282.69
323.337	310.69
323.566	306.69
323.795	326.69
324.024	327.69
324.253	399.69
324.482	547.69
324.71	855.69
324.939	1190.69
325.168	1025.69
325.397	539.69
325.626	381.69
325.855	317.69
326.084	320.69
326.313	309.69
326.542	312.69
326.77	327.69
326.999	378.69
327.228	525.69
327.457	746.69
327.686	887.69
327.914	605.69
328.143	406.69
328.372	366.69
328.6	346.69
328.829	344.69
329.058	357.69
329.287	345.69
329.515	316.69
329.744	314.69
329.972	294.69
330.201	328.69
330.43	356.69
330.658	372.69
330.887	357.69
331.115	350.69
331.344	313.69
331.572	311.69
331.801	302.69
332.03	300.69
332.258	297.69
332.486	280.69
332.715	312.69
332.943	309.69
333.172	275.69
333.4	262.69
333.629	266.69
333.857	301.69
334.085	294.69
334.314	295.69
334.542	329.69
334.771	341.69
334.999	312.69
335.227	287.69
335.455	316.69
335.684	311.69
335.912	289.69
336.14	286.69
336.369	285.69
336.597	298.69
336.825	294.69
337.053	296.69
337.281	278.69
337.51	290.69
337.738	277.69
337.966	280.69
338.194	290.69
338.422	283.69
338.65	295.69
338.878	281.69
339.106	274.69
339.334	258.69
339.562	281.69
339.79	268.69
340.018	272.69
340.246	265.69
340.474	295.69
340.702	281.69
340.93	278.69
341.158	287.69
341.386	256.69
341.614	268.69
341.842	288.69
342.07	277.69
342.298	262.69
342.526	292.69
342.754	288.69
342.981	266.69
343.209	269.69
343.437	284.69
343.665	270.69
343.893	258.69
344.12	289.69
344.348	282.69
344.576	292.69
344.804	275.69
345.031	281.69
345.259	289.69
345.487	282.69
345.714	280.69
345.942	274.69
346.17	258.69
346.397	287.69
346.625	261.69
346.853	268.69
347.08	248.69
347.308	278.69
347.535	294.69
347.763	281.69
347.99	265.69
348.218	256.69
348.445	270.69
348.673	263.69
348.9	260.69
349.128	259.69
349.355	279.69
349.583	261.69
349.81	255.69
350.037	258.69
350.265	268.69
350.492	257.69
350.72	265.69
350.947	274.69
351.174	256.69
351.402	270.69
351.629	290.69
351.856	270.69
352.083	266.69
352.311	265.69
352.538	284.69
352.765	278.69
352.992	266.69
353.22	280.69
353.447	271.69
353.674	267.69
353.901	264.69
354.128	266.69
354.355	255.69
354.583	262.69
354.81	261.69
355.037	247.69
355.264	254.69
355.491	266.69
355.718	264.69
355.945	263.69
356.172	266.69
356.399	248.69
356.626	256.69
356.853	269.69
357.08	280.69
357.307	279.69
357.534	246.69
357.761	261.69
357.988	257.69
358.215	265.69
358.441	266.69
358.668	260.69
358.895	270.69
359.122	273.69
359.349	270.69
359.576	284.69
359.802	280.69
360.029	294.69
360.256	290.69
360.483	277.69
360.709	277.69
360.936	282.69
361.163	281.69
361.39	281.69
361.616	294.69
361.843	279.69
362.07	274.69
362.296	276.69
362.523	261.69
362.749	264.69
362.976	249.69
363.203	265.69
363.429	269.69
363.656	243.69
363.882	276.69
364.109	259.69
364.335	272.69
364.562	263.69
364.788	261.69
365.015	257.69
365.241	254.69
365.468	282.69
365.694	278.69
365.92	274.69
366.147	271.69
366.373	269.69
366.599	280.69
366.826	281.69
367.052	259.69
367.278	271.69
367.505	257.69
367.731	263.69
367.957	259.69
368.184	273.69
368.41	274.69
368.636	277.69
368.862	301.69
369.089	275.69
369.315	263.69
369.541	267.69
369.767	277.69
369.993	263.69
370.219	272.69
370.445	272.69
370.672	264.69
370.898	274.69
371.124	269.69
371.35	283.69
371.576	265.69
371.802	285.69
372.028	282.69
372.254	294.69
372.48	265.69
372.706	274.69
372.932	268.69
373.158	265.69
373.384	279.69
373.61	286.69
373.835	275.69
374.061	278.69
374.287	279.69
374.513	255.69
374.739	279.69
374.965	282.69
375.191	284.69
375.416	264.69
375.642	280.69
375.868	287.69
376.094	278.69
376.319	283.69
376.545	256.69
376.771	272.69
376.997	259.69
377.222	276.69
377.448	282.69
377.674	279.69
377.899	261.69
378.125	273.69
378.35	287.69
378.576	265.69
378.802	268.69
379.027	280.69
379.253	274.69
379.478	275.69
379.704	274.69
379.929	288.69
380.155	277.69
380.38	274.69
380.606	284.69
380.831	277.69
381.057	273.69
381.282	272.69
381.507	273.69
381.733	280.69
381.958	281.69
382.184	272.69
382.409	288.69
382.634	288.69
382.86	276.69
383.085	301.69
383.31	277.69
383.535	275.69
383.761	282.69
383.986	284.69
384.211	293.69
384.436	296.69
384.662	308.69
384.887	294.69
385.112	302.69
385.337	320.69
385.562	304.69
385.787	282.69
386.013	306.69
386.238	300.69
386.463	296.69
386.688	304.69
386.913	316.69
387.138	285.69
387.363	289.69
387.588	306.69
387.813	289.69
388.038	302.69
388.263	293.69
388.488	298.69
388.713	314.69
388.938	293.69
389.163	303.69
389.387	278.69
389.612	281.69
389.837	306.69
390.062	306.69
390.287	290.69
390.512	303.69
390.736	294.69
390.961	298.69
391.186	291.69
391.411	297.69
391.636	303.69
391.86	314.69
392.085	311.69
392.31	300.69
392.534	300.69
392.759	321.69
392.984	295.69
393.208	325.69
393.433	304.69
393.658	342.69
393.882	311.69
394.107	312.69
394.331	305.69
394.556	297.69
394.78	288.69
395.005	299.69
395.229	302.69
395.454	315.69
395.678	324.69
395.903	293.69
396.127	325.69
396.352	342.69
396.576	306.69
396.801	298.69
397.025	328.69
397.249	312.69
397.474	330.69
397.698	313.69
397.922	319.69
398.147	329.69
398.371	336.69
398.595	335.69
398.82	340.69
399.044	331.69
399.268	340.69
399.492	365.69
399.717	367.69
399.941	381.69
400.165	397.69
400.389	402.69
400.613	366.69
400.837	358.69
401.062	348.69
401.286	345.69
401.51	342.69
401.734	349.69
401.958	345.69
402.182	344.69
402.406	320.69
402.63	337.69
402.854	334.69
403.078	337.69
403.302	353.69
403.526	351.69
403.75	355.69
403.974	355.69
404.198	349.69
404.422	337.69
404.645	365.69
404.869	362.69
405.093	364.69
405.317	404.69
405.541	410.69
405.765	377.69
405.988	376.69
406.212	378.69
406.436	386.69
406.66	394.69
406.883	379.69
407.107	379.69
407.331	407.69
407.555	432.69
407.778	455.69
408.002	397.69
408.226	386.69
408.449	386.69
408.673	378.69
408.896	398.69
409.12	423.69
409.344	391.69
409.567	356.69
409.791	350.69
410.014	355.69
410.238	342.69
410.461	359.69
410.685	370.69
410.908	364.69
411.132	374.69
411.355	421.69
411.578	386.69
411.802	374.69
412.025	353.69
412.249	357.69
412.472	380.69
412.695	366.69
412.919	376.69
413.142	360.69
413.365	354.69
413.589	356.69
413.812	349.69
414.035	332.69
414.258	337.69
414.482	346.69
414.705	352.69
414.928	326.69
415.151	330.69
415.374	341.69
415.597	338.69
415.821	334.69
416.044	332.69
416.267	310.69
416.49	312.69
416.713	330.69
416.936	312.69
417.159	330.69
417.382	342.69
417.605	331.69
417.828	321.69
418.051	346.69
418.274	317.69
418.497	329.69
418.72	321.69
418.943	321.69
419.166	336.69
419.389	345.69
419.611	345.69
419.834	359.69
420.057	372.69
420.28	350.69
420.503	348.69
420.726	323.69
420.948	358.69
421.171	351.69
421.394	394.69
421.617	344.69
421.839	353.69
422.062	366.69
422.285	360.69
422.507	386.69
422.73	415.69
422.953	400.69
423.175	376.69
423.398	372.69
423.621	351.69
423.843	378.69
424.066	367.69
424.288	376.69
424.511	377.69
424.733	412.69
424.956	449.69
425.178	446.69
425.401	433.69
425.623	462.69
425.846	381.69
426.068	370.69
426.291	372.69
426.513	359.69
426.735	373.69
426.958	390.69
427.18	452.69
427.402	516.69
427.625	563.69
427.847	512.69
428.069	440.69
428.292	408.69
428.514	365.69
428.736	354.69
428.958	350.69
429.181	335.69
429.403	346.69
429.625	348.69
429.847	372.69
430.069	386.69
430.292	424.69
430.514	365.69
430.736	337.69
430.958	334.69
431.18	314.69
431.402	316.69
431.624	312.69
431.846	338.69
432.068	349.69
432.29	349.69
432.512	333.69
432.734	326.69
432.956	335.69
433.178	344.69
433.4	328.69
433.622	344.69
433.844	337.69
434.066	333.69
434.287	311.69
434.509	335.69
434.731	323.69
434.953	333.69
435.175	348.69
435.397	373.69
435.618	376.69
435.84	410.69
436.062	467.69
436.284	516.69
436.505	422.69
436.727	374.69
436.949	353.69
437.17	345.69
437.392	346.69
437.614	355.69
437.835	367.69
438.057	437.69
438.278	490.69
438.5	499.69
438.721	535.69
438.943	516.69
439.165	416.69
439.386	372.69
439.608	376.69
439.829	361.69
440.05	385.69
440.272	404.69
440.493	386.69
440.715	361.69
440.936	352.69
441.158	352.69
441.379	344.69
441.6	357.69
441.822	369.69
442.043	402.69
442.264	463.69
442.486	467.69
442.707	395.69
442.928	383.69
443.149	390.69
443.371	391.69
443.592	417.69
443.813	466.69
444.034	516.69
444.255	432.69
444.476	400.69
444.698	370.69
444.919	386.69
445.14	468.69
445.361	429.69
445.582	391.69
445.803	412.69
446.024	483.69
446.245	508.69
446.466	451.69
446.687	403.69
446.908	366.69
447.129	354.69
447.35	353.69
447.571	340.69
447.792	345.69
448.013	357.69
448.234	347.69
448.455	410.69
448.675	467.69
448.896	540.69
449.117	448.69
449.338	431.69
449.559	486.69
449.779	561.69
450	454.69
450.221	409.69
450.442	368.69
450.662	343.69
450.883	340.69
451.104	353.69
451.324	355.69
451.545	332.69
451.766	317.69
451.986	313.69
452.207	325.69
452.428	323.69
452.648	322.69
452.869	308.69
453.089	311.69
453.31	320.69
453.53	311.69
453.751	323.69
453.971	324.69
454.192	320.69
454.412	319.69
454.633	319.69
454.853	322.69
455.073	330.69
455.294	326.69
455.514	375.69
455.734	358.69
455.955	336.69
456.175	310.69
456.395	312.69
456.616	301.69
456.836	318.69
457.056	292.69
457.276	278.69
457.497	308.69
457.717	300.69
457.937	307.69
458.157	311.69
458.377	314.69
458.598	314.69
458.818	341.69
459.038	386.69
459.258	400.69
459.478	351.69
459.698	333.69
459.918	319.69
460.138	329.69
460.358	341.69
460.578	350.69
460.798	345.69
461.018	344.69
461.238	328.69
461.458	320.69
461.678	337.69
461.898	342.69
462.118	348.69
462.338	338.69
462.558	362.69
462.777	344.69
462.997	368.69
463.217	361.69
463.437	348.69
463.657	350.69
463.876	365.69
464.096	366.69
464.316	354.69
464.536	370.69
464.755	353.69
464.975	344.69
465.195	369.69
465.414	382.69
465.634	377.69
465.854	338.69
466.073	364.69
466.293	350.69
466.512	330.69
466.732	327.69
466.951	314.69
467.171	332.69
467.391	329.69
467.61	325.69
467.829	340.69
468.049	324.69
468.268	334.69
468.488	340.69
468.707	304.69
468.927	335.69
469.146	335.69
469.365	317.69
469.585	329.69
469.804	320.69
470.023	335.69
470.243	319.69
470.462	337.69
470.681	336.69
470.901	341.69
471.12	345.69
471.339	341.69
471.558	328.69
471.777	371.69
471.997	324.69
472.216	342.69
472.435	349.69
472.654	343.69
472.873	333.69
473.092	318.69
473.311	334.69
473.53	333.69
473.749	340.69
473.968	380.69
474.187	420.69
474.406	405.69
474.625	372.69
474.844	348.69
475.063	345.69
475.282	342.69
475.501	336.69
475.72	357.69
475.939	338.69
476.158	328.69
476.377	325.69
476.596	334.69
476.814	352.69
477.033	344.69
477.252	348.69
477.471	356.69
477.69	365.69
477.908	349.69
478.127	380.69
478.346	362.69
478.564	368.69
478.783	380.69
479.002	367.69
479.22	393.69
479.439	382.69
479.658	397.69
479.876	390.69
480.095	396.69
480.313	391.69
480.532	390.69
480.751	396.69
480.969	394.69
481.188	425.69
481.406	446.69
481.624	430.69
481.843	399.69
482.061	402.69
482.28	415.69
482.498	401.69
482.717	402.69
482.935	365.69
483.153	378.69
483.372	384.69
483.59	410.69
483.808	398.69
484.027	386.69
484.245	386.69
484.463	386.69
484.681	400.69
484.9	412.69
485.118	390.69
485.336	380.69
485.554	408.69
485.772	403.69
485.99	409.69
486.209	386.69
486.427	416.69
486.645	436.69
486.863	430.69
487.081	418.69
487.299	415.69
487.517	408.69
487.735	423.69
487.953	423.69
488.171	435.69
488.389	401.69
488.607	416.69
488.825	419.69
489.043	435.69
489.261	410.69
489.479	423.69
489.696	414.69
489.914	417.69
490.132	437.69
490.35	429.69
490.568	441.69
490.786	453.69
491.003	440.69
491.221	452.69
491.439	440.69
491.657	443.69
491.874	460.69
492.092	466.69
492.31	478.69
492.527	472.69
492.745	481.69
492.963	466.69
493.18	460.69
493.398	472.69
493.615	471.69
493.833	483.69
494.05	475.69
494.268	464.69
494.485	468.69
494.703	476.69
494.92	471.69
495.138	468.69
495.355	473.69
495.573	467.69
495.79	490.69
496.008	499.69
496.225	477.69
496.442	470.69
496.66	502.69
496.877	494.69
497.094	502.69
497.312	504.69
497.529	547.69
497.746	510.69
497.963	534.69
498.181	527.69
498.398	531.69
498.615	531.69
498.832	561.69
499.049	550.69
499.267	556.69
499.484	592.69
499.701	603.69
499.918	601.69
500.135	629.69
500.352	648.69
500.569	640.69
500.786	667.69
501.003	671.69
501.22	620.69
501.437	601.69
501.654	595.69
501.871	598.69
502.088	581.69
502.305	553.69
502.522	549.69
502.739	537.69
502.956	522.69
503.172	540.69
503.389	515.69
503.606	499.69
503.823	514.69
504.04	489.69
504.256	487.69
504.473	517.69
504.69	483.69
504.907	498.69
505.123	486.69
505.34	474.69
505.557	478.69
505.773	454.69
505.99	458.69
506.207	463.69
506.423	442.69
506.64	465.69
506.856	453.69
507.073	460.69
507.289	460.69
507.506	466.69
507.722	456.69
507.939	458.69
508.155	458.69
508.372	450.69
508.588	437.69
508.805	412.69
509.021	436.69
509.238	458.69
509.454	440.69
509.67	444.69
509.887	423.69
510.103	428.69
510.319	432.69
510.536	483.69
510.752	705.69
510.968	597.69
511.184	447.69
511.401	439.69
511.617	436.69
511.833	425.69
512.049	428.69
512.265	423.69
512.481	405.69
512.698	418.69
512.914	384.69
513.13	421.69
513.346	396.69
513.562	392.69
513.778	436.69
513.994	447.69
514.21	417.69
514.426	438.69
514.642	459.69
514.858	471.69
515.074	501.69
515.29	544.69
515.506	698.69
515.721	635.69
515.937	476.69
516.153	439.69
516.369	428.69
516.585	437.69
516.801	440.69
517.016	420.69
517.232	422.69
517.448	424.69
517.664	442.69
517.879	434.69
518.095	440.69
518.311	453.69
518.527	428.69
518.742	404.69
518.958	442.69
519.173	412.69
519.389	421.69
519.605	425.69
519.82	425.69
520.036	437.69
520.251	428.69
520.467	466.69
520.682	459.69
520.898	456.69
521.113	449.69
521.329	456.69
521.544	515.69
521.76	592.69
521.975	878.69
522.19	849.69
522.406	546.69
522.621	464.69
522.836	429.69
523.052	394.69
523.267	402.69
523.482	410.69
523.698	404.69
523.913	397.69
524.128	393.69
524.343	393.69
524.559	388.69
524.774	361.69
524.989	352.69
525.204	372.69
525.419	382.69
525.634	392.69
525.849	368.69
526.064	380.69
526.28	373.69
526.495	363.69
526.71	373.69
526.925	358.69
527.14	364.69
527.355	335.69
527.57	362.69
527.785	357.69
527.999	358.69
528.214	357.69
528.429	351.69
528.644	378.69
528.859	358.69
529.074	369.69
529.289	386.69
529.503	401.69
529.718	402.69
529.933	369.69
530.148	384.69
530.363	377.69
530.577	347.69
530.792	347.69
531.007	356.69
531.221	367.69
531.436	338.69
531.651	360.69
531.865	357.69
532.08	365.69
532.295	337.69
532.509	336.69
532.724	335.69
532.938	354.69
533.153	344.69
533.367	346.69
533.582	334.69
533.796	345.69
534.011	336.69
534.225	352.69
534.44	340.69
534.654	348.69
534.868	344.69
535.083	344.69
535.297	335.69
535.511	358.69
535.726	344.69
535.94	337.69
536.154	352.69
536.369	339.69
536.583	341.69
536.797	329.69
537.011	339.69
537.225	344.69
537.44	339.69
537.654	330.69
537.868	333.69
538.082	357.69
538.296	353.69
538.51	326.69
538.724	353.69
538.938	330.69
539.153	356.69
539.367	343.69
539.581	347.69
539.795	329.69
540.009	346.69
540.222	329.69
540.436	321.69
540.65	330.69
540.864	343.69
541.078	324.69
541.292	348.69
541.506	332.69
541.72	342.69
541.934	334.69
542.147	335.69
542.361	327.69
542.575	325.69
542.789	333.69
543.002	313.69
543.216	328.69
543.43	348.69
543.644	325.69
543.857	343.69
544.071	326.69
544.285	350.69
544.498	335.69
544.712	329.69
544.925	334.69
545.139	330.69
545.352	312.69
545.566	329.69
545.779	316.69
545.993	329.69
546.206	335.69
546.42	336.69
546.633	322.69
546.847	333.69
547.06	317.69
547.274	326.69
547.487	325.69
547.7	341.69
547.914	326.69
548.127	330.69
548.34	315.69
548.554	329.69
548.767	329.69
548.98	329.69
549.193	305.69
549.407	317.69
549.62	337.69
549.833	326.69
550.046	320.69
550.259	302.69
550.473	322.69
550.686	323.69
550.899	334.69
551.112	326.69
551.325	318.69
551.538	316.69
551.751	322.69
551.964	322.69
552.177	331.69
552.39	325.69
552.603	318.69
552.816	312.69
553.029	320.69
553.242	332.69
553.455	325.69
553.667	320.69
553.88	329.69
554.093	323.69
554.306	327.69
554.519	311.69
554.732	317.69
554.944	302.69
555.157	316.69
555.37	318.69
555.583	284.69
555.795	295.69
556.008	282.69
556.221	296.69
556.433	313.69
556.646	300.69
556.859	281.69
557.071	322.69
557.284	293.69
557.496	294.69
557.709	285.69
557.921	299.69
558.134	279.69
558.346	286.69
558.559	291.69
558.771	289.69
558.984	284.69
559.196	298.69
559.409	296.69
559.621	292.69
559.833	307.69
560.046	294.69
560.258	306.69
560.47	281.69
560.683	288.69
560.895	293.69
561.107	302.69
561.32	287.69
561.532	290.69
561.744	289.69
561.956	295.69
562.168	280.69
562.381	307.69
562.593	294.69
562.805	310.69
563.017	289.69
563.229	308.69
563.441	304.69
563.653	288.69
563.865	318.69
564.077	296.69
564.289	294.69
564.501	303.69
564.713	318.69
564.925	328.69
565.137	329.69
565.349	315.69
565.561	314.69
565.773	345.69
565.985	312.69
566.197	342.69
566.408	334.69
566.62	345.69
566.832	335.69
567.044	324.69
567.255	344.69
567.467	358.69
567.679	346.69
567.891	350.69
568.102	316.69
568.314	356.69
568.526	337.69
568.737	334.69
568.949	322.69
569.161	309.69
569.372	304.69
569.584	305.69
569.795	316.69
570.007	298.69
570.218	307.69
570.43	321.69
570.641	285.69
570.853	303.69
571.064	275.69
571.276	273.69
571.487	273.69
571.698	292.69
571.91	267.69
572.121	290.69
572.333	281.69
572.544	271.69
572.755	252.69
572.966	266.69
573.178	256.69
573.389	273.69
573.6	267.69
573.811	251.69
574.023	279.69
574.234	258.69
574.445	280.69
574.656	266.69
574.867	257.69
575.078	262.69
575.289	236.69
575.501	264.69
575.712	246.69
575.923	261.69
576.134	261.69
576.345	232.69
576.556	238.69
576.767	255.69
576.978	256.69
577.188	257.69
577.399	245.69
577.61	241.69
577.821	251.69
578.032	243.69
578.243	286.69
578.454	355.69
578.665	280.69
578.875	240.69
579.086	247.69
579.297	241.69
579.508	244.69
579.718	232.69
579.929	253.69
580.14	248.69
580.35	248.69
580.561	229.69
580.772	239.69
580.982	246.69
581.193	238.69
581.403	254.69
581.614	232.69
581.825	229.69
582.035	237.69
582.246	250.69
582.456	245.69
582.667	236.69
582.877	227.69
583.087	230.69
583.298	201.69
583.508	243.69
583.719	218.69
583.929	241.69
584.139	214.69
584.35	225.69
584.56	236.69
584.77	237.69
584.981	230.69
585.191	221.69
585.401	225.69
585.611	238.69
585.821	242.69
586.032	237.69
586.242	233.69
586.452	238.69
586.662	221.69
586.872	205.69
587.082	244.69
587.292	232.69
587.502	244.69
587.713	233.69
587.923	248.69
588.133	236.69
588.343	237.69
588.553	225.69
588.762	220.69
588.972	228.69
589.182	268.69
589.392	238.69
589.602	233.69
589.812	244.69
590.022	236.69
590.232	237.69
590.441	220.69
590.651	216.69
590.861	232.69
591.071	240.69
591.281	226.69
591.49	231.69
591.7	252.69
591.91	221.69
592.119	221.69
592.329	219.69
592.539	224.69
592.748	225.69
592.958	227.69
593.167	220.69
593.377	225.69
593.587	238.69
593.796	233.69
594.006	243.69
594.215	224.69
594.424	232.69
594.634	231.69
594.843	241.69
595.053	210.69
595.262	221.69
595.472	232.69
595.681	206.69
595.89	220.69
596.1	229.69
596.309	202.69
596.518	214.69
596.727	224.69
596.937	216.69
597.146	210.69
597.355	206.69
597.564	220.69
597.774	215.69
597.983	203.69
598.192	226.69
598.401	205.69
598.61	196.69
598.819	205.69
599.028	210.69
599.237	199.69
599.446	195.69
599.655	208.69
599.864	200.69
600.073	219.69
600.282	205.69
600.491	214.69
600.7	201.69
600.909	214.69
601.118	205.69
601.327	197.69
601.536	196.69
601.745	193.69
601.953	200.69
602.162	192.69
602.371	191.69
602.58	208.69
602.789	198.69
602.997	188.69
603.206	174.69
603.415	215.69
603.623	197.69
603.832	198.69
604.041	202.69
604.249	196.69
604.458	200.69
604.666	211.69
604.875	184.69
605.084	189.69
605.292	197.69
605.501	193.69
605.709	194.69
605.918	194.69
606.126	198.69
606.334	210.69
606.543	180.69
606.751	184.69
606.96	199.69
607.168	191.69
607.376	194.69
607.585	195.69
607.793	200.69
608.001	207.69
608.21	180.69
608.418	202.69
608.626	204.69
608.834	190.69
609.043	207.69
609.251	188.69
609.459	174.69
609.667	190.69
609.875	198.69
610.083	196.69
610.291	222.69
610.499	191.69
610.707	197.69
610.916	192.69
611.124	192.69
611.332	193.69
611.54	198.69
611.748	195.69
611.955	206.69
612.163	175.69
612.371	191.69
612.579	172.69
612.787	192.69
612.995	188.69
613.203	194.69
613.411	179.69
613.618	190.69
613.826	178.69
614.034	202.69
614.242	185.69
614.449	185.69
614.657	187.69
614.865	176.69
615.072	177.69
615.28	191.69
615.488	189.69
615.695	194.69
615.903	178.69
616.111	184.69
616.318	191.69
616.526	197.69
616.733	177.69
616.941	188.69
617.148	196.69
617.356	175.69
617.563	207.69
617.771	191.69
617.978	190.69
618.185	184.69
618.393	180.69
618.6	178.69
618.807	169.69
619.015	175.69
619.222	168.69
619.429	192.69
619.637	177.69
619.844	191.69
620.051	173.69
620.258	164.69
620.466	179.69
620.673	176.69
620.88	160.69
621.087	169.69
621.294	172.69
621.501	183.69
621.708	172.69
621.915	178.69
622.122	168.69
622.329	183.69
622.536	191.69
622.743	158.69
622.95	187.69
623.157	182.69
623.364	172.69
623.571	166.69
623.778	184.69
623.985	183.69
624.192	174.69
624.399	174.69
624.606	174.69
624.812	161.69
625.019	162.69
625.226	168.69
625.433	185.69
625.639	172.69
625.846	158.69
626.053	156.69
626.259	190.69
626.466	162.69
626.673	161.69
626.879	164.69
627.086	162.69
627.293	196.69
627.499	164.69
627.706	163.69
627.912	169.69
628.119	160.69
628.325	168.69
628.532	160.69
628.738	169.69
628.945	157.69
629.151	142.69
629.357	155.69
629.564	150.69
629.77	164.69
629.976	169.69
630.183	161.69
630.389	164.69
630.595	160.69
630.802	150.69
631.008	168.69
631.214	172.69
631.42	157.69
631.627	168.69
631.833	169.69
632.039	158.69
632.245	171.69
632.451	155.69
632.657	158.69
632.863	171.69
633.069	158.69
633.275	163.69
633.481	162.69
633.688	143.69
633.893	162.69
634.099	146.69
634.305	167.69
634.511	167.69
634.717	167.69
634.923	135.69
635.129	168.69
635.335	144.69
635.541	137.69
635.747	154.69
635.952	155.69
636.158	157.69
636.364	155.69
636.57	157.69
636.775	143.69
636.981	161.69
637.187	155.69
637.392	141.69
637.598	148.69
637.804	150.69
638.009	145.69
638.215	154.69
638.421	139.69
638.626	146.69
638.832	154.69
639.037	135.69
639.243	140.69
639.448	148.69
639.654	140.69
639.859	144.69
640.065	143.69
640.27	150.69
640.475	148.69
640.681	145.69
640.886	143.69
641.091	153.69
641.297	152.69
641.502	141.69
641.707	137.69
641.913	146.69
642.118	151.69
642.323	151.69
642.528	151.69
642.733	148.69
642.939	150.69
643.144	150.69
643.349	147.69
643.554	149.69
643.759	148.69
643.964	153.69
644.169	146.69
644.374	137.69
644.579	142.69
644.784	132.69
644.989	131.69
645.194	126.69
645.399	136.69
645.604	141.69
645.809	132.69
646.014	152.69
646.219	144.69
646.423	138.69
646.628	142.69
646.833	130.69
647.038	147.69
647.243	153.69
647.447	138.69
647.652	147.69
647.857	138.69
648.062	160.69
648.266	140.69
648.471	146.69
648.676	149.69
648.88	153.69
649.085	137.69
649.289	136.69
649.494	149.69
649.698	158.69
649.903	147.69
650.107	152.69
650.312	142.69
650.516	141.69
650.721	146.69
650.925	136.69
651.13	145.69
651.334	133.69
651.539	136.69
651.743	132.69
651.947	115.69
652.152	135.69
652.356	128.69
652.56	117.69
652.764	136.69
652.969	128.69
653.173	124.69
653.377	124.69
653.581	116.69
653.785	126.69
653.99	120.69
654.194	133.69
654.398	133.69
654.602	119.69
654.806	122.69
655.01	125.69
655.214	112.69
655.418	118.69
655.622	126.69
655.826	131.69
656.03	118.69
656.234	118.69
656.438	141.69
656.642	132.69
656.846	121.69
657.049	126.69
657.253	117.69
657.457	105.69
657.661	105.69
657.865	119.69
658.068	100.69
658.272	97.69
658.476	99.69
658.68	110.69
658.883	101.69
659.087	91.69
659.291	103.69
659.494	94.69
659.698	98.69
659.901	91.69
660.105	82.69
660.309	103.69
660.512	102.69
660.716	103.69
660.919	74.69
661.123	92.69
661.326	89.69
661.53	93.69
661.733	97.69
661.936	82.69
662.14	88.69
662.343	93.69
662.546	82.69
662.75	86.69
662.953	99.69
663.156	84.69
663.36	83.69
663.563	77.69
663.766	74.69
663.969	90.69
664.173	92.69
664.376	81.69
664.579	82.69
664.782	82.69
664.985	86.69
665.188	86.69
665.391	71.69
665.594	81.69
665.797	69.69
666	73.69
666.203	79.69
666.406	84.69
666.609	75.69
666.812	79.69
667.015	84.69
667.218	79.69
667.421	73.69
667.624	91.69
667.827	87.69
668.03	65.69
668.232	81.69
668.435	95.69
668.638	90.69
668.841	99.69
669.043	71.69
669.246	83.69
669.449	79.69
669.651	88.69
669.854	85.69
670.057	90.69
670.259	78.69
670.462	74.69
670.665	78.69
670.867	93.69
671.07	79.69
671.272	88.69
671.475	82.69
671.677	81.69
671.88	79.69
672.082	74.69
672.284	82.69
672.487	79.69
672.689	81.69
672.892	74.69
