Data from 1961.PennyLincolnUp.Lamp.En5.5.200Scan.071719.P1._HRD10591_13-46-17-057.txt Node
Date: Thu Jul 18 13:46:17 EDT 2019
User: cochatt
Spectrometer: HR+D1059
Trigger mode: 1
Integration Time (sec): 1.000000E-1
Scans to average: 1
Electric dark correction enabled: true
Nonlinearity correction enabled: false
Boxcar width: 0
XAxis mode: Wavelengths
Number of Pixels in Spectrum: 2048
>>>>>Begin Spectral Data<<<<<
223.165	-17.69
223.4	-17.69
223.635	-17.69
223.869	-13.69
224.104	-22.69
224.338	-7.69
224.573	-18.69
224.808	5.31
225.042	-9.69
225.277	-11.69
225.511	-2.69
225.746	9.31
225.98	14.31
226.215	4.31
226.449	3.31
226.683	20.31
226.918	20.31
227.152	27.31
227.387	37.31
227.621	31.31
227.856	32.31
228.09	39.31
228.324	54.31
228.559	38.31
228.793	52.31
229.027	81.31
229.262	89.31
229.496	93.31
229.73	98.31
229.964	118.31
230.199	89.31
230.433	95.31
230.667	87.31
230.901	84.31
231.136	88.31
231.37	85.31
231.604	100.31
231.838	89.31
232.072	101.31
232.306	113.31
232.541	80.31
232.775	93.31
233.009	101.31
233.243	79.31
233.477	91.31
233.711	85.31
233.945	96.31
234.179	111.31
234.413	112.31
234.647	115.31
234.881	94.31
235.115	108.31
235.349	108.31
235.583	90.31
235.817	98.31
236.051	116.31
236.285	95.31
236.519	110.31
236.753	104.31
236.987	115.31
237.221	124.31
237.455	164.31
237.689	113.31
237.922	104.31
238.156	114.31
238.39	91.31
238.624	105.31
238.858	96.31
239.091	109.31
239.325	93.31
239.559	89.31
239.793	101.31
240.027	104.31
240.26	99.31
240.494	108.31
240.728	116.31
240.961	103.31
241.195	120.31
241.429	114.31
241.662	102.31
241.896	117.31
242.13	106.31
242.363	106.31
242.597	118.31
242.83	104.31
243.064	114.31
243.298	108.31
243.531	125.31
243.765	116.31
243.998	117.31
244.232	117.31
244.465	98.31
244.699	110.31
244.932	104.31
245.166	114.31
245.399	122.31
245.633	121.31
245.866	107.31
246.099	136.31
246.333	107.31
246.566	118.31
246.8	118.31
247.033	130.31
247.266	124.31
247.5	115.31
247.733	138.31
247.966	140.31
248.2	118.31
248.433	120.31
248.666	145.31
248.899	138.31
249.133	141.31
249.366	142.31
249.599	149.31
249.832	139.31
250.066	136.31
250.299	137.31
250.532	142.31
250.765	145.31
250.998	151.31
251.231	157.31
251.465	144.31
251.698	145.31
251.931	137.31
252.164	142.31
252.397	136.31
252.63	146.31
252.863	149.31
253.096	139.31
253.329	159.31
253.562	146.31
253.795	153.31
254.028	148.31
254.261	154.31
254.494	153.31
254.727	164.31
254.96	173.31
255.193	170.31
255.426	178.31
255.659	156.31
255.892	160.31
256.124	160.31
256.357	150.31
256.59	150.31
256.823	149.31
257.056	155.31
257.289	144.31
257.521	158.31
257.754	134.31
257.987	135.31
258.22	151.31
258.452	158.31
258.685	141.31
258.918	152.31
259.151	146.31
259.383	153.31
259.616	151.31
259.849	161.31
260.081	156.31
260.314	175.31
260.547	152.31
260.779	164.31
261.012	165.31
261.244	151.31
261.477	158.31
261.71	145.31
261.942	166.31
262.175	159.31
262.407	157.31
262.64	156.31
262.872	151.31
263.105	140.31
263.337	143.31
263.57	151.31
263.802	162.31
264.035	140.31
264.267	148.31
264.499	166.31
264.732	158.31
264.964	133.31
265.197	141.31
265.429	160.31
265.661	154.31
265.894	151.31
266.126	142.31
266.358	154.31
266.591	145.31
266.823	159.31
267.055	162.31
267.287	157.31
267.52	149.31
267.752	152.31
267.984	169.31
268.216	160.31
268.448	162.31
268.681	161.31
268.913	159.31
269.145	167.31
269.377	166.31
269.609	172.31
269.841	180.31
270.073	177.31
270.306	179.31
270.538	181.31
270.77	198.31
271.002	169.31
271.234	184.31
271.466	175.31
271.698	207.31
271.93	193.31
272.162	178.31
272.394	188.31
272.626	197.31
272.858	176.31
273.09	179.31
273.322	174.31
273.553	182.31
273.785	180.31
274.017	166.31
274.249	173.31
274.481	169.31
274.713	170.31
274.945	188.31
275.176	177.31
275.408	176.31
275.64	180.31
275.872	166.31
276.104	179.31
276.335	182.31
276.567	174.31
276.799	201.31
277.031	196.31
277.262	182.31
277.494	198.31
277.726	188.31
277.957	178.31
278.189	194.31
278.421	189.31
278.652	151.31
278.884	176.31
279.115	165.31
279.347	188.31
279.579	190.31
279.81	195.31
280.042	174.31
280.273	192.31
280.505	180.31
280.736	165.31
280.968	166.31
281.199	170.31
281.431	177.31
281.662	178.31
281.894	186.31
282.125	183.31
282.356	191.31
282.588	184.31
282.819	195.31
283.051	199.31
283.282	185.31
283.513	173.31
283.745	186.31
283.976	195.31
284.207	187.31
284.439	196.31
284.67	181.31
284.901	191.31
285.132	187.31
285.364	170.31
285.595	170.31
285.826	180.31
286.057	179.31
286.288	174.31
286.52	194.31
286.751	175.31
286.982	188.31
287.213	193.31
287.444	190.31
287.675	193.31
287.906	195.31
288.138	198.31
288.369	194.31
288.6	203.31
288.831	203.31
289.062	195.31
289.293	200.31
289.524	192.31
289.755	193.31
289.986	208.31
290.217	204.31
290.448	184.31
290.679	188.31
290.91	187.31
291.141	184.31
291.371	203.31
291.602	191.31
291.833	185.31
292.064	198.31
292.295	189.31
292.526	159.31
292.757	190.31
292.987	190.31
293.218	190.31
293.449	195.31
293.68	194.31
293.91	180.31
294.141	186.31
294.372	205.31
294.603	193.31
294.833	188.31
295.064	177.31
295.295	182.31
295.525	188.31
295.756	192.31
295.987	194.31
296.217	223.31
296.448	210.31
296.679	200.31
296.909	182.31
297.14	207.31
297.37	211.31
297.601	218.31
297.831	194.31
298.062	204.31
298.292	197.31
298.523	197.31
298.753	177.31
298.984	206.31
299.214	192.31
299.445	196.31
299.675	200.31
299.905	196.31
300.136	208.31
300.366	215.31
300.597	193.31
300.827	211.31
301.057	213.31
301.288	201.31
301.518	206.31
301.748	195.31
301.979	208.31
302.209	205.31
302.439	220.31
302.669	230.31
302.9	226.31
303.13	202.31
303.36	216.31
303.59	224.31
303.82	217.31
304.051	219.31
304.281	212.31
304.511	217.31
304.741	219.31
304.971	202.31
305.201	220.31
305.431	207.31
305.661	223.31
305.891	205.31
306.121	216.31
306.352	209.31
306.582	236.31
306.812	232.31
307.042	221.31
307.272	209.31
307.502	215.31
307.731	216.31
307.961	220.31
308.191	204.31
308.421	189.31
308.651	207.31
308.881	217.31
309.111	224.31
309.341	235.31
309.571	229.31
309.8	220.31
310.03	212.31
310.26	233.31
310.49	224.31
310.72	237.31
310.949	255.31
311.179	245.31
311.409	236.31
311.639	242.31
311.868	253.31
312.098	246.31
312.328	244.31
312.557	258.31
312.787	265.31
313.017	250.31
313.246	257.31
313.476	247.31
313.706	247.31
313.935	236.31
314.165	243.31
314.394	252.31
314.624	256.31
314.853	240.31
315.083	244.31
315.312	248.31
315.542	239.31
315.771	232.31
316.001	243.31
316.23	243.31
316.46	238.31
316.689	256.31
316.919	253.31
317.148	243.31
317.377	274.31
317.607	239.31
317.836	265.31
318.065	249.31
318.295	229.31
318.524	242.31
318.753	260.31
318.983	228.31
319.212	243.31
319.441	243.31
319.67	242.31
319.9	247.31
320.129	244.31
320.358	248.31
320.587	241.31
320.816	256.31
321.046	270.31
321.275	262.31
321.504	253.31
321.733	255.31
321.962	264.31
322.191	252.31
322.42	261.31
322.649	278.31
322.878	281.31
323.108	263.31
323.337	293.31
323.566	308.31
323.795	325.31
324.024	331.31
324.253	400.31
324.482	579.31
324.71	864.31
324.939	1201.31
325.168	1000.31
325.397	524.31
325.626	389.31
325.855	344.31
326.084	320.31
326.313	309.31
326.542	323.31
326.77	311.31
326.999	376.31
327.228	517.31
327.457	750.31
327.686	892.31
327.914	572.31
328.143	430.31
328.372	375.31
328.6	356.31
328.829	330.31
329.058	320.31
329.287	350.31
329.515	320.31
329.744	310.31
329.972	321.31
330.201	326.31
330.43	348.31
330.658	353.31
330.887	336.31
331.115	337.31
331.344	304.31
331.572	305.31
331.801	316.31
332.03	296.31
332.258	272.31
332.486	293.31
332.715	284.31
332.943	279.31
333.172	300.31
333.4	279.31
333.629	285.31
333.857	310.31
334.085	306.31
334.314	302.31
334.542	334.31
334.771	333.31
334.999	311.31
335.227	285.31
335.455	298.31
335.684	292.31
335.912	284.31
336.14	281.31
336.369	290.31
336.597	278.31
336.825	284.31
337.053	296.31
337.281	294.31
337.51	287.31
337.738	294.31
337.966	279.31
338.194	282.31
338.422	295.31
338.65	293.31
338.878	296.31
339.106	277.31
339.334	285.31
339.562	268.31
339.79	231.31
340.018	266.31
340.246	274.31
340.474	279.31
340.702	282.31
340.93	274.31
341.158	270.31
341.386	274.31
341.614	261.31
341.842	273.31
342.07	276.31
342.298	273.31
342.526	270.31
342.754	283.31
342.981	267.31
343.209	274.31
343.437	277.31
343.665	291.31
343.893	264.31
344.12	272.31
344.348	297.31
344.576	272.31
344.804	288.31
345.031	291.31
345.259	295.31
345.487	276.31
345.714	278.31
345.942	277.31
346.17	259.31
346.397	284.31
346.625	262.31
346.853	274.31
347.08	269.31
347.308	273.31
347.535	266.31
347.763	256.31
347.99	254.31
348.218	264.31
348.445	278.31
348.673	264.31
348.9	284.31
349.128	252.31
349.355	260.31
349.583	246.31
349.81	263.31
350.037	280.31
350.265	266.31
350.492	264.31
350.72	249.31
350.947	273.31
351.174	270.31
351.402	274.31
351.629	289.31
351.856	280.31
352.083	278.31
352.311	264.31
352.538	268.31
352.765	286.31
352.992	269.31
353.22	271.31
353.447	260.31
353.674	240.31
353.901	262.31
354.128	260.31
354.355	265.31
354.583	273.31
354.81	285.31
355.037	253.31
355.264	265.31
355.491	262.31
355.718	250.31
355.945	261.31
356.172	243.31
356.399	257.31
356.626	248.31
356.853	260.31
357.08	246.31
357.307	256.31
357.534	261.31
357.761	254.31
357.988	252.31
358.215	261.31
358.441	247.31
358.668	273.31
358.895	278.31
359.122	260.31
359.349	296.31
359.576	268.31
359.802	282.31
360.029	286.31
360.256	303.31
360.483	295.31
360.709	279.31
360.936	270.31
361.163	290.31
361.39	272.31
361.616	277.31
361.843	280.31
362.07	288.31
362.296	265.31
362.523	275.31
362.749	277.31
362.976	266.31
363.203	274.31
363.429	268.31
363.656	263.31
363.882	242.31
364.109	285.31
364.335	264.31
364.562	277.31
364.788	268.31
365.015	266.31
365.241	286.31
365.468	269.31
365.694	260.31
365.92	258.31
366.147	265.31
366.373	257.31
366.599	263.31
366.826	269.31
367.052	258.31
367.278	270.31
367.505	262.31
367.731	252.31
367.957	278.31
368.184	258.31
368.41	248.31
368.636	272.31
368.862	286.31
369.089	258.31
369.315	257.31
369.541	249.31
369.767	264.31
369.993	276.31
370.219	260.31
370.445	262.31
370.672	258.31
370.898	261.31
371.124	268.31
371.35	256.31
371.576	257.31
371.802	261.31
372.028	278.31
372.254	257.31
372.48	253.31
372.706	270.31
372.932	277.31
373.158	265.31
373.384	269.31
373.61	266.31
373.835	260.31
374.061	261.31
374.287	269.31
374.513	277.31
374.739	271.31
374.965	269.31
375.191	264.31
375.416	281.31
375.642	278.31
375.868	255.31
376.094	284.31
376.319	280.31
376.545	278.31
376.771	281.31
376.997	289.31
377.222	270.31
377.448	255.31
377.674	279.31
377.899	280.31
378.125	272.31
378.35	254.31
378.576	262.31
378.802	265.31
379.027	266.31
379.253	275.31
379.478	274.31
379.704	268.31
379.929	259.31
380.155	283.31
380.38	266.31
380.606	280.31
380.831	274.31
381.057	288.31
381.282	290.31
381.507	279.31
381.733	283.31
381.958	266.31
382.184	274.31
382.409	274.31
382.634	294.31
382.86	263.31
383.085	276.31
383.31	282.31
383.535	277.31
383.761	286.31
383.986	283.31
384.211	284.31
384.436	284.31
384.662	287.31
384.887	293.31
385.112	273.31
385.337	303.31
385.562	288.31
385.787	290.31
386.013	319.31
386.238	306.31
386.463	319.31
386.688	293.31
386.913	294.31
387.138	289.31
387.363	290.31
387.588	294.31
387.813	288.31
388.038	309.31
388.263	294.31
388.488	304.31
388.713	296.31
388.938	304.31
389.163	301.31
389.387	290.31
389.612	288.31
389.837	289.31
390.062	295.31
390.287	312.31
390.512	288.31
390.736	270.31
390.961	296.31
391.186	276.31
391.411	305.31
391.636	300.31
391.86	297.31
392.085	297.31
392.31	280.31
392.534	302.31
392.759	297.31
392.984	302.31
393.208	293.31
393.433	317.31
393.658	324.31
393.882	300.31
394.107	294.31
394.331	285.31
394.556	294.31
394.78	295.31
395.005	296.31
395.229	306.31
395.454	297.31
395.678	306.31
395.903	312.31
396.127	311.31
396.352	344.31
396.576	302.31
396.801	292.31
397.025	319.31
397.249	340.31
397.474	318.31
397.698	312.31
397.922	328.31
398.147	327.31
398.371	342.31
398.595	326.31
398.82	328.31
399.044	335.31
399.268	334.31
399.492	355.31
399.717	372.31
399.941	380.31
400.165	397.31
400.389	405.31
400.613	383.31
400.837	345.31
401.062	362.31
401.286	344.31
401.51	336.31
401.734	325.31
401.958	314.31
402.182	321.31
402.406	348.31
402.63	336.31
402.854	347.31
403.078	343.31
403.302	339.31
403.526	351.31
403.75	350.31
403.974	341.31
404.198	326.31
404.422	329.31
404.645	333.31
404.869	337.31
405.093	369.31
405.317	399.31
405.541	412.31
405.765	379.31
405.988	365.31
406.212	360.31
406.436	374.31
406.66	382.31
406.883	371.31
407.107	377.31
407.331	418.31
407.555	422.31
407.778	439.31
408.002	407.31
408.226	399.31
408.449	391.31
408.673	368.31
408.896	383.31
409.12	408.31
409.344	380.31
409.567	370.31
409.791	373.31
410.014	362.31
410.238	345.31
410.461	345.31
410.685	365.31
410.908	379.31
411.132	369.31
411.355	388.31
411.578	381.31
411.802	357.31
412.025	348.31
412.249	360.31
412.472	367.31
412.695	382.31
412.919	380.31
413.142	364.31
413.365	352.31
413.589	350.31
413.812	338.31
414.035	326.31
414.258	337.31
414.482	341.31
414.705	324.31
414.928	340.31
415.151	340.31
415.374	331.31
415.597	325.31
415.821	317.31
416.044	327.31
416.267	325.31
416.49	325.31
416.713	328.31
416.936	325.31
417.159	323.31
417.382	323.31
417.605	336.31
417.828	330.31
418.051	337.31
418.274	346.31
418.497	318.31
418.72	332.31
418.943	323.31
419.166	351.31
419.389	366.31
419.611	348.31
419.834	345.31
420.057	321.31
420.28	344.31
420.503	352.31
420.726	337.31
420.948	358.31
421.171	372.31
421.394	386.31
421.617	354.31
421.839	336.31
422.062	327.31
422.285	336.31
422.507	385.31
422.73	414.31
422.953	401.31
423.175	368.31
423.398	359.31
423.621	376.31
423.843	363.31
424.066	369.31
424.288	346.31
424.511	366.31
424.733	393.31
424.956	454.31
425.178	436.31
425.401	446.31
425.623	439.31
425.846	378.31
426.068	376.31
426.291	346.31
426.513	371.31
426.735	384.31
426.958	402.31
427.18	444.31
427.402	500.31
427.625	558.31
427.847	458.31
428.069	421.31
428.292	360.31
428.514	359.31
428.736	351.31
428.958	349.31
429.181	361.31
429.403	331.31
429.625	341.31
429.847	375.31
430.069	398.31
430.292	388.31
430.514	358.31
430.736	334.31
430.958	325.31
431.18	321.31
431.402	325.31
431.624	336.31
431.846	318.31
432.068	328.31
432.29	334.31
432.512	319.31
432.734	322.31
432.956	321.31
433.178	321.31
433.4	327.31
433.622	349.31
433.844	334.31
434.066	356.31
434.287	323.31
434.509	339.31
434.731	329.31
434.953	323.31
435.175	330.31
435.397	367.31
435.618	356.31
435.84	385.31
436.062	444.31
436.284	488.31
436.505	407.31
436.727	377.31
436.949	344.31
437.17	346.31
437.392	336.31
437.614	347.31
437.835	370.31
438.057	429.31
438.278	472.31
438.5	497.31
438.721	534.31
438.943	508.31
439.165	404.31
439.386	380.31
439.608	384.31
439.829	378.31
440.05	402.31
440.272	433.31
440.493	397.31
440.715	366.31
440.936	352.31
441.158	340.31
441.379	356.31
441.6	352.31
441.822	364.31
442.043	396.31
442.264	421.31
442.486	457.31
442.707	399.31
442.928	366.31
443.149	382.31
443.371	375.31
443.592	432.31
443.813	490.31
444.034	487.31
444.255	414.31
444.476	368.31
444.698	361.31
444.919	370.31
445.14	482.31
445.361	428.31
445.582	390.31
445.803	433.31
446.024	460.31
446.245	497.31
446.466	434.31
446.687	382.31
446.908	383.31
447.129	345.31
447.35	348.31
447.571	354.31
447.792	346.31
448.013	330.31
448.234	378.31
448.455	386.31
448.675	471.31
448.896	508.31
449.117	449.31
449.338	425.31
449.559	500.31
449.779	560.31
450	452.31
450.221	365.31
450.442	364.31
450.662	325.31
450.883	332.31
451.104	336.31
451.324	343.31
451.545	333.31
451.766	300.31
451.986	327.31
452.207	294.31
452.428	278.31
452.648	326.31
452.869	312.31
453.089	318.31
453.31	323.31
453.53	302.31
453.751	294.31
453.971	316.31
454.192	304.31
454.412	301.31
454.633	311.31
454.853	309.31
455.073	306.31
455.294	322.31
455.514	337.31
455.734	343.31
455.955	326.31
456.175	304.31
456.395	311.31
456.616	291.31
456.836	300.31
457.056	306.31
457.276	288.31
457.497	270.31
457.717	302.31
457.937	302.31
458.157	309.31
458.377	308.31
458.598	317.31
458.818	346.31
459.038	381.31
459.258	408.31
459.478	361.31
459.698	329.31
459.918	330.31
460.138	340.31
460.358	330.31
460.578	344.31
460.798	355.31
461.018	337.31
461.238	341.31
461.458	338.31
461.678	345.31
461.898	348.31
462.118	341.31
462.338	336.31
462.558	346.31
462.777	338.31
462.997	337.31
463.217	347.31
463.437	376.31
463.657	360.31
463.876	366.31
464.096	365.31
464.316	343.31
464.536	366.31
464.755	356.31
464.975	354.31
465.195	396.31
465.414	403.31
465.634	366.31
465.854	353.31
466.073	331.31
466.293	333.31
466.512	342.31
466.732	317.31
466.951	324.31
467.171	326.31
467.391	327.31
467.61	322.31
467.829	316.31
468.049	332.31
468.268	332.31
468.488	316.31
468.707	316.31
468.927	316.31
469.146	326.31
469.365	304.31
469.585	301.31
469.804	321.31
470.023	339.31
470.243	321.31
470.462	322.31
470.681	332.31
470.901	345.31
471.12	329.31
471.339	336.31
471.558	318.31
471.777	323.31
471.997	324.31
472.216	329.31
472.435	332.31
472.654	352.31
472.873	336.31
473.092	315.31
473.311	315.31
473.53	325.31
473.749	321.31
473.968	361.31
474.187	406.31
474.406	406.31
474.625	360.31
474.844	337.31
475.063	310.31
475.282	358.31
475.501	329.31
475.72	326.31
475.939	332.31
476.158	335.31
476.377	351.31
476.596	339.31
476.814	342.31
477.033	333.31
477.252	334.31
477.471	361.31
477.69	354.31
477.908	365.31
478.127	359.31
478.346	367.31
478.564	352.31
478.783	376.31
479.002	358.31
479.22	355.31
479.439	380.31
479.658	400.31
479.876	389.31
480.095	377.31
480.313	400.31
480.532	372.31
480.751	373.31
480.969	408.31
481.188	422.31
481.406	438.31
481.624	394.31
481.843	394.31
482.061	377.31
482.28	404.31
482.498	389.31
482.717	377.31
482.935	376.31
483.153	406.31
483.372	368.31
483.59	396.31
483.808	377.31
484.027	378.31
484.245	380.31
484.463	381.31
484.681	377.31
484.9	380.31
485.118	386.31
485.336	391.31
485.554	400.31
485.772	404.31
485.99	388.31
486.209	406.31
486.427	390.31
486.645	403.31
486.863	401.31
487.081	400.31
487.299	406.31
487.517	415.31
487.735	406.31
487.953	407.31
488.171	402.31
488.389	423.31
488.607	408.31
488.825	415.31
489.043	434.31
489.261	422.31
489.479	406.31
489.696	404.31
489.914	419.31
490.132	407.31
490.35	430.31
490.568	437.31
490.786	436.31
491.003	418.31
491.221	436.31
491.439	426.31
491.657	451.31
491.874	449.31
492.092	450.31
492.31	440.31
492.527	453.31
492.745	446.31
492.963	458.31
493.18	454.31
493.398	466.31
493.615	464.31
493.833	460.31
494.05	461.31
494.268	465.31
494.485	465.31
494.703	465.31
494.92	469.31
495.138	455.31
495.355	483.31
495.573	471.31
495.79	468.31
496.008	488.31
496.225	476.31
496.442	460.31
496.66	488.31
496.877	485.31
497.094	482.31
497.312	479.31
497.529	505.31
497.746	489.31
497.963	517.31
498.181	530.31
498.398	514.31
498.615	537.31
498.832	523.31
499.049	541.31
499.267	551.31
499.484	580.31
499.701	586.31
499.918	605.31
500.135	621.31
500.352	632.31
500.569	629.31
500.786	636.31
501.003	656.31
501.22	634.31
501.437	592.31
501.654	590.31
501.871	602.31
502.088	593.31
502.305	574.31
502.522	534.31
502.739	534.31
502.956	509.31
503.172	522.31
503.389	522.31
503.606	514.31
503.823	510.31
504.04	508.31
504.256	487.31
504.473	483.31
504.69	478.31
504.907	476.31
505.123	472.31
505.34	484.31
505.557	470.31
505.773	471.31
505.99	470.31
506.207	462.31
506.423	458.31
506.64	444.31
506.856	456.31
507.073	457.31
507.289	445.31
507.506	454.31
507.722	447.31
507.939	438.31
508.155	451.31
508.372	434.31
508.588	433.31
508.805	440.31
509.021	430.31
509.238	434.31
509.454	426.31
509.67	456.31
509.887	430.31
510.103	419.31
510.319	426.31
510.536	480.31
510.752	691.31
510.968	596.31
511.184	436.31
511.401	440.31
511.617	414.31
511.833	406.31
512.049	414.31
512.265	429.31
512.481	440.31
512.698	407.31
512.914	401.31
513.13	449.31
513.346	413.31
513.562	420.31
513.778	414.31
513.994	421.31
514.21	417.31
514.426	434.31
514.642	452.31
514.858	454.31
515.074	484.31
515.29	549.31
515.506	685.31
515.721	606.31
515.937	476.31
516.153	432.31
516.369	439.31
516.585	434.31
516.801	447.31
517.016	421.31
517.232	432.31
517.448	417.31
517.664	421.31
517.879	425.31
518.095	443.31
518.311	436.31
518.527	429.31
518.742	412.31
518.958	396.31
519.173	421.31
519.389	414.31
519.605	414.31
519.82	422.31
520.036	414.31
520.251	430.31
520.467	436.31
520.682	432.31
520.898	439.31
521.113	468.31
521.329	470.31
521.544	488.31
521.76	592.31
521.975	878.31
522.19	858.31
522.406	540.31
522.621	454.31
522.836	421.31
523.052	403.31
523.267	408.31
523.482	395.31
523.698	385.31
523.913	393.31
524.128	394.31
524.343	389.31
524.559	377.31
524.774	380.31
524.989	368.31
525.204	366.31
525.419	381.31
525.634	362.31
525.849	388.31
526.064	368.31
526.28	361.31
526.495	382.31
526.71	359.31
526.925	351.31
527.14	336.31
527.355	343.31
527.57	341.31
527.785	367.31
527.999	352.31
528.214	359.31
528.429	365.31
528.644	358.31
528.859	364.31
529.074	374.31
529.289	382.31
529.503	401.31
529.718	395.31
529.933	359.31
530.148	368.31
530.363	350.31
530.577	366.31
530.792	360.31
531.007	364.31
531.221	348.31
531.436	351.31
531.651	349.31
531.865	336.31
532.08	373.31
532.295	361.31
532.509	345.31
532.724	335.31
532.938	353.31
533.153	336.31
533.367	337.31
533.582	347.31
533.796	342.31
534.011	323.31
534.225	326.31
534.44	332.31
534.654	345.31
534.868	344.31
535.083	342.31
535.297	331.31
535.511	359.31
535.726	340.31
535.94	335.31
536.154	337.31
536.369	319.31
536.583	333.31
536.797	328.31
537.011	324.31
537.225	348.31
537.44	333.31
537.654	324.31
537.868	330.31
538.082	333.31
538.296	344.31
538.51	316.31
538.724	335.31
538.938	325.31
539.153	349.31
539.367	360.31
539.581	335.31
539.795	325.31
540.009	328.31
540.222	340.31
540.436	323.31
540.65	330.31
540.864	350.31
541.078	348.31
541.292	324.31
541.506	317.31
541.72	318.31
541.934	320.31
542.147	343.31
542.361	335.31
542.575	323.31
542.789	337.31
543.002	315.31
543.216	321.31
543.43	324.31
543.644	330.31
543.857	335.31
544.071	324.31
544.285	336.31
544.498	328.31
544.712	322.31
544.925	311.31
545.139	321.31
545.352	335.31
545.566	301.31
545.779	316.31
545.993	308.31
546.206	348.31
546.42	326.31
546.633	316.31
546.847	326.31
547.06	318.31
547.274	314.31
547.487	316.31
547.7	328.31
547.914	300.31
548.127	310.31
548.34	319.31
548.554	303.31
548.767	328.31
548.98	301.31
549.193	319.31
549.407	314.31
549.62	320.31
549.833	324.31
550.046	321.31
550.259	308.31
550.473	326.31
550.686	331.31
550.899	311.31
551.112	313.31
551.325	310.31
551.538	313.31
551.751	304.31
551.964	305.31
552.177	335.31
552.39	318.31
552.603	316.31
552.816	314.31
553.029	328.31
553.242	312.31
553.455	319.31
553.667	325.31
553.88	328.31
554.093	336.31
554.306	328.31
554.519	315.31
554.732	326.31
554.944	326.31
555.157	318.31
555.37	296.31
555.583	295.31
555.795	294.31
556.008	304.31
556.221	319.31
556.433	289.31
556.646	316.31
556.859	298.31
557.071	316.31
557.284	294.31
557.496	294.31
557.709	287.31
557.921	300.31
558.134	309.31
558.346	290.31
558.559	271.31
558.771	288.31
558.984	276.31
559.196	281.31
559.409	292.31
559.621	290.31
559.833	302.31
560.046	282.31
560.258	301.31
560.47	297.31
560.683	305.31
560.895	288.31
561.107	277.31
561.32	285.31
561.532	279.31
561.744	292.31
561.956	309.31
562.168	289.31
562.381	301.31
562.593	313.31
562.805	305.31
563.017	277.31
563.229	269.31
563.441	279.31
563.653	285.31
563.865	296.31
564.077	289.31
564.289	292.31
564.501	303.31
564.713	311.31
564.925	301.31
565.137	298.31
565.349	304.31
565.561	300.31
565.773	317.31
565.985	307.31
566.197	317.31
566.408	325.31
566.62	332.31
566.832	326.31
567.044	326.31
567.255	348.31
567.467	355.31
567.679	347.31
567.891	361.31
568.102	325.31
568.314	338.31
568.526	344.31
568.737	330.31
568.949	323.31
569.161	312.31
569.372	313.31
569.584	304.31
569.795	297.31
570.007	297.31
570.218	316.31
570.43	308.31
570.641	284.31
570.853	282.31
571.064	279.31
571.276	287.31
571.487	267.31
571.698	260.31
571.91	285.31
572.121	271.31
572.333	284.31
572.544	274.31
572.755	269.31
572.966	257.31
573.178	268.31
573.389	269.31
573.6	265.31
573.811	276.31
574.023	265.31
574.234	269.31
574.445	262.31
574.656	246.31
574.867	267.31
575.078	244.31
575.289	266.31
575.501	257.31
575.712	242.31
575.923	245.31
576.134	249.31
576.345	251.31
576.556	250.31
576.767	247.31
576.978	253.31
577.188	262.31
577.399	253.31
577.61	258.31
577.821	260.31
578.032	245.31
578.243	283.31
578.454	361.31
578.665	287.31
578.875	250.31
579.086	246.31
579.297	236.31
579.508	256.31
579.718	255.31
579.929	234.31
580.14	240.31
580.35	244.31
580.561	257.31
580.772	251.31
580.982	226.31
581.193	238.31
581.403	236.31
581.614	227.31
581.825	231.31
582.035	232.31
582.246	227.31
582.456	233.31
582.667	215.31
582.877	228.31
583.087	255.31
583.298	225.31
583.508	266.31
583.719	236.31
583.929	228.31
584.139	238.31
584.35	229.31
584.56	220.31
584.77	240.31
584.981	239.31
585.191	236.31
585.401	233.31
585.611	229.31
585.821	231.31
586.032	244.31
586.242	227.31
586.452	238.31
586.662	236.31
586.872	226.31
587.082	216.31
587.292	222.31
587.502	233.31
587.713	229.31
587.923	236.31
588.133	236.31
588.343	231.31
588.553	226.31
588.762	224.31
588.972	225.31
589.182	258.31
589.392	256.31
589.602	225.31
589.812	232.31
590.022	255.31
590.232	235.31
590.441	212.31
590.651	215.31
590.861	214.31
591.071	230.31
591.281	219.31
591.49	232.31
591.7	242.31
591.91	215.31
592.119	219.31
592.329	236.31
592.539	232.31
592.748	232.31
592.958	234.31
593.167	238.31
593.377	231.31
593.587	242.31
593.796	238.31
594.006	240.31
594.215	238.31
594.424	227.31
594.634	227.31
594.843	206.31
595.053	216.31
595.262	223.31
595.472	222.31
595.681	222.31
595.89	241.31
596.1	199.31
596.309	218.31
596.518	224.31
596.727	217.31
596.937	218.31
597.146	206.31
597.355	208.31
597.564	214.31
597.774	224.31
597.983	206.31
598.192	203.31
598.401	205.31
598.61	203.31
598.819	223.31
599.028	200.31
599.237	206.31
599.446	216.31
599.655	206.31
599.864	210.31
600.073	209.31
600.282	223.31
600.491	198.31
600.7	188.31
600.909	193.31
601.118	190.31
601.327	203.31
601.536	200.31
601.745	196.31
601.953	209.31
602.162	190.31
602.371	209.31
602.58	204.31
602.789	209.31
602.997	214.31
603.206	204.31
603.415	193.31
603.623	185.31
603.832	199.31
604.041	192.31
604.249	190.31
604.458	192.31
604.666	201.31
604.875	199.31
605.084	198.31
605.292	191.31
605.501	193.31
605.709	198.31
605.918	200.31
606.126	200.31
606.334	216.31
606.543	195.31
606.751	183.31
606.96	182.31
607.168	198.31
607.376	192.31
607.585	194.31
607.793	185.31
608.001	194.31
608.21	199.31
608.418	194.31
608.626	197.31
608.834	202.31
609.043	181.31
609.251	192.31
609.459	181.31
609.667	199.31
609.875	178.31
610.083	182.31
610.291	193.31
610.499	203.31
610.707	197.31
610.916	201.31
611.124	191.31
611.332	183.31
611.54	207.31
611.748	193.31
611.955	208.31
612.163	187.31
612.371	186.31
612.579	178.31
612.787	194.31
612.995	185.31
613.203	201.31
613.411	194.31
613.618	177.31
613.826	190.31
614.034	183.31
614.242	186.31
614.449	192.31
614.657	182.31
614.865	176.31
615.072	188.31
615.28	189.31
615.488	185.31
615.695	169.31
615.903	167.31
616.111	184.31
616.318	198.31
616.526	199.31
616.733	200.31
616.941	180.31
617.148	184.31
617.356	186.31
617.563	195.31
617.771	189.31
617.978	190.31
618.185	184.31
618.393	194.31
618.6	181.31
618.807	181.31
619.015	183.31
619.222	189.31
619.429	170.31
619.637	177.31
619.844	173.31
620.051	178.31
620.258	182.31
620.466	184.31
620.673	161.31
620.88	172.31
621.087	162.31
621.294	183.31
621.501	180.31
621.708	181.31
621.915	186.31
622.122	171.31
622.329	170.31
622.536	197.31
622.743	199.31
622.95	182.31
623.157	187.31
623.364	175.31
623.571	186.31
623.778	173.31
623.985	181.31
624.192	168.31
624.399	178.31
624.606	174.31
624.812	178.31
625.019	162.31
625.226	152.31
625.433	164.31
625.639	187.31
625.846	166.31
626.053	180.31
626.259	176.31
626.466	165.31
626.673	168.31
626.879	159.31
627.086	162.31
627.293	159.31
627.499	156.31
627.706	180.31
627.912	163.31
628.119	167.31
628.325	164.31
628.532	163.31
628.738	164.31
628.945	153.31
629.151	176.31
629.357	164.31
629.564	164.31
629.77	156.31
629.976	155.31
630.183	163.31
630.389	173.31
630.595	155.31
630.802	172.31
631.008	152.31
631.214	153.31
631.42	168.31
631.627	139.31
631.833	145.31
632.039	144.31
632.245	180.31
632.451	165.31
632.657	162.31
632.863	149.31
633.069	165.31
633.275	138.31
633.481	160.31
633.688	162.31
633.893	157.31
634.099	160.31
634.305	164.31
634.511	146.31
634.717	149.31
634.923	149.31
635.129	155.31
635.335	153.31
635.541	156.31
635.747	145.31
635.952	156.31
636.158	127.31
636.364	144.31
636.57	158.31
636.775	147.31
636.981	149.31
637.187	151.31
637.392	156.31
637.598	138.31
637.804	132.31
638.009	161.31
638.215	148.31
638.421	138.31
638.626	156.31
638.832	151.31
639.037	152.31
639.243	146.31
639.448	147.31
639.654	136.31
639.859	147.31
640.065	148.31
640.27	144.31
640.475	161.31
640.681	138.31
640.886	136.31
641.091	156.31
641.297	160.31
641.502	128.31
641.707	143.31
641.913	150.31
642.118	141.31
642.323	148.31
642.528	136.31
642.733	158.31
642.939	147.31
643.144	152.31
643.349	151.31
643.554	138.31
643.759	145.31
643.964	133.31
644.169	143.31
644.374	129.31
644.579	142.31
644.784	137.31
644.989	140.31
645.194	132.31
645.399	139.31
645.604	150.31
645.809	150.31
646.014	136.31
646.219	117.31
646.423	139.31
646.628	146.31
646.833	148.31
647.038	138.31
647.243	144.31
647.447	156.31
647.652	146.31
647.857	131.31
648.062	143.31
648.266	144.31
648.471	137.31
648.676	140.31
648.88	172.31
649.085	163.31
649.289	143.31
649.494	133.31
649.698	156.31
649.903	152.31
650.107	148.31
650.312	128.31
650.516	129.31
650.721	136.31
650.925	117.31
651.13	139.31
651.334	134.31
651.539	137.31
651.743	129.31
651.947	133.31
652.152	122.31
652.356	137.31
652.56	148.31
652.764	136.31
652.969	133.31
653.173	121.31
653.377	126.31
653.581	130.31
653.785	118.31
653.99	128.31
654.194	119.31
654.398	135.31
654.602	134.31
654.806	118.31
655.01	120.31
655.214	125.31
655.418	112.31
655.622	119.31
655.826	130.31
656.03	124.31
656.234	117.31
656.438	132.31
656.642	121.31
656.846	118.31
657.049	116.31
657.253	112.31
657.457	112.31
657.661	105.31
657.865	104.31
658.068	120.31
658.272	96.31
658.476	91.31
658.68	108.31
658.883	109.31
659.087	120.31
659.291	106.31
659.494	96.31
659.698	97.31
659.901	85.31
660.105	98.31
660.309	89.31
660.512	87.31
660.716	95.31
660.919	87.31
661.123	93.31
661.326	95.31
661.53	83.31
661.733	89.31
661.936	92.31
662.14	94.31
662.343	82.31
662.546	83.31
662.75	91.31
662.953	91.31
663.156	88.31
663.36	94.31
663.563	85.31
663.766	77.31
663.969	80.31
664.173	81.31
664.376	71.31
664.579	79.31
664.782	79.31
664.985	80.31
665.188	79.31
665.391	81.31
665.594	79.31
665.797	89.31
666	86.31
666.203	80.31
666.406	71.31
666.609	75.31
666.812	76.31
667.015	74.31
667.218	88.31
667.421	82.31
667.624	92.31
667.827	88.31
668.03	71.31
668.232	78.31
668.435	66.31
668.638	81.31
668.841	82.31
669.043	80.31
669.246	85.31
669.449	73.31
669.651	84.31
669.854	84.31
670.057	75.31
670.259	83.31
670.462	69.31
670.665	87.31
670.867	80.31
671.07	88.31
671.272	95.31
671.475	88.31
671.677	86.31
671.88	82.31
672.082	85.31
672.284	73.31
672.487	73.31
672.689	76.31
672.892	76.31
