Data from 1961.PennyLincolnUp.Lamp.En5.5.200Scan.071719.P1._HRD10591_13-47-40-058.txt Node
Date: Thu Jul 18 13:47:40 EDT 2019
User: cochatt
Spectrometer: HR+D1059
Trigger mode: 1
Integration Time (sec): 1.000000E-1
Scans to average: 1
Electric dark correction enabled: true
Nonlinearity correction enabled: false
Boxcar width: 0
XAxis mode: Wavelengths
Number of Pixels in Spectrum: 2048
>>>>>Begin Spectral Data<<<<<
223.165	-15.25
223.4	-15.25
223.635	-15.25
223.869	-16.25
224.104	-13.25
224.338	-14.25
224.573	-1.25
224.808	-14.25
225.042	-16.25
225.277	-2.25
225.511	-11.25
225.746	5.75
225.98	5.75
226.215	9.75
226.449	16.75
226.683	23.75
226.918	16.75
227.152	25.75
227.387	27.75
227.621	32.75
227.856	35.75
228.09	36.75
228.324	49.75
228.559	43.75
228.793	56.75
229.027	94.75
229.262	112.75
229.496	103.75
229.73	114.75
229.964	131.75
230.199	132.75
230.433	116.75
230.667	115.75
230.901	106.75
231.136	90.75
231.37	99.75
231.604	102.75
231.838	100.75
232.072	91.75
232.306	99.75
232.541	92.75
232.775	120.75
233.009	110.75
233.243	101.75
233.477	114.75
233.711	95.75
233.945	89.75
234.179	108.75
234.413	103.75
234.647	115.75
234.881	112.75
235.115	114.75
235.349	109.75
235.583	105.75
235.817	105.75
236.051	121.75
236.285	113.75
236.519	100.75
236.753	113.75
236.987	138.75
237.221	169.75
237.455	206.75
237.689	158.75
237.922	121.75
238.156	113.75
238.39	122.75
238.624	105.75
238.858	106.75
239.091	106.75
239.325	105.75
239.559	113.75
239.793	125.75
240.027	123.75
240.26	129.75
240.494	137.75
240.728	138.75
240.961	125.75
241.195	120.75
241.429	109.75
241.662	117.75
241.896	128.75
242.13	117.75
242.363	122.75
242.597	118.75
242.83	119.75
243.064	134.75
243.298	131.75
243.531	138.75
243.765	111.75
243.998	108.75
244.232	124.75
244.465	126.75
244.699	126.75
244.932	131.75
245.166	122.75
245.399	115.75
245.633	118.75
245.866	133.75
246.099	136.75
246.333	113.75
246.566	124.75
246.8	120.75
247.033	131.75
247.266	126.75
247.5	134.75
247.733	135.75
247.966	140.75
248.2	146.75
248.433	142.75
248.666	151.75
248.899	142.75
249.133	163.75
249.366	172.75
249.599	157.75
249.832	169.75
250.066	142.75
250.299	133.75
250.532	155.75
250.765	172.75
250.998	178.75
251.231	192.75
251.465	182.75
251.698	160.75
251.931	166.75
252.164	175.75
252.397	172.75
252.63	141.75
252.863	166.75
253.096	175.75
253.329	196.75
253.562	192.75
253.795	182.75
254.028	177.75
254.261	197.75
254.494	188.75
254.727	219.75
254.96	224.75
255.193	226.75
255.426	199.75
255.659	198.75
255.892	194.75
256.124	198.75
256.357	197.75
256.59	182.75
256.823	184.75
257.056	165.75
257.289	185.75
257.521	162.75
257.754	180.75
257.987	176.75
258.22	183.75
258.452	169.75
258.685	172.75
258.918	168.75
259.151	174.75
259.383	172.75
259.616	185.75
259.849	180.75
260.081	195.75
260.314	220.75
260.547	214.75
260.779	195.75
261.012	198.75
261.244	188.75
261.477	173.75
261.71	183.75
261.942	190.75
262.175	190.75
262.407	206.75
262.64	184.75
262.872	176.75
263.105	172.75
263.337	189.75
263.57	176.75
263.802	180.75
264.035	173.75
264.267	180.75
264.499	170.75
264.732	180.75
264.964	176.75
265.197	177.75
265.429	175.75
265.661	175.75
265.894	197.75
266.126	187.75
266.358	160.75
266.591	164.75
266.823	197.75
267.055	182.75
267.287	175.75
267.52	184.75
267.752	186.75
267.984	180.75
268.216	199.75
268.448	193.75
268.681	184.75
268.913	201.75
269.145	205.75
269.377	223.75
269.609	232.75
269.841	226.75
270.073	207.75
270.306	231.75
270.538	251.75
270.77	246.75
271.002	237.75
271.234	240.75
271.466	227.75
271.698	248.75
271.93	258.75
272.162	251.75
272.394	242.75
272.626	242.75
272.858	245.75
273.09	215.75
273.322	227.75
273.553	227.75
273.785	217.75
274.017	206.75
274.249	211.75
274.481	221.75
274.713	209.75
274.945	206.75
275.176	210.75
275.408	209.75
275.64	212.75
275.872	209.75
276.104	225.75
276.335	213.75
276.567	218.75
276.799	230.75
277.031	255.75
277.262	256.75
277.494	260.75
277.726	243.75
277.957	225.75
278.189	238.75
278.421	215.75
278.652	227.75
278.884	210.75
279.115	222.75
279.347	216.75
279.579	219.75
279.81	215.75
280.042	210.75
280.273	208.75
280.505	211.75
280.736	216.75
280.968	217.75
281.199	204.75
281.431	217.75
281.662	229.75
281.894	197.75
282.125	212.75
282.356	249.75
282.588	243.75
282.819	265.75
283.051	225.75
283.282	213.75
283.513	228.75
283.745	234.75
283.976	228.75
284.207	208.75
284.439	231.75
284.67	212.75
284.901	218.75
285.132	225.75
285.364	225.75
285.595	224.75
285.826	208.75
286.057	229.75
286.288	213.75
286.52	207.75
286.751	220.75
286.982	231.75
287.213	224.75
287.444	216.75
287.675	221.75
287.906	231.75
288.138	232.75
288.369	259.75
288.6	246.75
288.831	226.75
289.062	230.75
289.293	226.75
289.524	242.75
289.755	234.75
289.986	226.75
290.217	202.75
290.448	222.75
290.679	232.75
290.91	235.75
291.141	217.75
291.371	232.75
291.602	218.75
291.833	222.75
292.064	218.75
292.295	200.75
292.526	222.75
292.757	210.75
292.987	227.75
293.218	221.75
293.449	228.75
293.68	239.75
293.91	220.75
294.141	231.75
294.372	221.75
294.603	236.75
294.833	227.75
295.064	236.75
295.295	222.75
295.525	232.75
295.756	240.75
295.987	246.75
296.217	239.75
296.448	256.75
296.679	230.75
296.909	229.75
297.14	229.75
297.37	254.75
297.601	239.75
297.831	232.75
298.062	225.75
298.292	236.75
298.523	224.75
298.753	241.75
298.984	254.75
299.214	240.75
299.445	229.75
299.675	242.75
299.905	248.75
300.136	240.75
300.366	237.75
300.597	229.75
300.827	231.75
301.057	260.75
301.288	259.75
301.518	259.75
301.748	256.75
301.979	253.75
302.209	263.75
302.439	246.75
302.669	244.75
302.9	250.75
303.13	237.75
303.36	243.75
303.59	255.75
303.82	276.75
304.051	258.75
304.281	260.75
304.511	260.75
304.741	262.75
304.971	231.75
305.201	239.75
305.431	259.75
305.661	248.75
305.891	248.75
306.121	241.75
306.352	254.75
306.582	287.75
306.812	259.75
307.042	266.75
307.272	245.75
307.502	269.75
307.731	259.75
307.961	273.75
308.191	266.75
308.421	264.75
308.651	282.75
308.881	280.75
309.111	254.75
309.341	264.75
309.571	276.75
309.8	284.75
310.03	295.75
310.26	285.75
310.49	300.75
310.72	307.75
310.949	310.75
311.179	326.75
311.409	294.75
311.639	297.75
311.868	298.75
312.098	302.75
312.328	295.75
312.557	312.75
312.787	328.75
313.017	327.75
313.246	320.75
313.476	291.75
313.706	304.75
313.935	319.75
314.165	307.75
314.394	315.75
314.624	312.75
314.853	319.75
315.083	283.75
315.312	284.75
315.542	297.75
315.771	300.75
316.001	288.75
316.23	287.75
316.46	306.75
316.689	291.75
316.919	305.75
317.148	308.75
317.377	324.75
317.607	311.75
317.836	329.75
318.065	307.75
318.295	286.75
318.524	292.75
318.753	280.75
318.983	296.75
319.212	300.75
319.441	316.75
319.67	321.75
319.9	316.75
320.129	297.75
320.358	289.75
320.587	308.75
320.816	329.75
321.046	309.75
321.275	343.75
321.504	345.75
321.733	329.75
321.962	340.75
322.191	376.75
322.42	340.75
322.649	374.75
322.878	376.75
323.108	394.75
323.337	426.75
323.566	435.75
323.795	452.75
324.024	512.75
324.253	647.75
324.482	930.75
324.71	1474.75
324.939	2007.75
325.168	1702.75
325.397	937.75
325.626	599.75
325.855	476.75
326.084	458.75
326.313	445.75
326.542	462.75
326.77	520.75
326.999	581.75
327.228	832.75
327.457	1292.75
327.686	1512.75
327.914	1001.75
328.143	650.75
328.372	596.75
328.6	551.75
328.829	501.75
329.058	512.75
329.287	549.75
329.515	511.75
329.744	435.75
329.972	459.75
330.201	468.75
330.43	494.75
330.658	548.75
330.887	514.75
331.115	523.75
331.344	455.75
331.572	388.75
331.801	414.75
332.03	404.75
332.258	372.75
332.486	368.75
332.715	359.75
332.943	356.75
333.172	348.75
333.4	370.75
333.629	370.75
333.857	392.75
334.085	399.75
334.314	388.75
334.542	441.75
334.771	462.75
334.999	426.75
335.227	380.75
335.455	367.75
335.684	369.75
335.912	356.75
336.14	353.75
336.369	351.75
336.597	349.75
336.825	359.75
337.053	352.75
337.281	353.75
337.51	336.75
337.738	345.75
337.966	330.75
338.194	361.75
338.422	354.75
338.65	336.75
338.878	322.75
339.106	352.75
339.334	326.75
339.562	344.75
339.79	316.75
340.018	322.75
340.246	338.75
340.474	334.75
340.702	337.75
340.93	332.75
341.158	333.75
341.386	343.75
341.614	344.75
341.842	356.75
342.07	332.75
342.298	337.75
342.526	320.75
342.754	324.75
342.981	328.75
343.209	326.75
343.437	344.75
343.665	329.75
343.893	325.75
344.12	348.75
344.348	326.75
344.576	348.75
344.804	335.75
345.031	354.75
345.259	342.75
345.487	358.75
345.714	334.75
345.942	341.75
346.17	344.75
346.397	345.75
346.625	330.75
346.853	314.75
347.08	326.75
347.308	339.75
347.535	343.75
347.763	341.75
347.99	333.75
348.218	353.75
348.445	350.75
348.673	337.75
348.9	339.75
349.128	305.75
349.355	330.75
349.583	300.75
349.81	323.75
350.037	326.75
350.265	328.75
350.492	294.75
350.72	314.75
350.947	333.75
351.174	340.75
351.402	364.75
351.629	343.75
351.856	340.75
352.083	344.75
352.311	352.75
352.538	346.75
352.765	352.75
352.992	348.75
353.22	320.75
353.447	351.75
353.674	336.75
353.901	318.75
354.128	312.75
354.355	324.75
354.583	307.75
354.81	301.75
355.037	294.75
355.264	312.75
355.491	312.75
355.718	311.75
355.945	283.75
356.172	306.75
356.399	304.75
356.626	294.75
356.853	294.75
357.08	282.75
357.307	292.75
357.534	307.75
357.761	309.75
357.988	309.75
358.215	297.75
358.441	319.75
358.668	306.75
358.895	305.75
359.122	322.75
359.349	329.75
359.576	342.75
359.802	354.75
360.029	368.75
360.256	380.75
360.483	366.75
360.709	350.75
360.936	332.75
361.163	345.75
361.39	316.75
361.616	352.75
361.843	340.75
362.07	346.75
362.296	326.75
362.523	331.75
362.749	321.75
362.976	330.75
363.203	346.75
363.429	299.75
363.656	297.75
363.882	320.75
364.109	316.75
364.335	341.75
364.562	329.75
364.788	297.75
365.015	312.75
365.241	320.75
365.468	303.75
365.694	330.75
365.92	311.75
366.147	301.75
366.373	321.75
366.599	302.75
366.826	317.75
367.052	300.75
367.278	313.75
367.505	311.75
367.731	318.75
367.957	321.75
368.184	316.75
368.41	306.75
368.636	320.75
368.862	341.75
369.089	323.75
369.315	319.75
369.541	304.75
369.767	326.75
369.993	311.75
370.219	309.75
370.445	317.75
370.672	319.75
370.898	326.75
371.124	309.75
371.35	309.75
371.576	328.75
371.802	313.75
372.028	308.75
372.254	296.75
372.48	317.75
372.706	295.75
372.932	314.75
373.158	299.75
373.384	315.75
373.61	307.75
373.835	329.75
374.061	301.75
374.287	310.75
374.513	304.75
374.739	308.75
374.965	312.75
375.191	307.75
375.416	321.75
375.642	315.75
375.868	313.75
376.094	315.75
376.319	323.75
376.545	311.75
376.771	321.75
376.997	305.75
377.222	310.75
377.448	322.75
377.674	315.75
377.899	282.75
378.125	321.75
378.35	312.75
378.576	308.75
378.802	314.75
379.027	296.75
379.253	293.75
379.478	300.75
379.704	315.75
379.929	302.75
380.155	290.75
380.38	307.75
380.606	286.75
380.831	290.75
381.057	303.75
381.282	311.75
381.507	318.75
381.733	314.75
381.958	333.75
382.184	314.75
382.409	339.75
382.634	321.75
382.86	301.75
383.085	317.75
383.31	331.75
383.535	312.75
383.761	320.75
383.986	315.75
384.211	308.75
384.436	300.75
384.662	337.75
384.887	356.75
385.112	322.75
385.337	333.75
385.562	328.75
385.787	318.75
386.013	352.75
386.238	337.75
386.463	321.75
386.688	317.75
386.913	332.75
387.138	328.75
387.363	338.75
387.588	337.75
387.813	325.75
388.038	325.75
388.263	325.75
388.488	334.75
388.713	339.75
388.938	322.75
389.163	342.75
389.387	343.75
389.612	322.75
389.837	310.75
390.062	342.75
390.287	355.75
390.512	326.75
390.736	318.75
390.961	338.75
391.186	339.75
391.411	333.75
391.636	332.75
391.86	341.75
392.085	350.75
392.31	346.75
392.534	347.75
392.759	322.75
392.984	328.75
393.208	333.75
393.433	321.75
393.658	359.75
393.882	335.75
394.107	336.75
394.331	340.75
394.556	337.75
394.78	335.75
395.005	338.75
395.229	332.75
395.454	346.75
395.678	347.75
395.903	347.75
396.127	380.75
396.352	378.75
396.576	360.75
396.801	359.75
397.025	355.75
397.249	365.75
397.474	360.75
397.698	358.75
397.922	377.75
398.147	345.75
398.371	366.75
398.595	334.75
398.82	354.75
399.044	370.75
399.268	381.75
399.492	397.75
399.717	421.75
399.941	436.75
400.165	459.75
400.389	477.75
400.613	435.75
400.837	398.75
401.062	407.75
401.286	369.75
401.51	382.75
401.734	364.75
401.958	368.75
402.182	375.75
402.406	410.75
402.63	399.75
402.854	377.75
403.078	410.75
403.302	387.75
403.526	398.75
403.75	367.75
403.974	388.75
404.198	372.75
404.422	403.75
404.645	371.75
404.869	404.75
405.093	433.75
405.317	481.75
405.541	488.75
405.765	453.75
405.988	417.75
406.212	438.75
406.436	454.75
406.66	457.75
406.883	441.75
407.107	447.75
407.331	472.75
407.555	511.75
407.778	520.75
408.002	465.75
408.226	434.75
408.449	436.75
408.673	446.75
408.896	477.75
409.12	479.75
409.344	472.75
409.567	407.75
409.791	406.75
410.014	403.75
410.238	403.75
410.461	400.75
410.685	406.75
410.908	430.75
411.132	439.75
411.355	459.75
411.578	438.75
411.802	426.75
412.025	413.75
412.249	409.75
412.472	411.75
412.695	446.75
412.919	416.75
413.142	412.75
413.365	384.75
413.589	375.75
413.812	389.75
414.035	375.75
414.258	374.75
414.482	383.75
414.705	372.75
414.928	374.75
415.151	368.75
415.374	387.75
415.597	391.75
415.821	372.75
416.044	384.75
416.267	366.75
416.49	351.75
416.713	369.75
416.936	366.75
417.159	395.75
417.382	388.75
417.605	381.75
417.828	386.75
418.051	389.75
418.274	366.75
418.497	360.75
418.72	395.75
418.943	388.75
419.166	371.75
419.389	392.75
419.611	395.75
419.834	392.75
420.057	414.75
420.28	383.75
420.503	398.75
420.726	398.75
420.948	396.75
421.171	432.75
421.394	442.75
421.617	401.75
421.839	390.75
422.062	386.75
422.285	378.75
422.507	454.75
422.73	506.75
422.953	500.75
423.175	435.75
423.398	416.75
423.621	428.75
423.843	409.75
424.066	423.75
424.288	426.75
424.511	455.75
424.733	489.75
424.956	534.75
425.178	536.75
425.401	535.75
425.623	523.75
425.846	480.75
426.068	434.75
426.291	423.75
426.513	441.75
426.735	433.75
426.958	468.75
427.18	548.75
427.402	624.75
427.625	696.75
427.847	644.75
428.069	548.75
428.292	495.75
428.514	446.75
428.736	412.75
428.958	432.75
429.181	412.75
429.403	419.75
429.625	411.75
429.847	437.75
430.069	508.75
430.292	496.75
430.514	430.75
430.736	400.75
430.958	393.75
431.18	385.75
431.402	391.75
431.624	375.75
431.846	376.75
432.068	372.75
432.29	389.75
432.512	375.75
432.734	377.75
432.956	372.75
433.178	387.75
433.4	392.75
433.622	404.75
433.844	380.75
434.066	372.75
434.287	380.75
434.509	391.75
434.731	395.75
434.953	383.75
435.175	408.75
435.397	433.75
435.618	433.75
435.84	469.75
436.062	559.75
436.284	609.75
436.505	514.75
436.727	447.75
436.949	420.75
437.17	402.75
437.392	420.75
437.614	435.75
437.835	466.75
438.057	536.75
438.278	606.75
438.5	595.75
438.721	668.75
438.943	622.75
439.165	500.75
439.386	475.75
439.608	460.75
439.829	465.75
440.05	489.75
440.272	517.75
440.493	477.75
440.715	432.75
440.936	443.75
441.158	416.75
441.379	405.75
441.6	416.75
441.822	420.75
442.043	465.75
442.264	542.75
442.486	562.75
442.707	481.75
442.928	438.75
443.149	462.75
443.371	479.75
443.592	529.75
443.813	559.75
444.034	616.75
444.255	490.75
444.476	440.75
444.698	433.75
444.919	423.75
445.14	530.75
445.361	507.75
445.582	488.75
445.803	558.75
446.024	622.75
446.245	617.75
446.466	564.75
446.687	485.75
446.908	432.75
447.129	436.75
447.35	429.75
447.571	426.75
447.792	402.75
448.013	416.75
448.234	424.75
448.455	457.75
448.675	572.75
448.896	632.75
449.117	535.75
449.338	528.75
449.559	621.75
449.779	648.75
450	542.75
450.221	458.75
450.442	420.75
450.662	420.75
450.883	433.75
451.104	431.75
451.324	423.75
451.545	395.75
451.766	393.75
451.986	379.75
452.207	360.75
452.428	364.75
452.648	365.75
452.869	374.75
453.089	374.75
453.31	404.75
453.53	375.75
453.751	369.75
453.971	384.75
454.192	416.75
454.412	404.75
454.633	380.75
454.853	363.75
455.073	370.75
455.294	388.75
455.514	441.75
455.734	440.75
455.955	366.75
456.175	362.75
456.395	359.75
456.616	348.75
456.836	348.75
457.056	366.75
457.276	336.75
457.497	329.75
457.717	349.75
457.937	361.75
458.157	355.75
458.377	372.75
458.598	400.75
458.818	431.75
459.038	523.75
459.258	495.75
459.478	438.75
459.698	411.75
459.918	377.75
460.138	377.75
460.358	366.75
460.578	373.75
460.798	377.75
461.018	390.75
461.238	365.75
461.458	381.75
461.678	364.75
461.898	386.75
462.118	388.75
462.338	396.75
462.558	385.75
462.777	387.75
462.997	370.75
463.217	399.75
463.437	412.75
463.657	394.75
463.876	410.75
464.096	422.75
464.316	416.75
464.536	392.75
464.755	386.75
464.975	415.75
465.195	470.75
465.414	540.75
465.634	477.75
465.854	426.75
466.073	425.75
466.293	402.75
466.512	381.75
466.732	388.75
466.951	389.75
467.171	378.75
467.391	394.75
467.61	370.75
467.829	393.75
468.049	400.75
468.268	400.75
468.488	388.75
468.707	378.75
468.927	376.75
469.146	369.75
469.365	350.75
469.585	359.75
469.804	378.75
470.023	376.75
470.243	386.75
470.462	377.75
470.681	395.75
470.901	394.75
471.12	382.75
471.339	370.75
471.558	389.75
471.777	387.75
471.997	383.75
472.216	388.75
472.435	457.75
472.654	413.75
472.873	374.75
473.092	393.75
473.311	389.75
473.53	377.75
473.749	408.75
473.968	419.75
474.187	516.75
474.406	533.75
474.625	435.75
474.844	402.75
475.063	398.75
475.282	386.75
475.501	375.75
475.72	381.75
475.939	399.75
476.158	394.75
476.377	390.75
476.596	400.75
476.814	390.75
477.033	412.75
477.252	391.75
477.471	393.75
477.69	398.75
477.908	392.75
478.127	418.75
478.346	408.75
478.564	411.75
478.783	417.75
479.002	417.75
479.22	435.75
479.439	449.75
479.658	462.75
479.876	460.75
480.095	466.75
480.313	485.75
480.532	471.75
480.751	492.75
480.969	480.75
481.188	536.75
481.406	602.75
481.624	507.75
481.843	483.75
482.061	466.75
482.28	474.75
482.498	474.75
482.717	457.75
482.935	479.75
483.153	456.75
483.372	439.75
483.59	453.75
483.808	421.75
484.027	452.75
484.245	463.75
484.463	450.75
484.681	429.75
484.9	469.75
485.118	462.75
485.336	449.75
485.554	441.75
485.772	467.75
485.99	478.75
486.209	458.75
486.427	478.75
486.645	455.75
486.863	498.75
487.081	518.75
487.299	478.75
487.517	495.75
487.735	478.75
487.953	483.75
488.171	458.75
488.389	504.75
488.607	485.75
488.825	473.75
489.043	495.75
489.261	494.75
489.479	490.75
489.696	501.75
489.914	498.75
490.132	493.75
490.35	463.75
490.568	508.75
490.786	504.75
491.003	504.75
491.221	521.75
491.439	528.75
491.657	540.75
491.874	536.75
492.092	521.75
492.31	581.75
492.527	540.75
492.745	537.75
492.963	539.75
493.18	550.75
493.398	579.75
493.615	556.75
493.833	557.75
494.05	572.75
494.268	533.75
494.485	586.75
494.703	560.75
494.92	543.75
495.138	552.75
495.355	573.75
495.573	578.75
495.79	541.75
496.008	577.75
496.225	581.75
496.442	591.75
496.66	579.75
496.877	560.75
497.094	582.75
497.312	565.75
497.529	590.75
497.746	598.75
497.963	617.75
498.181	621.75
498.398	618.75
498.615	622.75
498.832	628.75
499.049	620.75
499.267	641.75
499.484	630.75
499.701	659.75
499.918	675.75
500.135	709.75
500.352	708.75
500.569	714.75
500.786	706.75
501.003	709.75
501.22	711.75
501.437	685.75
501.654	712.75
501.871	702.75
502.088	677.75
502.305	658.75
502.522	638.75
502.739	635.75
502.956	617.75
503.172	603.75
503.389	619.75
503.606	612.75
503.823	625.75
504.04	616.75
504.256	579.75
504.473	596.75
504.69	569.75
504.907	573.75
505.123	549.75
505.34	561.75
505.557	590.75
505.773	565.75
505.99	574.75
506.207	548.75
506.423	548.75
506.64	548.75
506.856	547.75
507.073	550.75
507.289	552.75
507.506	548.75
507.722	544.75
507.939	562.75
508.155	548.75
508.372	521.75
508.588	536.75
508.805	526.75
509.021	546.75
509.238	546.75
509.454	558.75
509.67	532.75
509.887	530.75
510.103	527.75
510.319	543.75
510.536	651.75
510.752	1139.75
510.968	915.75
511.184	557.75
511.401	541.75
511.617	540.75
511.833	530.75
512.049	514.75
512.265	506.75
512.481	517.75
512.698	502.75
512.914	506.75
513.13	525.75
513.346	510.75
513.562	515.75
513.778	520.75
513.994	546.75
514.21	538.75
514.426	546.75
514.642	607.75
514.858	646.75
515.074	684.75
515.29	828.75
515.506	1246.75
515.721	991.75
515.937	651.75
516.153	598.75
516.369	568.75
516.585	538.75
516.801	518.75
517.016	534.75
517.232	531.75
517.448	542.75
517.664	521.75
517.879	533.75
518.095	525.75
518.311	528.75
518.527	519.75
518.742	512.75
518.958	522.75
519.173	533.75
519.389	512.75
519.605	521.75
519.82	520.75
520.036	530.75
520.251	549.75
520.467	588.75
520.682	582.75
520.898	582.75
521.113	617.75
521.329	696.75
521.544	775.75
521.76	1013.75
521.975	1651.75
522.19	1614.75
522.406	853.75
522.621	629.75
522.836	573.75
523.052	545.75
523.267	512.75
523.482	492.75
523.698	463.75
523.913	496.75
524.128	516.75
524.343	478.75
524.559	476.75
524.774	452.75
524.989	458.75
525.204	460.75
525.419	477.75
525.634	458.75
525.849	446.75
526.064	426.75
526.28	436.75
526.495	436.75
526.71	423.75
526.925	417.75
527.14	438.75
527.355	415.75
527.57	416.75
527.785	416.75
527.999	415.75
528.214	425.75
528.429	418.75
528.644	423.75
528.859	417.75
529.074	418.75
529.289	454.75
529.503	519.75
529.718	512.75
529.933	450.75
530.148	421.75
530.363	422.75
530.577	404.75
530.792	416.75
531.007	416.75
531.221	418.75
531.436	398.75
531.651	388.75
531.865	408.75
532.08	410.75
532.295	392.75
532.509	372.75
532.724	409.75
532.938	408.75
533.153	390.75
533.367	406.75
533.582	391.75
533.796	410.75
534.011	385.75
534.225	364.75
534.44	380.75
534.654	403.75
534.868	400.75
535.083	384.75
535.297	386.75
535.511	386.75
535.726	417.75
535.94	405.75
536.154	390.75
536.369	376.75
536.583	375.75
536.797	392.75
537.011	397.75
537.225	371.75
537.44	397.75
537.654	378.75
537.868	389.75
538.082	379.75
538.296	375.75
538.51	377.75
538.724	380.75
538.938	384.75
539.153	375.75
539.367	406.75
539.581	401.75
539.795	380.75
540.009	384.75
540.222	401.75
540.436	381.75
540.65	384.75
540.864	393.75
541.078	402.75
541.292	378.75
541.506	375.75
541.72	372.75
541.934	371.75
542.147	364.75
542.361	366.75
542.575	365.75
542.789	369.75
543.002	358.75
543.216	399.75
543.43	380.75
543.644	394.75
543.857	387.75
544.071	376.75
544.285	375.75
544.498	367.75
544.712	369.75
544.925	378.75
545.139	373.75
545.352	357.75
545.566	354.75
545.779	351.75
545.993	362.75
546.206	361.75
546.42	357.75
546.633	343.75
546.847	343.75
547.06	360.75
547.274	349.75
547.487	356.75
547.7	338.75
547.914	356.75
548.127	343.75
548.34	358.75
548.554	361.75
548.767	352.75
548.98	349.75
549.193	356.75
549.407	348.75
549.62	353.75
549.833	346.75
550.046	356.75
550.259	355.75
550.473	350.75
550.686	328.75
550.899	350.75
551.112	349.75
551.325	341.75
551.538	352.75
551.751	357.75
551.964	339.75
552.177	347.75
552.39	346.75
552.603	342.75
552.816	340.75
553.029	365.75
553.242	349.75
553.455	340.75
553.667	367.75
553.88	381.75
554.093	386.75
554.306	366.75
554.519	341.75
554.732	352.75
554.944	343.75
555.157	360.75
555.37	355.75
555.583	358.75
555.795	340.75
556.008	327.75
556.221	326.75
556.433	338.75
556.646	303.75
556.859	317.75
557.071	322.75
557.284	326.75
557.496	335.75
557.709	322.75
557.921	332.75
558.134	330.75
558.346	318.75
558.559	328.75
558.771	298.75
558.984	325.75
559.196	310.75
559.409	315.75
559.621	322.75
559.833	327.75
560.046	328.75
560.258	310.75
560.47	321.75
560.683	318.75
560.895	306.75
561.107	326.75
561.32	323.75
561.532	313.75
561.744	315.75
561.956	304.75
562.168	308.75
562.381	308.75
562.593	326.75
562.805	338.75
563.017	320.75
563.229	316.75
563.441	322.75
563.653	316.75
563.865	300.75
564.077	336.75
564.289	323.75
564.501	319.75
564.713	333.75
564.925	329.75
565.137	336.75
565.349	333.75
565.561	330.75
565.773	331.75
565.985	335.75
566.197	343.75
566.408	360.75
566.62	333.75
566.832	358.75
567.044	351.75
567.255	354.75
567.467	365.75
567.679	361.75
567.891	375.75
568.102	332.75
568.314	345.75
568.526	336.75
568.737	335.75
568.949	329.75
569.161	317.75
569.372	316.75
569.584	320.75
569.795	319.75
570.007	320.75
570.218	360.75
570.43	379.75
570.641	308.75
570.853	308.75
571.064	313.75
571.276	315.75
571.487	288.75
571.698	306.75
571.91	298.75
572.121	282.75
572.333	280.75
572.544	291.75
572.755	274.75
572.966	315.75
573.178	300.75
573.389	307.75
573.6	281.75
573.811	265.75
574.023	273.75
574.234	281.75
574.445	301.75
574.656	285.75
574.867	282.75
575.078	281.75
575.289	253.75
575.501	265.75
575.712	265.75
575.923	272.75
576.134	282.75
576.345	257.75
576.556	284.75
576.767	276.75
576.978	293.75
577.188	278.75
577.399	252.75
577.61	281.75
577.821	281.75
578.032	287.75
578.243	310.75
578.454	541.75
578.665	388.75
578.875	292.75
579.086	261.75
579.297	262.75
579.508	252.75
579.718	269.75
579.929	272.75
580.14	271.75
580.35	254.75
580.561	243.75
580.772	255.75
580.982	254.75
581.193	262.75
581.403	243.75
581.614	245.75
581.825	249.75
582.035	263.75
582.246	244.75
582.456	247.75
582.667	244.75
582.877	259.75
583.087	256.75
583.298	244.75
583.508	238.75
583.719	245.75
583.929	263.75
584.139	245.75
584.35	252.75
584.56	262.75
584.77	249.75
584.981	237.75
585.191	243.75
585.401	245.75
585.611	246.75
585.821	254.75
586.032	252.75
586.242	242.75
586.452	248.75
586.662	239.75
586.872	246.75
587.082	258.75
587.292	248.75
587.502	242.75
587.713	232.75
587.923	242.75
588.133	245.75
588.343	236.75
588.553	249.75
588.762	233.75
588.972	256.75
589.182	242.75
589.392	229.75
589.602	240.75
589.812	228.75
590.022	235.75
590.232	233.75
590.441	250.75
590.651	230.75
590.861	229.75
591.071	226.75
591.281	225.75
591.49	246.75
591.7	233.75
591.91	234.75
592.119	248.75
592.329	255.75
592.539	251.75
592.748	250.75
592.958	252.75
593.167	240.75
593.377	266.75
593.587	254.75
593.796	244.75
594.006	229.75
594.215	245.75
594.424	264.75
594.634	244.75
594.843	248.75
595.053	250.75
595.262	251.75
595.472	243.75
595.681	238.75
595.89	221.75
596.1	230.75
596.309	230.75
596.518	225.75
596.727	229.75
596.937	232.75
597.146	227.75
597.355	232.75
597.564	238.75
597.774	226.75
597.983	235.75
598.192	219.75
598.401	219.75
598.61	216.75
598.819	237.75
599.028	232.75
599.237	233.75
599.446	212.75
599.655	216.75
599.864	213.75
600.073	204.75
600.282	209.75
600.491	217.75
600.7	215.75
600.909	195.75
601.118	192.75
601.327	220.75
601.536	229.75
601.745	214.75
601.953	223.75
602.162	220.75
602.371	217.75
602.58	196.75
602.789	204.75
602.997	214.75
603.206	213.75
603.415	202.75
603.623	198.75
603.832	216.75
604.041	210.75
604.249	207.75
604.458	208.75
604.666	205.75
604.875	188.75
605.084	222.75
605.292	202.75
605.501	188.75
605.709	197.75
605.918	210.75
606.126	198.75
606.334	207.75
606.543	223.75
606.751	213.75
606.96	197.75
607.168	205.75
607.376	206.75
607.585	210.75
607.793	202.75
608.001	211.75
608.21	211.75
608.418	198.75
608.626	201.75
608.834	191.75
609.043	200.75
609.251	214.75
609.459	200.75
609.667	210.75
609.875	211.75
610.083	192.75
610.291	188.75
610.499	202.75
610.707	191.75
610.916	210.75
611.124	192.75
611.332	193.75
611.54	194.75
611.748	213.75
611.955	201.75
612.163	188.75
612.371	200.75
612.579	166.75
612.787	197.75
612.995	193.75
613.203	205.75
613.411	192.75
613.618	194.75
613.826	171.75
614.034	191.75
614.242	191.75
614.449	181.75
614.657	201.75
614.865	181.75
615.072	196.75
615.28	196.75
615.488	187.75
615.695	182.75
615.903	198.75
616.111	173.75
616.318	189.75
616.526	193.75
616.733	193.75
616.941	187.75
617.148	176.75
617.356	162.75
617.563	184.75
617.771	191.75
617.978	181.75
618.185	195.75
618.393	192.75
618.6	194.75
618.807	192.75
619.015	190.75
619.222	201.75
619.429	185.75
619.637	195.75
619.844	197.75
620.051	192.75
620.258	191.75
620.466	184.75
620.673	189.75
620.88	156.75
621.087	192.75
621.294	193.75
621.501	188.75
621.708	195.75
621.915	181.75
622.122	178.75
622.329	181.75
622.536	178.75
622.743	184.75
622.95	194.75
623.157	201.75
623.364	174.75
623.571	183.75
623.778	186.75
623.985	191.75
624.192	172.75
624.399	166.75
624.606	169.75
624.812	182.75
625.019	183.75
625.226	188.75
625.433	188.75
625.639	184.75
625.846	176.75
626.053	166.75
626.259	177.75
626.466	174.75
626.673	186.75
626.879	172.75
627.086	174.75
627.293	178.75
627.499	178.75
627.706	167.75
627.912	179.75
628.119	168.75
628.325	189.75
628.532	167.75
628.738	159.75
628.945	174.75
629.151	168.75
629.357	178.75
629.564	172.75
629.77	174.75
629.976	179.75
630.183	168.75
630.389	172.75
630.595	168.75
630.802	176.75
631.008	161.75
631.214	160.75
631.42	176.75
631.627	159.75
631.833	169.75
632.039	178.75
632.245	168.75
632.451	169.75
632.657	162.75
632.863	156.75
633.069	154.75
633.275	155.75
633.481	150.75
633.688	160.75
633.893	161.75
634.099	167.75
634.305	176.75
634.511	159.75
634.717	162.75
634.923	156.75
635.129	156.75
635.335	149.75
635.541	151.75
635.747	165.75
635.952	165.75
636.158	165.75
636.364	161.75
636.57	176.75
636.775	166.75
636.981	151.75
637.187	156.75
637.392	150.75
637.598	153.75
637.804	172.75
638.009	162.75
638.215	172.75
638.421	161.75
638.626	148.75
638.832	154.75
639.037	160.75
639.243	144.75
639.448	139.75
639.654	158.75
639.859	143.75
640.065	161.75
640.27	154.75
640.475	149.75
640.681	139.75
640.886	149.75
641.091	142.75
641.297	148.75
641.502	144.75
641.707	145.75
641.913	138.75
642.118	148.75
642.323	160.75
642.528	148.75
642.733	152.75
642.939	146.75
643.144	156.75
643.349	154.75
643.554	156.75
643.759	142.75
643.964	146.75
644.169	136.75
644.374	148.75
644.579	146.75
644.784	154.75
644.989	142.75
645.194	152.75
645.399	154.75
645.604	142.75
645.809	151.75
646.014	144.75
646.219	161.75
646.423	136.75
646.628	142.75
646.833	139.75
647.038	144.75
647.243	173.75
647.447	138.75
647.652	141.75
647.857	144.75
648.062	141.75
648.266	145.75
648.471	147.75
648.676	150.75
648.88	138.75
649.085	129.75
649.289	144.75
649.494	152.75
649.698	160.75
649.903	167.75
650.107	147.75
650.312	137.75
650.516	149.75
650.721	132.75
650.925	124.75
651.13	135.75
651.334	144.75
651.539	143.75
651.743	122.75
651.947	144.75
652.152	141.75
652.356	128.75
652.56	140.75
652.764	127.75
652.969	132.75
653.173	130.75
653.377	122.75
653.581	118.75
653.785	131.75
653.99	133.75
654.194	127.75
654.398	120.75
654.602	140.75
654.806	125.75
655.01	122.75
655.214	111.75
655.418	129.75
655.622	115.75
655.826	117.75
656.03	122.75
656.234	114.75
656.438	118.75
656.642	127.75
656.846	124.75
657.049	120.75
657.253	128.75
657.457	105.75
657.661	98.75
657.865	108.75
658.068	105.75
658.272	96.75
658.476	109.75
658.68	102.75
658.883	98.75
659.087	84.75
659.291	91.75
659.494	92.75
659.698	104.75
659.901	84.75
660.105	68.75
660.309	86.75
660.512	79.75
660.716	85.75
660.919	109.75
661.123	96.75
661.326	90.75
661.53	81.75
661.733	79.75
661.936	88.75
662.14	82.75
662.343	75.75
662.546	80.75
662.75	81.75
662.953	66.75
663.156	95.75
663.36	78.75
663.563	80.75
663.766	86.75
663.969	82.75
664.173	71.75
664.376	84.75
664.579	75.75
664.782	77.75
664.985	73.75
665.188	78.75
665.391	82.75
665.594	84.75
665.797	68.75
666	85.75
666.203	84.75
666.406	85.75
666.609	78.75
666.812	85.75
667.015	74.75
667.218	78.75
667.421	68.75
667.624	76.75
667.827	63.75
668.03	87.75
668.232	86.75
668.435	72.75
668.638	78.75
668.841	83.75
669.043	79.75
669.246	63.75
669.449	82.75
669.651	86.75
669.854	83.75
670.057	69.75
670.259	77.75
670.462	73.75
670.665	94.75
670.867	86.75
671.07	80.75
671.272	80.75
671.475	81.75
671.677	57.75
671.88	84.75
672.082	88.75
672.284	92.75
672.487	76.75
672.689	74.75
672.892	102.75
