Data from 1961.PennyLincolnUp.Lamp.En5.5.200Scan.071719.P1._HRD10591_13-46-49-056.txt Node
Date: Thu Jul 18 13:46:49 EDT 2019
User: cochatt
Spectrometer: HR+D1059
Trigger mode: 1
Integration Time (sec): 1.000000E-1
Scans to average: 1
Electric dark correction enabled: true
Nonlinearity correction enabled: false
Boxcar width: 0
XAxis mode: Wavelengths
Number of Pixels in Spectrum: 2048
>>>>>Begin Spectral Data<<<<<
223.165	-7.5
223.4	-7.5
223.635	-7.5
223.869	-21.5
224.104	-21.5
224.338	-20.5
224.573	-9.5
224.808	-10.5
225.042	-11.5
225.277	3.5
225.511	-10.5
225.746	2.5
225.98	5.5
226.215	11.5
226.449	25.5
226.683	18.5
226.918	10.5
227.152	35.5
227.387	44.5
227.621	32.5
227.856	34.5
228.09	33.5
228.324	37.5
228.559	48.5
228.793	64.5
229.027	76.5
229.262	76.5
229.496	85.5
229.73	103.5
229.964	116.5
230.199	117.5
230.433	106.5
230.667	97.5
230.901	92.5
231.136	109.5
231.37	80.5
231.604	102.5
231.838	99.5
232.072	99.5
232.306	112.5
232.541	94.5
232.775	104.5
233.009	107.5
233.243	103.5
233.477	98.5
233.711	102.5
233.945	99.5
234.179	103.5
234.413	92.5
234.647	99.5
234.881	90.5
235.115	88.5
235.349	88.5
235.583	99.5
235.817	107.5
236.051	108.5
236.285	96.5
236.519	99.5
236.753	98.5
236.987	119.5
237.221	146.5
237.455	189.5
237.689	165.5
237.922	118.5
238.156	108.5
238.39	95.5
238.624	109.5
238.858	106.5
239.091	100.5
239.325	106.5
239.559	98.5
239.793	102.5
240.027	123.5
240.26	136.5
240.494	111.5
240.728	124.5
240.961	110.5
241.195	115.5
241.429	114.5
241.662	93.5
241.896	100.5
242.13	118.5
242.363	122.5
242.597	107.5
242.83	121.5
243.064	116.5
243.298	119.5
243.531	111.5
243.765	117.5
243.998	117.5
244.232	122.5
244.465	113.5
244.699	122.5
244.932	123.5
245.166	119.5
245.399	103.5
245.633	108.5
245.866	123.5
246.099	111.5
246.333	124.5
246.566	106.5
246.8	115.5
247.033	122.5
247.266	119.5
247.5	132.5
247.733	150.5
247.966	119.5
248.2	132.5
248.433	144.5
248.666	148.5
248.899	136.5
249.133	154.5
249.366	178.5
249.599	149.5
249.832	141.5
250.066	146.5
250.299	148.5
250.532	149.5
250.765	162.5
250.998	159.5
251.231	175.5
251.465	154.5
251.698	165.5
251.931	156.5
252.164	152.5
252.397	153.5
252.63	168.5
252.863	152.5
253.096	168.5
253.329	165.5
253.562	177.5
253.795	170.5
254.028	172.5
254.261	159.5
254.494	182.5
254.727	182.5
254.96	197.5
255.193	191.5
255.426	183.5
255.659	191.5
255.892	172.5
256.124	161.5
256.357	184.5
256.59	160.5
256.823	162.5
257.056	162.5
257.289	179.5
257.521	174.5
257.754	150.5
257.987	162.5
258.22	173.5
258.452	164.5
258.685	157.5
258.918	142.5
259.151	175.5
259.383	164.5
259.616	162.5
259.849	163.5
260.081	186.5
260.314	197.5
260.547	184.5
260.779	197.5
261.012	175.5
261.244	163.5
261.477	163.5
261.71	166.5
261.942	180.5
262.175	174.5
262.407	186.5
262.64	179.5
262.872	178.5
263.105	164.5
263.337	175.5
263.57	166.5
263.802	167.5
264.035	166.5
264.267	165.5
264.499	154.5
264.732	154.5
264.964	160.5
265.197	154.5
265.429	172.5
265.661	158.5
265.894	159.5
266.126	160.5
266.358	166.5
266.591	169.5
266.823	177.5
267.055	157.5
267.287	178.5
267.52	168.5
267.752	172.5
267.984	188.5
268.216	178.5
268.448	154.5
268.681	180.5
268.913	205.5
269.145	200.5
269.377	202.5
269.609	189.5
269.841	204.5
270.073	201.5
270.306	218.5
270.538	237.5
270.77	234.5
271.002	206.5
271.234	203.5
271.466	223.5
271.698	235.5
271.93	230.5
272.162	223.5
272.394	234.5
272.626	210.5
272.858	223.5
273.09	201.5
273.322	211.5
273.553	185.5
273.785	175.5
274.017	194.5
274.249	196.5
274.481	200.5
274.713	199.5
274.945	199.5
275.176	183.5
275.408	207.5
275.64	191.5
275.872	190.5
276.104	200.5
276.335	195.5
276.567	211.5
276.799	211.5
277.031	220.5
277.262	228.5
277.494	211.5
277.726	234.5
277.957	209.5
278.189	207.5
278.421	201.5
278.652	199.5
278.884	203.5
279.115	204.5
279.347	191.5
279.579	199.5
279.81	193.5
280.042	220.5
280.273	192.5
280.505	197.5
280.736	192.5
280.968	191.5
281.199	196.5
281.431	186.5
281.662	203.5
281.894	198.5
282.125	198.5
282.356	213.5
282.588	222.5
282.819	222.5
283.051	207.5
283.282	210.5
283.513	196.5
283.745	224.5
283.976	201.5
284.207	203.5
284.439	206.5
284.67	197.5
284.901	201.5
285.132	190.5
285.364	202.5
285.595	203.5
285.826	210.5
286.057	199.5
286.288	203.5
286.52	215.5
286.751	218.5
286.982	211.5
287.213	197.5
287.444	224.5
287.675	215.5
287.906	231.5
288.138	222.5
288.369	211.5
288.6	210.5
288.831	215.5
289.062	201.5
289.293	212.5
289.524	207.5
289.755	210.5
289.986	219.5
290.217	202.5
290.448	202.5
290.679	218.5
290.91	206.5
291.141	196.5
291.371	210.5
291.602	218.5
291.833	215.5
292.064	216.5
292.295	206.5
292.526	220.5
292.757	210.5
292.987	209.5
293.218	206.5
293.449	217.5
293.68	219.5
293.91	205.5
294.141	214.5
294.372	211.5
294.603	214.5
294.833	206.5
295.064	217.5
295.295	212.5
295.525	214.5
295.756	216.5
295.987	205.5
296.217	236.5
296.448	240.5
296.679	226.5
296.909	216.5
297.14	211.5
297.37	203.5
297.601	215.5
297.831	196.5
298.062	219.5
298.292	210.5
298.523	226.5
298.753	215.5
298.984	217.5
299.214	221.5
299.445	224.5
299.675	245.5
299.905	218.5
300.136	226.5
300.366	204.5
300.597	220.5
300.827	225.5
301.057	239.5
301.288	240.5
301.518	241.5
301.748	226.5
301.979	238.5
302.209	234.5
302.439	234.5
302.669	235.5
302.9	243.5
303.13	236.5
303.36	245.5
303.59	239.5
303.82	248.5
304.051	239.5
304.281	227.5
304.511	239.5
304.741	228.5
304.971	236.5
305.201	249.5
305.431	250.5
305.661	227.5
305.891	236.5
306.121	240.5
306.352	243.5
306.582	249.5
306.812	225.5
307.042	241.5
307.272	258.5
307.502	258.5
307.731	237.5
307.961	241.5
308.191	248.5
308.421	257.5
308.651	242.5
308.881	250.5
309.111	264.5
309.341	274.5
309.571	265.5
309.8	280.5
310.03	273.5
310.26	263.5
310.49	286.5
310.72	304.5
310.949	301.5
311.179	288.5
311.409	269.5
311.639	276.5
311.868	288.5
312.098	282.5
312.328	274.5
312.557	307.5
312.787	284.5
313.017	300.5
313.246	287.5
313.476	265.5
313.706	269.5
313.935	283.5
314.165	287.5
314.394	294.5
314.624	307.5
314.853	272.5
315.083	270.5
315.312	283.5
315.542	270.5
315.771	270.5
316.001	278.5
316.23	275.5
316.46	272.5
316.689	262.5
316.919	284.5
317.148	304.5
317.377	279.5
317.607	295.5
317.836	289.5
318.065	289.5
318.295	257.5
318.524	276.5
318.753	282.5
318.983	274.5
319.212	289.5
319.441	290.5
319.67	295.5
319.9	295.5
320.129	269.5
320.358	302.5
320.587	303.5
320.816	295.5
321.046	303.5
321.275	300.5
321.504	291.5
321.733	314.5
321.962	294.5
322.191	328.5
322.42	317.5
322.649	346.5
322.878	338.5
323.108	349.5
323.337	395.5
323.566	397.5
323.795	414.5
324.024	450.5
324.253	558.5
324.482	835.5
324.71	1267.5
324.939	1712.5
325.168	1477.5
325.397	794.5
325.626	526.5
325.855	432.5
326.084	414.5
326.313	399.5
326.542	382.5
326.77	429.5
326.999	506.5
327.228	701.5
327.457	1112.5
327.686	1287.5
327.914	857.5
328.143	546.5
328.372	492.5
328.6	466.5
328.829	440.5
329.058	444.5
329.287	461.5
329.515	430.5
329.744	383.5
329.972	386.5
330.201	423.5
330.43	463.5
330.658	463.5
330.887	460.5
331.115	454.5
331.344	387.5
331.572	373.5
331.801	374.5
332.03	367.5
332.258	357.5
332.486	334.5
332.715	329.5
332.943	341.5
333.172	340.5
333.4	341.5
333.629	332.5
333.857	360.5
334.085	352.5
334.314	388.5
334.542	406.5
334.771	407.5
334.999	363.5
335.227	352.5
335.455	351.5
335.684	347.5
335.912	314.5
336.14	302.5
336.369	311.5
336.597	325.5
336.825	324.5
337.053	342.5
337.281	325.5
337.51	328.5
337.738	324.5
337.966	321.5
338.194	311.5
338.422	318.5
338.65	320.5
338.878	315.5
339.106	318.5
339.334	301.5
339.562	312.5
339.79	305.5
340.018	316.5
340.246	306.5
340.474	330.5
340.702	334.5
340.93	311.5
341.158	294.5
341.386	327.5
341.614	293.5
341.842	320.5
342.07	323.5
342.298	316.5
342.526	315.5
342.754	302.5
342.981	302.5
343.209	293.5
343.437	298.5
343.665	310.5
343.893	314.5
344.12	323.5
344.348	311.5
344.576	303.5
344.804	316.5
345.031	316.5
345.259	337.5
345.487	336.5
345.714	337.5
345.942	310.5
346.17	305.5
346.397	278.5
346.625	328.5
346.853	301.5
347.08	318.5
347.308	333.5
347.535	318.5
347.763	317.5
347.99	316.5
348.218	315.5
348.445	325.5
348.673	310.5
348.9	317.5
349.128	290.5
349.355	330.5
349.583	300.5
349.81	299.5
350.037	310.5
350.265	314.5
350.492	309.5
350.72	290.5
350.947	305.5
351.174	308.5
351.402	307.5
351.629	323.5
351.856	324.5
352.083	317.5
352.311	339.5
352.538	323.5
352.765	318.5
352.992	310.5
353.22	302.5
353.447	308.5
353.674	290.5
353.901	297.5
354.128	283.5
354.355	286.5
354.583	295.5
354.81	286.5
355.037	293.5
355.264	283.5
355.491	290.5
355.718	272.5
355.945	290.5
356.172	300.5
356.399	268.5
356.626	280.5
356.853	283.5
357.08	283.5
357.307	282.5
357.534	291.5
357.761	276.5
357.988	312.5
358.215	278.5
358.441	272.5
358.668	289.5
358.895	287.5
359.122	286.5
359.349	271.5
359.576	308.5
359.802	338.5
360.029	335.5
360.256	371.5
360.483	350.5
360.709	327.5
360.936	314.5
361.163	304.5
361.39	309.5
361.616	328.5
361.843	315.5
362.07	310.5
362.296	316.5
362.523	303.5
362.749	313.5
362.976	319.5
363.203	308.5
363.429	286.5
363.656	291.5
363.882	297.5
364.109	280.5
364.335	298.5
364.562	313.5
364.788	295.5
365.015	311.5
365.241	321.5
365.468	312.5
365.694	287.5
365.92	307.5
366.147	308.5
366.373	308.5
366.599	278.5
366.826	282.5
367.052	287.5
367.278	291.5
367.505	299.5
367.731	298.5
367.957	294.5
368.184	302.5
368.41	300.5
368.636	302.5
368.862	304.5
369.089	310.5
369.315	304.5
369.541	299.5
369.767	279.5
369.993	286.5
370.219	309.5
370.445	291.5
370.672	289.5
370.898	294.5
371.124	285.5
371.35	295.5
371.576	300.5
371.802	303.5
372.028	292.5
372.254	304.5
372.48	275.5
372.706	294.5
372.932	305.5
373.158	278.5
373.384	306.5
373.61	304.5
373.835	290.5
374.061	289.5
374.287	308.5
374.513	289.5
374.739	299.5
374.965	312.5
375.191	294.5
375.416	313.5
375.642	291.5
375.868	292.5
376.094	293.5
376.319	296.5
376.545	290.5
376.771	285.5
376.997	285.5
377.222	299.5
377.448	281.5
377.674	284.5
377.899	294.5
378.125	290.5
378.35	286.5
378.576	279.5
378.802	284.5
379.027	268.5
379.253	282.5
379.478	281.5
379.704	281.5
379.929	294.5
380.155	294.5
380.38	281.5
380.606	294.5
380.831	295.5
381.057	294.5
381.282	301.5
381.507	269.5
381.733	284.5
381.958	288.5
382.184	297.5
382.409	314.5
382.634	324.5
382.86	299.5
383.085	313.5
383.31	288.5
383.535	302.5
383.761	293.5
383.986	314.5
384.211	323.5
384.436	311.5
384.662	321.5
384.887	315.5
385.112	320.5
385.337	316.5
385.562	316.5
385.787	315.5
386.013	325.5
386.238	331.5
386.463	313.5
386.688	318.5
386.913	296.5
387.138	321.5
387.363	304.5
387.588	317.5
387.813	315.5
388.038	310.5
388.263	318.5
388.488	303.5
388.713	316.5
388.938	305.5
389.163	306.5
389.387	326.5
389.612	323.5
389.837	323.5
390.062	319.5
390.287	333.5
390.512	317.5
390.736	281.5
390.961	307.5
391.186	309.5
391.411	330.5
391.636	325.5
391.86	314.5
392.085	318.5
392.31	328.5
392.534	328.5
392.759	318.5
392.984	315.5
393.208	315.5
393.433	354.5
393.658	332.5
393.882	314.5
394.107	322.5
394.331	336.5
394.556	312.5
394.78	328.5
395.005	328.5
395.229	308.5
395.454	324.5
395.678	345.5
395.903	332.5
396.127	347.5
396.352	336.5
396.576	337.5
396.801	346.5
397.025	336.5
397.249	345.5
397.474	344.5
397.698	337.5
397.922	361.5
398.147	348.5
398.371	348.5
398.595	367.5
398.82	382.5
399.044	371.5
399.268	369.5
399.492	375.5
399.717	387.5
399.941	418.5
400.165	435.5
400.389	448.5
400.613	401.5
400.837	400.5
401.062	385.5
401.286	386.5
401.51	371.5
401.734	354.5
401.958	362.5
402.182	374.5
402.406	389.5
402.63	382.5
402.854	390.5
403.078	382.5
403.302	379.5
403.526	367.5
403.75	362.5
403.974	356.5
404.198	376.5
404.422	375.5
404.645	384.5
404.869	370.5
405.093	389.5
405.317	434.5
405.541	444.5
405.765	416.5
405.988	401.5
406.212	408.5
406.436	422.5
406.66	427.5
406.883	408.5
407.107	425.5
407.331	446.5
407.555	492.5
407.778	505.5
408.002	448.5
408.226	415.5
408.449	404.5
408.673	410.5
408.896	433.5
409.12	451.5
409.344	436.5
409.567	396.5
409.791	384.5
410.014	365.5
410.238	383.5
410.461	389.5
410.685	369.5
410.908	382.5
411.132	392.5
411.355	450.5
411.578	448.5
411.802	378.5
412.025	384.5
412.249	382.5
412.472	399.5
412.695	434.5
412.919	402.5
413.142	400.5
413.365	365.5
413.589	354.5
413.812	375.5
414.035	377.5
414.258	345.5
414.482	362.5
414.705	343.5
414.928	354.5
415.151	348.5
415.374	375.5
415.597	350.5
415.821	350.5
416.044	367.5
416.267	347.5
416.49	358.5
416.713	357.5
416.936	356.5
417.159	347.5
417.382	367.5
417.605	351.5
417.828	380.5
418.051	384.5
418.274	378.5
418.497	370.5
418.72	350.5
418.943	343.5
419.166	365.5
419.389	381.5
419.611	370.5
419.834	388.5
420.057	376.5
420.28	384.5
420.503	368.5
420.726	373.5
420.948	378.5
421.171	398.5
421.394	440.5
421.617	390.5
421.839	379.5
422.062	372.5
422.285	391.5
422.507	430.5
422.73	493.5
422.953	453.5
423.175	427.5
423.398	393.5
423.621	398.5
423.843	395.5
424.066	384.5
424.288	395.5
424.511	406.5
424.733	456.5
424.956	504.5
425.178	497.5
425.401	493.5
425.623	492.5
425.846	435.5
426.068	393.5
426.291	403.5
426.513	405.5
426.735	417.5
426.958	460.5
427.18	508.5
427.402	593.5
427.625	654.5
427.847	588.5
428.069	492.5
428.292	455.5
428.514	402.5
428.736	405.5
428.958	402.5
429.181	372.5
429.403	393.5
429.625	386.5
429.847	421.5
430.069	461.5
430.292	450.5
430.514	390.5
430.736	394.5
430.958	374.5
431.18	374.5
431.402	367.5
431.624	352.5
431.846	359.5
432.068	362.5
432.29	355.5
432.512	346.5
432.734	363.5
432.956	358.5
433.178	380.5
433.4	382.5
433.622	366.5
433.844	376.5
434.066	371.5
434.287	359.5
434.509	368.5
434.731	367.5
434.953	376.5
435.175	379.5
435.397	385.5
435.618	399.5
435.84	430.5
436.062	531.5
436.284	562.5
436.505	465.5
436.727	418.5
436.949	399.5
437.17	382.5
437.392	376.5
437.614	409.5
437.835	439.5
438.057	520.5
438.278	566.5
438.5	579.5
438.721	624.5
438.943	581.5
439.165	490.5
439.386	415.5
439.608	446.5
439.829	423.5
440.05	444.5
440.272	494.5
440.493	454.5
440.715	428.5
440.936	395.5
441.158	409.5
441.379	406.5
441.6	398.5
441.822	404.5
442.043	432.5
442.264	483.5
442.486	535.5
442.707	456.5
442.928	422.5
443.149	427.5
443.371	442.5
443.592	478.5
443.813	515.5
444.034	600.5
444.255	479.5
444.476	414.5
444.698	422.5
444.919	397.5
445.14	522.5
445.361	468.5
445.582	453.5
445.803	470.5
446.024	575.5
446.245	558.5
446.466	533.5
446.687	449.5
446.908	419.5
447.129	384.5
447.35	387.5
447.571	384.5
447.792	367.5
448.013	373.5
448.234	419.5
448.455	441.5
448.675	531.5
448.896	592.5
449.117	510.5
449.338	483.5
449.559	576.5
449.779	634.5
450	496.5
450.221	433.5
450.442	398.5
450.662	387.5
450.883	400.5
451.104	399.5
451.324	371.5
451.545	362.5
451.766	372.5
451.986	379.5
452.207	329.5
452.428	347.5
452.648	346.5
452.869	349.5
453.089	362.5
453.31	347.5
453.53	363.5
453.751	349.5
453.971	359.5
454.192	365.5
454.412	373.5
454.633	350.5
454.853	343.5
455.073	347.5
455.294	368.5
455.514	416.5
455.734	397.5
455.955	349.5
456.175	336.5
456.395	322.5
456.616	329.5
456.836	339.5
457.056	336.5
457.276	328.5
457.497	334.5
457.717	339.5
457.937	327.5
458.157	337.5
458.377	350.5
458.598	344.5
458.818	400.5
459.038	478.5
459.258	454.5
459.478	407.5
459.698	364.5
459.918	372.5
460.138	365.5
460.358	360.5
460.578	356.5
460.798	352.5
461.018	344.5
461.238	363.5
461.458	364.5
461.678	357.5
461.898	368.5
462.118	364.5
462.338	366.5
462.558	372.5
462.777	383.5
462.997	394.5
463.217	375.5
463.437	385.5
463.657	390.5
463.876	378.5
464.096	397.5
464.316	388.5
464.536	380.5
464.755	388.5
464.975	386.5
465.195	401.5
465.414	486.5
465.634	431.5
465.854	410.5
466.073	385.5
466.293	364.5
466.512	374.5
466.732	363.5
466.951	364.5
467.171	349.5
467.391	354.5
467.61	372.5
467.829	364.5
468.049	369.5
468.268	374.5
468.488	375.5
468.707	347.5
468.927	355.5
469.146	340.5
469.365	352.5
469.585	333.5
469.804	351.5
470.023	362.5
470.243	357.5
470.462	362.5
470.681	382.5
470.901	378.5
471.12	364.5
471.339	346.5
471.558	356.5
471.777	351.5
471.997	362.5
472.216	368.5
472.435	399.5
472.654	405.5
472.873	371.5
473.092	358.5
473.311	358.5
473.53	352.5
473.749	363.5
473.968	390.5
474.187	485.5
474.406	480.5
474.625	390.5
474.844	369.5
475.063	372.5
475.282	379.5
475.501	353.5
475.72	370.5
475.939	357.5
476.158	362.5
476.377	382.5
476.596	363.5
476.814	390.5
477.033	391.5
477.252	382.5
477.471	382.5
477.69	391.5
477.908	381.5
478.127	385.5
478.346	398.5
478.564	387.5
478.783	390.5
479.002	410.5
479.22	418.5
479.439	405.5
479.658	429.5
479.876	417.5
480.095	427.5
480.313	457.5
480.532	448.5
480.751	413.5
480.969	469.5
481.188	506.5
481.406	546.5
481.624	484.5
481.843	426.5
482.061	431.5
482.28	429.5
482.498	430.5
482.717	433.5
482.935	429.5
483.153	414.5
483.372	430.5
483.59	421.5
483.808	422.5
484.027	423.5
484.245	416.5
484.463	427.5
484.681	463.5
484.9	425.5
485.118	426.5
485.336	438.5
485.554	436.5
485.772	435.5
485.99	439.5
486.209	439.5
486.427	428.5
486.645	436.5
486.863	460.5
487.081	460.5
487.299	456.5
487.517	461.5
487.735	441.5
487.953	439.5
488.171	453.5
488.389	442.5
488.607	471.5
488.825	455.5
489.043	440.5
489.261	462.5
489.479	474.5
489.696	466.5
489.914	466.5
490.132	469.5
490.35	483.5
490.568	456.5
490.786	487.5
491.003	477.5
491.221	496.5
491.439	504.5
491.657	504.5
491.874	492.5
492.092	516.5
492.31	504.5
492.527	524.5
492.745	516.5
492.963	543.5
493.18	539.5
493.398	528.5
493.615	516.5
493.833	534.5
494.05	524.5
494.268	510.5
494.485	522.5
494.703	530.5
494.92	503.5
495.138	516.5
495.355	531.5
495.573	536.5
495.79	532.5
496.008	547.5
496.225	533.5
496.442	510.5
496.66	520.5
496.877	515.5
497.094	550.5
497.312	546.5
497.529	539.5
497.746	555.5
497.963	556.5
498.181	566.5
498.398	592.5
498.615	575.5
498.832	598.5
499.049	592.5
499.267	608.5
499.484	622.5
499.701	654.5
499.918	640.5
500.135	663.5
500.352	683.5
500.569	663.5
500.786	662.5
501.003	686.5
501.22	666.5
501.437	668.5
501.654	675.5
501.871	619.5
502.088	657.5
502.305	648.5
502.522	586.5
502.739	590.5
502.956	574.5
503.172	567.5
503.389	567.5
503.606	550.5
503.823	558.5
504.04	537.5
504.256	534.5
504.473	519.5
504.69	530.5
504.907	540.5
505.123	521.5
505.34	520.5
505.557	527.5
505.773	522.5
505.99	544.5
506.207	527.5
506.423	533.5
506.64	515.5
506.856	512.5
507.073	482.5
507.289	501.5
507.506	486.5
507.722	510.5
507.939	534.5
508.155	519.5
508.372	500.5
508.588	510.5
508.805	471.5
509.021	484.5
509.238	505.5
509.454	501.5
509.67	498.5
509.887	484.5
510.103	492.5
510.319	506.5
510.536	565.5
510.752	1016.5
510.968	804.5
511.184	537.5
511.401	534.5
511.617	481.5
511.833	469.5
512.049	490.5
512.265	470.5
512.481	459.5
512.698	455.5
512.914	464.5
513.13	476.5
513.346	462.5
513.562	491.5
513.778	476.5
513.994	487.5
514.21	483.5
514.426	520.5
514.642	548.5
514.858	576.5
515.074	594.5
515.29	736.5
515.506	1050.5
515.721	864.5
515.937	580.5
516.153	528.5
516.369	502.5
516.585	515.5
516.801	487.5
517.016	480.5
517.232	484.5
517.448	482.5
517.664	481.5
517.879	474.5
518.095	494.5
518.311	492.5
518.527	475.5
518.742	451.5
518.958	478.5
519.173	470.5
519.389	468.5
519.605	488.5
519.82	479.5
520.036	494.5
520.251	536.5
520.467	535.5
520.682	513.5
520.898	534.5
521.113	545.5
521.329	597.5
521.544	675.5
521.76	862.5
521.975	1397.5
522.19	1386.5
522.406	774.5
522.621	556.5
522.836	506.5
523.052	496.5
523.267	481.5
523.482	464.5
523.698	449.5
523.913	445.5
524.128	462.5
524.343	438.5
524.559	437.5
524.774	423.5
524.989	421.5
525.204	427.5
525.419	424.5
525.634	422.5
525.849	411.5
526.064	400.5
526.28	410.5
526.495	415.5
526.71	397.5
526.925	383.5
527.14	408.5
527.355	369.5
527.57	396.5
527.785	365.5
527.999	406.5
528.214	393.5
528.429	408.5
528.644	381.5
528.859	409.5
529.074	403.5
529.289	409.5
529.503	493.5
529.718	462.5
529.933	413.5
530.148	394.5
530.363	405.5
530.577	413.5
530.792	398.5
531.007	395.5
531.221	377.5
531.436	362.5
531.651	380.5
531.865	387.5
532.08	371.5
532.295	370.5
532.509	376.5
532.724	381.5
532.938	364.5
533.153	378.5
533.367	356.5
533.582	375.5
533.796	366.5
534.011	373.5
534.225	362.5
534.44	343.5
534.654	372.5
534.868	363.5
535.083	353.5
535.297	368.5
535.511	376.5
535.726	380.5
535.94	384.5
536.154	375.5
536.369	382.5
536.583	370.5
536.797	366.5
537.011	355.5
537.225	338.5
537.44	356.5
537.654	380.5
537.868	362.5
538.082	352.5
538.296	348.5
538.51	352.5
538.724	358.5
538.938	351.5
539.153	365.5
539.367	366.5
539.581	382.5
539.795	380.5
540.009	369.5
540.222	333.5
540.436	358.5
540.65	358.5
540.864	363.5
541.078	359.5
541.292	362.5
541.506	384.5
541.72	347.5
541.934	345.5
542.147	333.5
542.361	363.5
542.575	366.5
542.789	358.5
543.002	362.5
543.216	350.5
543.43	364.5
543.644	367.5
543.857	350.5
544.071	367.5
544.285	364.5
544.498	353.5
544.712	358.5
544.925	367.5
545.139	362.5
545.352	355.5
545.566	344.5
545.779	339.5
545.993	343.5
546.206	343.5
546.42	353.5
546.633	349.5
546.847	357.5
547.06	355.5
547.274	337.5
547.487	319.5
547.7	326.5
547.914	343.5
548.127	328.5
548.34	359.5
548.554	331.5
548.767	324.5
548.98	332.5
549.193	321.5
549.407	333.5
549.62	357.5
549.833	347.5
550.046	357.5
550.259	331.5
550.473	357.5
550.686	333.5
550.899	326.5
551.112	323.5
551.325	339.5
551.538	331.5
551.751	335.5
551.964	341.5
552.177	316.5
552.39	332.5
552.603	347.5
552.816	333.5
553.029	327.5
553.242	324.5
553.455	350.5
553.667	353.5
553.88	342.5
554.093	350.5
554.306	324.5
554.519	339.5
554.732	332.5
554.944	350.5
555.157	324.5
555.37	326.5
555.583	328.5
555.795	332.5
556.008	333.5
556.221	332.5
556.433	319.5
556.646	304.5
556.859	310.5
557.071	333.5
557.284	319.5
557.496	302.5
557.709	316.5
557.921	290.5
558.134	302.5
558.346	286.5
558.559	299.5
558.771	306.5
558.984	308.5
559.196	303.5
559.409	308.5
559.621	305.5
559.833	302.5
560.046	314.5
560.258	298.5
560.47	294.5
560.683	289.5
560.895	320.5
561.107	332.5
561.32	292.5
561.532	311.5
561.744	296.5
561.956	298.5
562.168	309.5
562.381	300.5
562.593	312.5
562.805	325.5
563.017	318.5
563.229	317.5
563.441	294.5
563.653	302.5
563.865	294.5
564.077	314.5
564.289	317.5
564.501	321.5
564.713	326.5
564.925	326.5
565.137	336.5
565.349	345.5
565.561	312.5
565.773	305.5
565.985	326.5
566.197	333.5
566.408	325.5
566.62	333.5
566.832	314.5
567.044	352.5
567.255	333.5
567.467	352.5
567.679	335.5
567.891	321.5
568.102	345.5
568.314	360.5
568.526	344.5
568.737	344.5
568.949	321.5
569.161	322.5
569.372	305.5
569.584	319.5
569.795	326.5
570.007	328.5
570.218	341.5
570.43	337.5
570.641	312.5
570.853	303.5
571.064	314.5
571.276	301.5
571.487	271.5
571.698	277.5
571.91	295.5
572.121	294.5
572.333	269.5
572.544	283.5
572.755	274.5
572.966	275.5
573.178	277.5
573.389	277.5
573.6	272.5
573.811	250.5
574.023	253.5
574.234	254.5
574.445	264.5
574.656	298.5
574.867	276.5
575.078	254.5
575.289	260.5
575.501	269.5
575.712	266.5
575.923	260.5
576.134	263.5
576.345	258.5
576.556	255.5
576.767	259.5
576.978	272.5
577.188	258.5
577.399	254.5
577.61	250.5
577.821	255.5
578.032	252.5
578.243	277.5
578.454	477.5
578.665	343.5
578.875	260.5
579.086	264.5
579.297	255.5
579.508	256.5
579.718	253.5
579.929	245.5
580.14	237.5
580.35	239.5
580.561	252.5
580.772	243.5
580.982	242.5
581.193	249.5
581.403	252.5
581.614	243.5
581.825	248.5
582.035	229.5
582.246	237.5
582.456	228.5
582.667	231.5
582.877	244.5
583.087	234.5
583.298	237.5
583.508	236.5
583.719	241.5
583.929	234.5
584.139	227.5
584.35	224.5
584.56	250.5
584.77	231.5
584.981	221.5
585.191	235.5
585.401	256.5
585.611	239.5
585.821	239.5
586.032	220.5
586.242	246.5
586.452	226.5
586.662	230.5
586.872	242.5
587.082	241.5
587.292	227.5
587.502	226.5
587.713	229.5
587.923	231.5
588.133	242.5
588.343	242.5
588.553	211.5
588.762	218.5
588.972	227.5
589.182	252.5
589.392	236.5
589.602	249.5
589.812	250.5
590.022	249.5
590.232	227.5
590.441	242.5
590.651	231.5
590.861	229.5
591.071	228.5
591.281	254.5
591.49	232.5
591.7	226.5
591.91	224.5
592.119	220.5
592.329	225.5
592.539	219.5
592.748	227.5
592.958	243.5
593.167	235.5
593.377	233.5
593.587	241.5
593.796	238.5
594.006	235.5
594.215	209.5
594.424	230.5
594.634	228.5
594.843	246.5
595.053	238.5
595.262	244.5
595.472	236.5
595.681	232.5
595.89	240.5
596.1	237.5
596.309	214.5
596.518	215.5
596.727	219.5
596.937	225.5
597.146	236.5
597.355	215.5
597.564	206.5
597.774	207.5
597.983	235.5
598.192	200.5
598.401	207.5
598.61	195.5
598.819	215.5
599.028	226.5
599.237	219.5
599.446	204.5
599.655	224.5
599.864	213.5
600.073	208.5
600.282	203.5
600.491	197.5
600.7	204.5
600.909	198.5
601.118	195.5
601.327	210.5
601.536	203.5
601.745	201.5
601.953	203.5
602.162	209.5
602.371	199.5
602.58	205.5
602.789	201.5
602.997	212.5
603.206	202.5
603.415	191.5
603.623	210.5
603.832	211.5
604.041	195.5
604.249	213.5
604.458	203.5
604.666	194.5
604.875	205.5
605.084	207.5
605.292	211.5
605.501	226.5
605.709	196.5
605.918	204.5
606.126	208.5
606.334	184.5
606.543	198.5
606.751	192.5
606.96	211.5
607.168	188.5
607.376	204.5
607.585	204.5
607.793	200.5
608.001	191.5
608.21	200.5
608.418	200.5
608.626	187.5
608.834	188.5
609.043	188.5
609.251	189.5
609.459	192.5
609.667	210.5
609.875	198.5
610.083	190.5
610.291	183.5
610.499	188.5
610.707	199.5
610.916	210.5
611.124	203.5
611.332	195.5
611.54	191.5
611.748	193.5
611.955	188.5
612.163	199.5
612.371	198.5
612.579	184.5
612.787	184.5
612.995	191.5
613.203	197.5
613.411	191.5
613.618	178.5
613.826	174.5
614.034	182.5
614.242	191.5
614.449	184.5
614.657	198.5
614.865	180.5
615.072	195.5
615.28	180.5
615.488	189.5
615.695	186.5
615.903	182.5
616.111	182.5
616.318	179.5
616.526	181.5
616.733	197.5
616.941	187.5
617.148	200.5
617.356	203.5
617.563	186.5
617.771	181.5
617.978	186.5
618.185	194.5
618.393	165.5
618.6	173.5
618.807	167.5
619.015	187.5
619.222	184.5
619.429	169.5
619.637	190.5
619.844	186.5
620.051	180.5
620.258	181.5
620.466	181.5
620.673	188.5
620.88	178.5
621.087	172.5
621.294	169.5
621.501	164.5
621.708	163.5
621.915	182.5
622.122	185.5
622.329	158.5
622.536	195.5
622.743	173.5
622.95	186.5
623.157	167.5
623.364	190.5
623.571	170.5
623.778	172.5
623.985	173.5
624.192	169.5
624.399	192.5
624.606	174.5
624.812	163.5
625.019	167.5
625.226	179.5
625.433	172.5
625.639	176.5
625.846	171.5
626.053	160.5
626.259	172.5
626.466	178.5
626.673	178.5
626.879	172.5
627.086	179.5
627.293	176.5
627.499	163.5
627.706	155.5
627.912	152.5
628.119	167.5
628.325	164.5
628.532	165.5
628.738	169.5
628.945	159.5
629.151	163.5
629.357	147.5
629.564	152.5
629.77	159.5
629.976	168.5
630.183	162.5
630.389	158.5
630.595	140.5
630.802	162.5
631.008	157.5
631.214	140.5
631.42	156.5
631.627	168.5
631.833	158.5
632.039	147.5
632.245	163.5
632.451	165.5
632.657	160.5
632.863	166.5
633.069	154.5
633.275	156.5
633.481	154.5
633.688	169.5
633.893	153.5
634.099	158.5
634.305	176.5
634.511	142.5
634.717	152.5
634.923	152.5
635.129	169.5
635.335	150.5
635.541	156.5
635.747	138.5
635.952	139.5
636.158	144.5
636.364	145.5
636.57	148.5
636.775	162.5
636.981	153.5
637.187	147.5
637.392	142.5
637.598	156.5
637.804	139.5
638.009	162.5
638.215	169.5
638.421	164.5
638.626	144.5
638.832	136.5
639.037	145.5
639.243	154.5
639.448	154.5
639.654	150.5
639.859	134.5
640.065	157.5
640.27	155.5
640.475	158.5
640.681	148.5
640.886	136.5
641.091	144.5
641.297	149.5
641.502	148.5
641.707	148.5
641.913	148.5
642.118	126.5
642.323	154.5
642.528	151.5
642.733	158.5
642.939	158.5
643.144	151.5
643.349	140.5
643.554	142.5
643.759	147.5
643.964	153.5
644.169	144.5
644.374	136.5
644.579	154.5
644.784	152.5
644.989	152.5
645.194	130.5
645.399	129.5
645.604	146.5
645.809	156.5
646.014	150.5
646.219	142.5
646.423	140.5
646.628	139.5
646.833	151.5
647.038	143.5
647.243	156.5
647.447	145.5
647.652	133.5
647.857	142.5
648.062	140.5
648.266	131.5
648.471	147.5
648.676	143.5
648.88	143.5
649.085	131.5
649.289	146.5
649.494	150.5
649.698	161.5
649.903	162.5
650.107	146.5
650.312	127.5
650.516	138.5
650.721	140.5
650.925	156.5
651.13	144.5
651.334	128.5
651.539	121.5
651.743	132.5
651.947	118.5
652.152	138.5
652.356	129.5
652.56	139.5
652.764	137.5
652.969	130.5
653.173	110.5
653.377	109.5
653.581	106.5
653.785	128.5
653.99	125.5
654.194	125.5
654.398	123.5
654.602	118.5
654.806	140.5
655.01	128.5
655.214	130.5
655.418	130.5
655.622	103.5
655.826	125.5
656.03	130.5
656.234	120.5
656.438	111.5
656.642	119.5
656.846	125.5
657.049	115.5
657.253	116.5
657.457	86.5
657.661	117.5
657.865	104.5
658.068	118.5
658.272	100.5
658.476	100.5
658.68	99.5
658.883	107.5
659.087	95.5
659.291	86.5
659.494	98.5
659.698	96.5
659.901	81.5
660.105	95.5
660.309	91.5
660.512	76.5
660.716	91.5
660.919	87.5
661.123	80.5
661.326	82.5
661.53	92.5
661.733	90.5
661.936	93.5
662.14	77.5
662.343	63.5
662.546	90.5
662.75	90.5
662.953	80.5
663.156	89.5
663.36	87.5
663.563	83.5
663.766	71.5
663.969	93.5
664.173	79.5
664.376	89.5
664.579	78.5
664.782	76.5
664.985	85.5
665.188	84.5
665.391	78.5
665.594	72.5
665.797	69.5
666	63.5
666.203	91.5
666.406	87.5
666.609	77.5
666.812	78.5
667.015	66.5
667.218	72.5
667.421	64.5
667.624	78.5
667.827	75.5
668.03	79.5
668.232	72.5
668.435	85.5
668.638	87.5
668.841	83.5
669.043	85.5
669.246	88.5
669.449	71.5
669.651	84.5
669.854	83.5
670.057	83.5
670.259	71.5
670.462	84.5
670.665	70.5
670.867	78.5
671.07	67.5
671.272	74.5
671.475	71.5
671.677	83.5
671.88	72.5
672.082	80.5
672.284	79.5
672.487	77.5
672.689	79.5
672.892	68.5
