Data from 1962.PennyLincolnUp.Lamp.En5.5.200Scan.071719.P1._HRD10591_13-52-35-059.txt Node
Date: Thu Jul 18 13:52:35 EDT 2019
User: cochatt
Spectrometer: HR+D1059
Trigger mode: 1
Integration Time (sec): 1.000000E-1
Scans to average: 1
Electric dark correction enabled: true
Nonlinearity correction enabled: false
Boxcar width: 0
XAxis mode: Wavelengths
Number of Pixels in Spectrum: 2048
>>>>>Begin Spectral Data<<<<<
223.165	-16.88
223.4	-16.88
223.635	-16.88
223.869	-12.88
224.104	-7.88
224.338	-11.88
224.573	-13.88
224.808	3.12
225.042	-12.88
225.277	-10.88
225.511	-7.88
225.746	-6.88
225.98	8.12
226.215	5.12
226.449	14.12
226.683	26.12
226.918	23.12
227.152	22.12
227.387	27.12
227.621	29.12
227.856	38.12
228.09	60.12
228.324	52.12
228.559	57.12
228.793	66.12
229.027	88.12
229.262	95.12
229.496	97.12
229.73	119.12
229.964	111.12
230.199	105.12
230.433	105.12
230.667	111.12
230.901	108.12
231.136	102.12
231.37	96.12
231.604	102.12
231.838	99.12
232.072	112.12
232.306	112.12
232.541	109.12
232.775	97.12
233.009	132.12
233.243	102.12
233.477	92.12
233.711	105.12
233.945	111.12
234.179	108.12
234.413	135.12
234.647	101.12
234.881	121.12
235.115	132.12
235.349	107.12
235.583	128.12
235.817	119.12
236.051	123.12
236.285	116.12
236.519	117.12
236.753	113.12
236.987	117.12
237.221	149.12
237.455	166.12
237.689	145.12
237.922	119.12
238.156	125.12
238.39	124.12
238.624	112.12
238.858	115.12
239.091	115.12
239.325	112.12
239.559	129.12
239.793	122.12
240.027	124.12
240.26	115.12
240.494	141.12
240.728	137.12
240.961	127.12
241.195	115.12
241.429	133.12
241.662	140.12
241.896	131.12
242.13	129.12
242.363	124.12
242.597	132.12
242.83	135.12
243.064	130.12
243.298	121.12
243.531	138.12
243.765	131.12
243.998	127.12
244.232	128.12
244.465	150.12
244.699	139.12
244.932	128.12
245.166	130.12
245.399	134.12
245.633	152.12
245.866	144.12
246.099	139.12
246.333	135.12
246.566	144.12
246.8	135.12
247.033	135.12
247.266	135.12
247.5	166.12
247.733	143.12
247.966	150.12
248.2	142.12
248.433	153.12
248.666	170.12
248.899	157.12
249.133	160.12
249.366	163.12
249.599	172.12
249.832	153.12
250.066	161.12
250.299	150.12
250.532	177.12
250.765	172.12
250.998	184.12
251.231	185.12
251.465	159.12
251.698	186.12
251.931	182.12
252.164	169.12
252.397	173.12
252.63	159.12
252.863	166.12
253.096	185.12
253.329	189.12
253.562	182.12
253.795	183.12
254.028	193.12
254.261	167.12
254.494	184.12
254.727	218.12
254.96	220.12
255.193	202.12
255.426	201.12
255.659	190.12
255.892	193.12
256.124	175.12
256.357	190.12
256.59	186.12
256.823	201.12
257.056	169.12
257.289	183.12
257.521	173.12
257.754	183.12
257.987	195.12
258.22	188.12
258.452	194.12
258.685	192.12
258.918	181.12
259.151	183.12
259.383	196.12
259.616	181.12
259.849	166.12
260.081	208.12
260.314	202.12
260.547	219.12
260.779	224.12
261.012	207.12
261.244	205.12
261.477	206.12
261.71	199.12
261.942	193.12
262.175	192.12
262.407	198.12
262.64	185.12
262.872	196.12
263.105	193.12
263.337	195.12
263.57	203.12
263.802	175.12
264.035	195.12
264.267	195.12
264.499	182.12
264.732	186.12
264.964	197.12
265.197	196.12
265.429	205.12
265.661	209.12
265.894	199.12
266.126	203.12
266.358	193.12
266.591	204.12
266.823	205.12
267.055	197.12
267.287	220.12
267.52	208.12
267.752	221.12
267.984	230.12
268.216	239.12
268.448	219.12
268.681	213.12
268.913	229.12
269.145	215.12
269.377	233.12
269.609	252.12
269.841	245.12
270.073	233.12
270.306	234.12
270.538	255.12
270.77	253.12
271.002	262.12
271.234	233.12
271.466	247.12
271.698	236.12
271.93	253.12
272.162	246.12
272.394	255.12
272.626	246.12
272.858	249.12
273.09	236.12
273.322	255.12
273.553	243.12
273.785	228.12
274.017	248.12
274.249	251.12
274.481	251.12
274.713	239.12
274.945	244.12
275.176	249.12
275.408	239.12
275.64	252.12
275.872	233.12
276.104	243.12
276.335	255.12
276.567	257.12
276.799	256.12
277.031	270.12
277.262	255.12
277.494	280.12
277.726	281.12
277.957	283.12
278.189	241.12
278.421	255.12
278.652	248.12
278.884	265.12
279.115	252.12
279.347	252.12
279.579	249.12
279.81	272.12
280.042	270.12
280.273	261.12
280.505	257.12
280.736	254.12
280.968	248.12
281.199	268.12
281.431	247.12
281.662	245.12
281.894	269.12
282.125	272.12
282.356	255.12
282.588	295.12
282.819	291.12
283.051	253.12
283.282	238.12
283.513	275.12
283.745	262.12
283.976	270.12
284.207	260.12
284.439	268.12
284.67	277.12
284.901	274.12
285.132	273.12
285.364	263.12
285.595	281.12
285.826	260.12
286.057	269.12
286.288	269.12
286.52	283.12
286.751	267.12
286.982	279.12
287.213	288.12
287.444	274.12
287.675	290.12
287.906	264.12
288.138	285.12
288.369	273.12
288.6	297.12
288.831	279.12
289.062	276.12
289.293	279.12
289.524	302.12
289.755	279.12
289.986	287.12
290.217	268.12
290.448	277.12
290.679	280.12
290.91	290.12
291.141	273.12
291.371	279.12
291.602	284.12
291.833	301.12
292.064	283.12
292.295	300.12
292.526	302.12
292.757	289.12
292.987	283.12
293.218	272.12
293.449	297.12
293.68	292.12
293.91	281.12
294.141	305.12
294.372	292.12
294.603	298.12
294.833	291.12
295.064	284.12
295.295	296.12
295.525	284.12
295.756	283.12
295.987	305.12
296.217	307.12
296.448	300.12
296.679	295.12
296.909	299.12
297.14	305.12
297.37	308.12
297.601	303.12
297.831	296.12
298.062	298.12
298.292	295.12
298.523	303.12
298.753	306.12
298.984	315.12
299.214	297.12
299.445	300.12
299.675	314.12
299.905	303.12
300.136	323.12
300.366	296.12
300.597	298.12
300.827	314.12
301.057	313.12
301.288	330.12
301.518	319.12
301.748	315.12
301.979	317.12
302.209	303.12
302.439	333.12
302.669	334.12
302.9	315.12
303.13	315.12
303.36	345.12
303.59	319.12
303.82	340.12
304.051	330.12
304.281	333.12
304.511	320.12
304.741	325.12
304.971	310.12
305.201	319.12
305.431	321.12
305.661	310.12
305.891	313.12
306.121	303.12
306.352	316.12
306.582	326.12
306.812	316.12
307.042	304.12
307.272	337.12
307.502	318.12
307.731	328.12
307.961	328.12
308.191	315.12
308.421	333.12
308.651	326.12
308.881	323.12
309.111	342.12
309.341	324.12
309.571	324.12
309.8	329.12
310.03	336.12
310.26	357.12
310.49	341.12
310.72	343.12
310.949	337.12
311.179	335.12
311.409	347.12
311.639	341.12
311.868	350.12
312.098	350.12
312.328	345.12
312.557	344.12
312.787	372.12
313.017	365.12
313.246	351.12
313.476	356.12
313.706	347.12
313.935	348.12
314.165	346.12
314.394	337.12
314.624	359.12
314.853	345.12
315.083	367.12
315.312	368.12
315.542	364.12
315.771	328.12
316.001	359.12
316.23	347.12
316.46	356.12
316.689	361.12
316.919	351.12
317.148	361.12
317.377	367.12
317.607	342.12
317.836	343.12
318.065	368.12
318.295	367.12
318.524	354.12
318.753	368.12
318.983	352.12
319.212	348.12
319.441	340.12
319.67	352.12
319.9	357.12
320.129	345.12
320.358	375.12
320.587	361.12
320.816	367.12
321.046	371.12
321.275	357.12
321.504	357.12
321.733	345.12
321.962	387.12
322.191	360.12
322.42	379.12
322.649	395.12
322.878	364.12
323.108	387.12
323.337	397.12
323.566	398.12
323.795	422.12
324.024	443.12
324.253	516.12
324.482	660.12
324.71	996.12
324.939	1440.12
325.168	1250.12
325.397	651.12
325.626	489.12
325.855	431.12
326.084	416.12
326.313	408.12
326.542	419.12
326.77	424.12
326.999	496.12
327.228	644.12
327.457	917.12
327.686	1097.12
327.914	751.12
328.143	539.12
328.372	481.12
328.6	456.12
328.829	448.12
329.058	455.12
329.287	447.12
329.515	412.12
329.744	418.12
329.972	415.12
330.201	404.12
330.43	451.12
330.658	464.12
330.887	450.12
331.115	471.12
331.344	439.12
331.572	411.12
331.801	416.12
332.03	428.12
332.258	408.12
332.486	425.12
332.715	413.12
332.943	431.12
333.172	432.12
333.4	445.12
333.629	456.12
333.857	470.12
334.085	477.12
334.314	469.12
334.542	460.12
334.771	478.12
334.999	459.12
335.227	467.12
335.455	455.12
335.684	438.12
335.912	440.12
336.14	438.12
336.369	415.12
336.597	416.12
336.825	415.12
337.053	430.12
337.281	423.12
337.51	417.12
337.738	401.12
337.966	422.12
338.194	403.12
338.422	423.12
338.65	437.12
338.878	393.12
339.106	412.12
339.334	415.12
339.562	412.12
339.79	419.12
340.018	427.12
340.246	415.12
340.474	399.12
340.702	398.12
340.93	382.12
341.158	384.12
341.386	420.12
341.614	405.12
341.842	411.12
342.07	391.12
342.298	395.12
342.526	374.12
342.754	394.12
342.981	395.12
343.209	392.12
343.437	408.12
343.665	407.12
343.893	432.12
344.12	428.12
344.348	428.12
344.576	400.12
344.804	415.12
345.031	415.12
345.259	418.12
345.487	428.12
345.714	401.12
345.942	399.12
346.17	415.12
346.397	391.12
346.625	391.12
346.853	392.12
347.08	361.12
347.308	390.12
347.535	400.12
347.763	401.12
347.99	388.12
348.218	382.12
348.445	382.12
348.673	392.12
348.9	387.12
349.128	389.12
349.355	374.12
349.583	382.12
349.81	384.12
350.037	387.12
350.265	387.12
350.492	376.12
350.72	383.12
350.947	398.12
351.174	397.12
351.402	394.12
351.629	375.12
351.856	394.12
352.083	382.12
352.311	373.12
352.538	381.12
352.765	375.12
352.992	396.12
353.22	379.12
353.447	381.12
353.674	378.12
353.901	380.12
354.128	367.12
354.355	370.12
354.583	371.12
354.81	379.12
355.037	378.12
355.264	376.12
355.491	379.12
355.718	375.12
355.945	381.12
356.172	372.12
356.399	375.12
356.626	371.12
356.853	383.12
357.08	372.12
357.307	384.12
357.534	381.12
357.761	375.12
357.988	373.12
358.215	382.12
358.441	388.12
358.668	377.12
358.895	365.12
359.122	381.12
359.349	412.12
359.576	382.12
359.802	398.12
360.029	399.12
360.256	400.12
360.483	399.12
360.709	376.12
360.936	386.12
361.163	386.12
361.39	400.12
361.616	384.12
361.843	382.12
362.07	407.12
362.296	389.12
362.523	376.12
362.749	392.12
362.976	380.12
363.203	381.12
363.429	383.12
363.656	380.12
363.882	373.12
364.109	383.12
364.335	357.12
364.562	385.12
364.788	386.12
365.015	407.12
365.241	388.12
365.468	377.12
365.694	379.12
365.92	393.12
366.147	367.12
366.373	373.12
366.599	387.12
366.826	356.12
367.052	375.12
367.278	391.12
367.505	383.12
367.731	378.12
367.957	349.12
368.184	380.12
368.41	377.12
368.636	361.12
368.862	376.12
369.089	395.12
369.315	366.12
369.541	381.12
369.767	377.12
369.993	386.12
370.219	361.12
370.445	381.12
370.672	387.12
370.898	383.12
371.124	400.12
371.35	381.12
371.576	386.12
371.802	375.12
372.028	388.12
372.254	411.12
372.48	403.12
372.706	393.12
372.932	407.12
373.158	398.12
373.384	405.12
373.61	389.12
373.835	403.12
374.061	401.12
374.287	400.12
374.513	423.12
374.739	416.12
374.965	418.12
375.191	408.12
375.416	420.12
375.642	402.12
375.868	403.12
376.094	386.12
376.319	404.12
376.545	387.12
376.771	389.12
376.997	391.12
377.222	409.12
377.448	386.12
377.674	395.12
377.899	393.12
378.125	390.12
378.35	407.12
378.576	385.12
378.802	383.12
379.027	391.12
379.253	411.12
379.478	393.12
379.704	390.12
379.929	387.12
380.155	400.12
380.38	404.12
380.606	398.12
380.831	409.12
381.057	403.12
381.282	389.12
381.507	386.12
381.733	397.12
381.958	402.12
382.184	395.12
382.409	391.12
382.634	418.12
382.86	413.12
383.085	418.12
383.31	428.12
383.535	407.12
383.761	430.12
383.986	417.12
384.211	437.12
384.436	432.12
384.662	439.12
384.887	424.12
385.112	441.12
385.337	450.12
385.562	429.12
385.787	437.12
386.013	459.12
386.238	461.12
386.463	465.12
386.688	449.12
386.913	461.12
387.138	446.12
387.363	451.12
387.588	459.12
387.813	448.12
388.038	458.12
388.263	470.12
388.488	460.12
388.713	448.12
388.938	446.12
389.163	447.12
389.387	425.12
389.612	430.12
389.837	453.12
390.062	448.12
390.287	453.12
390.512	421.12
390.736	433.12
390.961	445.12
391.186	460.12
391.411	433.12
391.636	449.12
391.86	445.12
392.085	456.12
392.31	470.12
392.534	468.12
392.759	483.12
392.984	473.12
393.208	475.12
393.433	523.12
393.658	499.12
393.882	477.12
394.107	447.12
394.331	450.12
394.556	460.12
394.78	441.12
395.005	449.12
395.229	462.12
395.454	475.12
395.678	484.12
395.903	478.12
396.127	482.12
396.352	483.12
396.576	463.12
396.801	486.12
397.025	496.12
397.249	465.12
397.474	482.12
397.698	478.12
397.922	472.12
398.147	471.12
398.371	496.12
398.595	497.12
398.82	507.12
399.044	541.12
399.268	567.12
399.492	608.12
399.717	619.12
399.941	663.12
400.165	641.12
400.389	661.12
400.613	590.12
400.837	521.12
401.062	538.12
401.286	514.12
401.51	506.12
401.734	527.12
401.958	522.12
402.182	522.12
402.406	539.12
402.63	510.12
402.854	545.12
403.078	545.12
403.302	548.12
403.526	523.12
403.75	555.12
403.974	574.12
404.198	535.12
404.422	550.12
404.645	568.12
404.869	560.12
405.093	577.12
405.317	590.12
405.541	615.12
405.765	573.12
405.988	565.12
406.212	557.12
406.436	569.12
406.66	581.12
406.883	566.12
407.107	615.12
407.331	613.12
407.555	649.12
407.778	659.12
408.002	639.12
408.226	602.12
408.449	605.12
408.673	595.12
408.896	573.12
409.12	617.12
409.344	601.12
409.567	550.12
409.791	556.12
410.014	537.12
410.238	534.12
410.461	542.12
410.685	580.12
410.908	539.12
411.132	569.12
411.355	587.12
411.578	579.12
411.802	547.12
412.025	516.12
412.249	549.12
412.472	549.12
412.695	568.12
412.919	537.12
413.142	531.12
413.365	521.12
413.589	531.12
413.812	529.12
414.035	503.12
414.258	496.12
414.482	487.12
414.705	532.12
414.928	508.12
415.151	521.12
415.374	506.12
415.597	513.12
415.821	514.12
416.044	530.12
416.267	523.12
416.49	483.12
416.713	494.12
416.936	489.12
417.159	500.12
417.382	494.12
417.605	519.12
417.828	527.12
418.051	503.12
418.274	513.12
418.497	494.12
418.72	527.12
418.943	506.12
419.166	507.12
419.389	570.12
419.611	544.12
419.834	544.12
420.057	555.12
420.28	524.12
420.503	526.12
420.726	553.12
420.948	515.12
421.171	540.12
421.394	589.12
421.617	504.12
421.839	547.12
422.062	521.12
422.285	535.12
422.507	575.12
422.73	598.12
422.953	608.12
423.175	568.12
423.398	544.12
423.621	537.12
423.843	544.12
424.066	559.12
424.288	548.12
424.511	529.12
424.733	571.12
424.956	631.12
425.178	593.12
425.401	593.12
425.623	604.12
425.846	544.12
426.068	533.12
426.291	530.12
426.513	533.12
426.735	534.12
426.958	553.12
427.18	580.12
427.402	700.12
427.625	757.12
427.847	658.12
428.069	578.12
428.292	544.12
428.514	515.12
428.736	468.12
428.958	520.12
429.181	486.12
429.403	492.12
429.625	518.12
429.847	519.12
430.069	557.12
430.292	543.12
430.514	481.12
430.736	492.12
430.958	481.12
431.18	479.12
431.402	462.12
431.624	495.12
431.846	492.12
432.068	479.12
432.29	470.12
432.512	472.12
432.734	489.12
432.956	507.12
433.178	499.12
433.4	484.12
433.622	484.12
433.844	470.12
434.066	488.12
434.287	486.12
434.509	501.12
434.731	500.12
434.953	492.12
435.175	497.12
435.397	540.12
435.618	523.12
435.84	541.12
436.062	598.12
436.284	665.12
436.505	569.12
436.727	504.12
436.949	506.12
437.17	501.12
437.392	486.12
437.614	486.12
437.835	511.12
438.057	553.12
438.278	592.12
438.5	616.12
438.721	681.12
438.943	673.12
439.165	547.12
439.386	503.12
439.608	512.12
439.829	526.12
440.05	534.12
440.272	559.12
440.493	542.12
440.715	501.12
440.936	510.12
441.158	502.12
441.379	503.12
441.6	533.12
441.822	535.12
442.043	555.12
442.264	601.12
442.486	622.12
442.707	556.12
442.928	557.12
443.149	544.12
443.371	549.12
443.592	585.12
443.813	629.12
444.034	657.12
444.255	598.12
444.476	567.12
444.698	555.12
444.919	583.12
445.14	713.12
445.361	597.12
445.582	565.12
445.803	573.12
446.024	640.12
446.245	629.12
446.466	594.12
446.687	532.12
446.908	527.12
447.129	503.12
447.35	469.12
447.571	482.12
447.792	475.12
448.013	470.12
448.234	485.12
448.455	495.12
448.675	595.12
448.896	647.12
449.117	574.12
449.338	547.12
449.559	611.12
449.779	670.12
450	583.12
450.221	502.12
450.442	491.12
450.662	466.12
450.883	471.12
451.104	481.12
451.324	470.12
451.545	452.12
451.766	443.12
451.986	444.12
452.207	443.12
452.428	430.12
452.648	431.12
452.869	436.12
453.089	427.12
453.31	442.12
453.53	431.12
453.751	424.12
453.971	442.12
454.192	454.12
454.412	432.12
454.633	416.12
454.853	429.12
455.073	445.12
455.294	437.12
455.514	473.12
455.734	455.12
455.955	442.12
456.175	413.12
456.395	431.12
456.616	421.12
456.836	429.12
457.056	417.12
457.276	409.12
457.497	422.12
457.717	422.12
457.937	445.12
458.157	437.12
458.377	423.12
458.598	440.12
458.818	458.12
459.038	521.12
459.258	531.12
459.478	507.12
459.698	472.12
459.918	493.12
460.138	487.12
460.358	501.12
460.578	528.12
460.798	511.12
461.018	514.12
461.238	526.12
461.458	523.12
461.678	515.12
461.898	536.12
462.118	527.12
462.338	525.12
462.558	535.12
462.777	555.12
462.997	569.12
463.217	619.12
463.437	623.12
463.657	596.12
463.876	575.12
464.096	587.12
464.316	578.12
464.536	565.12
464.755	566.12
464.975	548.12
465.195	549.12
465.414	545.12
465.634	528.12
465.854	506.12
466.073	507.12
466.293	483.12
466.512	476.12
466.732	460.12
466.951	470.12
467.171	450.12
467.391	447.12
467.61	451.12
467.829	444.12
468.049	460.12
468.268	455.12
468.488	448.12
468.707	455.12
468.927	454.12
469.146	451.12
469.365	442.12
469.585	445.12
469.804	464.12
470.023	491.12
470.243	447.12
470.462	451.12
470.681	492.12
470.901	480.12
471.12	475.12
471.339	480.12
471.558	466.12
471.777	462.12
471.997	464.12
472.216	452.12
472.435	460.12
472.654	463.12
472.873	453.12
473.092	454.12
473.311	469.12
473.53	450.12
473.749	464.12
473.968	483.12
474.187	535.12
474.406	537.12
474.625	496.12
474.844	476.12
475.063	476.12
475.282	457.12
475.501	441.12
475.72	462.12
475.939	494.12
476.158	475.12
476.377	479.12
476.596	482.12
476.814	480.12
477.033	475.12
477.252	508.12
477.471	499.12
477.69	507.12
477.908	508.12
478.127	527.12
478.346	513.12
478.564	535.12
478.783	540.12
479.002	513.12
479.22	545.12
479.439	555.12
479.658	567.12
479.876	559.12
480.095	574.12
480.313	594.12
480.532	597.12
480.751	591.12
480.969	586.12
481.188	604.12
481.406	609.12
481.624	600.12
481.843	576.12
482.061	549.12
482.28	556.12
482.498	564.12
482.717	539.12
482.935	559.12
483.153	548.12
483.372	525.12
483.59	566.12
483.808	535.12
484.027	543.12
484.245	566.12
484.463	565.12
484.681	572.12
484.9	549.12
485.118	571.12
485.336	573.12
485.554	583.12
485.772	583.12
485.99	597.12
486.209	575.12
486.427	571.12
486.645	587.12
486.863	574.12
487.081	595.12
487.299	593.12
487.517	598.12
487.735	571.12
487.953	575.12
488.171	580.12
488.389	574.12
488.607	586.12
488.825	560.12
489.043	569.12
489.261	587.12
489.479	592.12
489.696	587.12
489.914	592.12
490.132	595.12
490.35	612.12
490.568	568.12
490.786	583.12
491.003	598.12
491.221	605.12
491.439	579.12
491.657	623.12
491.874	621.12
492.092	635.12
492.31	629.12
492.527	598.12
492.745	610.12
492.963	632.12
493.18	611.12
493.398	619.12
493.615	639.12
493.833	618.12
494.05	627.12
494.268	615.12
494.485	631.12
494.703	619.12
494.92	626.12
495.138	638.12
495.355	622.12
495.573	637.12
495.79	615.12
496.008	645.12
496.225	643.12
496.442	631.12
496.66	671.12
496.877	648.12
497.094	657.12
497.312	677.12
497.529	679.12
497.746	695.12
497.963	703.12
498.181	736.12
498.398	755.12
498.615	793.12
498.832	805.12
499.049	807.12
499.267	847.12
499.484	882.12
499.701	940.12
499.918	1019.12
500.135	1088.12
500.352	1143.12
500.569	1159.12
500.786	1206.12
501.003	1104.12
501.22	1068.12
501.437	1048.12
501.654	977.12
501.871	913.12
502.088	864.12
502.305	823.12
502.522	813.12
502.739	804.12
502.956	766.12
503.172	736.12
503.389	730.12
503.606	733.12
503.823	711.12
504.04	687.12
504.256	708.12
504.473	693.12
504.69	684.12
504.907	698.12
505.123	661.12
505.34	663.12
505.557	627.12
505.773	637.12
505.99	637.12
506.207	616.12
506.423	611.12
506.64	610.12
506.856	589.12
507.073	595.12
507.289	617.12
507.506	563.12
507.722	598.12
507.939	604.12
508.155	596.12
508.372	566.12
508.588	579.12
508.805	545.12
509.021	554.12
509.238	541.12
509.454	551.12
509.67	548.12
509.887	552.12
510.103	548.12
510.319	537.12
510.536	599.12
510.752	857.12
510.968	728.12
511.184	579.12
511.401	552.12
511.617	543.12
511.833	543.12
512.049	548.12
512.265	543.12
512.481	537.12
512.698	559.12
512.914	524.12
513.13	534.12
513.346	554.12
513.562	529.12
513.778	525.12
513.994	559.12
514.21	561.12
514.426	563.12
514.642	576.12
514.858	582.12
515.074	598.12
515.29	647.12
515.506	811.12
515.721	771.12
515.937	604.12
516.153	588.12
516.369	579.12
516.585	583.12
516.801	601.12
517.016	601.12
517.232	607.12
517.448	607.12
517.664	642.12
517.879	649.12
518.095	618.12
518.311	606.12
518.527	615.12
518.742	578.12
518.958	577.12
519.173	585.12
519.389	586.12
519.605	541.12
519.82	575.12
520.036	557.12
520.251	553.12
520.467	556.12
520.682	576.12
520.898	585.12
521.113	578.12
521.329	566.12
521.544	578.12
521.76	684.12
521.975	947.12
522.19	952.12
522.406	636.12
522.621	559.12
522.836	523.12
523.052	524.12
523.267	503.12
523.482	497.12
523.698	496.12
523.913	504.12
524.128	494.12
524.343	481.12
524.559	496.12
524.774	490.12
524.989	487.12
525.204	492.12
525.419	483.12
525.634	471.12
525.849	492.12
526.064	473.12
526.28	463.12
526.495	488.12
526.71	460.12
526.925	457.12
527.14	479.12
527.355	473.12
527.57	477.12
527.785	469.12
527.999	471.12
528.214	469.12
528.429	463.12
528.644	464.12
528.859	460.12
529.074	471.12
529.289	486.12
529.503	505.12
529.718	512.12
529.933	475.12
530.148	486.12
530.363	445.12
530.577	456.12
530.792	464.12
531.007	467.12
531.221	471.12
531.436	486.12
531.651	476.12
531.865	485.12
532.08	490.12
532.295	465.12
532.509	439.12
532.724	457.12
532.938	478.12
533.153	453.12
533.367	463.12
533.582	442.12
533.796	455.12
534.011	472.12
534.225	472.12
534.44	451.12
534.654	467.12
534.868	458.12
535.083	451.12
535.297	453.12
535.511	445.12
535.726	464.12
535.94	481.12
536.154	449.12
536.369	452.12
536.583	457.12
536.797	444.12
537.011	445.12
537.225	428.12
537.44	441.12
537.654	439.12
537.868	439.12
538.082	417.12
538.296	441.12
538.51	422.12
538.724	429.12
538.938	429.12
539.153	433.12
539.367	426.12
539.581	421.12
539.795	441.12
540.009	431.12
540.222	429.12
540.436	442.12
540.65	427.12
540.864	432.12
541.078	421.12
541.292	439.12
541.506	421.12
541.72	425.12
541.934	431.12
542.147	447.12
542.361	445.12
542.575	430.12
542.789	431.12
543.002	430.12
543.216	427.12
543.43	435.12
543.644	445.12
543.857	424.12
544.071	443.12
544.285	456.12
544.498	441.12
544.712	420.12
544.925	428.12
545.139	432.12
545.352	434.12
545.566	456.12
545.779	444.12
545.993	445.12
546.206	461.12
546.42	452.12
546.633	449.12
546.847	440.12
547.06	407.12
547.274	420.12
547.487	426.12
547.7	425.12
547.914	430.12
548.127	447.12
548.34	443.12
548.554	438.12
548.767	443.12
548.98	423.12
549.193	435.12
549.407	449.12
549.62	430.12
549.833	446.12
550.046	473.12
550.259	436.12
550.473	440.12
550.686	437.12
550.899	439.12
551.112	441.12
551.325	428.12
551.538	415.12
551.751	434.12
551.964	431.12
552.177	438.12
552.39	434.12
552.603	446.12
552.816	420.12
553.029	449.12
553.242	459.12
553.455	461.12
553.667	445.12
553.88	478.12
554.093	434.12
554.306	448.12
554.519	458.12
554.732	427.12
554.944	419.12
555.157	427.12
555.37	420.12
555.583	405.12
555.795	428.12
556.008	397.12
556.221	390.12
556.433	402.12
556.646	394.12
556.859	396.12
557.071	382.12
557.284	389.12
557.496	379.12
557.709	401.12
557.921	378.12
558.134	361.12
558.346	407.12
558.559	405.12
558.771	391.12
558.984	391.12
559.196	393.12
559.409	372.12
559.621	396.12
559.833	385.12
560.046	363.12
560.258	375.12
560.47	370.12
560.683	390.12
560.895	385.12
561.107	383.12
561.32	384.12
561.532	387.12
561.744	375.12
561.956	387.12
562.168	390.12
562.381	387.12
562.593	395.12
562.805	397.12
563.017	380.12
563.229	379.12
563.441	405.12
563.653	407.12
563.865	411.12
564.077	394.12
564.289	401.12
564.501	398.12
564.713	421.12
564.925	416.12
565.137	427.12
565.349	425.12
565.561	451.12
565.773	438.12
565.985	455.12
566.197	463.12
566.408	493.12
566.62	506.12
566.832	526.12
567.044	554.12
567.255	559.12
567.467	553.12
567.679	560.12
567.891	580.12
568.102	604.12
568.314	583.12
568.526	545.12
568.737	528.12
568.949	509.12
569.161	470.12
569.372	453.12
569.584	425.12
569.795	423.12
570.007	402.12
570.218	438.12
570.43	415.12
570.641	432.12
570.853	418.12
571.064	405.12
571.276	405.12
571.487	391.12
571.698	383.12
571.91	414.12
572.121	371.12
572.333	367.12
572.544	374.12
572.755	359.12
572.966	364.12
573.178	373.12
573.389	359.12
573.6	359.12
573.811	340.12
574.023	335.12
574.234	329.12
574.445	374.12
574.656	355.12
574.867	341.12
575.078	346.12
575.289	349.12
575.501	347.12
575.712	332.12
575.923	328.12
576.134	325.12
576.345	324.12
576.556	331.12
576.767	350.12
576.978	327.12
577.188	329.12
577.399	335.12
577.61	334.12
577.821	311.12
578.032	326.12
578.243	341.12
578.454	433.12
578.665	383.12
578.875	319.12
579.086	324.12
579.297	301.12
579.508	310.12
579.718	325.12
579.929	307.12
580.14	313.12
580.35	326.12
580.561	319.12
580.772	307.12
580.982	328.12
581.193	311.12
581.403	323.12
581.614	327.12
581.825	303.12
582.035	304.12
582.246	291.12
582.456	294.12
582.667	300.12
582.877	315.12
583.087	299.12
583.298	305.12
583.508	302.12
583.719	313.12
583.929	311.12
584.139	311.12
584.35	299.12
584.56	321.12
584.77	289.12
584.981	305.12
585.191	315.12
585.401	315.12
585.611	297.12
585.821	321.12
586.032	322.12
586.242	298.12
586.452	317.12
586.662	307.12
586.872	318.12
587.082	282.12
587.292	305.12
587.502	321.12
587.713	296.12
587.923	285.12
588.133	306.12
588.343	311.12
588.553	304.12
588.762	334.12
588.972	355.12
589.182	672.12
589.392	651.12
589.602	427.12
589.812	625.12
590.022	508.12
590.232	340.12
590.441	299.12
590.651	312.12
590.861	279.12
591.071	308.12
591.281	314.12
591.49	303.12
591.7	321.12
591.91	329.12
592.119	308.12
592.329	317.12
592.539	335.12
592.748	333.12
592.958	325.12
593.167	345.12
593.377	358.12
593.587	355.12
593.796	336.12
594.006	359.12
594.215	359.12
594.424	346.12
594.634	346.12
594.843	348.12
595.053	338.12
595.262	326.12
595.472	311.12
595.681	320.12
595.89	300.12
596.1	307.12
596.309	292.12
596.518	295.12
596.727	287.12
596.937	291.12
597.146	284.12
597.355	300.12
597.564	300.12
597.774	268.12
597.983	291.12
598.192	292.12
598.401	292.12
598.61	268.12
598.819	275.12
599.028	257.12
599.237	264.12
599.446	266.12
599.655	277.12
599.864	255.12
600.073	266.12
600.282	265.12
600.491	252.12
600.7	269.12
600.909	272.12
601.118	255.12
601.327	273.12
601.536	261.12
601.745	272.12
601.953	246.12
602.162	268.12
602.371	248.12
602.58	257.12
602.789	264.12
602.997	230.12
603.206	276.12
603.415	251.12
603.623	245.12
603.832	255.12
604.041	254.12
604.249	251.12
604.458	239.12
604.666	241.12
604.875	238.12
605.084	245.12
605.292	249.12
605.501	236.12
605.709	249.12
605.918	235.12
606.126	239.12
606.334	253.12
606.543	246.12
606.751	257.12
606.96	262.12
607.168	237.12
607.376	238.12
607.585	249.12
607.793	238.12
608.001	245.12
608.21	253.12
608.418	245.12
608.626	260.12
608.834	253.12
609.043	229.12
609.251	243.12
609.459	233.12
609.667	251.12
609.875	239.12
610.083	248.12
610.291	260.12
610.499	235.12
610.707	247.12
610.916	264.12
611.124	264.12
611.332	248.12
611.54	259.12
611.748	249.12
611.955	240.12
612.163	251.12
612.371	234.12
612.579	261.12
612.787	229.12
612.995	243.12
613.203	244.12
613.411	232.12
613.618	252.12
613.826	235.12
614.034	241.12
614.242	237.12
614.449	228.12
614.657	236.12
614.865	248.12
615.072	261.12
615.28	256.12
615.488	243.12
615.695	244.12
615.903	259.12
616.111	247.12
616.318	257.12
616.526	252.12
616.733	259.12
616.941	246.12
617.148	245.12
617.356	227.12
617.563	239.12
617.771	249.12
617.978	232.12
618.185	236.12
618.393	235.12
618.6	235.12
618.807	241.12
619.015	239.12
619.222	236.12
619.429	220.12
619.637	239.12
619.844	235.12
620.051	230.12
620.258	217.12
620.466	239.12
620.673	223.12
620.88	225.12
621.087	216.12
621.294	215.12
621.501	214.12
621.708	229.12
621.915	238.12
622.122	234.12
622.329	218.12
622.536	228.12
622.743	234.12
622.95	218.12
623.157	219.12
623.364	223.12
623.571	220.12
623.778	215.12
623.985	228.12
624.192	219.12
624.399	236.12
624.606	213.12
624.812	222.12
625.019	209.12
625.226	229.12
625.433	210.12
625.639	205.12
625.846	211.12
626.053	194.12
626.259	212.12
626.466	209.12
626.673	216.12
626.879	217.12
627.086	200.12
627.293	216.12
627.499	203.12
627.706	209.12
627.912	204.12
628.119	207.12
628.325	212.12
628.532	190.12
628.738	198.12
628.945	202.12
629.151	214.12
629.357	206.12
629.564	213.12
629.77	207.12
629.976	211.12
630.183	201.12
630.389	208.12
630.595	189.12
630.802	199.12
631.008	205.12
631.214	198.12
631.42	199.12
631.627	199.12
631.833	190.12
632.039	194.12
632.245	180.12
632.451	208.12
632.657	187.12
632.863	189.12
633.069	191.12
633.275	195.12
633.481	193.12
633.688	184.12
633.893	209.12
634.099	191.12
634.305	198.12
634.511	175.12
634.717	197.12
634.923	187.12
635.129	213.12
635.335	193.12
635.541	202.12
635.747	199.12
635.952	192.12
636.158	191.12
636.364	203.12
636.57	185.12
636.775	187.12
636.981	186.12
637.187	199.12
637.392	194.12
637.598	175.12
637.804	195.12
638.009	187.12
638.215	202.12
638.421	190.12
638.626	172.12
638.832	171.12
639.037	177.12
639.243	187.12
639.448	167.12
639.654	185.12
639.859	187.12
640.065	185.12
640.27	188.12
640.475	168.12
640.681	195.12
640.886	171.12
641.091	174.12
641.297	180.12
641.502	186.12
641.707	189.12
641.913	189.12
642.118	168.12
642.323	162.12
642.528	172.12
642.733	167.12
642.939	174.12
643.144	180.12
643.349	163.12
643.554	173.12
643.759	186.12
643.964	165.12
644.169	168.12
644.374	192.12
644.579	187.12
644.784	179.12
644.989	192.12
645.194	191.12
645.399	168.12
645.604	169.12
645.809	189.12
646.014	172.12
646.219	170.12
646.423	179.12
646.628	179.12
646.833	177.12
647.038	175.12
647.243	184.12
647.447	169.12
647.652	200.12
647.857	181.12
648.062	198.12
648.266	164.12
648.471	187.12
648.676	179.12
648.88	188.12
649.085	200.12
649.289	165.12
649.494	172.12
649.698	196.12
649.903	185.12
650.107	176.12
650.312	181.12
650.516	165.12
650.721	177.12
650.925	165.12
651.13	167.12
651.334	164.12
651.539	172.12
651.743	166.12
651.947	155.12
652.152	175.12
652.356	173.12
652.56	164.12
652.764	164.12
652.969	160.12
653.173	156.12
653.377	164.12
653.581	163.12
653.785	160.12
653.99	154.12
654.194	148.12
654.398	161.12
654.602	156.12
654.806	159.12
655.01	166.12
655.214	166.12
655.418	185.12
655.622	170.12
655.826	175.12
656.03	189.12
656.234	183.12
656.438	185.12
656.642	170.12
656.846	164.12
657.049	174.12
657.253	169.12
657.457	156.12
657.661	152.12
657.865	144.12
658.068	141.12
658.272	137.12
658.476	131.12
658.68	117.12
658.883	119.12
659.087	113.12
659.291	110.12
659.494	121.12
659.698	108.12
659.901	107.12
660.105	96.12
660.309	112.12
660.512	104.12
660.716	111.12
660.919	89.12
661.123	90.12
661.326	96.12
661.53	103.12
661.733	98.12
661.936	103.12
662.14	83.12
662.343	102.12
662.546	85.12
662.75	107.12
662.953	84.12
663.156	95.12
663.36	80.12
663.563	90.12
663.766	98.12
663.969	107.12
664.173	94.12
664.376	86.12
664.579	84.12
664.782	84.12
664.985	93.12
665.188	68.12
665.391	99.12
665.594	75.12
665.797	65.12
666	106.12
666.203	96.12
666.406	84.12
666.609	84.12
666.812	88.12
667.015	85.12
667.218	73.12
667.421	91.12
667.624	94.12
667.827	84.12
668.03	83.12
668.232	76.12
668.435	79.12
668.638	78.12
668.841	85.12
669.043	91.12
669.246	77.12
669.449	97.12
669.651	86.12
669.854	87.12
670.057	78.12
670.259	88.12
670.462	73.12
670.665	79.12
670.867	73.12
671.07	87.12
671.272	96.12
671.475	80.12
671.677	87.12
671.88	93.12
672.082	81.12
672.284	89.12
672.487	87.12
672.689	88.12
672.892	83.12
