Data from 1962.PennyLincolnUp.Lamp.En5.5.200Scan.071719.P1._HRD10591_13-55-50-061.txt Node
Date: Thu Jul 18 13:55:50 EDT 2019
User: cochatt
Spectrometer: HR+D1059
Trigger mode: 1
Integration Time (sec): 1.000000E-1
Scans to average: 1
Electric dark correction enabled: true
Nonlinearity correction enabled: false
Boxcar width: 0
XAxis mode: Wavelengths
Number of Pixels in Spectrum: 2048
>>>>>Begin Spectral Data<<<<<
223.165	-17.56
223.4	-17.56
223.635	-17.56
223.869	-24.56
224.104	-23.56
224.338	-2.56
224.573	-10.56
224.808	-15.56
225.042	-3.56
225.277	-10.56
225.511	-11.56
225.746	0.44
225.98	8.44
226.215	5.44
226.449	22.44
226.683	23.44
226.918	23.44
227.152	36.44
227.387	38.44
227.621	37.44
227.856	39.44
228.09	54.44
228.324	62.44
228.559	67.44
228.793	70.44
229.027	96.44
229.262	92.44
229.496	106.44
229.73	115.44
229.964	129.44
230.199	127.44
230.433	111.44
230.667	110.44
230.901	117.44
231.136	111.44
231.37	108.44
231.604	113.44
231.838	115.44
232.072	97.44
232.306	106.44
232.541	110.44
232.775	106.44
233.009	124.44
233.243	100.44
233.477	116.44
233.711	103.44
233.945	112.44
234.179	124.44
234.413	121.44
234.647	124.44
234.881	105.44
235.115	123.44
235.349	126.44
235.583	120.44
235.817	126.44
236.051	125.44
236.285	114.44
236.519	116.44
236.753	130.44
236.987	133.44
237.221	164.44
237.455	193.44
237.689	173.44
237.922	122.44
238.156	109.44
238.39	125.44
238.624	125.44
238.858	132.44
239.091	119.44
239.325	119.44
239.559	117.44
239.793	127.44
240.027	131.44
240.26	141.44
240.494	151.44
240.728	137.44
240.961	142.44
241.195	151.44
241.429	146.44
241.662	133.44
241.896	124.44
242.13	127.44
242.363	126.44
242.597	129.44
242.83	125.44
243.064	140.44
243.298	134.44
243.531	142.44
243.765	148.44
243.998	132.44
244.232	138.44
244.465	142.44
244.699	138.44
244.932	146.44
245.166	144.44
245.399	139.44
245.633	135.44
245.866	139.44
246.099	142.44
246.333	156.44
246.566	156.44
246.8	150.44
247.033	154.44
247.266	164.44
247.5	151.44
247.733	159.44
247.966	186.44
248.2	164.44
248.433	174.44
248.666	153.44
248.899	144.44
249.133	188.44
249.366	198.44
249.599	185.44
249.832	167.44
250.066	181.44
250.299	172.44
250.532	194.44
250.765	176.44
250.998	199.44
251.231	194.44
251.465	197.44
251.698	186.44
251.931	190.44
252.164	181.44
252.397	189.44
252.63	192.44
252.863	183.44
253.096	190.44
253.329	198.44
253.562	190.44
253.795	201.44
254.028	207.44
254.261	191.44
254.494	192.44
254.727	222.44
254.96	238.44
255.193	237.44
255.426	224.44
255.659	194.44
255.892	211.44
256.124	209.44
256.357	226.44
256.59	209.44
256.823	195.44
257.056	206.44
257.289	194.44
257.521	199.44
257.754	178.44
257.987	193.44
258.22	207.44
258.452	199.44
258.685	183.44
258.918	199.44
259.151	204.44
259.383	192.44
259.616	207.44
259.849	218.44
260.081	211.44
260.314	229.44
260.547	238.44
260.779	227.44
261.012	222.44
261.244	215.44
261.477	213.44
261.71	212.44
261.942	213.44
262.175	220.44
262.407	220.44
262.64	211.44
262.872	204.44
263.105	218.44
263.337	214.44
263.57	204.44
263.802	215.44
264.035	212.44
264.267	197.44
264.499	197.44
264.732	217.44
264.964	203.44
265.197	212.44
265.429	217.44
265.661	206.44
265.894	210.44
266.126	218.44
266.358	227.44
266.591	229.44
266.823	231.44
267.055	217.44
267.287	213.44
267.52	224.44
267.752	225.44
267.984	218.44
268.216	215.44
268.448	219.44
268.681	243.44
268.913	247.44
269.145	247.44
269.377	247.44
269.609	270.44
269.841	253.44
270.073	267.44
270.306	276.44
270.538	305.44
270.77	275.44
271.002	281.44
271.234	265.44
271.466	281.44
271.698	293.44
271.93	276.44
272.162	297.44
272.394	282.44
272.626	290.44
272.858	262.44
273.09	249.44
273.322	281.44
273.553	262.44
273.785	258.44
274.017	256.44
274.249	250.44
274.481	252.44
274.713	265.44
274.945	254.44
275.176	249.44
275.408	258.44
275.64	273.44
275.872	279.44
276.104	264.44
276.335	263.44
276.567	267.44
276.799	267.44
277.031	292.44
277.262	282.44
277.494	294.44
277.726	291.44
277.957	279.44
278.189	274.44
278.421	282.44
278.652	272.44
278.884	282.44
279.115	284.44
279.347	269.44
279.579	270.44
279.81	270.44
280.042	272.44
280.273	275.44
280.505	267.44
280.736	270.44
280.968	259.44
281.199	281.44
281.431	258.44
281.662	278.44
281.894	285.44
282.125	275.44
282.356	276.44
282.588	283.44
282.819	295.44
283.051	282.44
283.282	249.44
283.513	266.44
283.745	290.44
283.976	281.44
284.207	282.44
284.439	279.44
284.67	287.44
284.901	302.44
285.132	291.44
285.364	290.44
285.595	281.44
285.826	277.44
286.057	302.44
286.288	298.44
286.52	285.44
286.751	288.44
286.982	280.44
287.213	291.44
287.444	285.44
287.675	307.44
287.906	308.44
288.138	313.44
288.369	312.44
288.6	305.44
288.831	311.44
289.062	304.44
289.293	313.44
289.524	293.44
289.755	283.44
289.986	298.44
290.217	279.44
290.448	300.44
290.679	299.44
290.91	305.44
291.141	305.44
291.371	319.44
291.602	282.44
291.833	287.44
292.064	303.44
292.295	281.44
292.526	295.44
292.757	282.44
292.987	300.44
293.218	299.44
293.449	289.44
293.68	310.44
293.91	301.44
294.141	291.44
294.372	307.44
294.603	328.44
294.833	313.44
295.064	309.44
295.295	307.44
295.525	314.44
295.756	298.44
295.987	309.44
296.217	319.44
296.448	309.44
296.679	308.44
296.909	329.44
297.14	314.44
297.37	329.44
297.601	317.44
297.831	310.44
298.062	331.44
298.292	305.44
298.523	306.44
298.753	300.44
298.984	324.44
299.214	312.44
299.445	338.44
299.675	326.44
299.905	319.44
300.136	311.44
300.366	321.44
300.597	318.44
300.827	332.44
301.057	329.44
301.288	347.44
301.518	335.44
301.748	345.44
301.979	329.44
302.209	334.44
302.439	333.44
302.669	343.44
302.9	347.44
303.13	344.44
303.36	332.44
303.59	345.44
303.82	351.44
304.051	347.44
304.281	351.44
304.511	335.44
304.741	335.44
304.971	348.44
305.201	345.44
305.431	348.44
305.661	325.44
305.891	328.44
306.121	353.44
306.352	360.44
306.582	339.44
306.812	321.44
307.042	351.44
307.272	358.44
307.502	346.44
307.731	326.44
307.961	323.44
308.191	336.44
308.421	343.44
308.651	347.44
308.881	337.44
309.111	369.44
309.341	331.44
309.571	358.44
309.8	371.44
310.03	361.44
310.26	365.44
310.49	342.44
310.72	369.44
310.949	371.44
311.179	385.44
311.409	390.44
311.639	389.44
311.868	391.44
312.098	379.44
312.328	367.44
312.557	389.44
312.787	395.44
313.017	396.44
313.246	390.44
313.476	393.44
313.706	378.44
313.935	376.44
314.165	394.44
314.394	414.44
314.624	377.44
314.853	363.44
315.083	393.44
315.312	383.44
315.542	379.44
315.771	364.44
316.001	378.44
316.23	377.44
316.46	398.44
316.689	367.44
316.919	381.44
317.148	379.44
317.377	396.44
317.607	381.44
317.836	387.44
318.065	380.44
318.295	388.44
318.524	365.44
318.753	371.44
318.983	356.44
319.212	374.44
319.441	387.44
319.67	378.44
319.9	379.44
320.129	395.44
320.358	395.44
320.587	353.44
320.816	377.44
321.046	377.44
321.275	401.44
321.504	408.44
321.733	394.44
321.962	414.44
322.191	418.44
322.42	403.44
322.649	410.44
322.878	419.44
323.108	425.44
323.337	436.44
323.566	448.44
323.795	471.44
324.024	500.44
324.253	601.44
324.482	737.44
324.71	1110.44
324.939	1555.44
325.168	1387.44
325.397	765.44
325.626	550.44
325.855	484.44
326.084	459.44
326.313	457.44
326.542	467.44
326.77	513.44
326.999	542.44
327.228	701.44
327.457	1002.44
327.686	1265.44
327.914	828.44
328.143	585.44
328.372	537.44
328.6	505.44
328.829	497.44
329.058	525.44
329.287	523.44
329.515	504.44
329.744	476.44
329.972	486.44
330.201	489.44
330.43	523.44
330.658	521.44
330.887	554.44
331.115	520.44
331.344	478.44
331.572	461.44
331.801	490.44
332.03	466.44
332.258	467.44
332.486	456.44
332.715	449.44
332.943	474.44
333.172	483.44
333.4	503.44
333.629	487.44
333.857	512.44
334.085	509.44
334.314	500.44
334.542	513.44
334.771	524.44
334.999	490.44
335.227	483.44
335.455	461.44
335.684	483.44
335.912	471.44
336.14	475.44
336.369	460.44
336.597	465.44
336.825	477.44
337.053	439.44
337.281	466.44
337.51	461.44
337.738	439.44
337.966	449.44
338.194	443.44
338.422	441.44
338.65	443.44
338.878	451.44
339.106	426.44
339.334	457.44
339.562	440.44
339.79	434.44
340.018	436.44
340.246	426.44
340.474	440.44
340.702	430.44
340.93	427.44
341.158	428.44
341.386	445.44
341.614	430.44
341.842	431.44
342.07	416.44
342.298	437.44
342.526	433.44
342.754	429.44
342.981	422.44
343.209	426.44
343.437	428.44
343.665	440.44
343.893	448.44
344.12	457.44
344.348	479.44
344.576	463.44
344.804	466.44
345.031	451.44
345.259	440.44
345.487	427.44
345.714	407.44
345.942	415.44
346.17	412.44
346.397	417.44
346.625	409.44
346.853	410.44
347.08	396.44
347.308	420.44
347.535	417.44
347.763	425.44
347.99	422.44
348.218	410.44
348.445	408.44
348.673	414.44
348.9	394.44
349.128	398.44
349.355	394.44
349.583	407.44
349.81	425.44
350.037	397.44
350.265	405.44
350.492	386.44
350.72	421.44
350.947	409.44
351.174	397.44
351.402	415.44
351.629	418.44
351.856	394.44
352.083	399.44
352.311	379.44
352.538	420.44
352.765	416.44
352.992	404.44
353.22	399.44
353.447	394.44
353.674	426.44
353.901	380.44
354.128	390.44
354.355	408.44
354.583	396.44
354.81	398.44
355.037	397.44
355.264	376.44
355.491	394.44
355.718	402.44
355.945	385.44
356.172	387.44
356.399	404.44
356.626	406.44
356.853	389.44
357.08	413.44
357.307	405.44
357.534	405.44
357.761	372.44
357.988	385.44
358.215	400.44
358.441	391.44
358.668	392.44
358.895	398.44
359.122	398.44
359.349	393.44
359.576	423.44
359.802	437.44
360.029	440.44
360.256	451.44
360.483	407.44
360.709	421.44
360.936	415.44
361.163	424.44
361.39	428.44
361.616	419.44
361.843	393.44
362.07	407.44
362.296	391.44
362.523	395.44
362.749	406.44
362.976	402.44
363.203	409.44
363.429	416.44
363.656	394.44
363.882	412.44
364.109	395.44
364.335	390.44
364.562	393.44
364.788	391.44
365.015	402.44
365.241	399.44
365.468	407.44
365.694	389.44
365.92	399.44
366.147	425.44
366.373	423.44
366.599	422.44
366.826	394.44
367.052	392.44
367.278	387.44
367.505	403.44
367.731	386.44
367.957	393.44
368.184	405.44
368.41	414.44
368.636	409.44
368.862	427.44
369.089	387.44
369.315	409.44
369.541	402.44
369.767	397.44
369.993	405.44
370.219	397.44
370.445	408.44
370.672	409.44
370.898	391.44
371.124	398.44
371.35	399.44
371.576	404.44
371.802	431.44
372.028	412.44
372.254	412.44
372.48	382.44
372.706	421.44
372.932	423.44
373.158	421.44
373.384	406.44
373.61	430.44
373.835	413.44
374.061	406.44
374.287	414.44
374.513	423.44
374.739	426.44
374.965	422.44
375.191	417.44
375.416	434.44
375.642	438.44
375.868	426.44
376.094	407.44
376.319	426.44
376.545	405.44
376.771	407.44
376.997	405.44
377.222	410.44
377.448	392.44
377.674	417.44
377.899	391.44
378.125	407.44
378.35	408.44
378.576	402.44
378.802	393.44
379.027	401.44
379.253	403.44
379.478	404.44
379.704	413.44
379.929	378.44
380.155	406.44
380.38	389.44
380.606	398.44
380.831	411.44
381.057	420.44
381.282	405.44
381.507	400.44
381.733	413.44
381.958	428.44
382.184	439.44
382.409	428.44
382.634	425.44
382.86	439.44
383.085	425.44
383.31	435.44
383.535	430.44
383.761	420.44
383.986	408.44
384.211	434.44
384.436	433.44
384.662	437.44
384.887	451.44
385.112	453.44
385.337	468.44
385.562	454.44
385.787	462.44
386.013	483.44
386.238	458.44
386.463	461.44
386.688	461.44
386.913	442.44
387.138	469.44
387.363	467.44
387.588	455.44
387.813	455.44
388.038	462.44
388.263	467.44
388.488	487.44
388.713	464.44
388.938	469.44
389.163	474.44
389.387	463.44
389.612	459.44
389.837	462.44
390.062	448.44
390.287	460.44
390.512	471.44
390.736	458.44
390.961	439.44
391.186	460.44
391.411	471.44
391.636	488.44
391.86	484.44
392.085	497.44
392.31	514.44
392.534	476.44
392.759	478.44
392.984	489.44
393.208	484.44
393.433	459.44
393.658	495.44
393.882	460.44
394.107	487.44
394.331	469.44
394.556	455.44
394.78	477.44
395.005	493.44
395.229	481.44
395.454	489.44
395.678	502.44
395.903	466.44
396.127	499.44
396.352	508.44
396.576	500.44
396.801	470.44
397.025	481.44
397.249	511.44
397.474	525.44
397.698	494.44
397.922	531.44
398.147	513.44
398.371	531.44
398.595	539.44
398.82	534.44
399.044	573.44
399.268	596.44
399.492	651.44
399.717	671.44
399.941	692.44
400.165	677.44
400.389	682.44
400.613	620.44
400.837	577.44
401.062	567.44
401.286	554.44
401.51	553.44
401.734	534.44
401.958	553.44
402.182	531.44
402.406	551.44
402.63	578.44
402.854	568.44
403.078	555.44
403.302	564.44
403.526	586.44
403.75	573.44
403.974	585.44
404.198	587.44
404.422	580.44
404.645	583.44
404.869	600.44
405.093	609.44
405.317	636.44
405.541	675.44
405.765	620.44
405.988	588.44
406.212	593.44
406.436	611.44
406.66	589.44
406.883	605.44
407.107	619.44
407.331	697.44
407.555	755.44
407.778	724.44
408.002	689.44
408.226	638.44
408.449	612.44
408.673	635.44
408.896	629.44
409.12	667.44
409.344	637.44
409.567	599.44
409.791	590.44
410.014	595.44
410.238	586.44
410.461	560.44
410.685	599.44
410.908	585.44
411.132	579.44
411.355	622.44
411.578	624.44
411.802	584.44
412.025	563.44
412.249	594.44
412.472	591.44
412.695	625.44
412.919	591.44
413.142	551.44
413.365	532.44
413.589	544.44
413.812	533.44
414.035	530.44
414.258	553.44
414.482	543.44
414.705	521.44
414.928	563.44
415.151	547.44
415.374	532.44
415.597	522.44
415.821	521.44
416.044	543.44
416.267	532.44
416.49	542.44
416.713	538.44
416.936	551.44
417.159	533.44
417.382	544.44
417.605	502.44
417.828	544.44
418.051	548.44
418.274	550.44
418.497	539.44
418.72	547.44
418.943	536.44
419.166	561.44
419.389	610.44
419.611	581.44
419.834	575.44
420.057	580.44
420.28	566.44
420.503	559.44
420.726	558.44
420.948	562.44
421.171	584.44
421.394	604.44
421.617	580.44
421.839	558.44
422.062	555.44
422.285	584.44
422.507	627.44
422.73	670.44
422.953	635.44
423.175	575.44
423.398	577.44
423.621	573.44
423.843	591.44
424.066	589.44
424.288	596.44
424.511	603.44
424.733	637.44
424.956	705.44
425.178	668.44
425.401	672.44
425.623	689.44
425.846	601.44
426.068	587.44
426.291	547.44
426.513	561.44
426.735	565.44
426.958	621.44
427.18	656.44
427.402	799.44
427.625	863.44
427.847	694.44
428.069	613.44
428.292	570.44
428.514	549.44
428.736	519.44
428.958	527.44
429.181	529.44
429.403	527.44
429.625	541.44
429.847	555.44
430.069	596.44
430.292	610.44
430.514	535.44
430.736	517.44
430.958	512.44
431.18	524.44
431.402	497.44
431.624	503.44
431.846	526.44
432.068	523.44
432.29	531.44
432.512	514.44
432.734	524.44
432.956	513.44
433.178	526.44
433.4	523.44
433.622	524.44
433.844	522.44
434.066	489.44
434.287	488.44
434.509	532.44
434.731	520.44
434.953	553.44
435.175	543.44
435.397	562.44
435.618	567.44
435.84	591.44
436.062	683.44
436.284	703.44
436.505	636.44
436.727	573.44
436.949	536.44
437.17	499.44
437.392	535.44
437.614	523.44
437.835	550.44
438.057	622.44
438.278	710.44
438.5	708.44
438.721	782.44
438.943	727.44
439.165	610.44
439.386	562.44
439.608	574.44
439.829	546.44
440.05	563.44
440.272	607.44
440.493	591.44
440.715	561.44
440.936	549.44
441.158	545.44
441.379	533.44
441.6	542.44
441.822	557.44
442.043	602.44
442.264	655.44
442.486	684.44
442.707	625.44
442.928	574.44
443.149	591.44
443.371	589.44
443.592	643.44
443.813	699.44
444.034	748.44
444.255	646.44
444.476	603.44
444.698	613.44
444.919	641.44
445.14	735.44
445.361	676.44
445.582	623.44
445.803	648.44
446.024	710.44
446.245	710.44
446.466	642.44
446.687	584.44
446.908	570.44
447.129	550.44
447.35	503.44
447.571	516.44
447.792	508.44
448.013	503.44
448.234	522.44
448.455	556.44
448.675	639.44
448.896	753.44
449.117	636.44
449.338	606.44
449.559	666.44
449.779	782.44
450	641.44
450.221	574.44
450.442	499.44
450.662	503.44
450.883	488.44
451.104	503.44
451.324	489.44
451.545	479.44
451.766	462.44
451.986	449.44
452.207	457.44
452.428	459.44
452.648	440.44
452.869	465.44
453.089	456.44
453.31	477.44
453.53	461.44
453.751	469.44
453.971	467.44
454.192	481.44
454.412	469.44
454.633	468.44
454.853	465.44
455.073	472.44
455.294	492.44
455.514	537.44
455.734	518.44
455.955	455.44
456.175	455.44
456.395	419.44
456.616	443.44
456.836	446.44
457.056	439.44
457.276	439.44
457.497	458.44
457.717	447.44
457.937	455.44
458.157	458.44
458.377	475.44
458.598	481.44
458.818	507.44
459.038	553.44
459.258	585.44
459.478	533.44
459.698	510.44
459.918	528.44
460.138	526.44
460.358	562.44
460.578	557.44
460.798	561.44
461.018	553.44
461.238	545.44
461.458	548.44
461.678	547.44
461.898	540.44
462.118	558.44
462.338	573.44
462.558	579.44
462.777	587.44
462.997	616.44
463.217	630.44
463.437	629.44
463.657	598.44
463.876	605.44
464.096	587.44
464.316	593.44
464.536	587.44
464.755	598.44
464.975	589.44
465.195	583.44
465.414	591.44
465.634	540.44
465.854	556.44
466.073	505.44
466.293	511.44
466.512	502.44
466.732	470.44
466.951	508.44
467.171	497.44
467.391	495.44
467.61	478.44
467.829	504.44
468.049	511.44
468.268	483.44
468.488	482.44
468.707	472.44
468.927	465.44
469.146	460.44
469.365	475.44
469.585	460.44
469.804	494.44
470.023	513.44
470.243	485.44
470.462	507.44
470.681	494.44
470.901	511.44
471.12	491.44
471.339	493.44
471.558	482.44
471.777	505.44
471.997	481.44
472.216	491.44
472.435	489.44
472.654	492.44
472.873	481.44
473.092	465.44
473.311	482.44
473.53	496.44
473.749	519.44
473.968	519.44
474.187	574.44
474.406	604.44
474.625	507.44
474.844	501.44
475.063	481.44
475.282	472.44
475.501	475.44
475.72	495.44
475.939	522.44
476.158	501.44
476.377	493.44
476.596	500.44
476.814	491.44
477.033	531.44
477.252	524.44
477.471	513.44
477.69	504.44
477.908	546.44
478.127	532.44
478.346	549.44
478.564	557.44
478.783	561.44
479.002	548.44
479.22	576.44
479.439	584.44
479.658	581.44
479.876	577.44
480.095	588.44
480.313	632.44
480.532	633.44
480.751	637.44
480.969	601.44
481.188	629.44
481.406	644.44
481.624	590.44
481.843	589.44
482.061	588.44
482.28	576.44
482.498	567.44
482.717	569.44
482.935	540.44
483.153	584.44
483.372	577.44
483.59	541.44
483.808	573.44
484.027	564.44
484.245	565.44
484.463	581.44
484.681	568.44
484.9	564.44
485.118	563.44
485.336	580.44
485.554	595.44
485.772	577.44
485.99	597.44
486.209	599.44
486.427	611.44
486.645	591.44
486.863	583.44
487.081	607.44
487.299	588.44
487.517	607.44
487.735	591.44
487.953	606.44
488.171	587.44
488.389	610.44
488.607	602.44
488.825	569.44
489.043	574.44
489.261	603.44
489.479	602.44
489.696	615.44
489.914	628.44
490.132	624.44
490.35	627.44
490.568	618.44
490.786	624.44
491.003	632.44
491.221	638.44
491.439	670.44
491.657	651.44
491.874	666.44
492.092	641.44
492.31	657.44
492.527	696.44
492.745	668.44
492.963	661.44
493.18	666.44
493.398	678.44
493.615	665.44
493.833	662.44
494.05	682.44
494.268	703.44
494.485	692.44
494.703	693.44
494.92	705.44
495.138	653.44
495.355	689.44
495.573	710.44
495.79	673.44
496.008	713.44
496.225	688.44
496.442	695.44
496.66	711.44
496.877	711.44
497.094	738.44
497.312	725.44
497.529	730.44
497.746	743.44
497.963	753.44
498.181	780.44
498.398	794.44
498.615	812.44
498.832	854.44
499.049	897.44
499.267	905.44
499.484	946.44
499.701	1013.44
499.918	1057.44
500.135	1145.44
500.352	1190.44
500.569	1250.44
500.786	1237.44
501.003	1195.44
501.22	1148.44
501.437	1107.44
501.654	999.44
501.871	980.44
502.088	922.44
502.305	879.44
502.522	876.44
502.739	840.44
502.956	826.44
503.172	774.44
503.389	758.44
503.606	754.44
503.823	744.44
504.04	750.44
504.256	733.44
504.473	726.44
504.69	739.44
504.907	737.44
505.123	714.44
505.34	713.44
505.557	676.44
505.773	693.44
505.99	667.44
506.207	651.44
506.423	667.44
506.64	665.44
506.856	640.44
507.073	631.44
507.289	616.44
507.506	622.44
507.722	645.44
507.939	659.44
508.155	623.44
508.372	606.44
508.588	620.44
508.805	602.44
509.021	590.44
509.238	605.44
509.454	593.44
509.67	633.44
509.887	629.44
510.103	612.44
510.319	592.44
510.536	703.44
510.752	934.44
510.968	816.44
511.184	599.44
511.401	586.44
511.617	594.44
511.833	563.44
512.049	580.44
512.265	581.44
512.481	554.44
512.698	568.44
512.914	590.44
513.13	567.44
513.346	574.44
513.562	584.44
513.778	593.44
513.994	581.44
514.21	579.44
514.426	609.44
514.642	623.44
514.858	612.44
515.074	630.44
515.29	707.44
515.506	886.44
515.721	789.44
515.937	642.44
516.153	637.44
516.369	610.44
516.585	620.44
516.801	607.44
517.016	641.44
517.232	635.44
517.448	668.44
517.664	643.44
517.879	667.44
518.095	663.44
518.311	662.44
518.527	647.44
518.742	619.44
518.958	629.44
519.173	609.44
519.389	627.44
519.605	595.44
519.82	583.44
520.036	596.44
520.251	602.44
520.467	601.44
520.682	588.44
520.898	606.44
521.113	617.44
521.329	633.44
521.544	655.44
521.76	753.44
521.975	1037.44
522.19	1020.44
522.406	648.44
522.621	593.44
522.836	575.44
523.052	564.44
523.267	532.44
523.482	528.44
523.698	531.44
523.913	535.44
524.128	527.44
524.343	517.44
524.559	502.44
524.774	510.44
524.989	517.44
525.204	528.44
525.419	521.44
525.634	508.44
525.849	510.44
526.064	516.44
526.28	490.44
526.495	488.44
526.71	508.44
526.925	491.44
527.14	487.44
527.355	503.44
527.57	476.44
527.785	503.44
527.999	469.44
528.214	490.44
528.429	502.44
528.644	498.44
528.859	485.44
529.074	505.44
529.289	488.44
529.503	520.44
529.718	533.44
529.933	501.44
530.148	503.44
530.363	489.44
530.577	495.44
530.792	475.44
531.007	496.44
531.221	490.44
531.436	471.44
531.651	482.44
531.865	469.44
532.08	470.44
532.295	448.44
532.509	484.44
532.724	487.44
532.938	485.44
533.153	474.44
533.367	481.44
533.582	493.44
533.796	462.44
534.011	472.44
534.225	476.44
534.44	476.44
534.654	473.44
534.868	484.44
535.083	478.44
535.297	481.44
535.511	471.44
535.726	481.44
535.94	464.44
536.154	475.44
536.369	459.44
536.583	447.44
536.797	481.44
537.011	460.44
537.225	463.44
537.44	462.44
537.654	461.44
537.868	442.44
538.082	449.44
538.296	461.44
538.51	454.44
538.724	456.44
538.938	447.44
539.153	436.44
539.367	470.44
539.581	466.44
539.795	438.44
540.009	453.44
540.222	441.44
540.436	450.44
540.65	455.44
540.864	449.44
541.078	479.44
541.292	450.44
541.506	461.44
541.72	469.44
541.934	436.44
542.147	468.44
542.361	459.44
542.575	459.44
542.789	442.44
543.002	452.44
543.216	447.44
543.43	453.44
543.644	457.44
543.857	440.44
544.071	443.44
544.285	430.44
544.498	452.44
544.712	458.44
544.925	472.44
545.139	472.44
545.352	445.44
545.566	434.44
545.779	433.44
545.993	437.44
546.206	449.44
546.42	453.44
546.633	436.44
546.847	433.44
547.06	439.44
547.274	435.44
547.487	430.44
547.7	449.44
547.914	441.44
548.127	434.44
548.34	441.44
548.554	452.44
548.767	451.44
548.98	441.44
549.193	457.44
549.407	436.44
549.62	452.44
549.833	439.44
550.046	453.44
550.259	438.44
550.473	439.44
550.686	447.44
550.899	458.44
551.112	451.44
551.325	440.44
551.538	452.44
551.751	435.44
551.964	425.44
552.177	440.44
552.39	443.44
552.603	432.44
552.816	455.44
553.029	473.44
553.242	458.44
553.455	466.44
553.667	471.44
553.88	451.44
554.093	469.44
554.306	467.44
554.519	448.44
554.732	437.44
554.944	433.44
555.157	414.44
555.37	430.44
555.583	426.44
555.795	417.44
556.008	420.44
556.221	400.44
556.433	399.44
556.646	416.44
556.859	393.44
557.071	390.44
557.284	395.44
557.496	406.44
557.709	391.44
557.921	393.44
558.134	409.44
558.346	399.44
558.559	406.44
558.771	387.44
558.984	390.44
559.196	405.44
559.409	410.44
559.621	388.44
559.833	405.44
560.046	388.44
560.258	401.44
560.47	373.44
560.683	390.44
560.895	398.44
561.107	395.44
561.32	398.44
561.532	406.44
561.744	380.44
561.956	390.44
562.168	387.44
562.381	379.44
562.593	376.44
562.805	401.44
563.017	410.44
563.229	395.44
563.441	387.44
563.653	400.44
563.865	405.44
564.077	409.44
564.289	396.44
564.501	410.44
564.713	423.44
564.925	425.44
565.137	442.44
565.349	429.44
565.561	426.44
565.773	450.44
565.985	453.44
566.197	482.44
566.408	493.44
566.62	519.44
566.832	531.44
567.044	546.44
567.255	536.44
567.467	555.44
567.679	561.44
567.891	589.44
568.102	576.44
568.314	575.44
568.526	547.44
568.737	530.44
568.949	488.44
569.161	489.44
569.372	450.44
569.584	431.44
569.795	439.44
570.007	418.44
570.218	446.44
570.43	426.44
570.641	407.44
570.853	399.44
571.064	416.44
571.276	409.44
571.487	384.44
571.698	396.44
571.91	377.44
572.121	370.44
572.333	382.44
572.544	365.44
572.755	356.44
572.966	387.44
573.178	361.44
573.389	357.44
573.6	356.44
573.811	361.44
574.023	338.44
574.234	358.44
574.445	354.44
574.656	350.44
574.867	349.44
575.078	335.44
575.289	346.44
575.501	351.44
575.712	335.44
575.923	345.44
576.134	350.44
576.345	346.44
576.556	347.44
576.767	344.44
576.978	332.44
577.188	355.44
577.399	353.44
577.61	333.44
577.821	353.44
578.032	315.44
578.243	350.44
578.454	441.44
578.665	381.44
578.875	333.44
579.086	332.44
579.297	317.44
579.508	308.44
579.718	333.44
579.929	307.44
580.14	308.44
580.35	306.44
580.561	319.44
580.772	328.44
580.982	321.44
581.193	345.44
581.403	307.44
581.614	324.44
581.825	321.44
582.035	326.44
582.246	324.44
582.456	306.44
582.667	314.44
582.877	299.44
583.087	310.44
583.298	296.44
583.508	301.44
583.719	315.44
583.929	309.44
584.139	302.44
584.35	287.44
584.56	316.44
584.77	313.44
584.981	314.44
585.191	300.44
585.401	296.44
585.611	298.44
585.821	315.44
586.032	301.44
586.242	305.44
586.452	295.44
586.662	293.44
586.872	306.44
587.082	303.44
587.292	314.44
587.502	314.44
587.713	301.44
587.923	317.44
588.133	287.44
588.343	294.44
588.553	285.44
588.762	300.44
588.972	286.44
589.182	326.44
589.392	306.44
589.602	293.44
589.812	322.44
590.022	317.44
590.232	300.44
590.441	305.44
590.651	307.44
590.861	293.44
591.071	308.44
591.281	295.44
591.49	341.44
591.7	300.44
591.91	327.44
592.119	328.44
592.329	326.44
592.539	322.44
592.748	340.44
592.958	326.44
593.167	332.44
593.377	340.44
593.587	360.44
593.796	346.44
594.006	348.44
594.215	357.44
594.424	333.44
594.634	306.44
594.843	319.44
595.053	332.44
595.262	329.44
595.472	310.44
595.681	309.44
595.89	306.44
596.1	302.44
596.309	295.44
596.518	283.44
596.727	293.44
596.937	263.44
597.146	289.44
597.355	267.44
597.564	267.44
597.774	283.44
597.983	277.44
598.192	299.44
598.401	268.44
598.61	247.44
598.819	289.44
599.028	256.44
599.237	281.44
599.446	277.44
599.655	258.44
599.864	265.44
600.073	269.44
600.282	268.44
600.491	283.44
600.7	265.44
600.909	273.44
601.118	275.44
601.327	260.44
601.536	267.44
601.745	265.44
601.953	250.44
602.162	268.44
602.371	256.44
602.58	252.44
602.789	265.44
602.997	237.44
603.206	245.44
603.415	261.44
603.623	261.44
603.832	266.44
604.041	261.44
604.249	243.44
604.458	254.44
604.666	250.44
604.875	263.44
605.084	249.44
605.292	252.44
605.501	238.44
605.709	253.44
605.918	243.44
606.126	251.44
606.334	227.44
606.543	243.44
606.751	237.44
606.96	230.44
607.168	244.44
607.376	220.44
607.585	244.44
607.793	238.44
608.001	235.44
608.21	236.44
608.418	244.44
608.626	253.44
608.834	266.44
609.043	250.44
609.251	236.44
609.459	210.44
609.667	242.44
609.875	253.44
610.083	237.44
610.291	229.44
610.499	230.44
610.707	243.44
610.916	241.44
611.124	241.44
611.332	241.44
611.54	247.44
611.748	253.44
611.955	245.44
612.163	241.44
612.371	236.44
612.579	241.44
612.787	254.44
612.995	239.44
613.203	230.44
613.411	219.44
613.618	222.44
613.826	221.44
614.034	231.44
614.242	234.44
614.449	235.44
614.657	245.44
614.865	229.44
615.072	229.44
615.28	233.44
615.488	236.44
615.695	246.44
615.903	233.44
616.111	235.44
616.318	246.44
616.526	236.44
616.733	246.44
616.941	236.44
617.148	228.44
617.356	232.44
617.563	240.44
617.771	231.44
617.978	228.44
618.185	231.44
618.393	234.44
618.6	230.44
618.807	235.44
619.015	230.44
619.222	223.44
619.429	227.44
619.637	238.44
619.844	226.44
620.051	232.44
620.258	233.44
620.466	220.44
620.673	230.44
620.88	235.44
621.087	196.44
621.294	203.44
621.501	238.44
621.708	217.44
621.915	211.44
622.122	212.44
622.329	217.44
622.536	228.44
622.743	222.44
622.95	202.44
623.157	215.44
623.364	202.44
623.571	221.44
623.778	216.44
623.985	227.44
624.192	218.44
624.399	223.44
624.606	218.44
624.812	219.44
625.019	223.44
625.226	221.44
625.433	210.44
625.639	216.44
625.846	222.44
626.053	210.44
626.259	216.44
626.466	208.44
626.673	209.44
626.879	201.44
627.086	201.44
627.293	203.44
627.499	214.44
627.706	200.44
627.912	184.44
628.119	204.44
628.325	204.44
628.532	205.44
628.738	215.44
628.945	205.44
629.151	188.44
629.357	198.44
629.564	212.44
629.77	207.44
629.976	196.44
630.183	203.44
630.389	197.44
630.595	208.44
630.802	187.44
631.008	190.44
631.214	195.44
631.42	198.44
631.627	196.44
631.833	194.44
632.039	206.44
632.245	197.44
632.451	177.44
632.657	211.44
632.863	196.44
633.069	184.44
633.275	177.44
633.481	215.44
633.688	180.44
633.893	184.44
634.099	201.44
634.305	200.44
634.511	194.44
634.717	193.44
634.923	185.44
635.129	187.44
635.335	172.44
635.541	163.44
635.747	182.44
635.952	196.44
636.158	179.44
636.364	179.44
636.57	197.44
636.775	185.44
636.981	187.44
637.187	178.44
637.392	166.44
637.598	174.44
637.804	168.44
638.009	187.44
638.215	168.44
638.421	182.44
638.626	174.44
638.832	176.44
639.037	167.44
639.243	170.44
639.448	185.44
639.654	167.44
639.859	165.44
640.065	180.44
640.27	165.44
640.475	190.44
640.681	182.44
640.886	173.44
641.091	174.44
641.297	172.44
641.502	165.44
641.707	179.44
641.913	177.44
642.118	178.44
642.323	173.44
642.528	171.44
642.733	171.44
642.939	153.44
643.144	162.44
643.349	151.44
643.554	183.44
643.759	162.44
643.964	168.44
644.169	151.44
644.374	162.44
644.579	166.44
644.784	172.44
644.989	183.44
645.194	168.44
645.399	165.44
645.604	153.44
645.809	153.44
646.014	169.44
646.219	158.44
646.423	173.44
646.628	162.44
646.833	167.44
647.038	158.44
647.243	183.44
647.447	167.44
647.652	198.44
647.857	169.44
648.062	179.44
648.266	174.44
648.471	176.44
648.676	175.44
648.88	177.44
649.085	165.44
649.289	169.44
649.494	159.44
649.698	185.44
649.903	177.44
650.107	159.44
650.312	163.44
650.516	157.44
650.721	169.44
650.925	156.44
651.13	153.44
651.334	142.44
651.539	155.44
651.743	164.44
651.947	139.44
652.152	145.44
652.356	145.44
652.56	143.44
652.764	149.44
652.969	154.44
653.173	155.44
653.377	147.44
653.581	151.44
653.785	139.44
653.99	142.44
654.194	136.44
654.398	126.44
654.602	150.44
654.806	130.44
655.01	140.44
655.214	148.44
655.418	140.44
655.622	133.44
655.826	144.44
656.03	123.44
656.234	137.44
656.438	136.44
656.642	156.44
656.846	139.44
657.049	143.44
657.253	133.44
657.457	137.44
657.661	127.44
657.865	121.44
658.068	121.44
658.272	117.44
658.476	123.44
658.68	98.44
658.883	109.44
659.087	105.44
659.291	102.44
659.494	110.44
659.698	103.44
659.901	99.44
660.105	94.44
660.309	98.44
660.512	95.44
660.716	94.44
660.919	100.44
661.123	102.44
661.326	88.44
661.53	99.44
661.733	89.44
661.936	93.44
662.14	95.44
662.343	96.44
662.546	82.44
662.75	86.44
662.953	84.44
663.156	90.44
663.36	102.44
663.563	90.44
663.766	79.44
663.969	90.44
664.173	79.44
664.376	92.44
664.579	86.44
664.782	80.44
664.985	70.44
665.188	86.44
665.391	81.44
665.594	84.44
665.797	95.44
666	77.44
666.203	91.44
666.406	91.44
666.609	88.44
666.812	75.44
667.015	83.44
667.218	84.44
667.421	86.44
667.624	97.44
667.827	83.44
668.03	92.44
668.232	85.44
668.435	78.44
668.638	92.44
668.841	103.44
669.043	86.44
669.246	96.44
669.449	93.44
669.651	87.44
669.854	72.44
670.057	88.44
670.259	85.44
670.462	86.44
670.665	98.44
670.867	83.44
671.07	89.44
671.272	90.44
671.475	74.44
671.677	83.44
671.88	85.44
672.082	79.44
672.284	93.44
672.487	75.44
672.689	77.44
672.892	91.44
