Data from 1962.PennyLincolnUp.Lamp.En5.5.200Scan.071719.P1._HRD10591_13-52-48-060.txt Node
Date: Thu Jul 18 13:52:48 EDT 2019
User: cochatt
Spectrometer: HR+D1059
Trigger mode: 1
Integration Time (sec): 1.000000E-1
Scans to average: 1
Electric dark correction enabled: true
Nonlinearity correction enabled: false
Boxcar width: 0
XAxis mode: Wavelengths
Number of Pixels in Spectrum: 2048
>>>>>Begin Spectral Data<<<<<
223.165	-28
223.4	-28
223.635	-28
223.869	-17
224.104	-15
224.338	-5
224.573	-26
224.808	0
225.042	-16
225.277	-5
225.511	0
225.746	8
225.98	4
226.215	12
226.449	18
226.683	21
226.918	22
227.152	27
227.387	10
227.621	40
227.856	48
228.09	42
228.324	48
228.559	44
228.793	57
229.027	76
229.262	77
229.496	85
229.73	96
229.964	115
230.199	109
230.433	106
230.667	106
230.901	97
231.136	99
231.37	114
231.604	111
231.838	119
232.072	89
232.306	108
232.541	114
232.775	107
233.009	106
233.243	105
233.477	104
233.711	99
233.945	103
234.179	113
234.413	97
234.647	121
234.881	107
235.115	128
235.349	120
235.583	113
235.817	112
236.051	112
236.285	114
236.519	121
236.753	112
236.987	123
237.221	131
237.455	138
237.689	126
237.922	120
238.156	117
238.39	123
238.624	122
238.858	122
239.091	113
239.325	119
239.559	117
239.793	118
240.027	124
240.26	131
240.494	140
240.728	132
240.961	124
241.195	116
241.429	132
241.662	126
241.896	124
242.13	136
242.363	114
242.597	128
242.83	143
243.064	133
243.298	116
243.531	132
243.765	138
243.998	131
244.232	136
244.465	127
244.699	131
244.932	126
245.166	134
245.399	141
245.633	132
245.866	135
246.099	122
246.333	128
246.566	140
246.8	148
247.033	135
247.266	140
247.5	142
247.733	158
247.966	152
248.2	153
248.433	155
248.666	164
248.899	156
249.133	176
249.366	169
249.599	159
249.832	155
250.066	152
250.299	168
250.532	146
250.765	150
250.998	168
251.231	164
251.465	163
251.698	169
251.931	162
252.164	168
252.397	161
252.63	167
252.863	169
253.096	172
253.329	171
253.562	183
253.795	184
254.028	167
254.261	156
254.494	188
254.727	189
254.96	193
255.193	198
255.426	199
255.659	185
255.892	188
256.124	180
256.357	199
256.59	177
256.823	200
257.056	191
257.289	166
257.521	174
257.754	183
257.987	186
258.22	184
258.452	194
258.685	183
258.918	181
259.151	190
259.383	187
259.616	185
259.849	192
260.081	194
260.314	195
260.547	203
260.779	210
261.012	219
261.244	214
261.477	197
261.71	201
261.942	184
262.175	195
262.407	208
262.64	186
262.872	185
263.105	199
263.337	200
263.57	204
263.802	203
264.035	200
264.267	201
264.499	192
264.732	192
264.964	204
265.197	191
265.429	195
265.661	193
265.894	200
266.126	192
266.358	206
266.591	210
266.823	202
267.055	195
267.287	194
267.52	199
267.752	205
267.984	203
268.216	206
268.448	209
268.681	216
268.913	226
269.145	218
269.377	219
269.609	250
269.841	235
270.073	225
270.306	231
270.538	241
270.77	249
271.002	236
271.234	230
271.466	253
271.698	253
271.93	236
272.162	238
272.394	240
272.626	224
272.858	242
273.09	253
273.322	213
273.553	223
273.785	226
274.017	245
274.249	241
274.481	242
274.713	234
274.945	227
275.176	242
275.408	242
275.64	234
275.872	237
276.104	240
276.335	239
276.567	234
276.799	233
277.031	260
277.262	236
277.494	259
277.726	270
277.957	256
278.189	241
278.421	247
278.652	243
278.884	247
279.115	264
279.347	250
279.579	243
279.81	241
280.042	248
280.273	256
280.505	248
280.736	229
280.968	246
281.199	246
281.431	238
281.662	243
281.894	258
282.125	259
282.356	260
282.588	252
282.819	265
283.051	250
283.282	258
283.513	269
283.745	274
283.976	262
284.207	269
284.439	268
284.67	267
284.901	257
285.132	263
285.364	276
285.595	273
285.826	275
286.057	274
286.288	264
286.52	275
286.751	279
286.982	260
287.213	266
287.444	266
287.675	258
287.906	263
288.138	272
288.369	293
288.6	279
288.831	284
289.062	297
289.293	283
289.524	278
289.755	277
289.986	288
290.217	270
290.448	282
290.679	280
290.91	286
291.141	265
291.371	278
291.602	273
291.833	280
292.064	274
292.295	273
292.526	277
292.757	273
292.987	286
293.218	294
293.449	281
293.68	282
293.91	276
294.141	279
294.372	276
294.603	271
294.833	292
295.064	269
295.295	290
295.525	287
295.756	277
295.987	300
296.217	298
296.448	268
296.679	286
296.909	284
297.14	310
297.37	291
297.601	296
297.831	314
298.062	304
298.292	315
298.523	290
298.753	290
298.984	305
299.214	294
299.445	288
299.675	293
299.905	300
300.136	312
300.366	310
300.597	297
300.827	312
301.057	299
301.288	316
301.518	308
301.748	318
301.979	314
302.209	313
302.439	308
302.669	314
302.9	325
303.13	287
303.36	306
303.59	318
303.82	312
304.051	317
304.281	306
304.511	316
304.741	309
304.971	304
305.201	286
305.431	317
305.661	313
305.891	295
306.121	306
306.352	306
306.582	318
306.812	313
307.042	307
307.272	301
307.502	312
307.731	306
307.961	318
308.191	312
308.421	312
308.651	304
308.881	327
309.111	320
309.341	309
309.571	307
309.8	320
310.03	329
310.26	340
310.49	333
310.72	348
310.949	342
311.179	342
311.409	323
311.639	336
311.868	315
312.098	314
312.328	345
312.557	352
312.787	361
313.017	338
313.246	342
313.476	352
313.706	338
313.935	332
314.165	341
314.394	352
314.624	358
314.853	358
315.083	337
315.312	333
315.542	344
315.771	322
316.001	339
316.23	349
316.46	353
316.689	356
316.919	349
317.148	355
317.377	346
317.607	344
317.836	343
318.065	345
318.295	337
318.524	331
318.753	337
318.983	342
319.212	330
319.441	363
319.67	354
319.9	346
320.129	347
320.358	348
320.587	350
320.816	354
321.046	349
321.275	348
321.504	347
321.733	352
321.962	365
322.191	361
322.42	347
322.649	361
322.878	374
323.108	365
323.337	378
323.566	385
323.795	390
324.024	396
324.253	460
324.482	546
324.71	738
324.939	996
325.168	913
325.397	562
325.626	425
325.855	404
326.084	392
326.313	376
326.542	395
326.77	412
326.999	468
327.228	545
327.457	695
327.686	829
327.914	614
328.143	470
328.372	440
328.6	421
328.829	390
329.058	412
329.287	408
329.515	397
329.744	397
329.972	416
330.201	410
330.43	415
330.658	427
330.887	401
331.115	424
331.344	395
331.572	389
331.801	409
332.03	421
332.258	412
332.486	402
332.715	410
332.943	409
333.172	417
333.4	428
333.629	442
333.857	461
334.085	467
334.314	449
334.542	445
334.771	445
334.999	436
335.227	441
335.455	424
335.684	436
335.912	429
336.14	426
336.369	415
336.597	405
336.825	394
337.053	411
337.281	418
337.51	385
337.738	403
337.966	416
338.194	394
338.422	397
338.65	411
338.878	407
339.106	380
339.334	396
339.562	377
339.79	402
340.018	400
340.246	398
340.474	386
340.702	388
340.93	393
341.158	393
341.386	383
341.614	397
341.842	376
342.07	389
342.298	374
342.526	393
342.754	407
342.981	386
343.209	389
343.437	402
343.665	412
343.893	416
344.12	419
344.348	403
344.576	429
344.804	414
345.031	435
345.259	380
345.487	392
345.714	386
345.942	381
346.17	372
346.397	364
346.625	391
346.853	381
347.08	362
347.308	390
347.535	374
347.763	384
347.99	388
348.218	362
348.445	378
348.673	363
348.9	378
349.128	384
349.355	344
349.583	384
349.81	359
350.037	357
350.265	364
350.492	364
350.72	364
350.947	378
351.174	361
351.402	360
351.629	368
351.856	386
352.083	377
352.311	350
352.538	354
352.765	380
352.992	374
353.22	368
353.447	362
353.674	362
353.901	370
354.128	380
354.355	361
354.583	355
354.81	350
355.037	370
355.264	378
355.491	370
355.718	359
355.945	350
356.172	355
356.399	357
356.626	368
356.853	374
357.08	366
357.307	366
357.534	350
357.761	377
357.988	379
358.215	366
358.441	372
358.668	357
358.895	359
359.122	366
359.349	371
359.576	372
359.802	405
360.029	370
360.256	376
360.483	380
360.709	364
360.936	376
361.163	368
361.39	356
361.616	377
361.843	380
362.07	376
362.296	357
362.523	363
362.749	375
362.976	378
363.203	375
363.429	349
363.656	360
363.882	353
364.109	361
364.335	340
364.562	384
364.788	368
365.015	377
365.241	388
365.468	370
365.694	380
365.92	369
366.147	365
366.373	366
366.599	352
366.826	371
367.052	359
367.278	357
367.505	346
367.731	383
367.957	374
368.184	370
368.41	368
368.636	371
368.862	368
369.089	363
369.315	372
369.541	356
369.767	378
369.993	386
370.219	368
370.445	369
370.672	365
370.898	363
371.124	390
371.35	390
371.576	396
371.802	359
372.028	380
372.254	388
372.48	393
372.706	397
372.932	392
373.158	378
373.384	373
373.61	380
373.835	385
374.061	364
374.287	384
374.513	386
374.739	387
374.965	394
375.191	400
375.416	388
375.642	397
375.868	376
376.094	398
376.319	385
376.545	390
376.771	372
376.997	380
377.222	374
377.448	355
377.674	368
377.899	376
378.125	366
378.35	380
378.576	386
378.802	372
379.027	374
379.253	402
379.478	374
379.704	374
379.929	379
380.155	384
380.38	390
380.606	384
380.831	398
381.057	378
381.282	391
381.507	371
381.733	387
381.958	385
382.184	399
382.409	389
382.634	386
382.86	388
383.085	402
383.31	412
383.535	411
383.761	387
383.986	397
384.211	418
384.436	404
384.662	419
384.887	430
385.112	411
385.337	424
385.562	427
385.787	443
386.013	437
386.238	400
386.463	453
386.688	426
386.913	423
387.138	450
387.363	450
387.588	436
387.813	436
388.038	436
388.263	440
388.488	459
388.713	438
388.938	415
389.163	428
389.387	440
389.612	413
389.837	428
390.062	420
390.287	415
390.512	439
390.736	418
390.961	420
391.186	423
391.411	452
391.636	421
391.86	457
392.085	477
392.31	456
392.534	457
392.759	434
392.984	451
393.208	423
393.433	465
393.658	449
393.882	445
394.107	454
394.331	424
394.556	428
394.78	438
395.005	452
395.229	461
395.454	455
395.678	465
395.903	484
396.127	466
396.352	482
396.576	459
396.801	447
397.025	438
397.249	459
397.474	470
397.698	480
397.922	467
398.147	474
398.371	479
398.595	496
398.82	514
399.044	513
399.268	540
399.492	609
399.717	621
399.941	641
400.165	628
400.389	579
400.613	576
400.837	528
401.062	514
401.286	493
401.51	494
401.734	515
401.958	508
402.182	493
402.406	521
402.63	509
402.854	522
403.078	511
403.302	531
403.526	523
403.75	526
403.974	536
404.198	534
404.422	535
404.645	548
404.869	537
405.093	547
405.317	574
405.541	611
405.765	555
405.988	560
406.212	553
406.436	537
406.66	567
406.883	541
407.107	561
407.331	591
407.555	662
407.778	664
408.002	615
408.226	581
408.449	580
408.673	573
408.896	568
409.12	570
409.344	557
409.567	538
409.791	542
410.014	527
410.238	517
410.461	530
410.685	526
410.908	540
411.132	543
411.355	547
411.578	567
411.802	521
412.025	510
412.249	525
412.472	516
412.695	568
412.919	538
413.142	524
413.365	515
413.589	513
413.812	491
414.035	489
414.258	484
414.482	483
414.705	508
414.928	509
415.151	486
415.374	502
415.597	466
415.821	486
416.044	481
416.267	503
416.49	481
416.713	504
416.936	487
417.159	497
417.382	503
417.605	483
417.828	506
418.051	506
418.274	502
418.497	472
418.72	492
418.943	502
419.166	515
419.389	559
419.611	536
419.834	531
420.057	537
420.28	488
420.503	500
420.726	503
420.948	504
421.171	515
421.394	547
421.617	507
421.839	515
422.062	512
422.285	490
422.507	536
422.73	568
422.953	549
423.175	514
423.398	498
423.621	514
423.843	526
424.066	501
424.288	520
424.511	505
424.733	546
424.956	615
425.178	585
425.401	574
425.623	587
425.846	534
426.068	503
426.291	504
426.513	515
426.735	512
426.958	528
427.18	575
427.402	652
427.625	703
427.847	606
428.069	524
428.292	535
428.514	504
428.736	475
428.958	496
429.181	476
429.403	474
429.625	484
429.847	484
430.069	515
430.292	516
430.514	482
430.736	462
430.958	468
431.18	441
431.402	457
431.624	469
431.846	461
432.068	477
432.29	463
432.512	476
432.734	489
432.956	478
433.178	466
433.4	465
433.622	456
433.844	463
434.066	462
434.287	461
434.509	457
434.731	488
434.953	481
435.175	507
435.397	509
435.618	510
435.84	514
436.062	584
436.284	617
436.505	522
436.727	518
436.949	487
437.17	459
437.392	453
437.614	468
437.835	473
438.057	524
438.278	557
438.5	572
438.721	646
438.943	624
439.165	522
439.386	504
439.608	504
439.829	480
440.05	503
440.272	523
440.493	516
440.715	478
440.936	493
441.158	474
441.379	501
441.6	488
441.822	530
442.043	529
442.264	572
442.486	600
442.707	540
442.928	537
443.149	512
443.371	530
443.592	545
443.813	598
444.034	646
444.255	583
444.476	538
444.698	581
444.919	552
445.14	665
445.361	581
445.582	544
445.803	536
446.024	564
446.245	585
446.466	552
446.687	492
446.908	496
447.129	442
447.35	461
447.571	473
447.792	450
448.013	457
448.234	466
448.455	514
448.675	566
448.896	626
449.117	557
449.338	510
449.559	584
449.779	635
450	564
450.221	458
450.442	430
450.662	446
450.883	450
451.104	450
451.324	446
451.545	451
451.766	452
451.986	413
452.207	432
452.428	436
452.648	418
452.869	401
453.089	435
453.31	424
453.53	438
453.751	425
453.971	418
454.192	427
454.412	396
454.633	411
454.853	422
455.073	403
455.294	422
455.514	455
455.734	460
455.955	386
456.175	392
456.395	408
456.616	412
456.836	414
457.056	392
457.276	392
457.497	401
457.717	388
457.937	418
458.157	425
458.377	442
458.598	419
458.818	460
459.038	484
459.258	504
459.478	471
459.698	480
459.918	459
460.138	467
460.358	492
460.578	498
460.798	509
461.018	507
461.238	483
461.458	489
461.678	497
461.898	536
462.118	507
462.338	525
462.558	546
462.777	545
462.997	578
463.217	608
463.437	621
463.657	582
463.876	559
464.096	554
464.316	532
464.536	561
464.755	556
464.975	552
465.195	531
465.414	520
465.634	514
465.854	483
466.073	448
466.293	464
466.512	462
466.732	476
466.951	460
467.171	430
467.391	449
467.61	425
467.829	439
468.049	420
468.268	445
468.488	443
468.707	420
468.927	407
469.146	411
469.365	429
469.585	450
469.804	464
470.023	445
470.243	461
470.462	446
470.681	435
470.901	440
471.12	438
471.339	435
471.558	441
471.777	449
471.997	439
472.216	446
472.435	437
472.654	442
472.873	450
473.092	430
473.311	428
473.53	430
473.749	436
473.968	452
474.187	486
474.406	502
474.625	488
474.844	460
475.063	445
475.282	462
475.501	441
475.72	437
475.939	452
476.158	450
476.377	460
476.596	453
476.814	463
477.033	465
477.252	491
477.471	473
477.69	466
477.908	481
478.127	492
478.346	515
478.564	513
478.783	525
479.002	530
479.22	523
479.439	521
479.658	527
479.876	555
480.095	531
480.313	578
480.532	564
480.751	553
480.969	562
481.188	548
481.406	562
481.624	540
481.843	550
482.061	518
482.28	531
482.498	516
482.717	524
482.935	509
483.153	506
483.372	514
483.59	522
483.808	502
484.027	502
484.245	519
484.463	536
484.681	531
484.9	531
485.118	533
485.336	543
485.554	539
485.772	555
485.99	544
486.209	535
486.427	562
486.645	552
486.863	561
487.081	570
487.299	553
487.517	541
487.735	550
487.953	572
488.171	550
488.389	552
488.607	530
488.825	538
489.043	527
489.261	570
489.479	555
489.696	570
489.914	573
490.132	571
490.35	566
490.568	565
490.786	540
491.003	580
491.221	568
491.439	585
491.657	562
491.874	573
492.092	572
492.31	593
492.527	584
492.745	593
492.963	576
493.18	588
493.398	605
493.615	616
493.833	604
494.05	604
494.268	594
494.485	610
494.703	588
494.92	614
495.138	615
495.355	608
495.573	589
495.79	614
496.008	630
496.225	598
496.442	634
496.66	637
496.877	646
497.094	642
497.312	662
497.529	654
497.746	656
497.963	672
498.181	703
498.398	727
498.615	764
498.832	776
499.049	801
499.267	831
499.484	875
499.701	911
499.918	960
500.135	1054
500.352	1103
500.569	1128
500.786	1125
501.003	1113
501.22	1047
501.437	967
501.654	933
501.871	863
502.088	854
502.305	820
502.522	792
502.739	746
502.956	736
503.172	678
503.389	681
503.606	693
503.823	668
504.04	674
504.256	682
504.473	647
504.69	648
504.907	642
505.123	668
505.34	610
505.557	610
505.773	588
505.99	598
506.207	566
506.423	593
506.64	576
506.856	548
507.073	574
507.289	570
507.506	567
507.722	564
507.939	571
508.155	536
508.372	551
508.588	530
508.805	516
509.021	536
509.238	556
509.454	527
509.67	526
509.887	536
510.103	517
510.319	520
510.536	576
510.752	692
510.968	632
511.184	524
511.401	533
511.617	540
511.833	536
512.049	511
512.265	518
512.481	499
512.698	517
512.914	508
513.13	497
513.346	512
513.562	492
513.778	539
513.994	510
514.21	537
514.426	512
514.642	540
514.858	524
515.074	534
515.29	592
515.506	642
515.721	632
515.937	565
516.153	551
516.369	558
516.585	561
516.801	532
517.016	560
517.232	571
517.448	604
517.664	606
517.879	596
518.095	593
518.311	599
518.527	589
518.742	547
518.958	560
519.173	547
519.389	550
519.605	512
519.82	542
520.036	531
520.251	513
520.467	536
520.682	530
520.898	530
521.113	532
521.329	519
521.544	524
521.76	587
521.975	716
522.19	716
522.406	548
522.621	520
522.836	490
523.052	482
523.267	454
523.482	455
523.698	448
523.913	472
524.128	472
524.343	448
524.559	459
524.774	459
524.989	458
525.204	454
525.419	442
525.634	443
525.849	452
526.064	459
526.28	455
526.495	458
526.71	466
526.925	437
527.14	444
527.355	453
527.57	458
527.785	427
527.999	451
528.214	462
528.429	456
528.644	440
528.859	455
529.074	457
529.289	459
529.503	501
529.718	435
529.933	437
530.148	455
530.363	447
530.577	427
530.792	435
531.007	452
531.221	427
531.436	453
531.651	445
531.865	422
532.08	448
532.295	439
532.509	432
532.724	432
532.938	468
533.153	446
533.367	417
533.582	432
533.796	428
534.011	439
534.225	450
534.44	448
534.654	423
534.868	441
535.083	421
535.297	419
535.511	428
535.726	441
535.94	428
536.154	426
536.369	442
536.583	434
536.797	416
537.011	437
537.225	420
537.44	419
537.654	417
537.868	410
538.082	433
538.296	431
538.51	407
538.724	425
538.938	416
539.153	424
539.367	423
539.581	427
539.795	410
540.009	412
540.222	409
540.436	410
540.65	407
540.864	438
541.078	420
541.292	405
541.506	415
541.72	412
541.934	396
542.147	423
542.361	393
542.575	410
542.789	409
543.002	408
543.216	410
543.43	411
543.644	411
543.857	414
544.071	405
544.285	399
544.498	415
544.712	418
544.925	413
545.139	429
545.352	416
545.566	416
545.779	403
545.993	424
546.206	429
546.42	421
546.633	420
546.847	405
547.06	428
547.274	414
547.487	411
547.7	408
547.914	404
548.127	421
548.34	405
548.554	400
548.767	421
548.98	404
549.193	427
549.407	413
549.62	408
549.833	423
550.046	433
550.259	410
550.473	401
550.686	405
550.899	406
551.112	425
551.325	388
551.538	417
551.751	415
551.964	402
552.177	429
552.39	408
552.603	420
552.816	411
553.029	418
553.242	429
553.455	440
553.667	442
553.88	423
554.093	416
554.306	417
554.519	404
554.732	408
554.944	404
555.157	417
555.37	416
555.583	396
555.795	392
556.008	380
556.221	412
556.433	391
556.646	376
556.859	371
557.071	380
557.284	362
557.496	370
557.709	387
557.921	384
558.134	382
558.346	364
558.559	380
558.771	353
558.984	361
559.196	360
559.409	364
559.621	356
559.833	349
560.046	379
560.258	378
560.47	373
560.683	376
560.895	379
561.107	373
561.32	364
561.532	376
561.744	392
561.956	387
562.168	375
562.381	379
562.593	376
562.805	376
563.017	374
563.229	377
563.441	359
563.653	396
563.865	376
564.077	378
564.289	378
564.501	402
564.713	397
564.925	390
565.137	398
565.349	412
565.561	413
565.773	432
565.985	447
566.197	447
566.408	461
566.62	501
566.832	500
567.044	517
567.255	527
567.467	540
567.679	533
567.891	539
568.102	575
568.314	556
568.526	530
568.737	497
568.949	493
569.161	462
569.372	424
569.584	428
569.795	408
570.007	402
570.218	422
570.43	414
570.641	397
570.853	384
571.064	395
571.276	377
571.487	372
571.698	380
571.91	385
572.121	356
572.333	356
572.544	349
572.755	334
572.966	338
573.178	339
573.389	327
573.6	338
573.811	342
574.023	322
574.234	341
574.445	336
574.656	346
574.867	317
575.078	334
575.289	333
575.501	320
575.712	320
575.923	331
576.134	328
576.345	304
576.556	325
576.767	318
576.978	337
577.188	321
577.399	332
577.61	312
577.821	293
578.032	290
578.243	325
578.454	386
578.665	340
578.875	314
579.086	310
579.297	290
579.508	304
579.718	293
579.929	288
580.14	296
580.35	288
580.561	295
580.772	309
580.982	288
581.193	298
581.403	307
581.614	297
581.825	296
582.035	292
582.246	300
582.456	299
582.667	293
582.877	299
583.087	296
583.298	289
583.508	297
583.719	286
583.929	295
584.139	283
584.35	300
584.56	287
584.77	285
584.981	283
585.191	284
585.401	282
585.611	301
585.821	288
586.032	284
586.242	288
586.452	291
586.662	291
586.872	294
587.082	291
587.292	280
587.502	294
587.713	296
587.923	274
588.133	296
588.343	278
588.553	302
588.762	292
588.972	290
589.182	376
589.392	374
589.602	300
589.812	373
590.022	343
590.232	284
590.441	298
590.651	271
590.861	284
591.071	302
591.281	307
591.49	306
591.7	300
591.91	310
592.119	305
592.329	322
592.539	310
592.748	304
592.958	345
593.167	310
593.377	322
593.587	341
593.796	338
594.006	337
594.215	329
594.424	332
594.634	334
594.843	330
595.053	318
595.262	318
595.472	290
595.681	319
595.89	297
596.1	290
596.309	275
596.518	283
596.727	288
596.937	260
597.146	261
597.355	273
597.564	269
597.774	270
597.983	277
598.192	263
598.401	256
598.61	254
598.819	276
599.028	255
599.237	245
599.446	267
599.655	265
599.864	248
600.073	254
600.282	261
600.491	244
600.7	260
600.909	242
601.118	244
601.327	267
601.536	250
601.745	251
601.953	243
602.162	248
602.371	237
602.58	238
602.789	234
602.997	248
603.206	258
603.415	232
603.623	230
603.832	231
604.041	245
604.249	225
604.458	251
604.666	242
604.875	246
605.084	232
605.292	230
605.501	237
605.709	243
605.918	236
606.126	254
606.334	241
606.543	243
606.751	245
606.96	236
607.168	234
607.376	218
607.585	241
607.793	231
608.001	254
608.21	223
608.418	223
608.626	229
608.834	239
609.043	246
609.251	245
609.459	217
609.667	233
609.875	240
610.083	229
610.291	211
610.499	229
610.707	233
610.916	261
611.124	235
611.332	243
611.54	241
611.748	237
611.955	232
612.163	232
612.371	244
612.579	230
612.787	227
612.995	227
613.203	251
613.411	218
613.618	219
613.826	227
614.034	245
614.242	227
614.449	212
614.657	242
614.865	222
615.072	229
615.28	243
615.488	206
615.695	208
615.903	216
616.111	240
616.318	236
616.526	226
616.733	235
616.941	220
617.148	228
617.356	221
617.563	234
617.771	217
617.978	229
618.185	219
618.393	234
618.6	218
618.807	225
619.015	234
619.222	227
619.429	222
619.637	225
619.844	229
620.051	240
620.258	226
620.466	216
620.673	208
620.88	217
621.087	214
621.294	210
621.501	205
621.708	209
621.915	211
622.122	234
622.329	224
622.536	209
622.743	200
622.95	220
623.157	211
623.364	199
623.571	218
623.778	216
623.985	213
624.192	221
624.399	200
624.606	198
624.812	193
625.019	171
625.226	197
625.433	197
625.639	210
625.846	197
626.053	204
626.259	210
626.466	223
626.673	198
626.879	189
627.086	203
627.293	188
627.499	200
627.706	195
627.912	191
628.119	200
628.325	199
628.532	194
628.738	199
628.945	203
629.151	208
629.357	204
629.564	202
629.77	203
629.976	180
630.183	184
630.389	183
630.595	181
630.802	172
631.008	171
631.214	193
631.42	192
631.627	191
631.833	194
632.039	176
632.245	200
632.451	206
632.657	203
632.863	178
633.069	195
633.275	169
633.481	181
633.688	179
633.893	185
634.099	175
634.305	188
634.511	183
634.717	177
634.923	186
635.129	184
635.335	178
635.541	189
635.747	166
635.952	182
636.158	180
636.364	170
636.57	187
636.775	182
636.981	188
637.187	183
637.392	181
637.598	166
637.804	171
638.009	190
638.215	169
638.421	183
638.626	162
638.832	192
639.037	167
639.243	171
639.448	171
639.654	164
639.859	163
640.065	185
640.27	184
640.475	164
640.681	178
640.886	179
641.091	163
641.297	183
641.502	159
641.707	158
641.913	169
642.118	172
642.323	180
642.528	173
642.733	169
642.939	171
643.144	180
643.349	158
643.554	167
643.759	158
643.964	146
644.169	161
644.374	157
644.579	156
644.784	176
644.989	168
645.194	171
645.399	174
645.604	157
645.809	173
646.014	178
646.219	169
646.423	166
646.628	169
646.833	167
647.038	169
647.243	165
647.447	163
647.652	176
647.857	169
648.062	160
648.266	168
648.471	178
648.676	178
648.88	168
649.085	164
649.289	160
649.494	168
649.698	171
649.903	163
650.107	173
650.312	180
650.516	164
650.721	161
650.925	150
651.13	141
651.334	158
651.539	155
651.743	154
651.947	170
652.152	146
652.356	160
652.56	145
652.764	142
652.969	145
653.173	150
653.377	160
653.581	157
653.785	150
653.99	163
654.194	158
654.398	139
654.602	148
654.806	138
655.01	157
655.214	155
655.418	151
655.622	136
655.826	146
656.03	159
656.234	155
656.438	171
656.642	176
656.846	167
657.049	147
657.253	134
657.457	139
657.661	125
657.865	142
658.068	129
658.272	112
658.476	123
658.68	113
658.883	104
659.087	96
659.291	98
659.494	112
659.698	117
659.901	97
660.105	94
660.309	102
660.512	101
660.716	108
660.919	101
661.123	98
661.326	84
661.53	106
661.733	94
661.936	99
662.14	86
662.343	106
662.546	100
662.75	86
662.953	85
663.156	85
663.36	94
663.563	92
663.766	104
663.969	86
664.173	103
664.376	91
664.579	89
664.782	94
664.985	90
665.188	78
665.391	80
665.594	77
665.797	80
666	89
666.203	77
666.406	82
666.609	98
666.812	83
667.015	74
667.218	87
667.421	74
667.624	84
667.827	77
668.03	85
668.232	79
668.435	82
668.638	82
668.841	87
669.043	72
669.246	78
669.449	83
669.651	70
669.854	84
670.057	83
670.259	78
670.462	91
670.665	77
670.867	77
671.07	91
671.272	92
671.475	81
671.677	89
671.88	79
672.082	86
672.284	81
672.487	103
672.689	81
672.892	84
