Data from 1962.PennyLincolnUp.Lamp.En5.5.200Scan.071719.P1._HRD10591_13-52-36-060.txt Node
Date: Thu Jul 18 13:52:36 EDT 2019
User: cochatt
Spectrometer: HR+D1059
Trigger mode: 1
Integration Time (sec): 1.000000E-1
Scans to average: 1
Electric dark correction enabled: true
Nonlinearity correction enabled: false
Boxcar width: 0
XAxis mode: Wavelengths
Number of Pixels in Spectrum: 2048
>>>>>Begin Spectral Data<<<<<
223.165	-19.19
223.4	-19.19
223.635	-19.19
223.869	-18.19
224.104	-14.19
224.338	-10.19
224.573	-17.19
224.808	-6.19
225.042	-10.19
225.277	-9.19
225.511	2.81
225.746	3.81
225.98	9.81
226.215	15.81
226.449	20.81
226.683	5.81
226.918	14.81
227.152	30.81
227.387	29.81
227.621	31.81
227.856	47.81
228.09	28.81
228.324	41.81
228.559	56.81
228.793	56.81
229.027	80.81
229.262	83.81
229.496	82.81
229.73	108.81
229.964	109.81
230.199	98.81
230.433	109.81
230.667	98.81
230.901	107.81
231.136	102.81
231.37	100.81
231.604	109.81
231.838	107.81
232.072	94.81
232.306	124.81
232.541	115.81
232.775	105.81
233.009	106.81
233.243	110.81
233.477	104.81
233.711	101.81
233.945	109.81
234.179	96.81
234.413	111.81
234.647	102.81
234.881	110.81
235.115	111.81
235.349	121.81
235.583	125.81
235.817	116.81
236.051	115.81
236.285	114.81
236.519	121.81
236.753	122.81
236.987	119.81
237.221	137.81
237.455	146.81
237.689	133.81
237.922	101.81
238.156	118.81
238.39	115.81
238.624	108.81
238.858	108.81
239.091	105.81
239.325	130.81
239.559	121.81
239.793	113.81
240.027	125.81
240.26	126.81
240.494	130.81
240.728	123.81
240.961	123.81
241.195	118.81
241.429	139.81
241.662	121.81
241.896	128.81
242.13	137.81
242.363	128.81
242.597	122.81
242.83	123.81
243.064	120.81
243.298	135.81
243.531	118.81
243.765	124.81
243.998	141.81
244.232	147.81
244.465	124.81
244.699	126.81
244.932	126.81
245.166	125.81
245.399	143.81
245.633	134.81
245.866	129.81
246.099	130.81
246.333	134.81
246.566	132.81
246.8	143.81
247.033	141.81
247.266	143.81
247.5	148.81
247.733	141.81
247.966	148.81
248.2	150.81
248.433	143.81
248.666	130.81
248.899	148.81
249.133	160.81
249.366	158.81
249.599	161.81
249.832	140.81
250.066	163.81
250.299	157.81
250.532	158.81
250.765	169.81
250.998	177.81
251.231	174.81
251.465	168.81
251.698	156.81
251.931	162.81
252.164	167.81
252.397	183.81
252.63	155.81
252.863	171.81
253.096	165.81
253.329	182.81
253.562	172.81
253.795	162.81
254.028	164.81
254.261	185.81
254.494	183.81
254.727	189.81
254.96	190.81
255.193	202.81
255.426	191.81
255.659	185.81
255.892	179.81
256.124	193.81
256.357	182.81
256.59	170.81
256.823	181.81
257.056	170.81
257.289	177.81
257.521	191.81
257.754	172.81
257.987	169.81
258.22	189.81
258.452	190.81
258.685	176.81
258.918	189.81
259.151	181.81
259.383	179.81
259.616	181.81
259.849	184.81
260.081	202.81
260.314	187.81
260.547	196.81
260.779	204.81
261.012	194.81
261.244	192.81
261.477	199.81
261.71	187.81
261.942	188.81
262.175	199.81
262.407	176.81
262.64	198.81
262.872	194.81
263.105	212.81
263.337	188.81
263.57	188.81
263.802	190.81
264.035	193.81
264.267	179.81
264.499	195.81
264.732	190.81
264.964	188.81
265.197	188.81
265.429	193.81
265.661	185.81
265.894	177.81
266.126	197.81
266.358	207.81
266.591	201.81
266.823	206.81
267.055	211.81
267.287	204.81
267.52	184.81
267.752	210.81
267.984	192.81
268.216	205.81
268.448	202.81
268.681	209.81
268.913	220.81
269.145	213.81
269.377	226.81
269.609	229.81
269.841	224.81
270.073	214.81
270.306	229.81
270.538	232.81
270.77	231.81
271.002	235.81
271.234	243.81
271.466	238.81
271.698	232.81
271.93	234.81
272.162	241.81
272.394	238.81
272.626	242.81
272.858	226.81
273.09	232.81
273.322	220.81
273.553	219.81
273.785	218.81
274.017	218.81
274.249	247.81
274.481	221.81
274.713	239.81
274.945	248.81
275.176	221.81
275.408	227.81
275.64	235.81
275.872	235.81
276.104	225.81
276.335	245.81
276.567	227.81
276.799	225.81
277.031	252.81
277.262	256.81
277.494	264.81
277.726	239.81
277.957	249.81
278.189	241.81
278.421	243.81
278.652	236.81
278.884	245.81
279.115	230.81
279.347	237.81
279.579	233.81
279.81	234.81
280.042	251.81
280.273	236.81
280.505	244.81
280.736	234.81
280.968	240.81
281.199	234.81
281.431	237.81
281.662	235.81
281.894	231.81
282.125	250.81
282.356	257.81
282.588	263.81
282.819	252.81
283.051	238.81
283.282	258.81
283.513	265.81
283.745	254.81
283.976	260.81
284.207	255.81
284.439	245.81
284.67	262.81
284.901	271.81
285.132	259.81
285.364	270.81
285.595	260.81
285.826	269.81
286.057	263.81
286.288	262.81
286.52	257.81
286.751	258.81
286.982	273.81
287.213	259.81
287.444	277.81
287.675	262.81
287.906	241.81
288.138	267.81
288.369	269.81
288.6	276.81
288.831	263.81
289.062	274.81
289.293	267.81
289.524	268.81
289.755	281.81
289.986	273.81
290.217	277.81
290.448	283.81
290.679	276.81
290.91	288.81
291.141	244.81
291.371	279.81
291.602	284.81
291.833	262.81
292.064	263.81
292.295	255.81
292.526	262.81
292.757	283.81
292.987	285.81
293.218	287.81
293.449	282.81
293.68	278.81
293.91	275.81
294.141	276.81
294.372	275.81
294.603	279.81
294.833	282.81
295.064	285.81
295.295	273.81
295.525	292.81
295.756	276.81
295.987	287.81
296.217	297.81
296.448	295.81
296.679	282.81
296.909	295.81
297.14	285.81
297.37	298.81
297.601	287.81
297.831	285.81
298.062	307.81
298.292	306.81
298.523	312.81
298.753	307.81
298.984	277.81
299.214	275.81
299.445	279.81
299.675	293.81
299.905	277.81
300.136	301.81
300.366	288.81
300.597	292.81
300.827	320.81
301.057	301.81
301.288	323.81
301.518	300.81
301.748	295.81
301.979	291.81
302.209	325.81
302.439	296.81
302.669	295.81
302.9	302.81
303.13	307.81
303.36	293.81
303.59	294.81
303.82	322.81
304.051	316.81
304.281	322.81
304.511	312.81
304.741	308.81
304.971	288.81
305.201	307.81
305.431	313.81
305.661	311.81
305.891	320.81
306.121	315.81
306.352	297.81
306.582	311.81
306.812	307.81
307.042	295.81
307.272	303.81
307.502	312.81
307.731	307.81
307.961	313.81
308.191	300.81
308.421	303.81
308.651	302.81
308.881	311.81
309.111	293.81
309.341	293.81
309.571	321.81
309.8	311.81
310.03	326.81
310.26	333.81
310.49	323.81
310.72	331.81
310.949	326.81
311.179	327.81
311.409	323.81
311.639	322.81
311.868	323.81
312.098	362.81
312.328	323.81
312.557	328.81
312.787	324.81
313.017	341.81
313.246	337.81
313.476	326.81
313.706	315.81
313.935	340.81
314.165	350.81
314.394	331.81
314.624	328.81
314.853	333.81
315.083	360.81
315.312	338.81
315.542	327.81
315.771	323.81
316.001	332.81
316.23	353.81
316.46	316.81
316.689	342.81
316.919	345.81
317.148	325.81
317.377	339.81
317.607	331.81
317.836	336.81
318.065	339.81
318.295	350.81
318.524	342.81
318.753	324.81
318.983	337.81
319.212	340.81
319.441	339.81
319.67	345.81
319.9	342.81
320.129	347.81
320.358	320.81
320.587	335.81
320.816	340.81
321.046	354.81
321.275	357.81
321.504	346.81
321.733	335.81
321.962	346.81
322.191	334.81
322.42	349.81
322.649	377.81
322.878	372.81
323.108	363.81
323.337	373.81
323.566	371.81
323.795	379.81
324.024	405.81
324.253	443.81
324.482	584.81
324.71	867.81
324.939	1190.81
325.168	1035.81
325.397	583.81
325.626	440.81
325.855	406.81
326.084	389.81
326.313	383.81
326.542	396.81
326.77	394.81
326.999	471.81
327.228	563.81
327.457	781.81
327.686	943.81
327.914	655.81
328.143	478.81
328.372	453.81
328.6	409.81
328.829	395.81
329.058	422.81
329.287	406.81
329.515	409.81
329.744	405.81
329.972	401.81
330.201	403.81
330.43	429.81
330.658	441.81
330.887	423.81
331.115	419.81
331.344	408.81
331.572	370.81
331.801	383.81
332.03	384.81
332.258	400.81
332.486	397.81
332.715	415.81
332.943	409.81
333.172	409.81
333.4	418.81
333.629	399.81
333.857	430.81
334.085	415.81
334.314	451.81
334.542	435.81
334.771	447.81
334.999	442.81
335.227	438.81
335.455	413.81
335.684	422.81
335.912	392.81
336.14	395.81
336.369	400.81
336.597	417.81
336.825	388.81
337.053	405.81
337.281	404.81
337.51	398.81
337.738	397.81
337.966	390.81
338.194	392.81
338.422	399.81
338.65	410.81
338.878	387.81
339.106	375.81
339.334	397.81
339.562	385.81
339.79	386.81
340.018	382.81
340.246	397.81
340.474	382.81
340.702	413.81
340.93	375.81
341.158	382.81
341.386	386.81
341.614	397.81
341.842	394.81
342.07	381.81
342.298	376.81
342.526	356.81
342.754	362.81
342.981	363.81
343.209	375.81
343.437	397.81
343.665	393.81
343.893	398.81
344.12	421.81
344.348	408.81
344.576	403.81
344.804	398.81
345.031	402.81
345.259	375.81
345.487	374.81
345.714	389.81
345.942	353.81
346.17	379.81
346.397	373.81
346.625	372.81
346.853	382.81
347.08	365.81
347.308	377.81
347.535	379.81
347.763	378.81
347.99	374.81
348.218	376.81
348.445	373.81
348.673	352.81
348.9	371.81
349.128	364.81
349.355	349.81
349.583	359.81
349.81	362.81
350.037	362.81
350.265	351.81
350.492	331.81
350.72	354.81
350.947	378.81
351.174	363.81
351.402	373.81
351.629	348.81
351.856	341.81
352.083	344.81
352.311	346.81
352.538	359.81
352.765	365.81
352.992	370.81
353.22	358.81
353.447	357.81
353.674	361.81
353.901	367.81
354.128	353.81
354.355	341.81
354.583	347.81
354.81	343.81
355.037	373.81
355.264	357.81
355.491	373.81
355.718	377.81
355.945	373.81
356.172	352.81
356.399	341.81
356.626	373.81
356.853	353.81
357.08	355.81
357.307	367.81
357.534	351.81
357.761	357.81
357.988	361.81
358.215	341.81
358.441	352.81
358.668	354.81
358.895	358.81
359.122	361.81
359.349	376.81
359.576	363.81
359.802	371.81
360.029	385.81
360.256	371.81
360.483	390.81
360.709	371.81
360.936	367.81
361.163	350.81
361.39	342.81
361.616	356.81
361.843	376.81
362.07	376.81
362.296	364.81
362.523	345.81
362.749	373.81
362.976	353.81
363.203	358.81
363.429	362.81
363.656	355.81
363.882	350.81
364.109	361.81
364.335	358.81
364.562	352.81
364.788	374.81
365.015	379.81
365.241	348.81
365.468	346.81
365.694	372.81
365.92	369.81
366.147	356.81
366.373	361.81
366.599	362.81
366.826	367.81
367.052	345.81
367.278	358.81
367.505	351.81
367.731	342.81
367.957	353.81
368.184	357.81
368.41	366.81
368.636	383.81
368.862	372.81
369.089	377.81
369.315	361.81
369.541	346.81
369.767	367.81
369.993	352.81
370.219	375.81
370.445	360.81
370.672	348.81
370.898	362.81
371.124	366.81
371.35	379.81
371.576	375.81
371.802	395.81
372.028	381.81
372.254	366.81
372.48	393.81
372.706	375.81
372.932	361.81
373.158	377.81
373.384	402.81
373.61	385.81
373.835	374.81
374.061	360.81
374.287	369.81
374.513	363.81
374.739	386.81
374.965	387.81
375.191	386.81
375.416	397.81
375.642	390.81
375.868	398.81
376.094	348.81
376.319	365.81
376.545	375.81
376.771	387.81
376.997	375.81
377.222	374.81
377.448	381.81
377.674	374.81
377.899	363.81
378.125	379.81
378.35	379.81
378.576	382.81
378.802	391.81
379.027	378.81
379.253	373.81
379.478	358.81
379.704	359.81
379.929	370.81
380.155	372.81
380.38	370.81
380.606	382.81
380.831	386.81
381.057	375.81
381.282	385.81
381.507	386.81
381.733	382.81
381.958	379.81
382.184	377.81
382.409	393.81
382.634	404.81
382.86	386.81
383.085	380.81
383.31	412.81
383.535	405.81
383.761	400.81
383.986	403.81
384.211	418.81
384.436	421.81
384.662	418.81
384.887	437.81
385.112	428.81
385.337	423.81
385.562	421.81
385.787	431.81
386.013	434.81
386.238	430.81
386.463	448.81
386.688	434.81
386.913	421.81
387.138	423.81
387.363	453.81
387.588	437.81
387.813	449.81
388.038	433.81
388.263	427.81
388.488	418.81
388.713	422.81
388.938	400.81
389.163	409.81
389.387	415.81
389.612	425.81
389.837	421.81
390.062	427.81
390.287	418.81
390.512	433.81
390.736	423.81
390.961	426.81
391.186	447.81
391.411	442.81
391.636	441.81
391.86	431.81
392.085	447.81
392.31	467.81
392.534	445.81
392.759	433.81
392.984	441.81
393.208	468.81
393.433	466.81
393.658	462.81
393.882	440.81
394.107	425.81
394.331	430.81
394.556	444.81
394.78	438.81
395.005	444.81
395.229	454.81
395.454	447.81
395.678	449.81
395.903	462.81
396.127	473.81
396.352	442.81
396.576	451.81
396.801	448.81
397.025	468.81
397.249	456.81
397.474	458.81
397.698	487.81
397.922	474.81
398.147	470.81
398.371	486.81
398.595	470.81
398.82	482.81
399.044	507.81
399.268	527.81
399.492	589.81
399.717	595.81
399.941	628.81
400.165	642.81
400.389	610.81
400.613	563.81
400.837	528.81
401.062	503.81
401.286	496.81
401.51	488.81
401.734	479.81
401.958	501.81
402.182	522.81
402.406	504.81
402.63	501.81
402.854	502.81
403.078	508.81
403.302	493.81
403.526	519.81
403.75	559.81
403.974	517.81
404.198	524.81
404.422	537.81
404.645	532.81
404.869	498.81
405.093	523.81
405.317	545.81
405.541	581.81
405.765	552.81
405.988	533.81
406.212	533.81
406.436	543.81
406.66	554.81
406.883	551.81
407.107	582.81
407.331	607.81
407.555	612.81
407.778	623.81
408.002	599.81
408.226	572.81
408.449	595.81
408.673	547.81
408.896	565.81
409.12	589.81
409.344	571.81
409.567	527.81
409.791	519.81
410.014	518.81
410.238	521.81
410.461	529.81
410.685	528.81
410.908	533.81
411.132	535.81
411.355	566.81
411.578	531.81
411.802	513.81
412.025	509.81
412.249	526.81
412.472	540.81
412.695	538.81
412.919	516.81
413.142	485.81
413.365	501.81
413.589	499.81
413.812	503.81
414.035	481.81
414.258	478.81
414.482	499.81
414.705	482.81
414.928	514.81
415.151	490.81
415.374	462.81
415.597	477.81
415.821	479.81
416.044	485.81
416.267	469.81
416.49	472.81
416.713	482.81
416.936	487.81
417.159	472.81
417.382	483.81
417.605	492.81
417.828	474.81
418.051	489.81
418.274	466.81
418.497	492.81
418.72	487.81
418.943	471.81
419.166	510.81
419.389	559.81
419.611	539.81
419.834	508.81
420.057	536.81
420.28	503.81
420.503	482.81
420.726	491.81
420.948	502.81
421.171	519.81
421.394	539.81
421.617	502.81
421.839	486.81
422.062	501.81
422.285	508.81
422.507	539.81
422.73	589.81
422.953	559.81
423.175	521.81
423.398	524.81
423.621	505.81
423.843	506.81
424.066	488.81
424.288	507.81
424.511	522.81
424.733	525.81
424.956	571.81
425.178	569.81
425.401	568.81
425.623	585.81
425.846	531.81
426.068	506.81
426.291	482.81
426.513	493.81
426.735	484.81
426.958	500.81
427.18	541.81
427.402	634.81
427.625	694.81
427.847	614.81
428.069	538.81
428.292	519.81
428.514	475.81
428.736	480.81
428.958	482.81
429.181	465.81
429.403	470.81
429.625	461.81
429.847	474.81
430.069	525.81
430.292	521.81
430.514	490.81
430.736	451.81
430.958	476.81
431.18	446.81
431.402	458.81
431.624	455.81
431.846	435.81
432.068	449.81
432.29	469.81
432.512	470.81
432.734	490.81
432.956	483.81
433.178	467.81
433.4	474.81
433.622	449.81
433.844	479.81
434.066	451.81
434.287	465.81
434.509	478.81
434.731	485.81
434.953	474.81
435.175	518.81
435.397	511.81
435.618	512.81
435.84	501.81
436.062	573.81
436.284	602.81
436.505	526.81
436.727	484.81
436.949	477.81
437.17	471.81
437.392	471.81
437.614	486.81
437.835	466.81
438.057	517.81
438.278	559.81
438.5	566.81
438.721	623.81
438.943	618.81
439.165	558.81
439.386	500.81
439.608	494.81
439.829	488.81
440.05	471.81
440.272	510.81
440.493	508.81
440.715	476.81
440.936	464.81
441.158	485.81
441.379	495.81
441.6	475.81
441.822	496.81
442.043	521.81
442.264	545.81
442.486	565.81
442.707	523.81
442.928	495.81
443.149	505.81
443.371	519.81
443.592	544.81
443.813	596.81
444.034	630.81
444.255	552.81
444.476	523.81
444.698	551.81
444.919	560.81
445.14	689.81
445.361	588.81
445.582	547.81
445.803	547.81
446.024	588.81
446.245	590.81
446.466	563.81
446.687	496.81
446.908	492.81
447.129	466.81
447.35	478.81
447.571	476.81
447.792	466.81
448.013	456.81
448.234	469.81
448.455	481.81
448.675	526.81
448.896	615.81
449.117	538.81
449.338	486.81
449.559	562.81
449.779	627.81
450	537.81
450.221	473.81
450.442	456.81
450.662	434.81
450.883	445.81
451.104	440.81
451.324	450.81
451.545	433.81
451.766	422.81
451.986	409.81
452.207	441.81
452.428	397.81
452.648	409.81
452.869	400.81
453.089	417.81
453.31	427.81
453.53	427.81
453.751	410.81
453.971	420.81
454.192	415.81
454.412	407.81
454.633	402.81
454.853	403.81
455.073	414.81
455.294	411.81
455.514	444.81
455.734	459.81
455.955	407.81
456.175	421.81
456.395	410.81
456.616	389.81
456.836	411.81
457.056	405.81
457.276	382.81
457.497	392.81
457.717	408.81
457.937	428.81
458.157	418.81
458.377	418.81
458.598	427.81
458.818	453.81
459.038	490.81
459.258	493.81
459.478	469.81
459.698	455.81
459.918	482.81
460.138	471.81
460.358	498.81
460.578	494.81
460.798	495.81
461.018	511.81
461.238	496.81
461.458	502.81
461.678	473.81
461.898	502.81
462.118	500.81
462.338	533.81
462.558	527.81
462.777	519.81
462.997	550.81
463.217	584.81
463.437	585.81
463.657	548.81
463.876	531.81
464.096	537.81
464.316	541.81
464.536	545.81
464.755	537.81
464.975	522.81
465.195	512.81
465.414	525.81
465.634	512.81
465.854	474.81
466.073	476.81
466.293	467.81
466.512	457.81
466.732	435.81
466.951	441.81
467.171	453.81
467.391	431.81
467.61	459.81
467.829	447.81
468.049	443.81
468.268	430.81
468.488	427.81
468.707	428.81
468.927	439.81
469.146	452.81
469.365	459.81
469.585	431.81
469.804	439.81
470.023	439.81
470.243	444.81
470.462	459.81
470.681	459.81
470.901	446.81
471.12	454.81
471.339	429.81
471.558	435.81
471.777	415.81
471.997	445.81
472.216	461.81
472.435	458.81
472.654	439.81
472.873	450.81
473.092	449.81
473.311	452.81
473.53	445.81
473.749	436.81
473.968	461.81
474.187	499.81
474.406	505.81
474.625	453.81
474.844	465.81
475.063	444.81
475.282	460.81
475.501	414.81
475.72	452.81
475.939	457.81
476.158	460.81
476.377	452.81
476.596	456.81
476.814	489.81
477.033	452.81
477.252	487.81
477.471	472.81
477.69	493.81
477.908	478.81
478.127	489.81
478.346	510.81
478.564	525.81
478.783	525.81
479.002	517.81
479.22	515.81
479.439	539.81
479.658	514.81
479.876	558.81
480.095	573.81
480.313	551.81
480.532	571.81
480.751	567.81
480.969	547.81
481.188	570.81
481.406	575.81
481.624	558.81
481.843	522.81
482.061	535.81
482.28	551.81
482.498	534.81
482.717	516.81
482.935	536.81
483.153	536.81
483.372	532.81
483.59	534.81
483.808	540.81
484.027	505.81
484.245	521.81
484.463	531.81
484.681	542.81
484.9	535.81
485.118	540.81
485.336	548.81
485.554	548.81
485.772	566.81
485.99	543.81
486.209	557.81
486.427	535.81
486.645	547.81
486.863	567.81
487.081	574.81
487.299	541.81
487.517	543.81
487.735	547.81
487.953	563.81
488.171	557.81
488.389	541.81
488.607	561.81
488.825	545.81
489.043	576.81
489.261	557.81
489.479	567.81
489.696	559.81
489.914	545.81
490.132	534.81
490.35	537.81
490.568	577.81
490.786	579.81
491.003	573.81
491.221	576.81
491.439	555.81
491.657	584.81
491.874	579.81
492.092	596.81
492.31	592.81
492.527	599.81
492.745	584.81
492.963	585.81
493.18	573.81
493.398	597.81
493.615	604.81
493.833	590.81
494.05	607.81
494.268	602.81
494.485	616.81
494.703	606.81
494.92	606.81
495.138	595.81
495.355	605.81
495.573	617.81
495.79	608.81
496.008	647.81
496.225	613.81
496.442	617.81
496.66	644.81
496.877	624.81
497.094	647.81
497.312	667.81
497.529	649.81
497.746	681.81
497.963	690.81
498.181	697.81
498.398	687.81
498.615	756.81
498.832	746.81
499.049	790.81
499.267	841.81
499.484	850.81
499.701	921.81
499.918	957.81
500.135	1006.81
500.352	1082.81
500.569	1138.81
500.786	1090.81
501.003	1083.81
501.22	1034.81
501.437	981.81
501.654	907.81
501.871	872.81
502.088	832.81
502.305	796.81
502.522	755.81
502.739	774.81
502.956	695.81
503.172	701.81
503.389	694.81
503.606	676.81
503.823	675.81
504.04	654.81
504.256	675.81
504.473	657.81
504.69	664.81
504.907	675.81
505.123	661.81
505.34	625.81
505.557	599.81
505.773	604.81
505.99	567.81
506.207	575.81
506.423	573.81
506.64	577.81
506.856	560.81
507.073	581.81
507.289	570.81
507.506	577.81
507.722	561.81
507.939	538.81
508.155	549.81
508.372	523.81
508.588	535.81
508.805	550.81
509.021	503.81
509.238	497.81
509.454	523.81
509.67	531.81
509.887	545.81
510.103	536.81
510.319	530.81
510.536	581.81
510.752	772.81
510.968	657.81
511.184	534.81
511.401	502.81
511.617	517.81
511.833	502.81
512.049	488.81
512.265	531.81
512.481	504.81
512.698	527.81
512.914	511.81
513.13	515.81
513.346	527.81
513.562	534.81
513.778	515.81
513.994	520.81
514.21	511.81
514.426	516.81
514.642	539.81
514.858	565.81
515.074	555.81
515.29	577.81
515.506	743.81
515.721	650.81
515.937	587.81
516.153	555.81
516.369	558.81
516.585	565.81
516.801	569.81
517.016	597.81
517.232	583.81
517.448	607.81
517.664	598.81
517.879	606.81
518.095	585.81
518.311	596.81
518.527	588.81
518.742	571.81
518.958	544.81
519.173	549.81
519.389	551.81
519.605	532.81
519.82	529.81
520.036	545.81
520.251	541.81
520.467	552.81
520.682	522.81
520.898	542.81
521.113	530.81
521.329	537.81
521.544	571.81
521.76	619.81
521.975	821.81
522.19	799.81
522.406	582.81
522.621	529.81
522.836	494.81
523.052	502.81
523.267	489.81
523.482	483.81
523.698	478.81
523.913	485.81
524.128	480.81
524.343	454.81
524.559	483.81
524.774	449.81
524.989	463.81
525.204	455.81
525.419	450.81
525.634	441.81
525.849	457.81
526.064	461.81
526.28	457.81
526.495	472.81
526.71	462.81
526.925	464.81
527.14	454.81
527.355	448.81
527.57	439.81
527.785	459.81
527.999	450.81
528.214	467.81
528.429	445.81
528.644	453.81
528.859	428.81
529.074	451.81
529.289	457.81
529.503	473.81
529.718	471.81
529.933	446.81
530.148	453.81
530.363	467.81
530.577	436.81
530.792	437.81
531.007	430.81
531.221	451.81
531.436	435.81
531.651	443.81
531.865	446.81
532.08	449.81
532.295	456.81
532.509	427.81
532.724	449.81
532.938	445.81
533.153	468.81
533.367	446.81
533.582	426.81
533.796	428.81
534.011	446.81
534.225	455.81
534.44	420.81
534.654	462.81
534.868	445.81
535.083	424.81
535.297	443.81
535.511	433.81
535.726	421.81
535.94	448.81
536.154	434.81
536.369	431.81
536.583	414.81
536.797	420.81
537.011	424.81
537.225	419.81
537.44	430.81
537.654	419.81
537.868	424.81
538.082	429.81
538.296	414.81
538.51	420.81
538.724	427.81
538.938	425.81
539.153	405.81
539.367	411.81
539.581	432.81
539.795	415.81
540.009	405.81
540.222	417.81
540.436	418.81
540.65	414.81
540.864	409.81
541.078	413.81
541.292	433.81
541.506	423.81
541.72	413.81
541.934	428.81
542.147	438.81
542.361	407.81
542.575	417.81
542.789	426.81
543.002	405.81
543.216	417.81
543.43	422.81
543.644	425.81
543.857	427.81
544.071	397.81
544.285	444.81
544.498	402.81
544.712	405.81
544.925	414.81
545.139	403.81
545.352	426.81
545.566	408.81
545.779	428.81
545.993	410.81
546.206	422.81
546.42	413.81
546.633	413.81
546.847	400.81
547.06	404.81
547.274	426.81
547.487	421.81
547.7	413.81
547.914	424.81
548.127	418.81
548.34	433.81
548.554	416.81
548.767	437.81
548.98	415.81
549.193	413.81
549.407	427.81
549.62	428.81
549.833	421.81
550.046	430.81
550.259	415.81
550.473	410.81
550.686	433.81
550.899	417.81
551.112	403.81
551.325	394.81
551.538	402.81
551.751	417.81
551.964	409.81
552.177	405.81
552.39	420.81
552.603	434.81
552.816	433.81
553.029	424.81
553.242	434.81
553.455	443.81
553.667	426.81
553.88	443.81
554.093	424.81
554.306	430.81
554.519	421.81
554.732	399.81
554.944	391.81
555.157	408.81
555.37	396.81
555.583	406.81
555.795	408.81
556.008	389.81
556.221	386.81
556.433	375.81
556.646	377.81
556.859	383.81
557.071	376.81
557.284	395.81
557.496	365.81
557.709	366.81
557.921	386.81
558.134	377.81
558.346	386.81
558.559	388.81
558.771	362.81
558.984	372.81
559.196	383.81
559.409	365.81
559.621	377.81
559.833	389.81
560.046	366.81
560.258	372.81
560.47	354.81
560.683	375.81
560.895	373.81
561.107	372.81
561.32	379.81
561.532	352.81
561.744	375.81
561.956	371.81
562.168	360.81
562.381	383.81
562.593	380.81
562.805	382.81
563.017	380.81
563.229	362.81
563.441	365.81
563.653	394.81
563.865	373.81
564.077	394.81
564.289	414.81
564.501	415.81
564.713	392.81
564.925	404.81
565.137	410.81
565.349	417.81
565.561	434.81
565.773	441.81
565.985	443.81
566.197	478.81
566.408	454.81
566.62	468.81
566.832	534.81
567.044	526.81
567.255	539.81
567.467	536.81
567.679	540.81
567.891	542.81
568.102	551.81
568.314	541.81
568.526	532.81
568.737	508.81
568.949	471.81
569.161	461.81
569.372	420.81
569.584	430.81
569.795	405.81
570.007	386.81
570.218	417.81
570.43	399.81
570.641	393.81
570.853	394.81
571.064	372.81
571.276	399.81
571.487	382.81
571.698	374.81
571.91	332.81
572.121	364.81
572.333	372.81
572.544	349.81
572.755	366.81
572.966	345.81
573.178	347.81
573.389	342.81
573.6	344.81
573.811	334.81
574.023	345.81
574.234	330.81
574.445	333.81
574.656	332.81
574.867	338.81
575.078	344.81
575.289	330.81
575.501	338.81
575.712	313.81
575.923	327.81
576.134	329.81
576.345	316.81
576.556	321.81
576.767	329.81
576.978	325.81
577.188	311.81
577.399	321.81
577.61	314.81
577.821	310.81
578.032	323.81
578.243	328.81
578.454	391.81
578.665	349.81
578.875	299.81
579.086	303.81
579.297	308.81
579.508	296.81
579.718	309.81
579.929	301.81
580.14	296.81
580.35	298.81
580.561	315.81
580.772	297.81
580.982	301.81
581.193	297.81
581.403	326.81
581.614	303.81
581.825	296.81
582.035	310.81
582.246	293.81
582.456	295.81
582.667	309.81
582.877	305.81
583.087	305.81
583.298	307.81
583.508	307.81
583.719	287.81
583.929	285.81
584.139	280.81
584.35	291.81
584.56	307.81
584.77	295.81
584.981	268.81
585.191	322.81
585.401	285.81
585.611	299.81
585.821	310.81
586.032	293.81
586.242	295.81
586.452	284.81
586.662	280.81
586.872	298.81
587.082	284.81
587.292	288.81
587.502	278.81
587.713	286.81
587.923	308.81
588.133	292.81
588.343	296.81
588.553	293.81
588.762	301.81
588.972	328.81
589.182	546.81
589.392	556.81
589.602	369.81
589.812	486.81
590.022	396.81
590.232	322.81
590.441	291.81
590.651	294.81
590.861	285.81
591.071	304.81
591.281	294.81
591.49	279.81
591.7	292.81
591.91	314.81
592.119	314.81
592.329	316.81
592.539	320.81
592.748	317.81
592.958	317.81
593.167	336.81
593.377	351.81
593.587	354.81
593.796	338.81
594.006	340.81
594.215	319.81
594.424	334.81
594.634	340.81
594.843	338.81
595.053	339.81
595.262	312.81
595.472	300.81
595.681	306.81
595.89	289.81
596.1	281.81
596.309	290.81
596.518	295.81
596.727	269.81
596.937	278.81
597.146	277.81
597.355	266.81
597.564	282.81
597.774	275.81
597.983	293.81
598.192	276.81
598.401	270.81
598.61	248.81
598.819	248.81
599.028	268.81
599.237	271.81
599.446	266.81
599.655	297.81
599.864	265.81
600.073	252.81
600.282	263.81
600.491	262.81
600.7	259.81
600.909	249.81
601.118	262.81
601.327	242.81
601.536	251.81
601.745	250.81
601.953	239.81
602.162	265.81
602.371	259.81
602.58	246.81
602.789	254.81
602.997	254.81
603.206	249.81
603.415	234.81
603.623	244.81
603.832	238.81
604.041	238.81
604.249	247.81
604.458	245.81
604.666	229.81
604.875	249.81
605.084	231.81
605.292	238.81
605.501	261.81
605.709	246.81
605.918	243.81
606.126	267.81
606.334	251.81
606.543	239.81
606.751	225.81
606.96	235.81
607.168	237.81
607.376	236.81
607.585	246.81
607.793	248.81
608.001	246.81
608.21	244.81
608.418	239.81
608.626	225.81
608.834	247.81
609.043	241.81
609.251	223.81
609.459	233.81
609.667	251.81
609.875	249.81
610.083	243.81
610.291	255.81
610.499	225.81
610.707	236.81
610.916	234.81
611.124	234.81
611.332	231.81
611.54	239.81
611.748	247.81
611.955	236.81
612.163	227.81
612.371	235.81
612.579	226.81
612.787	253.81
612.995	245.81
613.203	226.81
613.411	221.81
613.618	235.81
613.826	245.81
614.034	222.81
614.242	233.81
614.449	239.81
614.657	232.81
614.865	222.81
615.072	227.81
615.28	227.81
615.488	223.81
615.695	228.81
615.903	241.81
616.111	215.81
616.318	235.81
616.526	245.81
616.733	240.81
616.941	227.81
617.148	237.81
617.356	225.81
617.563	226.81
617.771	226.81
617.978	222.81
618.185	220.81
618.393	245.81
618.6	232.81
618.807	233.81
619.015	230.81
619.222	226.81
619.429	218.81
619.637	214.81
619.844	225.81
620.051	217.81
620.258	208.81
620.466	225.81
620.673	205.81
620.88	210.81
621.087	210.81
621.294	224.81
621.501	229.81
621.708	241.81
621.915	222.81
622.122	218.81
622.329	224.81
622.536	223.81
622.743	236.81
622.95	215.81
623.157	215.81
623.364	221.81
623.571	213.81
623.778	214.81
623.985	215.81
624.192	199.81
624.399	217.81
624.606	214.81
624.812	203.81
625.019	204.81
625.226	198.81
625.433	222.81
625.639	226.81
625.846	222.81
626.053	210.81
626.259	198.81
626.466	195.81
626.673	192.81
626.879	200.81
627.086	203.81
627.293	202.81
627.499	189.81
627.706	209.81
627.912	227.81
628.119	205.81
628.325	213.81
628.532	204.81
628.738	218.81
628.945	219.81
629.151	196.81
629.357	186.81
629.564	195.81
629.77	181.81
629.976	185.81
630.183	192.81
630.389	196.81
630.595	204.81
630.802	177.81
631.008	191.81
631.214	196.81
631.42	191.81
631.627	196.81
631.833	188.81
632.039	185.81
632.245	178.81
632.451	183.81
632.657	189.81
632.863	186.81
633.069	193.81
633.275	180.81
633.481	191.81
633.688	157.81
633.893	181.81
634.099	193.81
634.305	189.81
634.511	190.81
634.717	195.81
634.923	197.81
635.129	174.81
635.335	183.81
635.541	193.81
635.747	184.81
635.952	184.81
636.158	171.81
636.364	171.81
636.57	169.81
636.775	198.81
636.981	180.81
637.187	183.81
637.392	161.81
637.598	185.81
637.804	171.81
638.009	175.81
638.215	180.81
638.421	198.81
638.626	185.81
638.832	178.81
639.037	184.81
639.243	177.81
639.448	153.81
639.654	188.81
639.859	182.81
640.065	186.81
640.27	181.81
640.475	192.81
640.681	175.81
640.886	193.81
641.091	182.81
641.297	180.81
641.502	177.81
641.707	174.81
641.913	172.81
642.118	178.81
642.323	187.81
642.528	179.81
642.733	166.81
642.939	173.81
643.144	157.81
643.349	179.81
643.554	169.81
643.759	163.81
643.964	171.81
644.169	155.81
644.374	178.81
644.579	170.81
644.784	164.81
644.989	165.81
645.194	165.81
645.399	169.81
645.604	171.81
645.809	173.81
646.014	166.81
646.219	170.81
646.423	165.81
646.628	167.81
646.833	163.81
647.038	171.81
647.243	170.81
647.447	184.81
647.652	181.81
647.857	177.81
648.062	176.81
648.266	168.81
648.471	189.81
648.676	178.81
648.88	172.81
649.085	177.81
649.289	171.81
649.494	181.81
649.698	189.81
649.903	169.81
650.107	161.81
650.312	154.81
650.516	164.81
650.721	165.81
650.925	156.81
651.13	155.81
651.334	177.81
651.539	162.81
651.743	167.81
651.947	158.81
652.152	169.81
652.356	149.81
652.56	166.81
652.764	168.81
652.969	168.81
653.173	149.81
653.377	156.81
653.581	151.81
653.785	150.81
653.99	159.81
654.194	163.81
654.398	166.81
654.602	145.81
654.806	166.81
655.01	162.81
655.214	158.81
655.418	155.81
655.622	157.81
655.826	173.81
656.03	163.81
656.234	168.81
656.438	185.81
656.642	164.81
656.846	171.81
657.049	162.81
657.253	154.81
657.457	146.81
657.661	138.81
657.865	134.81
658.068	141.81
658.272	118.81
658.476	129.81
658.68	131.81
658.883	107.81
659.087	100.81
659.291	116.81
659.494	113.81
659.698	119.81
659.901	113.81
660.105	90.81
660.309	103.81
660.512	108.81
660.716	91.81
660.919	94.81
661.123	86.81
661.326	106.81
661.53	77.81
661.733	91.81
661.936	85.81
662.14	93.81
662.343	81.81
662.546	93.81
662.75	81.81
662.953	74.81
663.156	75.81
663.36	93.81
663.563	79.81
663.766	91.81
663.969	94.81
664.173	83.81
664.376	86.81
664.579	74.81
664.782	94.81
664.985	84.81
665.188	80.81
665.391	97.81
665.594	95.81
665.797	85.81
666	77.81
666.203	89.81
666.406	79.81
666.609	79.81
666.812	75.81
667.015	82.81
667.218	70.81
667.421	85.81
667.624	94.81
667.827	89.81
668.03	88.81
668.232	77.81
668.435	81.81
668.638	88.81
668.841	75.81
669.043	93.81
669.246	81.81
669.449	81.81
669.651	90.81
669.854	82.81
670.057	72.81
670.259	73.81
670.462	86.81
670.665	76.81
670.867	90.81
671.07	93.81
671.272	88.81
671.475	102.81
671.677	82.81
671.88	77.81
672.082	95.81
672.284	85.81
672.487	99.81
672.689	91.81
672.892	74.81
