Data from 1962.PennyLincolnUp.Lamp.En5.5.200Scan.071719.P1._HRD10591_13-54-06-060.txt Node
Date: Thu Jul 18 13:54:06 EDT 2019
User: cochatt
Spectrometer: HR+D1059
Trigger mode: 1
Integration Time (sec): 1.000000E-1
Scans to average: 1
Electric dark correction enabled: true
Nonlinearity correction enabled: false
Boxcar width: 0
XAxis mode: Wavelengths
Number of Pixels in Spectrum: 2048
>>>>>Begin Spectral Data<<<<<
223.165	-9.06
223.4	-9.06
223.635	-9.06
223.869	-12.06
224.104	-17.06
224.338	-27.06
224.573	-16.06
224.808	-10.06
225.042	-18.06
225.277	3.94
225.511	-4.06
225.746	5.94
225.98	3.94
226.215	18.94
226.449	15.94
226.683	9.94
226.918	14.94
227.152	39.94
227.387	21.94
227.621	25.94
227.856	51.94
228.09	48.94
228.324	48.94
228.559	58.94
228.793	57.94
229.027	95.94
229.262	89.94
229.496	104.94
229.73	114.94
229.964	102.94
230.199	129.94
230.433	109.94
230.667	97.94
230.901	114.94
231.136	96.94
231.37	110.94
231.604	118.94
231.838	123.94
232.072	106.94
232.306	100.94
232.541	114.94
232.775	96.94
233.009	96.94
233.243	105.94
233.477	108.94
233.711	123.94
233.945	119.94
234.179	109.94
234.413	114.94
234.647	94.94
234.881	122.94
235.115	104.94
235.349	96.94
235.583	111.94
235.817	113.94
236.051	121.94
236.285	115.94
236.519	122.94
236.753	104.94
236.987	129.94
237.221	157.94
237.455	180.94
237.689	163.94
237.922	132.94
238.156	121.94
238.39	116.94
238.624	114.94
238.858	126.94
239.091	98.94
239.325	103.94
239.559	118.94
239.793	121.94
240.027	135.94
240.26	131.94
240.494	125.94
240.728	128.94
240.961	139.94
241.195	102.94
241.429	125.94
241.662	119.94
241.896	124.94
242.13	120.94
242.363	115.94
242.597	125.94
242.83	127.94
243.064	123.94
243.298	132.94
243.531	129.94
243.765	133.94
243.998	140.94
244.232	133.94
244.465	139.94
244.699	123.94
244.932	133.94
245.166	117.94
245.399	151.94
245.633	132.94
245.866	137.94
246.099	146.94
246.333	140.94
246.566	164.94
246.8	139.94
247.033	159.94
247.266	138.94
247.5	155.94
247.733	141.94
247.966	150.94
248.2	159.94
248.433	147.94
248.666	137.94
248.899	168.94
249.133	177.94
249.366	189.94
249.599	171.94
249.832	162.94
250.066	153.94
250.299	184.94
250.532	165.94
250.765	166.94
250.998	179.94
251.231	194.94
251.465	193.94
251.698	183.94
251.931	170.94
252.164	167.94
252.397	160.94
252.63	188.94
252.863	180.94
253.096	183.94
253.329	203.94
253.562	195.94
253.795	198.94
254.028	198.94
254.261	185.94
254.494	195.94
254.727	208.94
254.96	206.94
255.193	220.94
255.426	215.94
255.659	207.94
255.892	202.94
256.124	212.94
256.357	192.94
256.59	212.94
256.823	191.94
257.056	206.94
257.289	178.94
257.521	190.94
257.754	191.94
257.987	189.94
258.22	181.94
258.452	190.94
258.685	198.94
258.918	182.94
259.151	205.94
259.383	187.94
259.616	196.94
259.849	201.94
260.081	197.94
260.314	226.94
260.547	226.94
260.779	231.94
261.012	214.94
261.244	213.94
261.477	189.94
261.71	181.94
261.942	198.94
262.175	235.94
262.407	209.94
262.64	198.94
262.872	214.94
263.105	195.94
263.337	189.94
263.57	199.94
263.802	208.94
264.035	198.94
264.267	205.94
264.499	201.94
264.732	198.94
264.964	202.94
265.197	221.94
265.429	209.94
265.661	193.94
265.894	207.94
266.126	213.94
266.358	202.94
266.591	190.94
266.823	215.94
267.055	229.94
267.287	219.94
267.52	208.94
267.752	207.94
267.984	221.94
268.216	234.94
268.448	216.94
268.681	217.94
268.913	224.94
269.145	232.94
269.377	257.94
269.609	242.94
269.841	250.94
270.073	250.94
270.306	249.94
270.538	254.94
270.77	254.94
271.002	271.94
271.234	258.94
271.466	259.94
271.698	276.94
271.93	264.94
272.162	280.94
272.394	278.94
272.626	278.94
272.858	250.94
273.09	241.94
273.322	234.94
273.553	263.94
273.785	227.94
274.017	253.94
274.249	257.94
274.481	260.94
274.713	246.94
274.945	242.94
275.176	255.94
275.408	264.94
275.64	254.94
275.872	250.94
276.104	233.94
276.335	253.94
276.567	264.94
276.799	278.94
277.031	279.94
277.262	277.94
277.494	266.94
277.726	267.94
277.957	265.94
278.189	268.94
278.421	255.94
278.652	231.94
278.884	269.94
279.115	244.94
279.347	246.94
279.579	262.94
279.81	235.94
280.042	261.94
280.273	251.94
280.505	238.94
280.736	255.94
280.968	264.94
281.199	261.94
281.431	250.94
281.662	263.94
281.894	268.94
282.125	254.94
282.356	272.94
282.588	273.94
282.819	278.94
283.051	283.94
283.282	257.94
283.513	258.94
283.745	279.94
283.976	265.94
284.207	277.94
284.439	270.94
284.67	271.94
284.901	271.94
285.132	277.94
285.364	267.94
285.595	273.94
285.826	274.94
286.057	273.94
286.288	281.94
286.52	282.94
286.751	282.94
286.982	289.94
287.213	269.94
287.444	293.94
287.675	279.94
287.906	308.94
288.138	291.94
288.369	274.94
288.6	285.94
288.831	296.94
289.062	290.94
289.293	274.94
289.524	268.94
289.755	302.94
289.986	303.94
290.217	292.94
290.448	277.94
290.679	290.94
290.91	273.94
291.141	253.94
291.371	271.94
291.602	288.94
291.833	281.94
292.064	301.94
292.295	281.94
292.526	286.94
292.757	307.94
292.987	288.94
293.218	291.94
293.449	293.94
293.68	297.94
293.91	286.94
294.141	304.94
294.372	293.94
294.603	287.94
294.833	288.94
295.064	304.94
295.295	293.94
295.525	310.94
295.756	296.94
295.987	304.94
296.217	312.94
296.448	301.94
296.679	313.94
296.909	310.94
297.14	308.94
297.37	303.94
297.601	307.94
297.831	297.94
298.062	285.94
298.292	308.94
298.523	315.94
298.753	315.94
298.984	283.94
299.214	315.94
299.445	298.94
299.675	306.94
299.905	312.94
300.136	313.94
300.366	308.94
300.597	314.94
300.827	322.94
301.057	328.94
301.288	330.94
301.518	331.94
301.748	321.94
301.979	319.94
302.209	343.94
302.439	330.94
302.669	330.94
302.9	346.94
303.13	320.94
303.36	336.94
303.59	338.94
303.82	325.94
304.051	332.94
304.281	331.94
304.511	327.94
304.741	320.94
304.971	332.94
305.201	336.94
305.431	331.94
305.661	314.94
305.891	310.94
306.121	328.94
306.352	319.94
306.582	325.94
306.812	332.94
307.042	335.94
307.272	328.94
307.502	333.94
307.731	330.94
307.961	317.94
308.191	336.94
308.421	334.94
308.651	357.94
308.881	332.94
309.111	323.94
309.341	322.94
309.571	340.94
309.8	350.94
310.03	351.94
310.26	353.94
310.49	342.94
310.72	353.94
310.949	346.94
311.179	365.94
311.409	336.94
311.639	348.94
311.868	371.94
312.098	338.94
312.328	344.94
312.557	354.94
312.787	365.94
313.017	377.94
313.246	348.94
313.476	360.94
313.706	339.94
313.935	365.94
314.165	376.94
314.394	359.94
314.624	373.94
314.853	367.94
315.083	359.94
315.312	375.94
315.542	370.94
315.771	349.94
316.001	365.94
316.23	354.94
316.46	365.94
316.689	349.94
316.919	371.94
317.148	371.94
317.377	371.94
317.607	373.94
317.836	358.94
318.065	366.94
318.295	355.94
318.524	349.94
318.753	359.94
318.983	367.94
319.212	371.94
319.441	374.94
319.67	381.94
319.9	369.94
320.129	378.94
320.358	363.94
320.587	368.94
320.816	383.94
321.046	398.94
321.275	376.94
321.504	365.94
321.733	370.94
321.962	381.94
322.191	372.94
322.42	390.94
322.649	414.94
322.878	387.94
323.108	385.94
323.337	419.94
323.566	442.94
323.795	431.94
324.024	454.94
324.253	502.94
324.482	662.94
324.71	942.94
324.939	1303.94
325.168	1151.94
325.397	659.94
325.626	519.94
325.855	434.94
326.084	438.94
326.313	428.94
326.542	436.94
326.77	490.94
326.999	518.94
327.228	653.94
327.457	856.94
327.686	1045.94
327.914	747.94
328.143	531.94
328.372	498.94
328.6	473.94
328.829	458.94
329.058	443.94
329.287	450.94
329.515	449.94
329.744	435.94
329.972	459.94
330.201	446.94
330.43	468.94
330.658	475.94
330.887	481.94
331.115	485.94
331.344	454.94
331.572	432.94
331.801	431.94
332.03	437.94
332.258	440.94
332.486	427.94
332.715	435.94
332.943	433.94
333.172	434.94
333.4	454.94
333.629	471.94
333.857	464.94
334.085	461.94
334.314	499.94
334.542	495.94
334.771	494.94
334.999	494.94
335.227	452.94
335.455	465.94
335.684	453.94
335.912	450.94
336.14	419.94
336.369	445.94
336.597	447.94
336.825	449.94
337.053	427.94
337.281	437.94
337.51	424.94
337.738	438.94
337.966	426.94
338.194	419.94
338.422	413.94
338.65	418.94
338.878	440.94
339.106	419.94
339.334	420.94
339.562	450.94
339.79	412.94
340.018	406.94
340.246	437.94
340.474	423.94
340.702	412.94
340.93	411.94
341.158	409.94
341.386	405.94
341.614	418.94
341.842	415.94
342.07	397.94
342.298	404.94
342.526	397.94
342.754	401.94
342.981	429.94
343.209	415.94
343.437	421.94
343.665	415.94
343.893	450.94
344.12	454.94
344.348	442.94
344.576	437.94
344.804	427.94
345.031	435.94
345.259	417.94
345.487	414.94
345.714	419.94
345.942	396.94
346.17	411.94
346.397	409.94
346.625	392.94
346.853	396.94
347.08	409.94
347.308	391.94
347.535	395.94
347.763	394.94
347.99	402.94
348.218	403.94
348.445	408.94
348.673	410.94
348.9	401.94
349.128	405.94
349.355	389.94
349.583	387.94
349.81	392.94
350.037	383.94
350.265	384.94
350.492	383.94
350.72	392.94
350.947	376.94
351.174	393.94
351.402	390.94
351.629	400.94
351.856	387.94
352.083	387.94
352.311	406.94
352.538	408.94
352.765	389.94
352.992	394.94
353.22	398.94
353.447	367.94
353.674	377.94
353.901	379.94
354.128	361.94
354.355	361.94
354.583	360.94
354.81	376.94
355.037	377.94
355.264	388.94
355.491	384.94
355.718	386.94
355.945	385.94
356.172	376.94
356.399	371.94
356.626	371.94
356.853	368.94
357.08	382.94
357.307	373.94
357.534	394.94
357.761	368.94
357.988	377.94
358.215	377.94
358.441	351.94
358.668	383.94
358.895	365.94
359.122	395.94
359.349	409.94
359.576	373.94
359.802	386.94
360.029	411.94
360.256	404.94
360.483	406.94
360.709	386.94
360.936	411.94
361.163	393.94
361.39	395.94
361.616	393.94
361.843	389.94
362.07	388.94
362.296	371.94
362.523	406.94
362.749	369.94
362.976	391.94
363.203	407.94
363.429	377.94
363.656	390.94
363.882	392.94
364.109	392.94
364.335	386.94
364.562	387.94
364.788	370.94
365.015	394.94
365.241	386.94
365.468	392.94
365.694	409.94
365.92	382.94
366.147	376.94
366.373	383.94
366.599	376.94
366.826	374.94
367.052	381.94
367.278	369.94
367.505	361.94
367.731	371.94
367.957	385.94
368.184	379.94
368.41	403.94
368.636	381.94
368.862	384.94
369.089	394.94
369.315	375.94
369.541	383.94
369.767	397.94
369.993	387.94
370.219	386.94
370.445	405.94
370.672	383.94
370.898	393.94
371.124	406.94
371.35	404.94
371.576	410.94
371.802	407.94
372.028	396.94
372.254	386.94
372.48	395.94
372.706	391.94
372.932	406.94
373.158	403.94
373.384	403.94
373.61	402.94
373.835	422.94
374.061	386.94
374.287	412.94
374.513	408.94
374.739	411.94
374.965	411.94
375.191	417.94
375.416	426.94
375.642	421.94
375.868	433.94
376.094	401.94
376.319	397.94
376.545	402.94
376.771	387.94
376.997	393.94
377.222	378.94
377.448	392.94
377.674	393.94
377.899	394.94
378.125	397.94
378.35	394.94
378.576	387.94
378.802	398.94
379.027	391.94
379.253	384.94
379.478	380.94
379.704	387.94
379.929	396.94
380.155	378.94
380.38	406.94
380.606	395.94
380.831	371.94
381.057	389.94
381.282	386.94
381.507	392.94
381.733	416.94
381.958	402.94
382.184	391.94
382.409	396.94
382.634	401.94
382.86	397.94
383.085	392.94
383.31	397.94
383.535	405.94
383.761	412.94
383.986	418.94
384.211	424.94
384.436	434.94
384.662	418.94
384.887	422.94
385.112	417.94
385.337	443.94
385.562	431.94
385.787	408.94
386.013	435.94
386.238	458.94
386.463	457.94
386.688	453.94
386.913	446.94
387.138	434.94
387.363	458.94
387.588	451.94
387.813	472.94
388.038	452.94
388.263	454.94
388.488	457.94
388.713	442.94
388.938	449.94
389.163	442.94
389.387	435.94
389.612	433.94
389.837	465.94
390.062	478.94
390.287	431.94
390.512	426.94
390.736	437.94
390.961	439.94
391.186	431.94
391.411	466.94
391.636	470.94
391.86	459.94
392.085	441.94
392.31	479.94
392.534	472.94
392.759	479.94
392.984	468.94
393.208	467.94
393.433	450.94
393.658	457.94
393.882	475.94
394.107	484.94
394.331	464.94
394.556	455.94
394.78	463.94
395.005	455.94
395.229	457.94
395.454	488.94
395.678	486.94
395.903	471.94
396.127	496.94
396.352	460.94
396.576	445.94
396.801	470.94
397.025	477.94
397.249	476.94
397.474	472.94
397.698	494.94
397.922	509.94
398.147	481.94
398.371	505.94
398.595	513.94
398.82	524.94
399.044	549.94
399.268	583.94
399.492	624.94
399.717	651.94
399.941	676.94
400.165	678.94
400.389	659.94
400.613	576.94
400.837	567.94
401.062	537.94
401.286	540.94
401.51	542.94
401.734	537.94
401.958	521.94
402.182	531.94
402.406	543.94
402.63	538.94
402.854	530.94
403.078	547.94
403.302	554.94
403.526	553.94
403.75	571.94
403.974	553.94
404.198	559.94
404.422	584.94
404.645	581.94
404.869	584.94
405.093	587.94
405.317	591.94
405.541	646.94
405.765	602.94
405.988	570.94
406.212	548.94
406.436	589.94
406.66	603.94
406.883	592.94
407.107	635.94
407.331	654.94
407.555	704.94
407.778	696.94
408.002	641.94
408.226	597.94
408.449	597.94
408.673	576.94
408.896	586.94
409.12	630.94
409.344	601.94
409.567	565.94
409.791	579.94
410.014	563.94
410.238	534.94
410.461	565.94
410.685	557.94
410.908	564.94
411.132	581.94
411.355	598.94
411.578	569.94
411.802	582.94
412.025	555.94
412.249	549.94
412.472	567.94
412.695	592.94
412.919	578.94
413.142	549.94
413.365	546.94
413.589	553.94
413.812	522.94
414.035	517.94
414.258	527.94
414.482	504.94
414.705	500.94
414.928	519.94
415.151	507.94
415.374	509.94
415.597	525.94
415.821	515.94
416.044	503.94
416.267	527.94
416.49	513.94
416.713	507.94
416.936	519.94
417.159	516.94
417.382	534.94
417.605	498.94
417.828	509.94
418.051	524.94
418.274	523.94
418.497	525.94
418.72	516.94
418.943	495.94
419.166	539.94
419.389	575.94
419.611	570.94
419.834	540.94
420.057	552.94
420.28	545.94
420.503	524.94
420.726	535.94
420.948	531.94
421.171	578.94
421.394	598.94
421.617	533.94
421.839	534.94
422.062	530.94
422.285	537.94
422.507	577.94
422.73	627.94
422.953	616.94
423.175	573.94
423.398	574.94
423.621	549.94
423.843	545.94
424.066	558.94
424.288	566.94
424.511	568.94
424.733	599.94
424.956	663.94
425.178	636.94
425.401	634.94
425.623	656.94
425.846	564.94
426.068	563.94
426.291	550.94
426.513	521.94
426.735	549.94
426.958	575.94
427.18	631.94
427.402	717.94
427.625	762.94
427.847	662.94
428.069	625.94
428.292	573.94
428.514	531.94
428.736	513.94
428.958	508.94
429.181	506.94
429.403	489.94
429.625	514.94
429.847	530.94
430.069	559.94
430.292	563.94
430.514	508.94
430.736	498.94
430.958	498.94
431.18	482.94
431.402	472.94
431.624	491.94
431.846	481.94
432.068	469.94
432.29	499.94
432.512	470.94
432.734	491.94
432.956	513.94
433.178	513.94
433.4	493.94
433.622	504.94
433.844	500.94
434.066	503.94
434.287	485.94
434.509	470.94
434.731	530.94
434.953	524.94
435.175	539.94
435.397	542.94
435.618	529.94
435.84	558.94
436.062	611.94
436.284	657.94
436.505	575.94
436.727	536.94
436.949	481.94
437.17	494.94
437.392	501.94
437.614	514.94
437.835	538.94
438.057	573.94
438.278	664.94
438.5	630.94
438.721	675.94
438.943	706.94
439.165	581.94
439.386	524.94
439.608	555.94
439.829	538.94
440.05	521.94
440.272	586.94
440.493	546.94
440.715	506.94
440.936	513.94
441.158	518.94
441.379	497.94
441.6	522.94
441.822	537.94
442.043	575.94
442.264	613.94
442.486	631.94
442.707	593.94
442.928	565.94
443.149	550.94
443.371	541.94
443.592	603.94
443.813	648.94
444.034	743.94
444.255	604.94
444.476	573.94
444.698	595.94
444.919	598.94
445.14	690.94
445.361	624.94
445.582	595.94
445.803	588.94
446.024	655.94
446.245	679.94
446.466	630.94
446.687	571.94
446.908	542.94
447.129	515.94
447.35	495.94
447.571	502.94
447.792	480.94
448.013	511.94
448.234	481.94
448.455	518.94
448.675	617.94
448.896	687.94
449.117	618.94
449.338	573.94
449.559	628.94
449.779	721.94
450	589.94
450.221	503.94
450.442	492.94
450.662	475.94
450.883	472.94
451.104	482.94
451.324	482.94
451.545	461.94
451.766	432.94
451.986	461.94
452.207	444.94
452.428	434.94
452.648	453.94
452.869	448.94
453.089	446.94
453.31	434.94
453.53	458.94
453.751	445.94
453.971	449.94
454.192	433.94
454.412	426.94
454.633	420.94
454.853	431.94
455.073	426.94
455.294	463.94
455.514	489.94
455.734	500.94
455.955	435.94
456.175	435.94
456.395	437.94
456.616	439.94
456.836	430.94
457.056	430.94
457.276	423.94
457.497	421.94
457.717	435.94
457.937	425.94
458.157	456.94
458.377	454.94
458.598	458.94
458.818	485.94
459.038	528.94
459.258	555.94
459.478	519.94
459.698	498.94
459.918	488.94
460.138	493.94
460.358	509.94
460.578	533.94
460.798	536.94
461.018	543.94
461.238	544.94
461.458	525.94
461.678	529.94
461.898	527.94
462.118	545.94
462.338	568.94
462.558	584.94
462.777	560.94
462.997	596.94
463.217	613.94
463.437	618.94
463.657	594.94
463.876	577.94
464.096	592.94
464.316	572.94
464.536	571.94
464.755	569.94
464.975	561.94
465.195	548.94
465.414	576.94
465.634	530.94
465.854	502.94
466.073	496.94
466.293	475.94
466.512	461.94
466.732	451.94
466.951	470.94
467.171	477.94
467.391	468.94
467.61	471.94
467.829	480.94
468.049	454.94
468.268	467.94
468.488	458.94
468.707	457.94
468.927	455.94
469.146	462.94
469.365	457.94
469.585	477.94
469.804	466.94
470.023	485.94
470.243	497.94
470.462	501.94
470.681	475.94
470.901	488.94
471.12	456.94
471.339	461.94
471.558	462.94
471.777	458.94
471.997	450.94
472.216	458.94
472.435	489.94
472.654	484.94
472.873	468.94
473.092	450.94
473.311	459.94
473.53	461.94
473.749	474.94
473.968	507.94
474.187	563.94
474.406	565.94
474.625	500.94
474.844	469.94
475.063	460.94
475.282	472.94
475.501	464.94
475.72	473.94
475.939	452.94
476.158	456.94
476.377	472.94
476.596	486.94
476.814	478.94
477.033	488.94
477.252	489.94
477.471	489.94
477.69	515.94
477.908	529.94
478.127	531.94
478.346	512.94
478.564	535.94
478.783	529.94
479.002	558.94
479.22	541.94
479.439	547.94
479.658	562.94
479.876	554.94
480.095	579.94
480.313	616.94
480.532	610.94
480.751	583.94
480.969	586.94
481.188	621.94
481.406	595.94
481.624	579.94
481.843	563.94
482.061	564.94
482.28	538.94
482.498	537.94
482.717	537.94
482.935	552.94
483.153	523.94
483.372	534.94
483.59	516.94
483.808	556.94
484.027	553.94
484.245	578.94
484.463	561.94
484.681	557.94
484.9	543.94
485.118	554.94
485.336	559.94
485.554	587.94
485.772	569.94
485.99	563.94
486.209	611.94
486.427	573.94
486.645	573.94
486.863	571.94
487.081	573.94
487.299	586.94
487.517	582.94
487.735	578.94
487.953	551.94
488.171	552.94
488.389	582.94
488.607	587.94
488.825	587.94
489.043	554.94
489.261	597.94
489.479	575.94
489.696	601.94
489.914	570.94
490.132	586.94
490.35	590.94
490.568	595.94
490.786	614.94
491.003	611.94
491.221	586.94
491.439	606.94
491.657	625.94
491.874	597.94
492.092	612.94
492.31	630.94
492.527	631.94
492.745	638.94
492.963	646.94
493.18	636.94
493.398	645.94
493.615	645.94
493.833	641.94
494.05	643.94
494.268	630.94
494.485	644.94
494.703	638.94
494.92	674.94
495.138	640.94
495.355	663.94
495.573	653.94
495.79	669.94
496.008	650.94
496.225	629.94
496.442	656.94
496.66	678.94
496.877	655.94
497.094	691.94
497.312	680.94
497.529	691.94
497.746	721.94
497.963	721.94
498.181	776.94
498.398	767.94
498.615	808.94
498.832	824.94
499.049	835.94
499.267	895.94
499.484	903.94
499.701	969.94
499.918	1009.94
500.135	1118.94
500.352	1161.94
500.569	1181.94
500.786	1225.94
501.003	1177.94
501.22	1109.94
501.437	1076.94
501.654	990.94
501.871	952.94
502.088	889.94
502.305	854.94
502.522	814.94
502.739	805.94
502.956	763.94
503.172	784.94
503.389	739.94
503.606	727.94
503.823	705.94
504.04	705.94
504.256	701.94
504.473	713.94
504.69	700.94
504.907	689.94
505.123	659.94
505.34	670.94
505.557	669.94
505.773	617.94
505.99	632.94
506.207	627.94
506.423	621.94
506.64	625.94
506.856	613.94
507.073	629.94
507.289	614.94
507.506	615.94
507.722	625.94
507.939	612.94
508.155	593.94
508.372	586.94
508.588	567.94
508.805	572.94
509.021	578.94
509.238	599.94
509.454	614.94
509.67	614.94
509.887	555.94
510.103	587.94
510.319	569.94
510.536	621.94
510.752	883.94
510.968	763.94
511.184	570.94
511.401	553.94
511.617	573.94
511.833	567.94
512.049	558.94
512.265	555.94
512.481	537.94
512.698	538.94
512.914	536.94
513.13	554.94
513.346	554.94
513.562	526.94
513.778	561.94
513.994	534.94
514.21	572.94
514.426	567.94
514.642	596.94
514.858	572.94
515.074	616.94
515.29	648.94
515.506	810.94
515.721	744.94
515.937	611.94
516.153	614.94
516.369	609.94
516.585	593.94
516.801	634.94
517.016	609.94
517.232	621.94
517.448	601.94
517.664	629.94
517.879	655.94
518.095	625.94
518.311	611.94
518.527	603.94
518.742	614.94
518.958	596.94
519.173	582.94
519.389	585.94
519.605	585.94
519.82	558.94
520.036	566.94
520.251	560.94
520.467	572.94
520.682	569.94
520.898	565.94
521.113	591.94
521.329	585.94
521.544	615.94
521.76	687.94
521.975	929.94
522.19	897.94
522.406	641.94
522.621	570.94
522.836	546.94
523.052	500.94
523.267	527.94
523.482	498.94
523.698	505.94
523.913	486.94
524.128	490.94
524.343	514.94
524.559	486.94
524.774	499.94
524.989	486.94
525.204	509.94
525.419	495.94
525.634	469.94
525.849	513.94
526.064	485.94
526.28	473.94
526.495	472.94
526.71	467.94
526.925	481.94
527.14	474.94
527.355	459.94
527.57	466.94
527.785	474.94
527.999	473.94
528.214	469.94
528.429	481.94
528.644	473.94
528.859	479.94
529.074	455.94
529.289	472.94
529.503	511.94
529.718	498.94
529.933	480.94
530.148	468.94
530.363	478.94
530.577	466.94
530.792	465.94
531.007	478.94
531.221	456.94
531.436	470.94
531.651	453.94
531.865	466.94
532.08	465.94
532.295	453.94
532.509	467.94
532.724	451.94
532.938	451.94
533.153	455.94
533.367	455.94
533.582	463.94
533.796	463.94
534.011	467.94
534.225	452.94
534.44	455.94
534.654	464.94
534.868	469.94
535.083	474.94
535.297	474.94
535.511	457.94
535.726	455.94
535.94	442.94
536.154	428.94
536.369	437.94
536.583	447.94
536.797	426.94
537.011	438.94
537.225	422.94
537.44	433.94
537.654	443.94
537.868	455.94
538.082	435.94
538.296	430.94
538.51	471.94
538.724	436.94
538.938	432.94
539.153	429.94
539.367	441.94
539.581	445.94
539.795	447.94
540.009	427.94
540.222	442.94
540.436	450.94
540.65	441.94
540.864	435.94
541.078	439.94
541.292	440.94
541.506	427.94
541.72	445.94
541.934	421.94
542.147	432.94
542.361	427.94
542.575	419.94
542.789	408.94
543.002	425.94
543.216	426.94
543.43	426.94
543.644	447.94
543.857	447.94
544.071	439.94
544.285	457.94
544.498	438.94
544.712	438.94
544.925	414.94
545.139	418.94
545.352	424.94
545.566	429.94
545.779	459.94
545.993	445.94
546.206	429.94
546.42	425.94
546.633	433.94
546.847	438.94
547.06	439.94
547.274	436.94
547.487	432.94
547.7	418.94
547.914	409.94
548.127	423.94
548.34	412.94
548.554	441.94
548.767	444.94
548.98	432.94
549.193	443.94
549.407	433.94
549.62	455.94
549.833	434.94
550.046	456.94
550.259	421.94
550.473	404.94
550.686	430.94
550.899	421.94
551.112	423.94
551.325	417.94
551.538	414.94
551.751	413.94
551.964	418.94
552.177	441.94
552.39	441.94
552.603	452.94
552.816	440.94
553.029	418.94
553.242	441.94
553.455	467.94
553.667	448.94
553.88	465.94
554.093	447.94
554.306	439.94
554.519	422.94
554.732	434.94
554.944	424.94
555.157	441.94
555.37	430.94
555.583	407.94
555.795	418.94
556.008	427.94
556.221	382.94
556.433	398.94
556.646	373.94
556.859	386.94
557.071	387.94
557.284	383.94
557.496	394.94
557.709	383.94
557.921	387.94
558.134	378.94
558.346	389.94
558.559	399.94
558.771	374.94
558.984	387.94
559.196	388.94
559.409	374.94
559.621	388.94
559.833	359.94
560.046	369.94
560.258	386.94
560.47	374.94
560.683	381.94
560.895	379.94
561.107	404.94
561.32	384.94
561.532	372.94
561.744	385.94
561.956	383.94
562.168	388.94
562.381	385.94
562.593	382.94
562.805	384.94
563.017	378.94
563.229	378.94
563.441	387.94
563.653	369.94
563.865	407.94
564.077	415.94
564.289	400.94
564.501	400.94
564.713	417.94
564.925	420.94
565.137	409.94
565.349	425.94
565.561	439.94
565.773	445.94
565.985	442.94
566.197	454.94
566.408	499.94
566.62	524.94
566.832	526.94
567.044	549.94
567.255	531.94
567.467	545.94
567.679	550.94
567.891	558.94
568.102	583.94
568.314	577.94
568.526	541.94
568.737	491.94
568.949	495.94
569.161	450.94
569.372	414.94
569.584	417.94
569.795	414.94
570.007	406.94
570.218	415.94
570.43	419.94
570.641	389.94
570.853	371.94
571.064	402.94
571.276	382.94
571.487	377.94
571.698	379.94
571.91	378.94
572.121	376.94
572.333	362.94
572.544	362.94
572.755	338.94
572.966	353.94
573.178	343.94
573.389	334.94
573.6	343.94
573.811	348.94
574.023	343.94
574.234	342.94
574.445	343.94
574.656	338.94
574.867	338.94
575.078	328.94
575.289	355.94
575.501	341.94
575.712	315.94
575.923	335.94
576.134	322.94
576.345	286.94
576.556	302.94
576.767	309.94
576.978	327.94
577.188	336.94
577.399	321.94
577.61	309.94
577.821	331.94
578.032	319.94
578.243	317.94
578.454	417.94
578.665	367.94
578.875	312.94
579.086	301.94
579.297	307.94
579.508	285.94
579.718	297.94
579.929	299.94
580.14	289.94
580.35	307.94
580.561	295.94
580.772	295.94
580.982	315.94
581.193	316.94
581.403	287.94
581.614	309.94
581.825	296.94
582.035	305.94
582.246	310.94
582.456	297.94
582.667	295.94
582.877	299.94
583.087	290.94
583.298	309.94
583.508	318.94
583.719	299.94
583.929	297.94
584.139	302.94
584.35	277.94
584.56	296.94
584.77	306.94
584.981	297.94
585.191	297.94
585.401	309.94
585.611	308.94
585.821	297.94
586.032	285.94
586.242	290.94
586.452	287.94
586.662	302.94
586.872	285.94
587.082	296.94
587.292	286.94
587.502	295.94
587.713	317.94
587.923	295.94
588.133	294.94
588.343	266.94
588.553	265.94
588.762	297.94
588.972	296.94
589.182	327.94
589.392	334.94
589.602	310.94
589.812	307.94
590.022	327.94
590.232	289.94
590.441	271.94
590.651	297.94
590.861	280.94
591.071	282.94
591.281	285.94
591.49	292.94
591.7	304.94
591.91	307.94
592.119	319.94
592.329	325.94
592.539	309.94
592.748	321.94
592.958	337.94
593.167	336.94
593.377	334.94
593.587	330.94
593.796	327.94
594.006	325.94
594.215	342.94
594.424	317.94
594.634	325.94
594.843	318.94
595.053	314.94
595.262	317.94
595.472	309.94
595.681	325.94
595.89	295.94
596.1	294.94
596.309	282.94
596.518	295.94
596.727	261.94
596.937	268.94
597.146	259.94
597.355	257.94
597.564	268.94
597.774	284.94
597.983	257.94
598.192	287.94
598.401	273.94
598.61	265.94
598.819	263.94
599.028	263.94
599.237	255.94
599.446	259.94
599.655	254.94
599.864	255.94
600.073	256.94
600.282	272.94
600.491	250.94
600.7	247.94
600.909	241.94
601.118	271.94
601.327	266.94
601.536	249.94
601.745	255.94
601.953	261.94
602.162	253.94
602.371	241.94
602.58	252.94
602.789	236.94
602.997	257.94
603.206	249.94
603.415	244.94
603.623	239.94
603.832	239.94
604.041	248.94
604.249	221.94
604.458	245.94
604.666	224.94
604.875	237.94
605.084	214.94
605.292	240.94
605.501	231.94
605.709	229.94
605.918	241.94
606.126	245.94
606.334	242.94
606.543	231.94
606.751	231.94
606.96	242.94
607.168	227.94
607.376	241.94
607.585	226.94
607.793	233.94
608.001	231.94
608.21	234.94
608.418	247.94
608.626	245.94
608.834	230.94
609.043	234.94
609.251	250.94
609.459	233.94
609.667	228.94
609.875	229.94
610.083	235.94
610.291	226.94
610.499	222.94
610.707	239.94
610.916	231.94
611.124	226.94
611.332	237.94
611.54	242.94
611.748	256.94
611.955	230.94
612.163	227.94
612.371	228.94
612.579	235.94
612.787	215.94
612.995	234.94
613.203	224.94
613.411	233.94
613.618	214.94
613.826	219.94
614.034	239.94
614.242	244.94
614.449	232.94
614.657	225.94
614.865	211.94
615.072	216.94
615.28	227.94
615.488	227.94
615.695	221.94
615.903	221.94
616.111	217.94
616.318	215.94
616.526	206.94
616.733	244.94
616.941	221.94
617.148	222.94
617.356	215.94
617.563	210.94
617.771	224.94
617.978	223.94
618.185	223.94
618.393	231.94
618.6	230.94
618.807	220.94
619.015	222.94
619.222	223.94
619.429	210.94
619.637	217.94
619.844	220.94
620.051	217.94
620.258	207.94
620.466	235.94
620.673	218.94
620.88	196.94
621.087	231.94
621.294	212.94
621.501	210.94
621.708	212.94
621.915	228.94
622.122	212.94
622.329	224.94
622.536	211.94
622.743	205.94
622.95	224.94
623.157	199.94
623.364	202.94
623.571	211.94
623.778	209.94
623.985	217.94
624.192	215.94
624.399	210.94
624.606	219.94
624.812	200.94
625.019	189.94
625.226	210.94
625.433	218.94
625.639	216.94
625.846	200.94
626.053	189.94
626.259	196.94
626.466	201.94
626.673	196.94
626.879	206.94
627.086	189.94
627.293	201.94
627.499	194.94
627.706	196.94
627.912	181.94
628.119	185.94
628.325	202.94
628.532	198.94
628.738	194.94
628.945	188.94
629.151	195.94
629.357	198.94
629.564	189.94
629.77	195.94
629.976	192.94
630.183	199.94
630.389	184.94
630.595	175.94
630.802	180.94
631.008	190.94
631.214	190.94
631.42	174.94
631.627	190.94
631.833	186.94
632.039	182.94
632.245	178.94
632.451	187.94
632.657	181.94
632.863	190.94
633.069	191.94
633.275	203.94
633.481	192.94
633.688	186.94
633.893	191.94
634.099	189.94
634.305	177.94
634.511	186.94
634.717	184.94
634.923	202.94
635.129	187.94
635.335	181.94
635.541	182.94
635.747	183.94
635.952	168.94
636.158	157.94
636.364	166.94
636.57	163.94
636.775	179.94
636.981	180.94
637.187	185.94
637.392	170.94
637.598	168.94
637.804	173.94
638.009	170.94
638.215	177.94
638.421	182.94
638.626	170.94
638.832	174.94
639.037	177.94
639.243	170.94
639.448	185.94
639.654	175.94
639.859	178.94
640.065	176.94
640.27	181.94
640.475	172.94
640.681	148.94
640.886	164.94
641.091	185.94
641.297	178.94
641.502	160.94
641.707	179.94
641.913	180.94
642.118	166.94
642.323	167.94
642.528	177.94
642.733	169.94
642.939	156.94
643.144	163.94
643.349	165.94
643.554	165.94
643.759	162.94
643.964	161.94
644.169	169.94
644.374	152.94
644.579	163.94
644.784	159.94
644.989	155.94
645.194	155.94
645.399	157.94
645.604	146.94
645.809	159.94
646.014	181.94
646.219	172.94
646.423	178.94
646.628	170.94
646.833	165.94
647.038	170.94
647.243	153.94
647.447	173.94
647.652	167.94
647.857	151.94
648.062	157.94
648.266	169.94
648.471	157.94
648.676	181.94
648.88	173.94
649.085	167.94
649.289	161.94
649.494	160.94
649.698	193.94
649.903	168.94
650.107	168.94
650.312	161.94
650.516	164.94
650.721	161.94
650.925	157.94
651.13	147.94
651.334	153.94
651.539	139.94
651.743	153.94
651.947	124.94
652.152	152.94
652.356	138.94
652.56	146.94
652.764	140.94
652.969	122.94
653.173	127.94
653.377	137.94
653.581	152.94
653.785	137.94
653.99	149.94
654.194	130.94
654.398	147.94
654.602	151.94
654.806	153.94
655.01	142.94
655.214	142.94
655.418	126.94
655.622	134.94
655.826	130.94
656.03	151.94
656.234	142.94
656.438	145.94
656.642	147.94
656.846	145.94
657.049	134.94
657.253	137.94
657.457	127.94
657.661	121.94
657.865	103.94
658.068	117.94
658.272	116.94
658.476	110.94
658.68	111.94
658.883	98.94
659.087	109.94
659.291	113.94
659.494	104.94
659.698	97.94
659.901	75.94
660.105	89.94
660.309	88.94
660.512	96.94
660.716	91.94
660.919	95.94
661.123	87.94
661.326	98.94
661.53	93.94
661.733	84.94
661.936	83.94
662.14	92.94
662.343	94.94
662.546	88.94
662.75	79.94
662.953	79.94
663.156	90.94
663.36	79.94
663.563	91.94
663.766	87.94
663.969	83.94
664.173	80.94
664.376	87.94
664.579	73.94
664.782	87.94
664.985	82.94
665.188	82.94
665.391	74.94
665.594	74.94
665.797	72.94
666	71.94
666.203	75.94
666.406	81.94
666.609	86.94
666.812	72.94
667.015	69.94
667.218	93.94
667.421	81.94
667.624	78.94
667.827	85.94
668.03	76.94
668.232	86.94
668.435	74.94
668.638	88.94
668.841	83.94
669.043	87.94
669.246	82.94
669.449	82.94
669.651	82.94
669.854	70.94
670.057	84.94
670.259	90.94
670.462	80.94
670.665	87.94
670.867	71.94
671.07	79.94
671.272	81.94
671.475	76.94
671.677	65.94
671.88	67.94
672.082	84.94
672.284	79.94
672.487	64.94
672.689	83.94
672.892	93.94
