Data from 1962.PennyLincolnUp.Lamp.En5.5.200Scan.071719.P1._HRD10591_13-55-36-061.txt Node
Date: Thu Jul 18 13:55:36 EDT 2019
User: cochatt
Spectrometer: HR+D1059
Trigger mode: 1
Integration Time (sec): 1.000000E-1
Scans to average: 1
Electric dark correction enabled: true
Nonlinearity correction enabled: false
Boxcar width: 0
XAxis mode: Wavelengths
Number of Pixels in Spectrum: 2048
>>>>>Begin Spectral Data<<<<<
223.165	-12
223.4	-12
223.635	-12
223.869	-22
224.104	-15
224.338	-12
224.573	-20
224.808	-10
225.042	-7
225.277	-13
225.511	-5
225.746	1
225.98	-8
226.215	3
226.449	25
226.683	43
226.918	23
227.152	29
227.387	24
227.621	38
227.856	38
228.09	28
228.324	64
228.559	58
228.793	61
229.027	84
229.262	106
229.496	100
229.73	118
229.964	135
230.199	102
230.433	107
230.667	119
230.901	112
231.136	90
231.37	115
231.604	105
231.838	126
232.072	113
232.306	118
232.541	107
232.775	119
233.009	103
233.243	104
233.477	116
233.711	123
233.945	123
234.179	109
234.413	124
234.647	126
234.881	125
235.115	117
235.349	119
235.583	113
235.817	131
236.051	119
236.285	131
236.519	129
236.753	113
236.987	141
237.221	164
237.455	198
237.689	173
237.922	135
238.156	143
238.39	134
238.624	127
238.858	129
239.091	125
239.325	128
239.559	136
239.793	128
240.027	119
240.26	143
240.494	148
240.728	131
240.961	140
241.195	146
241.429	136
241.662	137
241.896	129
242.13	145
242.363	127
242.597	143
242.83	143
243.064	138
243.298	120
243.531	130
243.765	137
243.998	149
244.232	143
244.465	145
244.699	149
244.932	144
245.166	156
245.399	147
245.633	137
245.866	132
246.099	143
246.333	146
246.566	137
246.8	150
247.033	151
247.266	142
247.5	139
247.733	161
247.966	172
248.2	164
248.433	165
248.666	182
248.899	177
249.133	182
249.366	195
249.599	200
249.832	163
250.066	187
250.299	183
250.532	176
250.765	174
250.998	203
251.231	205
251.465	204
251.698	199
251.931	187
252.164	187
252.397	189
252.63	208
252.863	195
253.096	196
253.329	199
253.562	208
253.795	214
254.028	213
254.261	200
254.494	182
254.727	219
254.96	267
255.193	249
255.426	240
255.659	207
255.892	207
256.124	201
256.357	212
256.59	190
256.823	188
257.056	206
257.289	200
257.521	217
257.754	204
257.987	196
258.22	213
258.452	206
258.685	189
258.918	217
259.151	213
259.383	199
259.616	215
259.849	214
260.081	222
260.314	243
260.547	248
260.779	230
261.012	242
261.244	223
261.477	220
261.71	208
261.942	206
262.175	215
262.407	220
262.64	212
262.872	220
263.105	204
263.337	206
263.57	210
263.802	233
264.035	207
264.267	188
264.499	217
264.732	191
264.964	224
265.197	224
265.429	233
265.661	209
265.894	224
266.126	206
266.358	222
266.591	231
266.823	232
267.055	222
267.287	224
267.52	208
267.752	219
267.984	243
268.216	219
268.448	219
268.681	226
268.913	239
269.145	270
269.377	271
269.609	258
269.841	271
270.073	279
270.306	288
270.538	297
270.77	301
271.002	293
271.234	274
271.466	282
271.698	295
271.93	294
272.162	297
272.394	310
272.626	299
272.858	284
273.09	284
273.322	272
273.553	261
273.785	252
274.017	276
274.249	264
274.481	272
274.713	265
274.945	281
275.176	271
275.408	261
275.64	277
275.872	268
276.104	268
276.335	253
276.567	269
276.799	271
277.031	289
277.262	298
277.494	323
277.726	307
277.957	280
278.189	277
278.421	268
278.652	259
278.884	283
279.115	262
279.347	267
279.579	287
279.81	265
280.042	263
280.273	308
280.505	279
280.736	272
280.968	278
281.199	254
281.431	304
281.662	281
281.894	297
282.125	282
282.356	279
282.588	300
282.819	299
283.051	275
283.282	280
283.513	287
283.745	269
283.976	300
284.207	316
284.439	295
284.67	274
284.901	272
285.132	297
285.364	288
285.595	307
285.826	279
286.057	297
286.288	304
286.52	312
286.751	305
286.982	286
287.213	280
287.444	300
287.675	317
287.906	303
288.138	321
288.369	307
288.6	301
288.831	301
289.062	308
289.293	309
289.524	308
289.755	296
289.986	291
290.217	318
290.448	295
290.679	290
290.91	318
291.141	313
291.371	306
291.602	292
291.833	311
292.064	293
292.295	297
292.526	296
292.757	311
292.987	317
293.218	314
293.449	319
293.68	328
293.91	308
294.141	327
294.372	319
294.603	308
294.833	319
295.064	312
295.295	303
295.525	299
295.756	318
295.987	314
296.217	336
296.448	325
296.679	324
296.909	318
297.14	317
297.37	329
297.601	317
297.831	320
298.062	311
298.292	319
298.523	346
298.753	313
298.984	338
299.214	337
299.445	322
299.675	323
299.905	338
300.136	336
300.366	340
300.597	330
300.827	321
301.057	348
301.288	336
301.518	341
301.748	331
301.979	341
302.209	357
302.439	349
302.669	355
302.9	337
303.13	342
303.36	341
303.59	340
303.82	353
304.051	353
304.281	331
304.511	342
304.741	354
304.971	352
305.201	337
305.431	327
305.661	353
305.891	341
306.121	328
306.352	337
306.582	349
306.812	350
307.042	338
307.272	347
307.502	361
307.731	337
307.961	355
308.191	355
308.421	358
308.651	339
308.881	350
309.111	349
309.341	378
309.571	361
309.8	369
310.03	348
310.26	373
310.49	360
310.72	379
310.949	373
311.179	383
311.409	365
311.639	379
311.868	354
312.098	377
312.328	391
312.557	388
312.787	397
313.017	404
313.246	384
313.476	399
313.706	384
313.935	395
314.165	384
314.394	416
314.624	378
314.853	388
315.083	392
315.312	392
315.542	379
315.771	373
316.001	397
316.23	391
316.46	371
316.689	392
316.919	379
317.148	396
317.377	378
317.607	395
317.836	395
318.065	360
318.295	391
318.524	395
318.753	386
318.983	385
319.212	375
319.441	380
319.67	374
319.9	379
320.129	375
320.358	404
320.587	407
320.816	379
321.046	396
321.275	393
321.504	393
321.733	383
321.962	408
322.191	405
322.42	421
322.649	427
322.878	438
323.108	431
323.337	455
323.566	440
323.795	481
324.024	528
324.253	600
324.482	793
324.71	1158
324.939	1645
325.168	1421
325.397	773
325.626	565
325.855	517
326.084	480
326.313	464
326.542	476
326.77	505
326.999	571
327.228	721
327.457	1035
327.686	1257
327.914	875
328.143	613
328.372	549
328.6	490
328.829	516
329.058	508
329.287	521
329.515	497
329.744	488
329.972	490
330.201	490
330.43	528
330.658	530
330.887	532
331.115	542
331.344	504
331.572	500
331.801	469
332.03	495
332.258	488
332.486	488
332.715	454
332.943	489
333.172	487
333.4	489
333.629	521
333.857	517
334.085	527
334.314	517
334.542	525
334.771	545
334.999	517
335.227	493
335.455	470
335.684	499
335.912	484
336.14	474
336.369	469
336.597	483
336.825	476
337.053	455
337.281	443
337.51	448
337.738	470
337.966	457
338.194	440
338.422	475
338.65	449
338.878	461
339.106	460
339.334	443
339.562	439
339.79	448
340.018	456
340.246	458
340.474	450
340.702	430
340.93	421
341.158	435
341.386	431
341.614	461
341.842	461
342.07	437
342.298	429
342.526	418
342.754	425
342.981	424
343.209	446
343.437	444
343.665	443
343.893	485
344.12	497
344.348	462
344.576	451
344.804	473
345.031	465
345.259	436
345.487	451
345.714	441
345.942	428
346.17	442
346.397	425
346.625	424
346.853	419
347.08	428
347.308	435
347.535	419
347.763	437
347.99	428
348.218	430
348.445	433
348.673	443
348.9	423
349.128	411
349.355	395
349.583	416
349.81	416
350.037	418
350.265	425
350.492	410
350.72	419
350.947	427
351.174	415
351.402	423
351.629	419
351.856	412
352.083	430
352.311	439
352.538	427
352.765	422
352.992	420
353.22	431
353.447	422
353.674	399
353.901	406
354.128	410
354.355	399
354.583	400
354.81	411
355.037	398
355.264	399
355.491	402
355.718	399
355.945	399
356.172	415
356.399	407
356.626	421
356.853	393
357.08	392
357.307	414
357.534	407
357.761	400
357.988	401
358.215	401
358.441	427
358.668	405
358.895	407
359.122	412
359.349	422
359.576	417
359.802	424
360.029	430
360.256	446
360.483	428
360.709	411
360.936	414
361.163	411
361.39	408
361.616	411
361.843	413
362.07	422
362.296	422
362.523	429
362.749	407
362.976	423
363.203	430
363.429	419
363.656	409
363.882	401
364.109	401
364.335	440
364.562	405
364.788	403
365.015	417
365.241	412
365.468	421
365.694	425
365.92	433
366.147	400
366.373	419
366.599	393
366.826	412
367.052	402
367.278	413
367.505	393
367.731	429
367.957	405
368.184	401
368.41	425
368.636	414
368.862	428
369.089	417
369.315	410
369.541	407
369.767	420
369.993	405
370.219	406
370.445	401
370.672	404
370.898	409
371.124	412
371.35	413
371.576	404
371.802	428
372.028	402
372.254	411
372.48	410
372.706	432
372.932	423
373.158	432
373.384	416
373.61	427
373.835	418
374.061	422
374.287	438
374.513	427
374.739	411
374.965	437
375.191	456
375.416	452
375.642	429
375.868	422
376.094	435
376.319	430
376.545	399
376.771	422
376.997	443
377.222	424
377.448	424
377.674	398
377.899	399
378.125	412
378.35	410
378.576	414
378.802	411
379.027	412
379.253	404
379.478	419
379.704	422
379.929	414
380.155	408
380.38	420
380.606	422
380.831	414
381.057	427
381.282	421
381.507	409
381.733	419
381.958	423
382.184	416
382.409	431
382.634	436
382.86	448
383.085	438
383.31	440
383.535	445
383.761	448
383.986	450
384.211	445
384.436	465
384.662	443
384.887	456
385.112	465
385.337	448
385.562	461
385.787	474
386.013	493
386.238	480
386.463	471
386.688	461
386.913	467
387.138	490
387.363	463
387.588	473
387.813	478
388.038	464
388.263	479
388.488	460
388.713	466
388.938	483
389.163	461
389.387	486
389.612	453
389.837	478
390.062	471
390.287	471
390.512	471
390.736	480
390.961	472
391.186	478
391.411	469
391.636	487
391.86	519
392.085	515
392.31	512
392.534	495
392.759	506
392.984	488
393.208	481
393.433	463
393.658	492
393.882	488
394.107	501
394.331	492
394.556	487
394.78	503
395.005	497
395.229	490
395.454	494
395.678	510
395.903	515
396.127	525
396.352	542
396.576	484
396.801	474
397.025	524
397.249	517
397.474	525
397.698	547
397.922	519
398.147	547
398.371	575
398.595	526
398.82	561
399.044	579
399.268	589
399.492	625
399.717	704
399.941	696
400.165	726
400.389	686
400.613	650
400.837	581
401.062	578
401.286	568
401.51	595
401.734	549
401.958	576
402.182	559
402.406	574
402.63	571
402.854	572
403.078	602
403.302	600
403.526	590
403.75	575
403.974	605
404.198	599
404.422	606
404.645	591
404.869	598
405.093	607
405.317	671
405.541	663
405.765	624
405.988	620
406.212	603
406.436	621
406.66	627
406.883	619
407.107	667
407.331	710
407.555	750
407.778	762
408.002	714
408.226	649
408.449	656
408.673	653
408.896	627
409.12	659
409.344	634
409.567	614
409.791	605
410.014	605
410.238	609
410.461	599
410.685	590
410.908	581
411.132	641
411.355	636
411.578	623
411.802	590
412.025	570
412.249	577
412.472	600
412.695	615
412.919	628
413.142	581
413.365	579
413.589	559
413.812	557
414.035	542
414.258	539
414.482	558
414.705	574
414.928	545
415.151	567
415.374	544
415.597	528
415.821	547
416.044	547
416.267	558
416.49	549
416.713	524
416.936	550
417.159	554
417.382	530
417.605	539
417.828	547
418.051	549
418.274	558
418.497	573
418.72	545
418.943	545
419.166	544
419.389	606
419.611	585
419.834	580
420.057	596
420.28	583
420.503	564
420.726	583
420.948	568
421.171	615
421.394	648
421.617	577
421.839	553
422.062	554
422.285	559
422.507	625
422.73	687
422.953	671
423.175	609
423.398	602
423.621	576
423.843	611
424.066	593
424.288	615
424.511	603
424.733	666
424.956	730
425.178	692
425.401	671
425.623	700
425.846	611
426.068	603
426.291	593
426.513	581
426.735	581
426.958	604
427.18	669
427.402	784
427.625	854
427.847	731
428.069	669
428.292	613
428.514	557
428.736	550
428.958	532
429.181	541
429.403	549
429.625	553
429.847	571
430.069	630
430.292	610
430.514	563
430.736	544
430.958	523
431.18	527
431.402	522
431.624	521
431.846	517
432.068	494
432.29	502
432.512	525
432.734	520
432.956	523
433.178	546
433.4	535
433.622	544
433.844	523
434.066	526
434.287	508
434.509	529
434.731	545
434.953	567
435.175	560
435.397	593
435.618	586
435.84	619
436.062	668
436.284	733
436.505	627
436.727	593
436.949	528
437.17	535
437.392	527
437.614	538
437.835	563
438.057	645
438.278	712
438.5	714
438.721	788
438.943	737
439.165	636
439.386	565
439.608	567
439.829	564
440.05	589
440.272	618
440.493	590
440.715	572
440.936	544
441.158	547
441.379	563
441.6	552
441.822	573
442.043	616
442.264	674
442.486	717
442.707	596
442.928	599
443.149	598
443.371	600
443.592	648
443.813	700
444.034	769
444.255	672
444.476	621
444.698	620
444.919	616
445.14	736
445.361	661
445.582	637
445.803	654
446.024	746
446.245	750
446.466	697
446.687	601
446.908	559
447.129	530
447.35	517
447.571	540
447.792	551
448.013	531
448.234	533
448.455	572
448.675	658
448.896	775
449.117	665
449.338	647
449.559	724
449.779	822
450	656
450.221	571
450.442	533
450.662	539
450.883	482
451.104	516
451.324	521
451.545	504
451.766	504
451.986	495
452.207	470
452.428	469
452.648	465
452.869	482
453.089	482
453.31	490
453.53	479
453.751	484
453.971	465
454.192	475
454.412	476
454.633	455
454.853	466
455.073	476
455.294	503
455.514	534
455.734	542
455.955	480
456.175	448
456.395	455
456.616	463
456.836	450
457.056	462
457.276	439
457.497	455
457.717	450
457.937	465
458.157	472
458.377	499
458.598	496
458.818	524
459.038	575
459.258	591
459.478	555
459.698	536
459.918	521
460.138	549
460.358	581
460.578	553
460.798	574
461.018	565
461.238	550
461.458	558
461.678	548
461.898	563
462.118	561
462.338	565
462.558	600
462.777	602
462.997	619
463.217	644
463.437	635
463.657	625
463.876	597
464.096	636
464.316	606
464.536	607
464.755	591
464.975	595
465.195	632
465.414	621
465.634	560
465.854	554
466.073	563
466.293	533
466.512	496
466.732	507
466.951	519
467.171	500
467.391	486
467.61	513
467.829	509
468.049	490
468.268	484
468.488	475
468.707	471
468.927	477
469.146	489
469.365	491
469.585	503
469.804	479
470.023	500
470.243	511
470.462	518
470.681	538
470.901	517
471.12	504
471.339	504
471.558	512
471.777	484
471.997	484
472.216	511
472.435	513
472.654	511
472.873	478
473.092	484
473.311	487
473.53	499
473.749	502
473.968	524
474.187	608
474.406	613
474.625	544
474.844	510
475.063	497
475.282	489
475.501	516
475.72	501
475.939	502
476.158	500
476.377	505
476.596	512
476.814	521
477.033	519
477.252	526
477.471	528
477.69	535
477.908	535
478.127	563
478.346	576
478.564	544
478.783	564
479.002	565
479.22	558
479.439	587
479.658	590
479.876	612
480.095	614
480.313	636
480.532	646
480.751	632
480.969	627
481.188	657
481.406	678
481.624	622
481.843	603
482.061	585
482.28	594
482.498	580
482.717	589
482.935	579
483.153	596
483.372	576
483.59	575
483.808	559
484.027	592
484.245	578
484.463	577
484.681	575
484.9	587
485.118	580
485.336	580
485.554	594
485.772	599
485.99	592
486.209	619
486.427	606
486.645	605
486.863	615
487.081	608
487.299	608
487.517	605
487.735	606
487.953	629
488.171	622
488.389	629
488.607	640
488.825	619
489.043	599
489.261	625
489.479	628
489.696	616
489.914	631
490.132	633
490.35	629
490.568	625
490.786	637
491.003	633
491.221	648
491.439	643
491.657	671
491.874	648
492.092	670
492.31	676
492.527	714
492.745	721
492.963	691
493.18	710
493.398	695
493.615	686
493.833	671
494.05	703
494.268	693
494.485	697
494.703	697
494.92	703
495.138	715
495.355	722
495.573	741
495.79	695
496.008	736
496.225	726
496.442	701
496.66	727
496.877	758
497.094	748
497.312	749
497.529	746
497.746	762
497.963	783
498.181	811
498.398	823
498.615	867
498.832	886
499.049	925
499.267	917
499.484	976
499.701	1054
499.918	1087
500.135	1142
500.352	1242
500.569	1280
500.786	1280
501.003	1245
501.22	1192
501.437	1087
501.654	1038
501.871	1007
502.088	941
502.305	910
502.522	883
502.739	838
502.956	815
503.172	792
503.389	777
503.606	777
503.823	757
504.04	739
504.256	739
504.473	742
504.69	754
504.907	746
505.123	712
505.34	701
505.557	691
505.773	691
505.99	681
506.207	679
506.423	663
506.64	663
506.856	665
507.073	665
507.289	663
507.506	644
507.722	654
507.939	625
508.155	642
508.372	645
508.588	613
508.805	622
509.021	625
509.238	627
509.454	651
509.67	643
509.887	624
510.103	595
510.319	618
510.536	664
510.752	959
510.968	819
511.184	617
511.401	589
511.617	597
511.833	597
512.049	607
512.265	630
512.481	599
512.698	583
512.914	597
513.13	585
513.346	591
513.562	598
513.778	592
513.994	602
514.21	616
514.426	624
514.642	641
514.858	637
515.074	649
515.29	743
515.506	972
515.721	807
515.937	665
516.153	640
516.369	628
516.585	646
516.801	639
517.016	646
517.232	633
517.448	651
517.664	665
517.879	669
518.095	689
518.311	675
518.527	655
518.742	656
518.958	641
519.173	625
519.389	613
519.605	604
519.82	624
520.036	623
520.251	601
520.467	598
520.682	629
520.898	614
521.113	611
521.329	639
521.544	663
521.76	763
521.975	1069
522.19	1035
522.406	706
522.621	618
522.836	580
523.052	560
523.267	570
523.482	549
523.698	535
523.913	551
524.128	531
524.343	549
524.559	560
524.774	549
524.989	523
525.204	505
525.419	526
525.634	540
525.849	521
526.064	502
526.28	516
526.495	534
526.71	496
526.925	495
527.14	515
527.355	490
527.57	489
527.785	510
527.999	490
528.214	490
528.429	482
528.644	490
528.859	491
529.074	489
529.289	511
529.503	539
529.718	536
529.933	530
530.148	488
530.363	496
530.577	489
530.792	466
531.007	489
531.221	482
531.436	475
531.651	491
531.865	503
532.08	503
532.295	473
532.509	473
532.724	501
532.938	485
533.153	495
533.367	495
533.582	468
533.796	483
534.011	492
534.225	508
534.44	495
534.654	465
534.868	479
535.083	491
535.297	485
535.511	485
535.726	477
535.94	492
536.154	492
536.369	472
536.583	455
536.797	461
537.011	467
537.225	463
537.44	478
537.654	471
537.868	479
538.082	476
538.296	468
538.51	469
538.724	474
538.938	456
539.153	467
539.367	478
539.581	467
539.795	457
540.009	457
540.222	460
540.436	463
540.65	455
540.864	454
541.078	472
541.292	475
541.506	473
541.72	470
541.934	446
542.147	439
542.361	450
542.575	455
542.789	446
543.002	460
543.216	466
543.43	459
543.644	454
543.857	439
544.071	456
544.285	464
544.498	478
544.712	472
544.925	463
545.139	452
545.352	478
545.566	468
545.779	463
545.993	465
546.206	462
546.42	447
546.633	470
546.847	447
547.06	453
547.274	445
547.487	427
547.7	453
547.914	455
548.127	463
548.34	453
548.554	450
548.767	472
548.98	456
549.193	462
549.407	459
549.62	446
549.833	427
550.046	458
550.259	457
550.473	442
550.686	448
550.899	461
551.112	448
551.325	429
551.538	449
551.751	452
551.964	446
552.177	437
552.39	443
552.603	461
552.816	470
553.029	473
553.242	455
553.455	469
553.667	469
553.88	473
554.093	463
554.306	472
554.519	472
554.732	485
554.944	441
555.157	452
555.37	452
555.583	426
555.795	443
556.008	421
556.221	412
556.433	405
556.646	426
556.859	410
557.071	402
557.284	408
557.496	399
557.709	411
557.921	417
558.134	404
558.346	412
558.559	407
558.771	393
558.984	417
559.196	405
559.409	392
559.621	421
559.833	382
560.046	409
560.258	401
560.47	389
560.683	404
560.895	390
561.107	399
561.32	405
561.532	388
561.744	389
561.956	406
562.168	382
562.381	399
562.593	398
562.805	402
563.017	391
563.229	397
563.441	406
563.653	423
563.865	424
564.077	392
564.289	425
564.501	421
564.713	419
564.925	428
565.137	435
565.349	447
565.561	449
565.773	458
565.985	465
566.197	499
566.408	511
566.62	542
566.832	565
567.044	563
567.255	555
567.467	577
567.679	603
567.891	602
568.102	598
568.314	563
568.526	557
568.737	535
568.949	493
569.161	470
569.372	477
569.584	455
569.795	427
570.007	421
570.218	454
570.43	444
570.641	411
570.853	403
571.064	412
571.276	420
571.487	389
571.698	416
571.91	397
572.121	403
572.333	373
572.544	363
572.755	347
572.966	373
573.178	359
573.389	366
573.6	357
573.811	373
574.023	359
574.234	359
574.445	333
574.656	346
574.867	363
575.078	363
575.289	344
575.501	374
575.712	358
575.923	332
576.134	339
576.345	325
576.556	353
576.767	339
576.978	339
577.188	337
577.399	353
577.61	323
577.821	311
578.032	336
578.243	343
578.454	471
578.665	379
578.875	318
579.086	330
579.297	319
579.508	311
579.718	324
579.929	326
580.14	322
580.35	334
580.561	311
580.772	322
580.982	306
581.193	323
581.403	315
581.614	309
581.825	328
582.035	321
582.246	332
582.456	320
582.667	312
582.877	322
583.087	315
583.298	318
583.508	290
583.719	320
583.929	323
584.139	290
584.35	309
584.56	313
584.77	315
584.981	313
585.191	293
585.401	334
585.611	311
585.821	304
586.032	310
586.242	298
586.452	301
586.662	312
586.872	310
587.082	281
587.292	294
587.502	305
587.713	309
587.923	321
588.133	311
588.343	312
588.553	323
588.762	310
588.972	312
589.182	350
589.392	333
589.602	304
589.812	314
590.022	300
590.232	296
590.441	304
590.651	295
590.861	299
591.071	311
591.281	305
591.49	317
591.7	328
591.91	324
592.119	311
592.329	315
592.539	340
592.748	337
592.958	358
593.167	363
593.377	349
593.587	341
593.796	369
594.006	374
594.215	341
594.424	338
594.634	358
594.843	347
595.053	336
595.262	336
595.472	315
595.681	313
595.89	329
596.1	296
596.309	304
596.518	309
596.727	310
596.937	291
597.146	278
597.355	305
597.564	294
597.774	296
597.983	291
598.192	291
598.401	285
598.61	272
598.819	286
599.028	270
599.237	281
599.446	276
599.655	271
599.864	271
600.073	266
600.282	277
600.491	290
600.7	281
600.909	265
601.118	266
601.327	267
601.536	273
601.745	257
601.953	263
602.162	259
602.371	260
602.58	266
602.789	268
602.997	259
603.206	261
603.415	270
603.623	249
603.832	267
604.041	269
604.249	265
604.458	252
604.666	251
604.875	244
605.084	246
605.292	266
605.501	255
605.709	258
605.918	250
606.126	236
606.334	241
606.543	249
606.751	261
606.96	238
607.168	272
607.376	244
607.585	247
607.793	246
608.001	250
608.21	248
608.418	247
608.626	238
608.834	269
609.043	239
609.251	228
609.459	234
609.667	258
609.875	245
610.083	244
610.291	231
610.499	250
610.707	230
610.916	261
611.124	258
611.332	237
611.54	273
611.748	257
611.955	238
612.163	242
612.371	239
612.579	249
612.787	236
612.995	237
613.203	223
613.411	241
613.618	230
613.826	232
614.034	246
614.242	255
614.449	248
614.657	235
614.865	226
615.072	240
615.28	232
615.488	228
615.695	237
615.903	232
616.111	236
616.318	241
616.526	249
616.733	256
616.941	244
617.148	230
617.356	252
617.563	239
617.771	222
617.978	217
618.185	232
618.393	223
618.6	243
618.807	236
619.015	252
619.222	240
619.429	247
619.637	217
619.844	232
620.051	250
620.258	222
620.466	229
620.673	215
620.88	215
621.087	238
621.294	241
621.501	232
621.708	234
621.915	239
622.122	219
622.329	220
622.536	241
622.743	232
622.95	231
623.157	217
623.364	236
623.571	235
623.778	230
623.985	224
624.192	220
624.399	232
624.606	220
624.812	215
625.019	227
625.226	231
625.433	217
625.639	209
625.846	231
626.053	220
626.259	221
626.466	209
626.673	211
626.879	227
627.086	206
627.293	204
627.499	216
627.706	208
627.912	221
628.119	206
628.325	206
628.532	204
628.738	215
628.945	216
629.151	211
629.357	192
629.564	199
629.77	190
629.976	203
630.183	199
630.389	212
630.595	217
630.802	207
631.008	202
631.214	212
631.42	199
631.627	195
631.833	195
632.039	213
632.245	203
632.451	189
632.657	201
632.863	196
633.069	203
633.275	192
633.481	193
633.688	185
633.893	200
634.099	194
634.305	181
634.511	197
634.717	206
634.923	184
635.129	191
635.335	189
635.541	175
635.747	195
635.952	189
636.158	193
636.364	214
636.57	191
636.775	171
636.981	183
637.187	196
637.392	207
637.598	183
637.804	184
638.009	191
638.215	196
638.421	189
638.626	185
638.832	186
639.037	187
639.243	182
639.448	185
639.654	189
639.859	180
640.065	189
640.27	190
640.475	171
640.681	184
640.886	183
641.091	179
641.297	182
641.502	187
641.707	177
641.913	169
642.118	157
642.323	174
642.528	191
642.733	185
642.939	159
643.144	177
643.349	172
643.554	164
643.759	170
643.964	165
644.169	180
644.374	169
644.579	167
644.784	158
644.989	168
645.194	165
645.399	179
645.604	161
645.809	165
646.014	180
646.219	170
646.423	175
646.628	173
646.833	191
647.038	168
647.243	169
647.447	161
647.652	171
647.857	180
648.062	155
648.266	183
648.471	168
648.676	202
648.88	171
649.085	169
649.289	173
649.494	182
649.698	204
649.903	189
650.107	185
650.312	177
650.516	183
650.721	168
650.925	152
651.13	166
651.334	165
651.539	160
651.743	159
651.947	155
652.152	156
652.356	157
652.56	145
652.764	146
652.969	154
653.173	147
653.377	143
653.581	140
653.785	157
653.99	143
654.194	143
654.398	150
654.602	139
654.806	162
655.01	155
655.214	148
655.418	142
655.622	144
655.826	146
656.03	136
656.234	147
656.438	176
656.642	141
656.846	138
657.049	143
657.253	137
657.457	127
657.661	121
657.865	119
658.068	117
658.272	106
658.476	127
658.68	111
658.883	105
659.087	113
659.291	101
659.494	115
659.698	105
659.901	99
660.105	107
660.309	94
660.512	95
660.716	99
660.919	93
661.123	90
661.326	102
661.53	87
661.733	100
661.936	99
662.14	90
662.343	101
662.546	83
662.75	87
662.953	96
663.156	87
663.36	83
663.563	88
663.766	86
663.969	88
664.173	95
664.376	81
664.579	95
664.782	78
664.985	96
665.188	86
665.391	92
665.594	88
665.797	92
666	78
666.203	89
666.406	92
666.609	86
666.812	73
667.015	86
667.218	86
667.421	76
667.624	89
667.827	81
668.03	88
668.232	85
668.435	87
668.638	97
668.841	83
669.043	79
669.246	80
669.449	97
669.651	96
669.854	91
670.057	91
670.259	72
670.462	70
670.665	77
670.867	95
671.07	91
671.272	78
671.475	68
671.677	79
671.88	94
672.082	75
672.284	91
672.487	97
672.689	87
672.892	95
