Data from 1962.PennyLincolnUp.Lamp.En5.5.200Scan.071719.P1._HRD10591_13-54-55-061.txt Node
Date: Thu Jul 18 13:54:55 EDT 2019
User: cochatt
Spectrometer: HR+D1059
Trigger mode: 1
Integration Time (sec): 1.000000E-1
Scans to average: 1
Electric dark correction enabled: true
Nonlinearity correction enabled: false
Boxcar width: 0
XAxis mode: Wavelengths
Number of Pixels in Spectrum: 2048
>>>>>Begin Spectral Data<<<<<
223.165	-5
223.4	-5
223.635	-5
223.869	-14
224.104	-10
224.338	-20
224.573	-12
224.808	-5
225.042	-13
225.277	-14
225.511	-11
225.746	5
225.98	9
226.215	5
226.449	5
226.683	20
226.918	16
227.152	44
227.387	33
227.621	31
227.856	31
228.09	36
228.324	58
228.559	58
228.793	65
229.027	90
229.262	86
229.496	97
229.73	107
229.964	125
230.199	106
230.433	100
230.667	88
230.901	105
231.136	96
231.37	124
231.604	100
231.838	112
232.072	108
232.306	104
232.541	98
232.775	111
233.009	89
233.243	128
233.477	125
233.711	115
233.945	107
234.179	110
234.413	120
234.647	108
234.881	112
235.115	117
235.349	124
235.583	114
235.817	124
236.051	119
236.285	123
236.519	105
236.753	115
236.987	129
237.221	136
237.455	186
237.689	155
237.922	124
238.156	123
238.39	115
238.624	130
238.858	115
239.091	123
239.325	114
239.559	108
239.793	110
240.027	120
240.26	121
240.494	144
240.728	142
240.961	135
241.195	136
241.429	134
241.662	131
241.896	129
242.13	125
242.363	123
242.597	120
242.83	134
243.064	125
243.298	106
243.531	129
243.765	145
243.998	125
244.232	134
244.465	140
244.699	145
244.932	147
245.166	140
245.399	145
245.633	117
245.866	132
246.099	128
246.333	133
246.566	131
246.8	132
247.033	163
247.266	133
247.5	148
247.733	155
247.966	152
248.2	162
248.433	167
248.666	159
248.899	162
249.133	174
249.366	168
249.599	190
249.832	163
250.066	177
250.299	169
250.532	177
250.765	172
250.998	188
251.231	205
251.465	188
251.698	182
251.931	177
252.164	188
252.397	156
252.63	178
252.863	187
253.096	191
253.329	197
253.562	210
253.795	203
254.028	196
254.261	202
254.494	199
254.727	230
254.96	227
255.193	219
255.426	209
255.659	214
255.892	208
256.124	203
256.357	206
256.59	202
256.823	196
257.056	181
257.289	197
257.521	202
257.754	188
257.987	195
258.22	201
258.452	201
258.685	195
258.918	200
259.151	177
259.383	197
259.616	196
259.849	208
260.081	230
260.314	234
260.547	210
260.779	211
261.012	208
261.244	207
261.477	205
261.71	211
261.942	191
262.175	213
262.407	211
262.64	207
262.872	205
263.105	196
263.337	193
263.57	205
263.802	193
264.035	196
264.267	194
264.499	213
264.732	221
264.964	204
265.197	198
265.429	204
265.661	186
265.894	217
266.126	213
266.358	209
266.591	208
266.823	216
267.055	204
267.287	224
267.52	231
267.752	226
267.984	221
268.216	228
268.448	239
268.681	227
268.913	230
269.145	269
269.377	255
269.609	247
269.841	242
270.073	234
270.306	261
270.538	260
270.77	291
271.002	277
271.234	276
271.466	265
271.698	270
271.93	277
272.162	284
272.394	276
272.626	268
272.858	263
273.09	260
273.322	252
273.553	247
273.785	245
274.017	266
274.249	242
274.481	257
274.713	276
274.945	254
275.176	259
275.408	276
275.64	271
275.872	251
276.104	253
276.335	250
276.567	263
276.799	279
277.031	277
277.262	310
277.494	284
277.726	292
277.957	297
278.189	252
278.421	271
278.652	269
278.884	269
279.115	240
279.347	264
279.579	278
279.81	263
280.042	250
280.273	280
280.505	275
280.736	291
280.968	271
281.199	261
281.431	275
281.662	281
281.894	283
282.125	264
282.356	283
282.588	292
282.819	297
283.051	286
283.282	265
283.513	276
283.745	271
283.976	295
284.207	294
284.439	288
284.67	290
284.901	285
285.132	287
285.364	274
285.595	273
285.826	271
286.057	277
286.288	277
286.52	280
286.751	282
286.982	280
287.213	283
287.444	269
287.675	300
287.906	289
288.138	300
288.369	308
288.6	310
288.831	312
289.062	297
289.293	305
289.524	288
289.755	310
289.986	283
290.217	279
290.448	305
290.679	316
290.91	300
291.141	295
291.371	294
291.602	295
291.833	298
292.064	295
292.295	320
292.526	281
292.757	291
292.987	301
293.218	308
293.449	299
293.68	288
293.91	295
294.141	301
294.372	296
294.603	291
294.833	297
295.064	326
295.295	316
295.525	309
295.756	320
295.987	273
296.217	326
296.448	337
296.679	306
296.909	309
297.14	293
297.37	312
297.601	311
297.831	325
298.062	322
298.292	305
298.523	332
298.753	324
298.984	336
299.214	308
299.445	310
299.675	314
299.905	307
300.136	319
300.366	319
300.597	320
300.827	323
301.057	331
301.288	326
301.518	319
301.748	320
301.979	351
302.209	346
302.439	332
302.669	318
302.9	336
303.13	327
303.36	337
303.59	329
303.82	321
304.051	341
304.281	339
304.511	332
304.741	331
304.971	351
305.201	337
305.431	349
305.661	361
305.891	324
306.121	313
306.352	347
306.582	334
306.812	330
307.042	324
307.272	331
307.502	341
307.731	352
307.961	336
308.191	329
308.421	330
308.651	320
308.881	328
309.111	336
309.341	316
309.571	353
309.8	337
310.03	329
310.26	359
310.49	359
310.72	354
310.949	384
311.179	364
311.409	371
311.639	370
311.868	365
312.098	379
312.328	361
312.557	383
312.787	373
313.017	383
313.246	362
313.476	363
313.706	349
313.935	375
314.165	383
314.394	383
314.624	384
314.853	379
315.083	375
315.312	388
315.542	373
315.771	355
316.001	383
316.23	387
316.46	376
316.689	379
316.919	374
317.148	373
317.377	385
317.607	369
317.836	359
318.065	379
318.295	355
318.524	369
318.753	360
318.983	371
319.212	377
319.441	374
319.67	391
319.9	362
320.129	360
320.358	398
320.587	384
320.816	384
321.046	387
321.275	389
321.504	388
321.733	375
321.962	391
322.191	389
322.42	397
322.649	417
322.878	422
323.108	427
323.337	435
323.566	447
323.795	440
324.024	472
324.253	559
324.482	731
324.71	1045
324.939	1484
325.168	1289
325.397	730
325.626	541
325.855	469
326.084	441
326.313	447
326.542	432
326.77	493
326.999	529
327.228	645
327.457	930
327.686	1133
327.914	803
328.143	593
328.372	540
328.6	510
328.829	492
329.058	489
329.287	487
329.515	480
329.744	463
329.972	457
330.201	480
330.43	491
330.658	487
330.887	523
331.115	513
331.344	483
331.572	439
331.801	457
332.03	472
332.258	433
332.486	445
332.715	488
332.943	453
333.172	457
333.4	456
333.629	465
333.857	502
334.085	494
334.314	498
334.542	535
334.771	530
334.999	486
335.227	490
335.455	462
335.684	466
335.912	470
336.14	455
336.369	456
336.597	448
336.825	455
337.053	447
337.281	448
337.51	439
337.738	445
337.966	442
338.194	452
338.422	441
338.65	436
338.878	437
339.106	406
339.334	415
339.562	436
339.79	424
340.018	399
340.246	429
340.474	419
340.702	433
340.93	436
341.158	424
341.386	434
341.614	447
341.842	435
342.07	417
342.298	412
342.526	420
342.754	400
342.981	394
343.209	402
343.437	412
343.665	405
343.893	455
344.12	478
344.348	458
344.576	450
344.804	457
345.031	437
345.259	449
345.487	433
345.714	426
345.942	399
346.17	405
346.397	422
346.625	415
346.853	406
347.08	404
347.308	410
347.535	410
347.763	406
347.99	388
348.218	401
348.445	410
348.673	389
348.9	432
349.128	394
349.355	414
349.583	411
349.81	387
350.037	392
350.265	401
350.492	426
350.72	392
350.947	393
351.174	406
351.402	397
351.629	419
351.856	406
352.083	395
352.311	410
352.538	406
352.765	413
352.992	391
353.22	408
353.447	401
353.674	393
353.901	395
354.128	412
354.355	403
354.583	380
354.81	410
355.037	393
355.264	389
355.491	384
355.718	389
355.945	395
356.172	383
356.399	392
356.626	389
356.853	387
357.08	379
357.307	397
357.534	389
357.761	383
357.988	397
358.215	380
358.441	397
358.668	388
358.895	394
359.122	407
359.349	401
359.576	397
359.802	423
360.029	406
360.256	409
360.483	418
360.709	401
360.936	401
361.163	411
361.39	411
361.616	395
361.843	398
362.07	401
362.296	403
362.523	412
362.749	410
362.976	379
363.203	406
363.429	379
363.656	380
363.882	389
364.109	398
364.335	381
364.562	405
364.788	385
365.015	394
365.241	410
365.468	398
365.694	383
365.92	388
366.147	404
366.373	402
366.599	381
366.826	391
367.052	377
367.278	384
367.505	382
367.731	407
367.957	387
368.184	410
368.41	397
368.636	400
368.862	419
369.089	401
369.315	391
369.541	389
369.767	397
369.993	397
370.219	379
370.445	405
370.672	415
370.898	393
371.124	403
371.35	417
371.576	416
371.802	412
372.028	413
372.254	413
372.48	426
372.706	413
372.932	411
373.158	392
373.384	403
373.61	411
373.835	410
374.061	405
374.287	404
374.513	412
374.739	413
374.965	427
375.191	441
375.416	420
375.642	411
375.868	431
376.094	402
376.319	407
376.545	420
376.771	392
376.997	387
377.222	393
377.448	389
377.674	382
377.899	417
378.125	401
378.35	409
378.576	411
378.802	413
379.027	392
379.253	415
379.478	394
379.704	391
379.929	401
380.155	414
380.38	397
380.606	399
380.831	404
381.057	424
381.282	419
381.507	418
381.733	410
381.958	409
382.184	413
382.409	411
382.634	419
382.86	417
383.085	419
383.31	420
383.535	430
383.761	425
383.986	424
384.211	456
384.436	437
384.662	439
384.887	450
385.112	450
385.337	461
385.562	456
385.787	461
386.013	447
386.238	467
386.463	473
386.688	451
386.913	469
387.138	458
387.363	485
387.588	459
387.813	437
388.038	460
388.263	432
388.488	458
388.713	451
388.938	444
389.163	461
389.387	453
389.612	432
389.837	454
390.062	469
390.287	458
390.512	468
390.736	462
390.961	448
391.186	469
391.411	466
391.636	467
391.86	484
392.085	496
392.31	487
392.534	482
392.759	462
392.984	462
393.208	483
393.433	467
393.658	496
393.882	467
394.107	454
394.331	466
394.556	480
394.78	471
395.005	488
395.229	470
395.454	478
395.678	506
395.903	475
396.127	516
396.352	508
396.576	492
396.801	484
397.025	491
397.249	513
397.474	487
397.698	475
397.922	500
398.147	508
398.371	551
398.595	519
398.82	542
399.044	561
399.268	570
399.492	632
399.717	679
399.941	715
400.165	693
400.389	683
400.613	635
400.837	608
401.062	579
401.286	575
401.51	563
401.734	544
401.958	547
402.182	548
402.406	535
402.63	554
402.854	571
403.078	547
403.302	554
403.526	568
403.75	577
403.974	586
404.198	579
404.422	579
404.645	596
404.869	617
405.093	611
405.317	633
405.541	673
405.765	597
405.988	584
406.212	569
406.436	613
406.66	620
406.883	614
407.107	651
407.331	659
407.555	715
407.778	719
408.002	703
408.226	664
408.449	637
408.673	620
408.896	631
409.12	676
409.344	639
409.567	574
409.791	577
410.014	565
410.238	567
410.461	558
410.685	581
410.908	574
411.132	630
411.355	618
411.578	594
411.802	583
412.025	555
412.249	549
412.472	594
412.695	598
412.919	588
413.142	541
413.365	564
413.589	540
413.812	543
414.035	524
414.258	511
414.482	548
414.705	520
414.928	546
415.151	534
415.374	539
415.597	527
415.821	533
416.044	520
416.267	555
416.49	537
416.713	517
416.936	533
417.159	519
417.382	525
417.605	523
417.828	539
418.051	541
418.274	547
418.497	534
418.72	521
418.943	536
419.166	571
419.389	591
419.611	605
419.834	568
420.057	571
420.28	542
420.503	560
420.726	546
420.948	571
421.171	593
421.394	605
421.617	572
421.839	546
422.062	552
422.285	568
422.507	610
422.73	660
422.953	617
423.175	583
423.398	564
423.621	579
423.843	572
424.066	580
424.288	585
424.511	594
424.733	626
424.956	694
425.178	667
425.401	673
425.623	669
425.846	594
426.068	562
426.291	542
426.513	573
426.735	590
426.958	589
427.18	649
427.402	724
427.625	815
427.847	700
428.069	625
428.292	581
428.514	537
428.736	532
428.958	521
429.181	528
429.403	507
429.625	511
429.847	556
430.069	598
430.292	596
430.514	533
430.736	527
430.958	525
431.18	503
431.402	497
431.624	492
431.846	488
432.068	519
432.29	496
432.512	501
432.734	515
432.956	508
433.178	509
433.4	496
433.622	497
433.844	492
434.066	517
434.287	506
434.509	513
434.731	515
434.953	531
435.175	537
435.397	577
435.618	564
435.84	612
436.062	651
436.284	717
436.505	587
436.727	556
436.949	551
437.17	514
437.392	502
437.614	527
437.835	530
438.057	611
438.278	708
438.5	689
438.721	745
438.943	737
439.165	597
439.386	549
439.608	560
439.829	548
440.05	563
440.272	610
440.493	555
440.715	551
440.936	516
441.158	544
441.379	531
441.6	561
441.822	567
442.043	599
442.264	659
442.486	684
442.707	591
442.928	569
443.149	578
443.371	584
443.592	628
443.813	728
444.034	758
444.255	653
444.476	605
444.698	603
444.919	612
445.14	730
445.361	639
445.582	619
445.803	627
446.024	687
446.245	712
446.466	650
446.687	579
446.908	548
447.129	527
447.35	511
447.571	495
447.792	499
448.013	493
448.234	509
448.455	547
448.675	640
448.896	734
449.117	621
449.338	615
449.559	675
449.779	743
450	606
450.221	554
450.442	505
450.662	466
450.883	503
451.104	483
451.324	463
451.545	485
451.766	449
451.986	447
452.207	461
452.428	450
452.648	479
452.869	469
453.089	467
453.31	479
453.53	455
453.751	469
453.971	449
454.192	473
454.412	460
454.633	462
454.853	450
455.073	475
455.294	483
455.514	505
455.734	519
455.955	442
456.175	460
456.395	456
456.616	445
456.836	442
457.056	419
457.276	445
457.497	454
457.717	443
457.937	450
458.157	442
458.377	457
458.598	464
458.818	488
459.038	570
459.258	575
459.478	514
459.698	526
459.918	515
460.138	516
460.358	565
460.578	529
460.798	563
461.018	549
461.238	541
461.458	531
461.678	553
461.898	556
462.118	525
462.338	586
462.558	556
462.777	582
462.997	604
463.217	637
463.437	633
463.657	605
463.876	595
464.096	584
464.316	577
464.536	603
464.755	608
464.975	587
465.195	582
465.414	596
465.634	549
465.854	531
466.073	511
466.293	484
466.512	497
466.732	496
466.951	479
467.171	473
467.391	475
467.61	490
467.829	505
468.049	487
468.268	487
468.488	466
468.707	468
468.927	476
469.146	458
469.365	460
469.585	467
469.804	491
470.023	480
470.243	495
470.462	482
470.681	500
470.901	512
471.12	483
471.339	506
471.558	451
471.777	487
471.997	471
472.216	500
472.435	501
472.654	493
472.873	488
473.092	473
473.311	471
473.53	454
473.749	469
473.968	501
474.187	574
474.406	599
474.625	512
474.844	474
475.063	490
475.282	488
475.501	472
475.72	483
475.939	491
476.158	503
476.377	494
476.596	499
476.814	518
477.033	506
477.252	517
477.471	521
477.69	521
477.908	520
478.127	541
478.346	567
478.564	544
478.783	563
479.002	578
479.22	565
479.439	556
479.658	579
479.876	572
480.095	601
480.313	624
480.532	634
480.751	605
480.969	639
481.188	633
481.406	644
481.624	592
481.843	567
482.061	577
482.28	582
482.498	552
482.717	573
482.935	555
483.153	541
483.372	540
483.59	534
483.808	553
484.027	567
484.245	569
484.463	554
484.681	553
484.9	548
485.118	584
485.336	591
485.554	580
485.772	564
485.99	586
486.209	602
486.427	571
486.645	582
486.863	596
487.081	603
487.299	592
487.517	567
487.735	595
487.953	598
488.171	576
488.389	579
488.607	563
488.825	577
489.043	576
489.261	603
489.479	593
489.696	615
489.914	584
490.132	611
490.35	592
490.568	600
490.786	618
491.003	597
491.221	618
491.439	649
491.657	642
491.874	632
492.092	626
492.31	654
492.527	647
492.745	643
492.963	678
493.18	673
493.398	658
493.615	665
493.833	662
494.05	680
494.268	683
494.485	680
494.703	679
494.92	653
495.138	668
495.355	675
495.573	673
495.79	690
496.008	672
496.225	683
496.442	682
496.66	697
496.877	705
497.094	713
497.312	721
497.529	717
497.746	759
497.963	746
498.181	790
498.398	809
498.615	819
498.832	833
499.049	874
499.267	923
499.484	937
499.701	1008
499.918	1039
500.135	1144
500.352	1183
500.569	1222
500.786	1216
501.003	1200
501.22	1131
501.437	1075
501.654	1026
501.871	996
502.088	929
502.305	843
502.522	819
502.739	825
502.956	803
503.172	771
503.389	765
503.606	752
503.823	767
504.04	747
504.256	719
504.473	708
504.69	707
504.907	742
505.123	709
505.34	704
505.557	670
505.773	669
505.99	644
506.207	652
506.423	641
506.64	635
506.856	617
507.073	627
507.289	611
507.506	621
507.722	644
507.939	619
508.155	616
508.372	577
508.588	594
508.805	612
509.021	603
509.238	609
509.454	612
509.67	612
509.887	596
510.103	607
510.319	597
510.536	656
510.752	889
510.968	787
511.184	596
511.401	589
511.617	583
511.833	571
512.049	582
512.265	569
512.481	558
512.698	584
512.914	596
513.13	559
513.346	563
513.562	568
513.778	563
513.994	586
514.21	563
514.426	610
514.642	593
514.858	613
515.074	629
515.29	707
515.506	861
515.721	768
515.937	645
516.153	619
516.369	612
516.585	603
516.801	610
517.016	629
517.232	635
517.448	643
517.664	669
517.879	620
518.095	646
518.311	660
518.527	647
518.742	643
518.958	624
519.173	609
519.389	561
519.605	596
519.82	554
520.036	587
520.251	600
520.467	596
520.682	590
520.898	588
521.113	567
521.329	588
521.544	658
521.76	727
521.975	1028
522.19	992
522.406	674
522.621	578
522.836	539
523.052	527
523.267	517
523.482	528
523.698	539
523.913	520
524.128	521
524.343	502
524.559	535
524.774	507
524.989	472
525.204	507
525.419	500
525.634	481
525.849	513
526.064	494
526.28	491
526.495	488
526.71	481
526.925	475
527.14	468
527.355	497
527.57	495
527.785	495
527.999	472
528.214	482
528.429	476
528.644	458
528.859	479
529.074	464
529.289	500
529.503	525
529.718	527
529.933	502
530.148	504
530.363	477
530.577	493
530.792	484
531.007	473
531.221	465
531.436	490
531.651	458
531.865	486
532.08	486
532.295	487
532.509	476
532.724	473
532.938	476
533.153	479
533.367	459
533.582	465
533.796	465
534.011	471
534.225	467
534.44	465
534.654	461
534.868	484
535.083	460
535.297	491
535.511	481
535.726	466
535.94	482
536.154	463
536.369	456
536.583	461
536.797	490
537.011	468
537.225	447
537.44	443
537.654	465
537.868	456
538.082	446
538.296	459
538.51	449
538.724	459
538.938	422
539.153	444
539.367	467
539.581	466
539.795	427
540.009	454
540.222	427
540.436	452
540.65	443
540.864	437
541.078	471
541.292	439
541.506	442
541.72	420
541.934	425
542.147	436
542.361	451
542.575	447
542.789	433
543.002	453
543.216	455
543.43	441
543.644	446
543.857	459
544.071	427
544.285	435
544.498	439
544.712	457
544.925	471
545.139	446
545.352	437
545.566	450
545.779	445
545.993	451
546.206	456
546.42	468
546.633	419
546.847	438
547.06	431
547.274	427
547.487	422
547.7	426
547.914	436
548.127	433
548.34	427
548.554	450
548.767	447
548.98	449
549.193	458
549.407	457
549.62	459
549.833	450
550.046	437
550.259	437
550.473	443
550.686	425
550.899	419
551.112	447
551.325	418
551.538	457
551.751	433
551.964	447
552.177	459
552.39	447
552.603	420
552.816	463
553.029	442
553.242	461
553.455	446
553.667	457
553.88	453
554.093	459
554.306	449
554.519	436
554.732	460
554.944	442
555.157	422
555.37	427
555.583	399
555.795	404
556.008	426
556.221	405
556.433	407
556.646	381
556.859	419
557.071	398
557.284	401
557.496	396
557.709	402
557.921	396
558.134	406
558.346	393
558.559	386
558.771	379
558.984	401
559.196	396
559.409	383
559.621	374
559.833	370
560.046	383
560.258	380
560.47	382
560.683	381
560.895	387
561.107	381
561.32	371
561.532	389
561.744	381
561.956	381
562.168	405
562.381	392
562.593	392
562.805	374
563.017	387
563.229	395
563.441	389
563.653	400
563.865	401
564.077	404
564.289	410
564.501	435
564.713	407
564.925	425
565.137	437
565.349	416
565.561	451
565.773	453
565.985	470
566.197	484
566.408	500
566.62	521
566.832	544
567.044	530
567.255	536
567.467	564
567.679	571
567.891	601
568.102	579
568.314	555
568.526	557
568.737	513
568.949	484
569.161	467
569.372	444
569.584	428
569.795	422
570.007	411
570.218	435
570.43	424
570.641	415
570.853	405
571.064	406
571.276	413
571.487	369
571.698	382
571.91	386
572.121	362
572.333	352
572.544	367
572.755	357
572.966	359
573.178	365
573.389	369
573.6	351
573.811	341
574.023	347
574.234	339
574.445	356
574.656	337
574.867	335
575.078	333
575.289	356
575.501	325
575.712	337
575.923	322
576.134	352
576.345	340
576.556	332
576.767	335
576.978	309
577.188	320
577.399	334
577.61	317
577.821	324
578.032	319
578.243	326
578.454	441
578.665	363
578.875	331
579.086	319
579.297	309
579.508	318
579.718	323
579.929	312
580.14	279
580.35	311
580.561	316
580.772	313
580.982	321
581.193	322
581.403	309
581.614	311
581.825	298
582.035	296
582.246	303
582.456	310
582.667	306
582.877	288
583.087	328
583.298	296
583.508	296
583.719	317
583.929	306
584.139	312
584.35	305
584.56	288
584.77	304
584.981	303
585.191	296
585.401	308
585.611	308
585.821	305
586.032	289
586.242	281
586.452	292
586.662	298
586.872	295
587.082	298
587.292	301
587.502	299
587.713	305
587.923	293
588.133	304
588.343	307
588.553	311
588.762	308
588.972	305
589.182	313
589.392	324
589.602	307
589.812	309
590.022	306
590.232	299
590.441	294
590.651	292
590.861	313
591.071	299
591.281	298
591.49	289
591.7	313
591.91	319
592.119	290
592.329	329
592.539	332
592.748	338
592.958	342
593.167	349
593.377	323
593.587	359
593.796	344
594.006	337
594.215	336
594.424	350
594.634	342
594.843	334
595.053	325
595.262	343
595.472	315
595.681	317
595.89	311
596.1	289
596.309	300
596.518	298
596.727	289
596.937	295
597.146	297
597.355	270
597.564	287
597.774	288
597.983	283
598.192	275
598.401	288
598.61	284
598.819	269
599.028	265
599.237	276
599.446	281
599.655	277
599.864	260
600.073	255
600.282	255
600.491	249
600.7	279
600.909	260
601.118	263
601.327	268
601.536	259
601.745	251
601.953	257
602.162	263
602.371	244
602.58	248
602.789	276
602.997	260
603.206	261
603.415	244
603.623	253
603.832	258
604.041	232
604.249	244
604.458	254
604.666	248
604.875	251
605.084	258
605.292	237
605.501	267
605.709	253
605.918	229
606.126	247
606.334	238
606.543	229
606.751	234
606.96	253
607.168	240
607.376	250
607.585	249
607.793	244
608.001	235
608.21	233
608.418	233
608.626	239
608.834	228
609.043	237
609.251	247
609.459	224
609.667	235
609.875	255
610.083	227
610.291	245
610.499	237
610.707	244
610.916	237
611.124	243
611.332	239
611.54	248
611.748	236
611.955	240
612.163	233
612.371	228
612.579	231
612.787	228
612.995	233
613.203	247
613.411	234
613.618	247
613.826	231
614.034	240
614.242	239
614.449	226
614.657	249
614.865	218
615.072	231
615.28	243
615.488	209
615.695	233
615.903	226
616.111	240
616.318	259
616.526	256
616.733	232
616.941	239
617.148	221
617.356	236
617.563	234
617.771	223
617.978	237
618.185	231
618.393	225
618.6	232
618.807	219
619.015	236
619.222	213
619.429	237
619.637	226
619.844	208
620.051	220
620.258	220
620.466	219
620.673	223
620.88	225
621.087	228
621.294	244
621.501	234
621.708	228
621.915	211
622.122	213
622.329	217
622.536	215
622.743	195
622.95	225
623.157	218
623.364	215
623.571	223
623.778	213
623.985	221
624.192	224
624.399	208
624.606	204
624.812	205
625.019	210
625.226	202
625.433	212
625.639	204
625.846	214
626.053	187
626.259	187
626.466	210
626.673	212
626.879	204
627.086	199
627.293	215
627.499	191
627.706	186
627.912	187
628.119	197
628.325	224
628.532	189
628.738	203
628.945	202
629.151	199
629.357	203
629.564	209
629.77	190
629.976	177
630.183	186
630.389	197
630.595	182
630.802	189
631.008	186
631.214	191
631.42	209
631.627	204
631.833	189
632.039	177
632.245	193
632.451	185
632.657	182
632.863	185
633.069	197
633.275	183
633.481	180
633.688	180
633.893	193
634.099	171
634.305	177
634.511	177
634.717	192
634.923	179
635.129	170
635.335	187
635.541	191
635.747	184
635.952	179
636.158	188
636.364	171
636.57	186
636.775	185
636.981	189
637.187	171
637.392	191
637.598	178
637.804	175
638.009	172
638.215	183
638.421	163
638.626	179
638.832	168
639.037	164
639.243	161
639.448	176
639.654	170
639.859	164
640.065	159
640.27	188
640.475	179
640.681	177
640.886	178
641.091	170
641.297	175
641.502	168
641.707	167
641.913	163
642.118	167
642.323	151
642.528	160
642.733	159
642.939	168
643.144	177
643.349	160
643.554	170
643.759	152
643.964	162
644.169	167
644.374	154
644.579	176
644.784	149
644.989	154
645.194	162
645.399	168
645.604	177
645.809	159
646.014	160
646.219	170
646.423	157
646.628	153
646.833	159
647.038	163
647.243	164
647.447	164
647.652	150
647.857	165
648.062	162
648.266	172
648.471	179
648.676	160
648.88	173
649.085	187
649.289	151
649.494	164
649.698	173
649.903	168
650.107	157
650.312	171
650.516	164
650.721	177
650.925	148
651.13	166
651.334	143
651.539	145
651.743	146
651.947	155
652.152	154
652.356	145
652.56	138
652.764	155
652.969	142
653.173	140
653.377	137
653.581	138
653.785	149
653.99	135
654.194	133
654.398	142
654.602	139
654.806	120
655.01	133
655.214	131
655.418	133
655.622	139
655.826	142
656.03	140
656.234	147
656.438	165
656.642	140
656.846	141
657.049	133
657.253	134
657.457	133
657.661	107
657.865	127
658.068	118
658.272	106
658.476	116
658.68	124
658.883	109
659.087	110
659.291	98
659.494	101
659.698	96
659.901	97
660.105	92
660.309	71
660.512	90
660.716	104
660.919	105
661.123	107
661.326	95
661.53	90
661.733	93
661.936	107
662.14	79
662.343	90
662.546	82
662.75	77
662.953	88
663.156	84
663.36	85
663.563	79
663.766	81
663.969	80
664.173	82
664.376	74
664.579	87
664.782	83
664.985	84
665.188	75
665.391	81
665.594	70
665.797	92
666	79
666.203	79
666.406	81
666.609	82
666.812	79
667.015	88
667.218	81
667.421	84
667.624	81
667.827	74
668.03	90
668.232	82
668.435	87
668.638	68
668.841	80
669.043	83
669.246	72
669.449	70
669.651	73
669.854	81
670.057	73
670.259	79
670.462	84
670.665	81
670.867	80
671.07	92
671.272	83
671.475	80
671.677	78
671.88	95
672.082	77
672.284	83
672.487	69
672.689	90
672.892	80
