Data from 1962.PennyLincolnUp.Lamp.En5.5.200Scan.071719.P1._HRD10591_13-55-06-061.txt Node
Date: Thu Jul 18 13:55:06 EDT 2019
User: cochatt
Spectrometer: HR+D1059
Trigger mode: 1
Integration Time (sec): 1.000000E-1
Scans to average: 1
Electric dark correction enabled: true
Nonlinearity correction enabled: false
Boxcar width: 0
XAxis mode: Wavelengths
Number of Pixels in Spectrum: 2048
>>>>>Begin Spectral Data<<<<<
223.165	-31.44
223.4	-31.44
223.635	-31.44
223.869	-19.44
224.104	-22.44
224.338	-21.44
224.573	-15.44
224.808	-13.44
225.042	1.56
225.277	-6.44
225.511	10.56
225.746	0.56
225.98	-0.44
226.215	19.56
226.449	2.56
226.683	21.56
226.918	40.56
227.152	33.56
227.387	34.56
227.621	37.56
227.856	34.56
228.09	52.56
228.324	59.56
228.559	56.56
228.793	65.56
229.027	93.56
229.262	106.56
229.496	97.56
229.73	137.56
229.964	119.56
230.199	121.56
230.433	109.56
230.667	101.56
230.901	118.56
231.136	103.56
231.37	101.56
231.604	121.56
231.838	113.56
232.072	106.56
232.306	107.56
232.541	108.56
232.775	105.56
233.009	108.56
233.243	109.56
233.477	101.56
233.711	106.56
233.945	111.56
234.179	113.56
234.413	121.56
234.647	105.56
234.881	100.56
235.115	113.56
235.349	113.56
235.583	117.56
235.817	117.56
236.051	123.56
236.285	119.56
236.519	130.56
236.753	127.56
236.987	135.56
237.221	151.56
237.455	179.56
237.689	152.56
237.922	127.56
238.156	147.56
238.39	120.56
238.624	138.56
238.858	129.56
239.091	114.56
239.325	117.56
239.559	125.56
239.793	114.56
240.027	108.56
240.26	133.56
240.494	142.56
240.728	131.56
240.961	122.56
241.195	123.56
241.429	121.56
241.662	139.56
241.896	120.56
242.13	122.56
242.363	129.56
242.597	131.56
242.83	147.56
243.064	135.56
243.298	137.56
243.531	124.56
243.765	138.56
243.998	144.56
244.232	121.56
244.465	132.56
244.699	128.56
244.932	134.56
245.166	137.56
245.399	151.56
245.633	147.56
245.866	142.56
246.099	119.56
246.333	137.56
246.566	144.56
246.8	149.56
247.033	155.56
247.266	140.56
247.5	145.56
247.733	159.56
247.966	173.56
248.2	171.56
248.433	150.56
248.666	146.56
248.899	180.56
249.133	179.56
249.366	169.56
249.599	184.56
249.832	157.56
250.066	165.56
250.299	173.56
250.532	161.56
250.765	190.56
250.998	189.56
251.231	199.56
251.465	183.56
251.698	178.56
251.931	199.56
252.164	183.56
252.397	187.56
252.63	185.56
252.863	193.56
253.096	191.56
253.329	197.56
253.562	201.56
253.795	192.56
254.028	186.56
254.261	184.56
254.494	213.56
254.727	220.56
254.96	239.56
255.193	241.56
255.426	218.56
255.659	213.56
255.892	207.56
256.124	216.56
256.357	207.56
256.59	203.56
256.823	196.56
257.056	178.56
257.289	190.56
257.521	191.56
257.754	195.56
257.987	188.56
258.22	193.56
258.452	179.56
258.685	199.56
258.918	173.56
259.151	191.56
259.383	194.56
259.616	215.56
259.849	213.56
260.081	221.56
260.314	224.56
260.547	232.56
260.779	224.56
261.012	208.56
261.244	224.56
261.477	216.56
261.71	210.56
261.942	211.56
262.175	209.56
262.407	211.56
262.64	204.56
262.872	209.56
263.105	196.56
263.337	201.56
263.57	210.56
263.802	201.56
264.035	207.56
264.267	208.56
264.499	199.56
264.732	200.56
264.964	185.56
265.197	207.56
265.429	223.56
265.661	194.56
265.894	210.56
266.126	224.56
266.358	197.56
266.591	214.56
266.823	226.56
267.055	215.56
267.287	221.56
267.52	219.56
267.752	225.56
267.984	209.56
268.216	225.56
268.448	226.56
268.681	213.56
268.913	219.56
269.145	242.56
269.377	251.56
269.609	244.56
269.841	235.56
270.073	250.56
270.306	265.56
270.538	309.56
270.77	282.56
271.002	274.56
271.234	267.56
271.466	267.56
271.698	285.56
271.93	299.56
272.162	287.56
272.394	286.56
272.626	280.56
272.858	269.56
273.09	271.56
273.322	269.56
273.553	253.56
273.785	260.56
274.017	247.56
274.249	251.56
274.481	246.56
274.713	266.56
274.945	266.56
275.176	261.56
275.408	259.56
275.64	244.56
275.872	275.56
276.104	245.56
276.335	263.56
276.567	268.56
276.799	263.56
277.031	275.56
277.262	297.56
277.494	313.56
277.726	280.56
277.957	269.56
278.189	294.56
278.421	272.56
278.652	278.56
278.884	248.56
279.115	270.56
279.347	253.56
279.579	269.56
279.81	264.56
280.042	270.56
280.273	269.56
280.505	283.56
280.736	273.56
280.968	265.56
281.199	276.56
281.431	277.56
281.662	276.56
281.894	275.56
282.125	272.56
282.356	288.56
282.588	279.56
282.819	293.56
283.051	275.56
283.282	275.56
283.513	279.56
283.745	274.56
283.976	291.56
284.207	287.56
284.439	303.56
284.67	274.56
284.901	284.56
285.132	279.56
285.364	272.56
285.595	295.56
285.826	283.56
286.057	285.56
286.288	289.56
286.52	309.56
286.751	286.56
286.982	273.56
287.213	279.56
287.444	288.56
287.675	286.56
287.906	293.56
288.138	311.56
288.369	300.56
288.6	290.56
288.831	307.56
289.062	287.56
289.293	285.56
289.524	282.56
289.755	300.56
289.986	300.56
290.217	289.56
290.448	284.56
290.679	304.56
290.91	298.56
291.141	303.56
291.371	285.56
291.602	295.56
291.833	289.56
292.064	291.56
292.295	308.56
292.526	309.56
292.757	286.56
292.987	285.56
293.218	290.56
293.449	320.56
293.68	308.56
293.91	301.56
294.141	288.56
294.372	286.56
294.603	297.56
294.833	299.56
295.064	304.56
295.295	299.56
295.525	305.56
295.756	308.56
295.987	285.56
296.217	320.56
296.448	337.56
296.679	309.56
296.909	307.56
297.14	316.56
297.37	314.56
297.601	313.56
297.831	294.56
298.062	303.56
298.292	303.56
298.523	331.56
298.753	313.56
298.984	317.56
299.214	295.56
299.445	297.56
299.675	316.56
299.905	312.56
300.136	325.56
300.366	321.56
300.597	319.56
300.827	319.56
301.057	329.56
301.288	314.56
301.518	321.56
301.748	331.56
301.979	348.56
302.209	323.56
302.439	340.56
302.669	349.56
302.9	328.56
303.13	330.56
303.36	324.56
303.59	317.56
303.82	332.56
304.051	364.56
304.281	329.56
304.511	308.56
304.741	339.56
304.971	355.56
305.201	315.56
305.431	324.56
305.661	344.56
305.891	325.56
306.121	359.56
306.352	339.56
306.582	340.56
306.812	331.56
307.042	334.56
307.272	338.56
307.502	328.56
307.731	340.56
307.961	329.56
308.191	351.56
308.421	345.56
308.651	343.56
308.881	346.56
309.111	341.56
309.341	338.56
309.571	340.56
309.8	332.56
310.03	332.56
310.26	372.56
310.49	351.56
310.72	352.56
310.949	373.56
311.179	350.56
311.409	365.56
311.639	372.56
311.868	352.56
312.098	361.56
312.328	377.56
312.557	382.56
312.787	370.56
313.017	386.56
313.246	367.56
313.476	360.56
313.706	379.56
313.935	391.56
314.165	375.56
314.394	376.56
314.624	390.56
314.853	383.56
315.083	379.56
315.312	376.56
315.542	360.56
315.771	364.56
316.001	360.56
316.23	389.56
316.46	380.56
316.689	366.56
316.919	379.56
317.148	371.56
317.377	365.56
317.607	374.56
317.836	350.56
318.065	367.56
318.295	352.56
318.524	373.56
318.753	360.56
318.983	367.56
319.212	358.56
319.441	365.56
319.67	374.56
319.9	359.56
320.129	374.56
320.358	391.56
320.587	381.56
320.816	393.56
321.046	380.56
321.275	394.56
321.504	399.56
321.733	391.56
321.962	390.56
322.191	379.56
322.42	401.56
322.649	419.56
322.878	403.56
323.108	409.56
323.337	434.56
323.566	441.56
323.795	465.56
324.024	485.56
324.253	545.56
324.482	719.56
324.71	1044.56
324.939	1483.56
325.168	1290.56
325.397	730.56
325.626	516.56
325.855	451.56
326.084	447.56
326.313	456.56
326.542	467.56
326.77	475.56
326.999	523.56
327.228	676.56
327.457	943.56
327.686	1162.56
327.914	823.56
328.143	603.56
328.372	530.56
328.6	501.56
328.829	477.56
329.058	480.56
329.287	486.56
329.515	476.56
329.744	456.56
329.972	463.56
330.201	462.56
330.43	488.56
330.658	505.56
330.887	518.56
331.115	512.56
331.344	490.56
331.572	457.56
331.801	448.56
332.03	467.56
332.258	481.56
332.486	438.56
332.715	443.56
332.943	455.56
333.172	448.56
333.4	461.56
333.629	461.56
333.857	474.56
334.085	483.56
334.314	497.56
334.542	511.56
334.771	540.56
334.999	461.56
335.227	458.56
335.455	476.56
335.684	462.56
335.912	451.56
336.14	443.56
336.369	457.56
336.597	443.56
336.825	446.56
337.053	435.56
337.281	441.56
337.51	445.56
337.738	423.56
337.966	437.56
338.194	435.56
338.422	440.56
338.65	449.56
338.878	441.56
339.106	411.56
339.334	431.56
339.562	452.56
339.79	429.56
340.018	417.56
340.246	419.56
340.474	419.56
340.702	420.56
340.93	439.56
341.158	413.56
341.386	407.56
341.614	415.56
341.842	448.56
342.07	415.56
342.298	404.56
342.526	425.56
342.754	395.56
342.981	412.56
343.209	422.56
343.437	418.56
343.665	435.56
343.893	471.56
344.12	452.56
344.348	458.56
344.576	436.56
344.804	476.56
345.031	456.56
345.259	440.56
345.487	417.56
345.714	428.56
345.942	422.56
346.17	411.56
346.397	425.56
346.625	419.56
346.853	415.56
347.08	406.56
347.308	408.56
347.535	404.56
347.763	417.56
347.99	418.56
348.218	413.56
348.445	403.56
348.673	398.56
348.9	398.56
349.128	407.56
349.355	410.56
349.583	406.56
349.81	377.56
350.037	390.56
350.265	378.56
350.492	384.56
350.72	396.56
350.947	421.56
351.174	398.56
351.402	405.56
351.629	394.56
351.856	403.56
352.083	387.56
352.311	428.56
352.538	412.56
352.765	417.56
352.992	420.56
353.22	386.56
353.447	410.56
353.674	403.56
353.901	384.56
354.128	401.56
354.355	378.56
354.583	377.56
354.81	403.56
355.037	380.56
355.264	370.56
355.491	380.56
355.718	384.56
355.945	372.56
356.172	385.56
356.399	384.56
356.626	402.56
356.853	393.56
357.08	395.56
357.307	394.56
357.534	384.56
357.761	363.56
357.988	391.56
358.215	395.56
358.441	392.56
358.668	379.56
358.895	401.56
359.122	393.56
359.349	392.56
359.576	404.56
359.802	431.56
360.029	429.56
360.256	425.56
360.483	417.56
360.709	411.56
360.936	403.56
361.163	395.56
361.39	396.56
361.616	387.56
361.843	378.56
362.07	381.56
362.296	403.56
362.523	387.56
362.749	376.56
362.976	389.56
363.203	392.56
363.429	395.56
363.656	404.56
363.882	411.56
364.109	374.56
364.335	396.56
364.562	387.56
364.788	404.56
365.015	382.56
365.241	391.56
365.468	410.56
365.694	404.56
365.92	379.56
366.147	401.56
366.373	394.56
366.599	390.56
366.826	395.56
367.052	381.56
367.278	390.56
367.505	377.56
367.731	384.56
367.957	404.56
368.184	383.56
368.41	421.56
368.636	397.56
368.862	411.56
369.089	401.56
369.315	401.56
369.541	397.56
369.767	391.56
369.993	380.56
370.219	391.56
370.445	384.56
370.672	394.56
370.898	385.56
371.124	385.56
371.35	390.56
371.576	394.56
371.802	389.56
372.028	405.56
372.254	409.56
372.48	417.56
372.706	411.56
372.932	392.56
373.158	408.56
373.384	417.56
373.61	386.56
373.835	400.56
374.061	381.56
374.287	407.56
374.513	409.56
374.739	425.56
374.965	439.56
375.191	437.56
375.416	421.56
375.642	415.56
375.868	402.56
376.094	416.56
376.319	389.56
376.545	403.56
376.771	377.56
376.997	404.56
377.222	398.56
377.448	386.56
377.674	389.56
377.899	394.56
378.125	391.56
378.35	403.56
378.576	396.56
378.802	385.56
379.027	373.56
379.253	401.56
379.478	397.56
379.704	397.56
379.929	407.56
380.155	400.56
380.38	393.56
380.606	387.56
380.831	408.56
381.057	409.56
381.282	401.56
381.507	404.56
381.733	406.56
381.958	406.56
382.184	401.56
382.409	417.56
382.634	409.56
382.86	417.56
383.085	423.56
383.31	424.56
383.535	412.56
383.761	437.56
383.986	435.56
384.211	443.56
384.436	436.56
384.662	439.56
384.887	450.56
385.112	435.56
385.337	447.56
385.562	441.56
385.787	468.56
386.013	459.56
386.238	465.56
386.463	456.56
386.688	475.56
386.913	476.56
387.138	449.56
387.363	456.56
387.588	436.56
387.813	457.56
388.038	456.56
388.263	458.56
388.488	452.56
388.713	452.56
388.938	464.56
389.163	480.56
389.387	449.56
389.612	465.56
389.837	455.56
390.062	451.56
390.287	458.56
390.512	456.56
390.736	447.56
390.961	473.56
391.186	453.56
391.411	484.56
391.636	472.56
391.86	474.56
392.085	469.56
392.31	462.56
392.534	465.56
392.759	479.56
392.984	483.56
393.208	467.56
393.433	478.56
393.658	455.56
393.882	468.56
394.107	433.56
394.331	471.56
394.556	480.56
394.78	476.56
395.005	487.56
395.229	474.56
395.454	467.56
395.678	474.56
395.903	497.56
396.127	511.56
396.352	503.56
396.576	495.56
396.801	498.56
397.025	475.56
397.249	480.56
397.474	504.56
397.698	492.56
397.922	515.56
398.147	522.56
398.371	525.56
398.595	538.56
398.82	553.56
399.044	559.56
399.268	571.56
399.492	639.56
399.717	655.56
399.941	665.56
400.165	689.56
400.389	658.56
400.613	615.56
400.837	566.56
401.062	548.56
401.286	559.56
401.51	540.56
401.734	524.56
401.958	539.56
402.182	536.56
402.406	542.56
402.63	545.56
402.854	546.56
403.078	575.56
403.302	590.56
403.526	573.56
403.75	567.56
403.974	587.56
404.198	591.56
404.422	583.56
404.645	588.56
404.869	587.56
405.093	595.56
405.317	633.56
405.541	653.56
405.765	601.56
405.988	551.56
406.212	571.56
406.436	602.56
406.66	613.56
406.883	606.56
407.107	624.56
407.331	669.56
407.555	704.56
407.778	722.56
408.002	659.56
408.226	641.56
408.449	621.56
408.673	611.56
408.896	614.56
409.12	637.56
409.344	624.56
409.567	588.56
409.791	563.56
410.014	572.56
410.238	565.56
410.461	565.56
410.685	584.56
410.908	570.56
411.132	578.56
411.355	601.56
411.578	613.56
411.802	572.56
412.025	562.56
412.249	564.56
412.472	586.56
412.695	596.56
412.919	573.56
413.142	576.56
413.365	550.56
413.589	539.56
413.812	549.56
414.035	534.56
414.258	556.56
414.482	534.56
414.705	545.56
414.928	548.56
415.151	535.56
415.374	527.56
415.597	523.56
415.821	518.56
416.044	547.56
416.267	524.56
416.49	531.56
416.713	533.56
416.936	527.56
417.159	517.56
417.382	517.56
417.605	531.56
417.828	540.56
418.051	543.56
418.274	539.56
418.497	496.56
418.72	527.56
418.943	506.56
419.166	540.56
419.389	589.56
419.611	579.56
419.834	572.56
420.057	548.56
420.28	537.56
420.503	521.56
420.726	570.56
420.948	549.56
421.171	575.56
421.394	611.56
421.617	573.56
421.839	559.56
422.062	521.56
422.285	568.56
422.507	597.56
422.73	657.56
422.953	628.56
423.175	588.56
423.398	570.56
423.621	569.56
423.843	590.56
424.066	571.56
424.288	585.56
424.511	582.56
424.733	607.56
424.956	665.56
425.178	652.56
425.401	643.56
425.623	668.56
425.846	586.56
426.068	573.56
426.291	536.56
426.513	563.56
426.735	550.56
426.958	589.56
427.18	619.56
427.402	743.56
427.625	806.56
427.847	695.56
428.069	629.56
428.292	581.56
428.514	545.56
428.736	533.56
428.958	542.56
429.181	511.56
429.403	497.56
429.625	522.56
429.847	546.56
430.069	603.56
430.292	581.56
430.514	529.56
430.736	523.56
430.958	491.56
431.18	506.56
431.402	506.56
431.624	479.56
431.846	501.56
432.068	487.56
432.29	511.56
432.512	484.56
432.734	505.56
432.956	503.56
433.178	519.56
433.4	500.56
433.622	510.56
433.844	524.56
434.066	471.56
434.287	492.56
434.509	517.56
434.731	522.56
434.953	517.56
435.175	525.56
435.397	562.56
435.618	543.56
435.84	573.56
436.062	628.56
436.284	690.56
436.505	624.56
436.727	564.56
436.949	548.56
437.17	527.56
437.392	516.56
437.614	527.56
437.835	536.56
438.057	581.56
438.278	653.56
438.5	660.56
438.721	764.56
438.943	716.56
439.165	578.56
439.386	563.56
439.608	561.56
439.829	547.56
440.05	578.56
440.272	604.56
440.493	564.56
440.715	529.56
440.936	540.56
441.158	508.56
441.379	523.56
441.6	545.56
441.822	589.56
442.043	582.56
442.264	628.56
442.486	692.56
442.707	611.56
442.928	572.56
443.149	566.56
443.371	600.56
443.592	623.56
443.813	674.56
444.034	740.56
444.255	666.56
444.476	617.56
444.698	586.56
444.919	593.56
445.14	712.56
445.361	641.56
445.582	596.56
445.803	638.56
446.024	687.56
446.245	709.56
446.466	671.56
446.687	586.56
446.908	553.56
447.129	511.56
447.35	510.56
447.571	523.56
447.792	500.56
448.013	502.56
448.234	513.56
448.455	537.56
448.675	648.56
448.896	711.56
449.117	632.56
449.338	596.56
449.559	681.56
449.779	785.56
450	646.56
450.221	547.56
450.442	495.56
450.662	485.56
450.883	488.56
451.104	477.56
451.324	504.56
451.545	481.56
451.766	470.56
451.986	462.56
452.207	466.56
452.428	448.56
452.648	471.56
452.869	448.56
453.089	465.56
453.31	478.56
453.53	457.56
453.751	424.56
453.971	451.56
454.192	452.56
454.412	449.56
454.633	467.56
454.853	437.56
455.073	441.56
455.294	474.56
455.514	521.56
455.734	533.56
455.955	451.56
456.175	442.56
456.395	436.56
456.616	451.56
456.836	423.56
457.056	434.56
457.276	427.56
457.497	431.56
457.717	424.56
457.937	441.56
458.157	439.56
458.377	462.56
458.598	467.56
458.818	501.56
459.038	569.56
459.258	585.56
459.478	522.56
459.698	499.56
459.918	515.56
460.138	517.56
460.358	529.56
460.578	543.56
460.798	538.56
461.018	533.56
461.238	523.56
461.458	525.56
461.678	531.56
461.898	547.56
462.118	540.56
462.338	538.56
462.558	551.56
462.777	591.56
462.997	624.56
463.217	608.56
463.437	631.56
463.657	598.56
463.876	579.56
464.096	583.56
464.316	588.56
464.536	577.56
464.755	595.56
464.975	578.56
465.195	556.56
465.414	592.56
465.634	533.56
465.854	531.56
466.073	489.56
466.293	481.56
466.512	472.56
466.732	463.56
466.951	484.56
467.171	472.56
467.391	490.56
467.61	475.56
467.829	471.56
468.049	489.56
468.268	481.56
468.488	452.56
468.707	489.56
468.927	463.56
469.146	456.56
469.365	461.56
469.585	441.56
469.804	487.56
470.023	479.56
470.243	481.56
470.462	503.56
470.681	499.56
470.901	485.56
471.12	506.56
471.339	482.56
471.558	467.56
471.777	491.56
471.997	484.56
472.216	481.56
472.435	488.56
472.654	465.56
472.873	480.56
473.092	482.56
473.311	472.56
473.53	486.56
473.749	477.56
473.968	509.56
474.187	572.56
474.406	598.56
474.625	517.56
474.844	479.56
475.063	462.56
475.282	492.56
475.501	470.56
475.72	481.56
475.939	490.56
476.158	488.56
476.377	485.56
476.596	496.56
476.814	502.56
477.033	506.56
477.252	523.56
477.471	533.56
477.69	498.56
477.908	531.56
478.127	522.56
478.346	550.56
478.564	541.56
478.783	540.56
479.002	537.56
479.22	554.56
479.439	571.56
479.658	576.56
479.876	588.56
480.095	582.56
480.313	609.56
480.532	634.56
480.751	588.56
480.969	600.56
481.188	627.56
481.406	641.56
481.624	588.56
481.843	577.56
482.061	564.56
482.28	561.56
482.498	578.56
482.717	543.56
482.935	564.56
483.153	545.56
483.372	556.56
483.59	550.56
483.808	539.56
484.027	546.56
484.245	552.56
484.463	559.56
484.681	576.56
484.9	555.56
485.118	550.56
485.336	567.56
485.554	567.56
485.772	564.56
485.99	568.56
486.209	598.56
486.427	579.56
486.645	600.56
486.863	601.56
487.081	579.56
487.299	592.56
487.517	618.56
487.735	591.56
487.953	584.56
488.171	612.56
488.389	583.56
488.607	581.56
488.825	575.56
489.043	607.56
489.261	580.56
489.479	593.56
489.696	610.56
489.914	586.56
490.132	607.56
490.35	614.56
490.568	597.56
490.786	617.56
491.003	606.56
491.221	631.56
491.439	624.56
491.657	625.56
491.874	642.56
492.092	654.56
492.31	666.56
492.527	659.56
492.745	658.56
492.963	663.56
493.18	689.56
493.398	654.56
493.615	687.56
493.833	643.56
494.05	630.56
494.268	658.56
494.485	664.56
494.703	635.56
494.92	671.56
495.138	683.56
495.355	662.56
495.573	669.56
495.79	683.56
496.008	679.56
496.225	680.56
496.442	688.56
496.66	673.56
496.877	695.56
497.094	690.56
497.312	713.56
497.529	703.56
497.746	745.56
497.963	754.56
498.181	765.56
498.398	773.56
498.615	823.56
498.832	843.56
499.049	857.56
499.267	881.56
499.484	916.56
499.701	991.56
499.918	1051.56
500.135	1100.56
500.352	1189.56
500.569	1229.56
500.786	1252.56
501.003	1188.56
501.22	1144.56
501.437	1102.56
501.654	1007.56
501.871	985.56
502.088	914.56
502.305	859.56
502.522	853.56
502.739	808.56
502.956	787.56
503.172	779.56
503.389	746.56
503.606	736.56
503.823	735.56
504.04	708.56
504.256	745.56
504.473	729.56
504.69	716.56
504.907	722.56
505.123	713.56
505.34	682.56
505.557	664.56
505.773	656.56
505.99	653.56
506.207	649.56
506.423	659.56
506.64	643.56
506.856	608.56
507.073	631.56
507.289	629.56
507.506	608.56
507.722	598.56
507.939	605.56
508.155	624.56
508.372	602.56
508.588	591.56
508.805	591.56
509.021	593.56
509.238	627.56
509.454	615.56
509.67	602.56
509.887	615.56
510.103	577.56
510.319	603.56
510.536	642.56
510.752	853.56
510.968	749.56
511.184	583.56
511.401	573.56
511.617	558.56
511.833	561.56
512.049	564.56
512.265	552.56
512.481	578.56
512.698	531.56
512.914	557.56
513.13	588.56
513.346	550.56
513.562	554.56
513.778	541.56
513.994	569.56
514.21	564.56
514.426	575.56
514.642	575.56
514.858	586.56
515.074	645.56
515.29	689.56
515.506	852.56
515.721	747.56
515.937	647.56
516.153	614.56
516.369	613.56
516.585	600.56
516.801	592.56
517.016	658.56
517.232	636.56
517.448	656.56
517.664	671.56
517.879	647.56
518.095	639.56
518.311	642.56
518.527	611.56
518.742	609.56
518.958	611.56
519.173	600.56
519.389	586.56
519.605	598.56
519.82	575.56
520.036	592.56
520.251	573.56
520.467	587.56
520.682	591.56
520.898	607.56
521.113	585.56
521.329	617.56
521.544	631.56
521.76	699.56
521.975	1033.56
522.19	996.56
522.406	667.56
522.621	583.56
522.836	547.56
523.052	538.56
523.267	507.56
523.482	510.56
523.698	511.56
523.913	530.56
524.128	504.56
524.343	526.56
524.559	515.56
524.774	513.56
524.989	510.56
525.204	534.56
525.419	517.56
525.634	481.56
525.849	482.56
526.064	497.56
526.28	479.56
526.495	489.56
526.71	472.56
526.925	491.56
527.14	488.56
527.355	492.56
527.57	475.56
527.785	456.56
527.999	458.56
528.214	468.56
528.429	487.56
528.644	476.56
528.859	478.56
529.074	487.56
529.289	479.56
529.503	545.56
529.718	507.56
529.933	483.56
530.148	480.56
530.363	480.56
530.577	491.56
530.792	479.56
531.007	478.56
531.221	476.56
531.436	479.56
531.651	481.56
531.865	467.56
532.08	457.56
532.295	479.56
532.509	443.56
532.724	462.56
532.938	455.56
533.153	457.56
533.367	474.56
533.582	488.56
533.796	480.56
534.011	455.56
534.225	444.56
534.44	449.56
534.654	475.56
534.868	452.56
535.083	475.56
535.297	464.56
535.511	479.56
535.726	467.56
535.94	489.56
536.154	465.56
536.369	472.56
536.583	452.56
536.797	442.56
537.011	445.56
537.225	429.56
537.44	436.56
537.654	433.56
537.868	429.56
538.082	433.56
538.296	452.56
538.51	442.56
538.724	429.56
538.938	436.56
539.153	429.56
539.367	429.56
539.581	440.56
539.795	454.56
540.009	428.56
540.222	458.56
540.436	442.56
540.65	422.56
540.864	455.56
541.078	444.56
541.292	450.56
541.506	437.56
541.72	432.56
541.934	450.56
542.147	426.56
542.361	447.56
542.575	435.56
542.789	439.56
543.002	439.56
543.216	430.56
543.43	439.56
543.644	445.56
543.857	438.56
544.071	424.56
544.285	461.56
544.498	441.56
544.712	425.56
544.925	427.56
545.139	421.56
545.352	433.56
545.566	431.56
545.779	444.56
545.993	431.56
546.206	455.56
546.42	432.56
546.633	448.56
546.847	450.56
547.06	444.56
547.274	435.56
547.487	437.56
547.7	425.56
547.914	443.56
548.127	434.56
548.34	423.56
548.554	424.56
548.767	443.56
548.98	442.56
549.193	434.56
549.407	441.56
549.62	435.56
549.833	436.56
550.046	449.56
550.259	436.56
550.473	426.56
550.686	423.56
550.899	432.56
551.112	423.56
551.325	418.56
551.538	429.56
551.751	428.56
551.964	425.56
552.177	441.56
552.39	443.56
552.603	433.56
552.816	451.56
553.029	453.56
553.242	469.56
553.455	435.56
553.667	446.56
553.88	472.56
554.093	450.56
554.306	452.56
554.519	431.56
554.732	437.56
554.944	428.56
555.157	420.56
555.37	412.56
555.583	415.56
555.795	405.56
556.008	417.56
556.221	421.56
556.433	422.56
556.646	427.56
556.859	406.56
557.071	409.56
557.284	401.56
557.496	392.56
557.709	395.56
557.921	396.56
558.134	396.56
558.346	397.56
558.559	390.56
558.771	387.56
558.984	377.56
559.196	376.56
559.409	392.56
559.621	380.56
559.833	393.56
560.046	376.56
560.258	380.56
560.47	381.56
560.683	376.56
560.895	369.56
561.107	365.56
561.32	384.56
561.532	381.56
561.744	365.56
561.956	393.56
562.168	379.56
562.381	379.56
562.593	388.56
562.805	391.56
563.017	389.56
563.229	403.56
563.441	398.56
563.653	386.56
563.865	393.56
564.077	400.56
564.289	389.56
564.501	382.56
564.713	416.56
564.925	419.56
565.137	427.56
565.349	423.56
565.561	435.56
565.773	443.56
565.985	454.56
566.197	460.56
566.408	515.56
566.62	517.56
566.832	532.56
567.044	556.56
567.255	548.56
567.467	554.56
567.679	576.56
567.891	575.56
568.102	600.56
568.314	580.56
568.526	549.56
568.737	521.56
568.949	474.56
569.161	461.56
569.372	440.56
569.584	446.56
569.795	417.56
570.007	418.56
570.218	428.56
570.43	407.56
570.641	419.56
570.853	394.56
571.064	403.56
571.276	399.56
571.487	386.56
571.698	368.56
571.91	364.56
572.121	371.56
572.333	379.56
572.544	340.56
572.755	349.56
572.966	343.56
573.178	360.56
573.389	370.56
573.6	368.56
573.811	329.56
574.023	347.56
574.234	327.56
574.445	341.56
574.656	328.56
574.867	340.56
575.078	348.56
575.289	360.56
575.501	335.56
575.712	341.56
575.923	320.56
576.134	321.56
576.345	338.56
576.556	321.56
576.767	330.56
576.978	333.56
577.188	328.56
577.399	331.56
577.61	319.56
577.821	330.56
578.032	316.56
578.243	338.56
578.454	421.56
578.665	383.56
578.875	325.56
579.086	309.56
579.297	310.56
579.508	311.56
579.718	320.56
579.929	322.56
580.14	304.56
580.35	313.56
580.561	311.56
580.772	319.56
580.982	307.56
581.193	312.56
581.403	296.56
581.614	308.56
581.825	327.56
582.035	292.56
582.246	297.56
582.456	295.56
582.667	300.56
582.877	300.56
583.087	299.56
583.298	300.56
583.508	295.56
583.719	285.56
583.929	303.56
584.139	289.56
584.35	295.56
584.56	297.56
584.77	298.56
584.981	303.56
585.191	296.56
585.401	289.56
585.611	308.56
585.821	303.56
586.032	293.56
586.242	303.56
586.452	296.56
586.662	307.56
586.872	287.56
587.082	308.56
587.292	321.56
587.502	292.56
587.713	319.56
587.923	290.56
588.133	287.56
588.343	289.56
588.553	299.56
588.762	300.56
588.972	277.56
589.182	326.56
589.392	317.56
589.602	303.56
589.812	318.56
590.022	298.56
590.232	301.56
590.441	299.56
590.651	299.56
590.861	297.56
591.071	283.56
591.281	298.56
591.49	316.56
591.7	309.56
591.91	303.56
592.119	322.56
592.329	322.56
592.539	334.56
592.748	343.56
592.958	342.56
593.167	321.56
593.377	340.56
593.587	333.56
593.796	342.56
594.006	348.56
594.215	360.56
594.424	345.56
594.634	322.56
594.843	315.56
595.053	319.56
595.262	321.56
595.472	292.56
595.681	309.56
595.89	300.56
596.1	294.56
596.309	292.56
596.518	290.56
596.727	292.56
596.937	277.56
597.146	276.56
597.355	275.56
597.564	296.56
597.774	275.56
597.983	283.56
598.192	258.56
598.401	264.56
598.61	262.56
598.819	286.56
599.028	277.56
599.237	253.56
599.446	253.56
599.655	287.56
599.864	259.56
600.073	266.56
600.282	276.56
600.491	269.56
600.7	263.56
600.909	273.56
601.118	237.56
601.327	253.56
601.536	266.56
601.745	243.56
601.953	265.56
602.162	235.56
602.371	246.56
602.58	263.56
602.789	252.56
602.997	246.56
603.206	248.56
603.415	258.56
603.623	239.56
603.832	241.56
604.041	241.56
604.249	244.56
604.458	247.56
604.666	241.56
604.875	249.56
605.084	256.56
605.292	253.56
605.501	236.56
605.709	236.56
605.918	241.56
606.126	243.56
606.334	249.56
606.543	243.56
606.751	247.56
606.96	244.56
607.168	237.56
607.376	247.56
607.585	255.56
607.793	239.56
608.001	260.56
608.21	233.56
608.418	243.56
608.626	241.56
608.834	240.56
609.043	232.56
609.251	248.56
609.459	230.56
609.667	246.56
609.875	243.56
610.083	233.56
610.291	233.56
610.499	257.56
610.707	243.56
610.916	245.56
611.124	239.56
611.332	236.56
611.54	248.56
611.748	254.56
611.955	240.56
612.163	232.56
612.371	228.56
612.579	234.56
612.787	225.56
612.995	225.56
613.203	244.56
613.411	240.56
613.618	228.56
613.826	206.56
614.034	227.56
614.242	240.56
614.449	227.56
614.657	228.56
614.865	240.56
615.072	208.56
615.28	223.56
615.488	230.56
615.695	239.56
615.903	224.56
616.111	236.56
616.318	240.56
616.526	243.56
616.733	233.56
616.941	244.56
617.148	225.56
617.356	232.56
617.563	228.56
617.771	239.56
617.978	231.56
618.185	226.56
618.393	224.56
618.6	225.56
618.807	231.56
619.015	221.56
619.222	248.56
619.429	223.56
619.637	219.56
619.844	219.56
620.051	208.56
620.258	220.56
620.466	217.56
620.673	217.56
620.88	207.56
621.087	219.56
621.294	219.56
621.501	211.56
621.708	201.56
621.915	226.56
622.122	222.56
622.329	219.56
622.536	222.56
622.743	227.56
622.95	206.56
623.157	203.56
623.364	215.56
623.571	196.56
623.778	221.56
623.985	220.56
624.192	209.56
624.399	206.56
624.606	217.56
624.812	217.56
625.019	201.56
625.226	217.56
625.433	213.56
625.639	221.56
625.846	202.56
626.053	196.56
626.259	200.56
626.466	204.56
626.673	204.56
626.879	201.56
627.086	195.56
627.293	218.56
627.499	216.56
627.706	195.56
627.912	201.56
628.119	192.56
628.325	203.56
628.532	207.56
628.738	202.56
628.945	190.56
629.151	202.56
629.357	206.56
629.564	208.56
629.77	212.56
629.976	190.56
630.183	188.56
630.389	185.56
630.595	184.56
630.802	197.56
631.008	200.56
631.214	187.56
631.42	196.56
631.627	185.56
631.833	182.56
632.039	183.56
632.245	173.56
632.451	181.56
632.657	197.56
632.863	196.56
633.069	167.56
633.275	182.56
633.481	177.56
633.688	180.56
633.893	197.56
634.099	186.56
634.305	200.56
634.511	188.56
634.717	178.56
634.923	161.56
635.129	167.56
635.335	162.56
635.541	177.56
635.747	201.56
635.952	187.56
636.158	179.56
636.364	185.56
636.57	168.56
636.775	191.56
636.981	191.56
637.187	188.56
637.392	163.56
637.598	177.56
637.804	159.56
638.009	182.56
638.215	176.56
638.421	184.56
638.626	168.56
638.832	180.56
639.037	185.56
639.243	159.56
639.448	181.56
639.654	166.56
639.859	173.56
640.065	189.56
640.27	181.56
640.475	164.56
640.681	161.56
640.886	172.56
641.091	187.56
641.297	171.56
641.502	176.56
641.707	165.56
641.913	161.56
642.118	171.56
642.323	161.56
642.528	166.56
642.733	151.56
642.939	184.56
643.144	171.56
643.349	181.56
643.554	172.56
643.759	167.56
643.964	167.56
644.169	176.56
644.374	161.56
644.579	161.56
644.784	178.56
644.989	169.56
645.194	165.56
645.399	169.56
645.604	189.56
645.809	166.56
646.014	162.56
646.219	176.56
646.423	165.56
646.628	172.56
646.833	166.56
647.038	159.56
647.243	147.56
647.447	168.56
647.652	170.56
647.857	176.56
648.062	181.56
648.266	161.56
648.471	181.56
648.676	166.56
648.88	175.56
649.085	159.56
649.289	156.56
649.494	156.56
649.698	197.56
649.903	177.56
650.107	156.56
650.312	177.56
650.516	169.56
650.721	147.56
650.925	139.56
651.13	139.56
651.334	150.56
651.539	147.56
651.743	153.56
651.947	154.56
652.152	159.56
652.356	150.56
652.56	148.56
652.764	151.56
652.969	149.56
653.173	138.56
653.377	138.56
653.581	133.56
653.785	147.56
653.99	137.56
654.194	139.56
654.398	137.56
654.602	137.56
654.806	144.56
655.01	161.56
655.214	144.56
655.418	129.56
655.622	124.56
655.826	137.56
656.03	150.56
656.234	139.56
656.438	140.56
656.642	155.56
656.846	142.56
657.049	144.56
657.253	131.56
657.457	128.56
657.661	125.56
657.865	134.56
658.068	124.56
658.272	105.56
658.476	119.56
658.68	103.56
658.883	110.56
659.087	95.56
659.291	101.56
659.494	103.56
659.698	97.56
659.901	95.56
660.105	97.56
660.309	98.56
660.512	100.56
660.716	97.56
660.919	90.56
661.123	91.56
661.326	91.56
661.53	83.56
661.733	106.56
661.936	95.56
662.14	82.56
662.343	76.56
662.546	94.56
662.75	100.56
662.953	80.56
663.156	89.56
663.36	82.56
663.563	81.56
663.766	74.56
663.969	91.56
664.173	90.56
664.376	85.56
664.579	80.56
664.782	72.56
664.985	69.56
665.188	77.56
665.391	83.56
665.594	83.56
665.797	74.56
666	82.56
666.203	80.56
666.406	66.56
666.609	87.56
666.812	93.56
667.015	89.56
667.218	90.56
667.421	78.56
667.624	76.56
667.827	95.56
668.03	76.56
668.232	83.56
668.435	87.56
668.638	79.56
668.841	74.56
669.043	80.56
669.246	73.56
669.449	78.56
669.651	89.56
669.854	76.56
670.057	91.56
670.259	66.56
670.462	84.56
670.665	80.56
670.867	85.56
671.07	73.56
671.272	77.56
671.475	91.56
671.677	95.56
671.88	72.56
672.082	79.56
672.284	76.56
672.487	71.56
672.689	85.56
672.892	60.56
