Data from 1963.PennyLincolnUp.Lamp.En5.5.200Scan.071719.P1._HRD10591_13-57-31-062.txt Node
Date: Thu Jul 18 13:57:31 EDT 2019
User: cochatt
Spectrometer: HR+D1059
Trigger mode: 1
Integration Time (sec): 1.000000E-1
Scans to average: 1
Electric dark correction enabled: true
Nonlinearity correction enabled: false
Boxcar width: 0
XAxis mode: Wavelengths
Number of Pixels in Spectrum: 2048
>>>>>Begin Spectral Data<<<<<
223.165	-9.75
223.4	-9.75
223.635	-9.75
223.869	-25.75
224.104	-17.75
224.338	-22.75
224.573	-6.75
224.808	-11.75
225.042	-4.75
225.277	-14.75
225.511	-9.75
225.746	7.25
225.98	10.25
226.215	10.25
226.449	13.25
226.683	17.25
226.918	29.25
227.152	36.25
227.387	43.25
227.621	50.25
227.856	49.25
228.09	41.25
228.324	49.25
228.559	55.25
228.793	64.25
229.027	86.25
229.262	108.25
229.496	108.25
229.73	124.25
229.964	131.25
230.199	118.25
230.433	113.25
230.667	118.25
230.901	122.25
231.136	134.25
231.37	105.25
231.604	122.25
231.838	118.25
232.072	117.25
232.306	136.25
232.541	104.25
232.775	120.25
233.009	122.25
233.243	138.25
233.477	116.25
233.711	125.25
233.945	126.25
234.179	118.25
234.413	125.25
234.647	110.25
234.881	122.25
235.115	128.25
235.349	124.25
235.583	126.25
235.817	136.25
236.051	129.25
236.285	128.25
236.519	129.25
236.753	137.25
236.987	151.25
237.221	172.25
237.455	184.25
237.689	152.25
237.922	130.25
238.156	135.25
238.39	126.25
238.624	132.25
238.858	129.25
239.091	127.25
239.325	128.25
239.559	148.25
239.793	155.25
240.027	148.25
240.26	135.25
240.494	153.25
240.728	147.25
240.961	162.25
241.195	169.25
241.429	156.25
241.662	156.25
241.896	144.25
242.13	158.25
242.363	137.25
242.597	139.25
242.83	148.25
243.064	152.25
243.298	154.25
243.531	159.25
243.765	158.25
243.998	156.25
244.232	150.25
244.465	154.25
244.699	168.25
244.932	156.25
245.166	158.25
245.399	158.25
245.633	158.25
245.866	167.25
246.099	161.25
246.333	171.25
246.566	180.25
246.8	190.25
247.033	187.25
247.266	180.25
247.5	176.25
247.733	189.25
247.966	186.25
248.2	193.25
248.433	192.25
248.666	177.25
248.899	174.25
249.133	177.25
249.366	198.25
249.599	187.25
249.832	188.25
250.066	188.25
250.299	203.25
250.532	195.25
250.765	217.25
250.998	204.25
251.231	218.25
251.465	204.25
251.698	201.25
251.931	206.25
252.164	206.25
252.397	195.25
252.63	196.25
252.863	218.25
253.096	217.25
253.329	229.25
253.562	222.25
253.795	236.25
254.028	228.25
254.261	231.25
254.494	215.25
254.727	230.25
254.96	264.25
255.193	230.25
255.426	262.25
255.659	234.25
255.892	230.25
256.124	237.25
256.357	230.25
256.59	212.25
256.823	217.25
257.056	218.25
257.289	230.25
257.521	217.25
257.754	218.25
257.987	219.25
258.22	229.25
258.452	217.25
258.685	215.25
258.918	228.25
259.151	216.25
259.383	223.25
259.616	226.25
259.849	238.25
260.081	224.25
260.314	250.25
260.547	232.25
260.779	235.25
261.012	264.25
261.244	238.25
261.477	233.25
261.71	244.25
261.942	251.25
262.175	241.25
262.407	249.25
262.64	235.25
262.872	245.25
263.105	236.25
263.337	208.25
263.57	227.25
263.802	228.25
264.035	231.25
264.267	243.25
264.499	244.25
264.732	234.25
264.964	230.25
265.197	236.25
265.429	241.25
265.661	228.25
265.894	235.25
266.126	232.25
266.358	255.25
266.591	254.25
266.823	252.25
267.055	255.25
267.287	246.25
267.52	252.25
267.752	255.25
267.984	256.25
268.216	260.25
268.448	271.25
268.681	272.25
268.913	253.25
269.145	262.25
269.377	283.25
269.609	278.25
269.841	278.25
270.073	261.25
270.306	283.25
270.538	298.25
270.77	312.25
271.002	284.25
271.234	297.25
271.466	302.25
271.698	317.25
271.93	311.25
272.162	292.25
272.394	304.25
272.626	301.25
272.858	286.25
273.09	306.25
273.322	291.25
273.553	288.25
273.785	284.25
274.017	298.25
274.249	298.25
274.481	292.25
274.713	292.25
274.945	299.25
275.176	260.25
275.408	294.25
275.64	286.25
275.872	287.25
276.104	287.25
276.335	299.25
276.567	295.25
276.799	308.25
277.031	300.25
277.262	322.25
277.494	328.25
277.726	288.25
277.957	327.25
278.189	292.25
278.421	302.25
278.652	286.25
278.884	299.25
279.115	291.25
279.347	305.25
279.579	317.25
279.81	298.25
280.042	312.25
280.273	313.25
280.505	299.25
280.736	313.25
280.968	316.25
281.199	317.25
281.431	321.25
281.662	305.25
281.894	301.25
282.125	311.25
282.356	323.25
282.588	330.25
282.819	330.25
283.051	316.25
283.282	310.25
283.513	327.25
283.745	325.25
283.976	336.25
284.207	318.25
284.439	330.25
284.67	322.25
284.901	326.25
285.132	325.25
285.364	320.25
285.595	321.25
285.826	333.25
286.057	328.25
286.288	327.25
286.52	317.25
286.751	321.25
286.982	349.25
287.213	323.25
287.444	322.25
287.675	335.25
287.906	344.25
288.138	338.25
288.369	357.25
288.6	346.25
288.831	353.25
289.062	350.25
289.293	347.25
289.524	362.25
289.755	335.25
289.986	341.25
290.217	361.25
290.448	346.25
290.679	329.25
290.91	344.25
291.141	348.25
291.371	345.25
291.602	351.25
291.833	339.25
292.064	361.25
292.295	342.25
292.526	365.25
292.757	343.25
292.987	350.25
293.218	369.25
293.449	358.25
293.68	334.25
293.91	346.25
294.141	358.25
294.372	344.25
294.603	347.25
294.833	353.25
295.064	368.25
295.295	370.25
295.525	358.25
295.756	367.25
295.987	361.25
296.217	364.25
296.448	369.25
296.679	351.25
296.909	356.25
297.14	376.25
297.37	368.25
297.601	361.25
297.831	361.25
298.062	359.25
298.292	375.25
298.523	380.25
298.753	376.25
298.984	382.25
299.214	383.25
299.445	354.25
299.675	365.25
299.905	379.25
300.136	380.25
300.366	382.25
300.597	381.25
300.827	372.25
301.057	382.25
301.288	383.25
301.518	391.25
301.748	397.25
301.979	399.25
302.209	413.25
302.439	401.25
302.669	408.25
302.9	392.25
303.13	400.25
303.36	411.25
303.59	408.25
303.82	400.25
304.051	406.25
304.281	392.25
304.511	395.25
304.741	402.25
304.971	393.25
305.201	394.25
305.431	382.25
305.661	398.25
305.891	403.25
306.121	385.25
306.352	400.25
306.582	382.25
306.812	385.25
307.042	407.25
307.272	393.25
307.502	390.25
307.731	392.25
307.961	402.25
308.191	421.25
308.421	391.25
308.651	403.25
308.881	401.25
309.111	392.25
309.341	399.25
309.571	411.25
309.8	412.25
310.03	393.25
310.26	412.25
310.49	402.25
310.72	414.25
310.949	410.25
311.179	427.25
311.409	440.25
311.639	420.25
311.868	420.25
312.098	420.25
312.328	430.25
312.557	452.25
312.787	427.25
313.017	452.25
313.246	442.25
313.476	420.25
313.706	439.25
313.935	430.25
314.165	428.25
314.394	455.25
314.624	452.25
314.853	449.25
315.083	454.25
315.312	436.25
315.542	427.25
315.771	430.25
316.001	439.25
316.23	434.25
316.46	446.25
316.689	430.25
316.919	443.25
317.148	431.25
317.377	454.25
317.607	438.25
317.836	446.25
318.065	437.25
318.295	427.25
318.524	459.25
318.753	422.25
318.983	429.25
319.212	430.25
319.441	429.25
319.67	450.25
319.9	442.25
320.129	429.25
320.358	417.25
320.587	439.25
320.816	436.25
321.046	459.25
321.275	444.25
321.504	448.25
321.733	444.25
321.962	443.25
322.191	454.25
322.42	440.25
322.649	465.25
322.878	470.25
323.108	450.25
323.337	484.25
323.566	467.25
323.795	483.25
324.024	509.25
324.253	530.25
324.482	670.25
324.71	929.25
324.939	1316.25
325.168	1144.25
325.397	664.25
325.626	557.25
325.855	503.25
326.084	489.25
326.313	508.25
326.542	488.25
326.77	504.25
326.999	548.25
327.228	661.25
327.457	879.25
327.686	1037.25
327.914	746.25
328.143	582.25
328.372	541.25
328.6	519.25
328.829	518.25
329.058	535.25
329.287	505.25
329.515	524.25
329.744	513.25
329.972	518.25
330.201	525.25
330.43	545.25
330.658	542.25
330.887	560.25
331.115	547.25
331.344	521.25
331.572	508.25
331.801	512.25
332.03	517.25
332.258	551.25
332.486	520.25
332.715	523.25
332.943	568.25
333.172	562.25
333.4	553.25
333.629	609.25
333.857	594.25
334.085	593.25
334.314	600.25
334.542	610.25
334.771	620.25
334.999	593.25
335.227	569.25
335.455	562.25
335.684	548.25
335.912	537.25
336.14	555.25
336.369	553.25
336.597	541.25
336.825	538.25
337.053	534.25
337.281	524.25
337.51	522.25
337.738	543.25
337.966	513.25
338.194	533.25
338.422	522.25
338.65	522.25
338.878	522.25
339.106	521.25
339.334	509.25
339.562	517.25
339.79	492.25
340.018	489.25
340.246	509.25
340.474	504.25
340.702	485.25
340.93	509.25
341.158	524.25
341.386	494.25
341.614	512.25
341.842	519.25
342.07	473.25
342.298	500.25
342.526	494.25
342.754	492.25
342.981	494.25
343.209	519.25
343.437	526.25
343.665	545.25
343.893	547.25
344.12	561.25
344.348	566.25
344.576	558.25
344.804	524.25
345.031	547.25
345.259	506.25
345.487	504.25
345.714	495.25
345.942	501.25
346.17	482.25
346.397	473.25
346.625	486.25
346.853	479.25
347.08	468.25
347.308	473.25
347.535	469.25
347.763	506.25
347.99	482.25
348.218	489.25
348.445	482.25
348.673	480.25
348.9	478.25
349.128	465.25
349.355	483.25
349.583	477.25
349.81	488.25
350.037	473.25
350.265	482.25
350.492	485.25
350.72	453.25
350.947	451.25
351.174	476.25
351.402	480.25
351.629	493.25
351.856	488.25
352.083	474.25
352.311	494.25
352.538	490.25
352.765	487.25
352.992	473.25
353.22	483.25
353.447	482.25
353.674	453.25
353.901	466.25
354.128	463.25
354.355	439.25
354.583	460.25
354.81	472.25
355.037	494.25
355.264	477.25
355.491	484.25
355.718	478.25
355.945	481.25
356.172	470.25
356.399	467.25
356.626	463.25
356.853	485.25
357.08	445.25
357.307	480.25
357.534	455.25
357.761	469.25
357.988	467.25
358.215	479.25
358.441	483.25
358.668	471.25
358.895	471.25
359.122	478.25
359.349	450.25
359.576	469.25
359.802	499.25
360.029	513.25
360.256	504.25
360.483	492.25
360.709	482.25
360.936	475.25
361.163	489.25
361.39	481.25
361.616	488.25
361.843	468.25
362.07	478.25
362.296	461.25
362.523	487.25
362.749	486.25
362.976	483.25
363.203	490.25
363.429	477.25
363.656	482.25
363.882	481.25
364.109	470.25
364.335	469.25
364.562	461.25
364.788	463.25
365.015	472.25
365.241	461.25
365.468	467.25
365.694	484.25
365.92	512.25
366.147	459.25
366.373	478.25
366.599	466.25
366.826	465.25
367.052	478.25
367.278	469.25
367.505	484.25
367.731	478.25
367.957	475.25
368.184	477.25
368.41	470.25
368.636	475.25
368.862	496.25
369.089	493.25
369.315	474.25
369.541	463.25
369.767	484.25
369.993	465.25
370.219	478.25
370.445	483.25
370.672	506.25
370.898	478.25
371.124	490.25
371.35	502.25
371.576	470.25
371.802	496.25
372.028	528.25
372.254	522.25
372.48	474.25
372.706	511.25
372.932	510.25
373.158	496.25
373.384	507.25
373.61	521.25
373.835	498.25
374.061	501.25
374.287	520.25
374.513	514.25
374.739	502.25
374.965	527.25
375.191	554.25
375.416	536.25
375.642	513.25
375.868	497.25
376.094	487.25
376.319	490.25
376.545	501.25
376.771	494.25
376.997	511.25
377.222	497.25
377.448	484.25
377.674	482.25
377.899	509.25
378.125	496.25
378.35	481.25
378.576	504.25
378.802	494.25
379.027	507.25
379.253	508.25
379.478	496.25
379.704	493.25
379.929	499.25
380.155	494.25
380.38	505.25
380.606	507.25
380.831	507.25
381.057	504.25
381.282	500.25
381.507	496.25
381.733	522.25
381.958	529.25
382.184	509.25
382.409	523.25
382.634	511.25
382.86	496.25
383.085	511.25
383.31	537.25
383.535	521.25
383.761	517.25
383.986	538.25
384.211	559.25
384.436	556.25
384.662	574.25
384.887	586.25
385.112	568.25
385.337	564.25
385.562	581.25
385.787	562.25
386.013	572.25
386.238	590.25
386.463	595.25
386.688	603.25
386.913	591.25
387.138	580.25
387.363	581.25
387.588	568.25
387.813	575.25
388.038	566.25
388.263	559.25
388.488	587.25
388.713	558.25
388.938	566.25
389.163	580.25
389.387	576.25
389.612	592.25
389.837	570.25
390.062	584.25
390.287	554.25
390.512	567.25
390.736	570.25
390.961	568.25
391.186	558.25
391.411	596.25
391.636	594.25
391.86	617.25
392.085	617.25
392.31	610.25
392.534	599.25
392.759	599.25
392.984	610.25
393.208	575.25
393.433	605.25
393.658	610.25
393.882	572.25
394.107	594.25
394.331	588.25
394.556	590.25
394.78	608.25
395.005	603.25
395.229	596.25
395.454	601.25
395.678	617.25
395.903	618.25
396.127	626.25
396.352	620.25
396.576	623.25
396.801	593.25
397.025	604.25
397.249	610.25
397.474	633.25
397.698	662.25
397.922	636.25
398.147	641.25
398.371	633.25
398.595	662.25
398.82	690.25
399.044	713.25
399.268	778.25
399.492	834.25
399.717	914.25
399.941	935.25
400.165	905.25
400.389	820.25
400.613	782.25
400.837	723.25
401.062	702.25
401.286	698.25
401.51	705.25
401.734	668.25
401.958	716.25
402.182	702.25
402.406	675.25
402.63	713.25
402.854	742.25
403.078	726.25
403.302	743.25
403.526	727.25
403.75	737.25
403.974	733.25
404.198	750.25
404.422	721.25
404.645	756.25
404.869	756.25
405.093	778.25
405.317	790.25
405.541	801.25
405.765	754.25
405.988	740.25
406.212	733.25
406.436	758.25
406.66	777.25
406.883	776.25
407.107	830.25
407.331	836.25
407.555	901.25
407.778	907.25
408.002	818.25
408.226	830.25
408.449	791.25
408.673	814.25
408.896	780.25
409.12	796.25
409.344	797.25
409.567	748.25
409.791	747.25
410.014	746.25
410.238	726.25
410.461	714.25
410.685	730.25
410.908	750.25
411.132	730.25
411.355	742.25
411.578	761.25
411.802	689.25
412.025	733.25
412.249	722.25
412.472	714.25
412.695	752.25
412.919	747.25
413.142	721.25
413.365	689.25
413.589	703.25
413.812	677.25
414.035	686.25
414.258	684.25
414.482	680.25
414.705	696.25
414.928	675.25
415.151	654.25
415.374	672.25
415.597	638.25
415.821	680.25
416.044	664.25
416.267	669.25
416.49	672.25
416.713	655.25
416.936	662.25
417.159	664.25
417.382	681.25
417.605	673.25
417.828	686.25
418.051	703.25
418.274	678.25
418.497	640.25
418.72	698.25
418.943	663.25
419.166	686.25
419.389	744.25
419.611	725.25
419.834	704.25
420.057	716.25
420.28	710.25
420.503	690.25
420.726	700.25
420.948	704.25
421.171	711.25
421.394	727.25
421.617	684.25
421.839	680.25
422.062	697.25
422.285	692.25
422.507	716.25
422.73	791.25
422.953	776.25
423.175	716.25
423.398	708.25
423.621	716.25
423.843	736.25
424.066	727.25
424.288	724.25
424.511	711.25
424.733	772.25
424.956	781.25
425.178	760.25
425.401	783.25
425.623	798.25
425.846	676.25
426.068	722.25
426.291	683.25
426.513	654.25
426.735	669.25
426.958	692.25
427.18	753.25
427.402	807.25
427.625	856.25
427.847	798.25
428.069	733.25
428.292	687.25
428.514	649.25
428.736	638.25
428.958	630.25
429.181	637.25
429.403	638.25
429.625	630.25
429.847	664.25
430.069	673.25
430.292	681.25
430.514	625.25
430.736	633.25
430.958	622.25
431.18	612.25
431.402	607.25
431.624	614.25
431.846	619.25
432.068	615.25
432.29	623.25
432.512	644.25
432.734	612.25
432.956	618.25
433.178	654.25
433.4	624.25
433.622	625.25
433.844	641.25
434.066	638.25
434.287	622.25
434.509	648.25
434.731	684.25
434.953	660.25
435.175	703.25
435.397	692.25
435.618	703.25
435.84	687.25
436.062	743.25
436.284	806.25
436.505	723.25
436.727	652.25
436.949	638.25
437.17	643.25
437.392	642.25
437.614	654.25
437.835	628.25
438.057	700.25
438.278	758.25
438.5	755.25
438.721	821.25
438.943	792.25
439.165	677.25
439.386	645.25
439.608	701.25
439.829	650.25
440.05	665.25
440.272	689.25
440.493	672.25
440.715	663.25
440.936	637.25
441.158	645.25
441.379	644.25
441.6	678.25
441.822	681.25
442.043	744.25
442.264	778.25
442.486	796.25
442.707	698.25
442.928	729.25
443.149	711.25
443.371	717.25
443.592	764.25
443.813	783.25
444.034	832.25
444.255	772.25
444.476	746.25
444.698	737.25
444.919	758.25
445.14	878.25
445.361	802.25
445.582	739.25
445.803	741.25
446.024	787.25
446.245	821.25
446.466	758.25
446.687	678.25
446.908	648.25
447.129	629.25
447.35	614.25
447.571	606.25
447.792	604.25
448.013	613.25
448.234	615.25
448.455	619.25
448.675	699.25
448.896	793.25
449.117	717.25
449.338	673.25
449.559	726.25
449.779	804.25
450	688.25
450.221	633.25
450.442	591.25
450.662	598.25
450.883	583.25
451.104	597.25
451.324	598.25
451.545	591.25
451.766	580.25
451.986	567.25
452.207	564.25
452.428	585.25
452.648	557.25
452.869	582.25
453.089	566.25
453.31	613.25
453.53	563.25
453.751	557.25
453.971	544.25
454.192	559.25
454.412	544.25
454.633	541.25
454.853	557.25
455.073	547.25
455.294	571.25
455.514	578.25
455.734	595.25
455.955	563.25
456.175	528.25
456.395	532.25
456.616	540.25
456.836	542.25
457.056	542.25
457.276	517.25
457.497	546.25
457.717	537.25
457.937	525.25
458.157	553.25
458.377	553.25
458.598	573.25
458.818	608.25
459.038	659.25
459.258	681.25
459.478	641.25
459.698	642.25
459.918	637.25
460.138	662.25
460.358	650.25
460.578	690.25
460.798	694.25
461.018	696.25
461.238	675.25
461.458	682.25
461.678	682.25
461.898	690.25
462.118	678.25
462.338	722.25
462.558	725.25
462.777	766.25
462.997	794.25
463.217	816.25
463.437	862.25
463.657	795.25
463.876	797.25
464.096	768.25
464.316	776.25
464.536	761.25
464.755	735.25
464.975	728.25
465.195	728.25
465.414	737.25
465.634	676.25
465.854	640.25
466.073	643.25
466.293	625.25
466.512	620.25
466.732	616.25
466.951	619.25
467.171	591.25
467.391	604.25
467.61	598.25
467.829	594.25
468.049	589.25
468.268	583.25
468.488	566.25
468.707	584.25
468.927	584.25
469.146	593.25
469.365	607.25
469.585	580.25
469.804	611.25
470.023	616.25
470.243	591.25
470.462	598.25
470.681	618.25
470.901	597.25
471.12	612.25
471.339	613.25
471.558	601.25
471.777	600.25
471.997	594.25
472.216	592.25
472.435	593.25
472.654	597.25
472.873	577.25
473.092	598.25
473.311	572.25
473.53	579.25
473.749	603.25
473.968	616.25
474.187	664.25
474.406	684.25
474.625	624.25
474.844	592.25
475.063	595.25
475.282	596.25
475.501	573.25
475.72	571.25
475.939	570.25
476.158	597.25
476.377	638.25
476.596	612.25
476.814	622.25
477.033	629.25
477.252	618.25
477.471	633.25
477.69	634.25
477.908	681.25
478.127	665.25
478.346	652.25
478.564	676.25
478.783	679.25
479.002	727.25
479.22	733.25
479.439	701.25
479.658	721.25
479.876	726.25
480.095	712.25
480.313	778.25
480.532	770.25
480.751	797.25
480.969	757.25
481.188	792.25
481.406	764.25
481.624	736.25
481.843	733.25
482.061	690.25
482.28	677.25
482.498	679.25
482.717	673.25
482.935	684.25
483.153	700.25
483.372	686.25
483.59	674.25
483.808	693.25
484.027	673.25
484.245	710.25
484.463	721.25
484.681	729.25
484.9	694.25
485.118	718.25
485.336	709.25
485.554	701.25
485.772	709.25
485.99	712.25
486.209	719.25
486.427	716.25
486.645	745.25
486.863	726.25
487.081	743.25
487.299	724.25
487.517	704.25
487.735	726.25
487.953	714.25
488.171	713.25
488.389	716.25
488.607	696.25
488.825	725.25
489.043	721.25
489.261	717.25
489.479	720.25
489.696	711.25
489.914	750.25
490.132	756.25
490.35	733.25
490.568	759.25
490.786	756.25
491.003	752.25
491.221	742.25
491.439	800.25
491.657	805.25
491.874	796.25
492.092	790.25
492.31	784.25
492.527	816.25
492.745	806.25
492.963	811.25
493.18	820.25
493.398	830.25
493.615	814.25
493.833	809.25
494.05	838.25
494.268	856.25
494.485	834.25
494.703	813.25
494.92	856.25
495.138	814.25
495.355	840.25
495.573	847.25
495.79	800.25
496.008	839.25
496.225	862.25
496.442	850.25
496.66	861.25
496.877	869.25
497.094	873.25
497.312	893.25
497.529	890.25
497.746	897.25
497.963	943.25
498.181	962.25
498.398	993.25
498.615	999.25
498.832	1071.25
499.049	1117.25
499.267	1180.25
499.484	1269.25
499.701	1346.25
499.918	1380.25
500.135	1578.25
500.352	1718.25
500.569	1744.25
500.786	1779.25
501.003	1648.25
501.22	1538.25
501.437	1439.25
501.654	1317.25
501.871	1277.25
502.088	1163.25
502.305	1122.25
502.522	1065.25
502.739	1066.25
502.956	1001.25
503.172	973.25
503.389	923.25
503.606	915.25
503.823	905.25
504.04	927.25
504.256	928.25
504.473	907.25
504.69	915.25
504.907	895.25
505.123	873.25
505.34	853.25
505.557	830.25
505.773	816.25
505.99	800.25
506.207	772.25
506.423	799.25
506.64	782.25
506.856	759.25
507.073	747.25
507.289	763.25
507.506	754.25
507.722	735.25
507.939	783.25
508.155	732.25
508.372	733.25
508.588	735.25
508.805	742.25
509.021	728.25
509.238	722.25
509.454	726.25
509.67	720.25
509.887	708.25
510.103	727.25
510.319	710.25
510.536	773.25
510.752	975.25
510.968	880.25
511.184	695.25
511.401	728.25
511.617	704.25
511.833	686.25
512.049	674.25
512.265	681.25
512.481	702.25
512.698	691.25
512.914	690.25
513.13	679.25
513.346	664.25
513.562	664.25
513.778	688.25
513.994	710.25
514.21	700.25
514.426	697.25
514.642	720.25
514.858	728.25
515.074	721.25
515.29	806.25
515.506	968.25
515.721	916.25
515.937	772.25
516.153	734.25
516.369	763.25
516.585	761.25
516.801	775.25
517.016	806.25
517.232	826.25
517.448	827.25
517.664	827.25
517.879	839.25
518.095	877.25
518.311	848.25
518.527	817.25
518.742	818.25
518.958	775.25
519.173	742.25
519.389	733.25
519.605	734.25
519.82	729.25
520.036	713.25
520.251	725.25
520.467	739.25
520.682	725.25
520.898	695.25
521.113	713.25
521.329	713.25
521.544	737.25
521.76	797.25
521.975	1108.25
522.19	1148.25
522.406	757.25
522.621	683.25
522.836	648.25
523.052	656.25
523.267	630.25
523.482	631.25
523.698	629.25
523.913	633.25
524.128	617.25
524.343	638.25
524.559	614.25
524.774	613.25
524.989	614.25
525.204	603.25
525.419	614.25
525.634	598.25
525.849	603.25
526.064	603.25
526.28	585.25
526.495	583.25
526.71	578.25
526.925	608.25
527.14	614.25
527.355	620.25
527.57	578.25
527.785	601.25
527.999	587.25
528.214	592.25
528.429	577.25
528.644	594.25
528.859	598.25
529.074	584.25
529.289	618.25
529.503	642.25
529.718	613.25
529.933	602.25
530.148	575.25
530.363	590.25
530.577	597.25
530.792	604.25
531.007	589.25
531.221	600.25
531.436	606.25
531.651	594.25
531.865	590.25
532.08	598.25
532.295	599.25
532.509	576.25
532.724	573.25
532.938	600.25
533.153	605.25
533.367	585.25
533.582	574.25
533.796	604.25
534.011	597.25
534.225	599.25
534.44	577.25
534.654	591.25
534.868	598.25
535.083	573.25
535.297	601.25
535.511	576.25
535.726	575.25
535.94	576.25
536.154	561.25
536.369	561.25
536.583	573.25
536.797	572.25
537.011	582.25
537.225	576.25
537.44	541.25
537.654	550.25
537.868	563.25
538.082	544.25
538.296	554.25
538.51	542.25
538.724	548.25
538.938	559.25
539.153	562.25
539.367	564.25
539.581	544.25
539.795	531.25
540.009	556.25
540.222	561.25
540.436	546.25
540.65	536.25
540.864	542.25
541.078	534.25
541.292	563.25
541.506	567.25
541.72	534.25
541.934	527.25
542.147	542.25
542.361	534.25
542.575	542.25
542.789	533.25
543.002	549.25
543.216	559.25
543.43	545.25
543.644	538.25
543.857	526.25
544.071	548.25
544.285	552.25
544.498	548.25
544.712	538.25
544.925	567.25
545.139	557.25
545.352	551.25
545.566	544.25
545.779	541.25
545.993	534.25
546.206	546.25
546.42	578.25
546.633	549.25
546.847	572.25
547.06	544.25
547.274	554.25
547.487	540.25
547.7	557.25
547.914	549.25
548.127	531.25
548.34	567.25
548.554	553.25
548.767	564.25
548.98	568.25
549.193	554.25
549.407	549.25
549.62	552.25
549.833	556.25
550.046	540.25
550.259	529.25
550.473	552.25
550.686	559.25
550.899	546.25
551.112	545.25
551.325	555.25
551.538	536.25
551.751	549.25
551.964	531.25
552.177	556.25
552.39	570.25
552.603	580.25
552.816	570.25
553.029	588.25
553.242	594.25
553.455	596.25
553.667	582.25
553.88	609.25
554.093	560.25
554.306	591.25
554.519	590.25
554.732	580.25
554.944	561.25
555.157	533.25
555.37	537.25
555.583	543.25
555.795	528.25
556.008	524.25
556.221	525.25
556.433	519.25
556.646	518.25
556.859	524.25
557.071	510.25
557.284	486.25
557.496	486.25
557.709	468.25
557.921	469.25
558.134	482.25
558.346	496.25
558.559	492.25
558.771	483.25
558.984	484.25
559.196	504.25
559.409	459.25
559.621	497.25
559.833	492.25
560.046	473.25
560.258	473.25
560.47	487.25
560.683	491.25
560.895	482.25
561.107	507.25
561.32	489.25
561.532	476.25
561.744	496.25
561.956	507.25
562.168	476.25
562.381	484.25
562.593	482.25
562.805	500.25
563.017	484.25
563.229	497.25
563.441	479.25
563.653	496.25
563.865	503.25
564.077	508.25
564.289	480.25
564.501	508.25
564.713	513.25
564.925	531.25
565.137	549.25
565.349	531.25
565.561	554.25
565.773	597.25
565.985	596.25
566.197	617.25
566.408	626.25
566.62	681.25
566.832	696.25
567.044	726.25
567.255	716.25
567.467	750.25
567.679	751.25
567.891	794.25
568.102	807.25
568.314	804.25
568.526	711.25
568.737	683.25
568.949	646.25
569.161	616.25
569.372	604.25
569.584	562.25
569.795	536.25
570.007	514.25
570.218	550.25
570.43	518.25
570.641	518.25
570.853	518.25
571.064	505.25
571.276	510.25
571.487	491.25
571.698	474.25
571.91	473.25
572.121	460.25
572.333	463.25
572.544	447.25
572.755	480.25
572.966	427.25
573.178	446.25
573.389	461.25
573.6	450.25
573.811	439.25
574.023	428.25
574.234	423.25
574.445	431.25
574.656	422.25
574.867	424.25
575.078	423.25
575.289	438.25
575.501	424.25
575.712	414.25
575.923	421.25
576.134	414.25
576.345	415.25
576.556	419.25
576.767	406.25
576.978	418.25
577.188	396.25
577.399	401.25
577.61	406.25
577.821	400.25
578.032	388.25
578.243	403.25
578.454	506.25
578.665	440.25
578.875	394.25
579.086	375.25
579.297	388.25
579.508	384.25
579.718	400.25
579.929	392.25
580.14	381.25
580.35	381.25
580.561	403.25
580.772	400.25
580.982	375.25
581.193	365.25
581.403	369.25
581.614	364.25
581.825	378.25
582.035	382.25
582.246	360.25
582.456	382.25
582.667	380.25
582.877	380.25
583.087	370.25
583.298	372.25
583.508	365.25
583.719	356.25
583.929	358.25
584.139	366.25
584.35	361.25
584.56	357.25
584.77	372.25
584.981	378.25
585.191	377.25
585.401	359.25
585.611	384.25
585.821	358.25
586.032	364.25
586.242	367.25
586.452	367.25
586.662	349.25
586.872	379.25
587.082	365.25
587.292	367.25
587.502	354.25
587.713	348.25
587.923	376.25
588.133	382.25
588.343	354.25
588.553	389.25
588.762	355.25
588.972	384.25
589.182	376.25
589.392	373.25
589.602	373.25
589.812	373.25
590.022	379.25
590.232	382.25
590.441	359.25
590.651	364.25
590.861	372.25
591.071	369.25
591.281	377.25
591.49	387.25
591.7	390.25
591.91	403.25
592.119	393.25
592.329	409.25
592.539	416.25
592.748	410.25
592.958	441.25
593.167	451.25
593.377	441.25
593.587	461.25
593.796	460.25
594.006	434.25
594.215	441.25
594.424	448.25
594.634	432.25
594.843	420.25
595.053	397.25
595.262	404.25
595.472	395.25
595.681	394.25
595.89	370.25
596.1	371.25
596.309	374.25
596.518	370.25
596.727	374.25
596.937	359.25
597.146	334.25
597.355	353.25
597.564	345.25
597.774	336.25
597.983	357.25
598.192	330.25
598.401	343.25
598.61	322.25
598.819	342.25
599.028	322.25
599.237	323.25
599.446	342.25
599.655	314.25
599.864	322.25
600.073	320.25
600.282	328.25
600.491	322.25
600.7	320.25
600.909	338.25
601.118	322.25
601.327	318.25
601.536	326.25
601.745	314.25
601.953	308.25
602.162	316.25
602.371	323.25
602.58	328.25
602.789	325.25
602.997	320.25
603.206	309.25
603.415	304.25
603.623	296.25
603.832	299.25
604.041	303.25
604.249	295.25
604.458	289.25
604.666	311.25
604.875	289.25
605.084	311.25
605.292	300.25
605.501	288.25
605.709	309.25
605.918	293.25
606.126	299.25
606.334	293.25
606.543	295.25
606.751	284.25
606.96	303.25
607.168	298.25
607.376	302.25
607.585	306.25
607.793	292.25
608.001	275.25
608.21	297.25
608.418	282.25
608.626	293.25
608.834	299.25
609.043	290.25
609.251	272.25
609.459	282.25
609.667	300.25
609.875	299.25
610.083	302.25
610.291	291.25
610.499	287.25
610.707	293.25
610.916	314.25
611.124	293.25
611.332	311.25
611.54	289.25
611.748	309.25
611.955	297.25
612.163	292.25
612.371	298.25
612.579	288.25
612.787	284.25
612.995	289.25
613.203	283.25
613.411	278.25
613.618	289.25
613.826	286.25
614.034	278.25
614.242	285.25
614.449	294.25
614.657	274.25
614.865	285.25
615.072	299.25
615.28	285.25
615.488	282.25
615.695	283.25
615.903	265.25
616.111	286.25
616.318	292.25
616.526	285.25
616.733	296.25
616.941	298.25
617.148	300.25
617.356	289.25
617.563	310.25
617.771	295.25
617.978	300.25
618.185	277.25
618.393	298.25
618.6	286.25
618.807	268.25
619.015	285.25
619.222	269.25
619.429	284.25
619.637	296.25
619.844	290.25
620.051	279.25
620.258	273.25
620.466	264.25
620.673	274.25
620.88	277.25
621.087	260.25
621.294	278.25
621.501	270.25
621.708	269.25
621.915	275.25
622.122	276.25
622.329	266.25
622.536	253.25
622.743	264.25
622.95	269.25
623.157	266.25
623.364	263.25
623.571	276.25
623.778	261.25
623.985	254.25
624.192	263.25
624.399	246.25
624.606	250.25
624.812	238.25
625.019	254.25
625.226	266.25
625.433	260.25
625.639	261.25
625.846	251.25
626.053	253.25
626.259	245.25
626.466	239.25
626.673	240.25
626.879	257.25
627.086	241.25
627.293	250.25
627.499	262.25
627.706	249.25
627.912	234.25
628.119	244.25
628.325	247.25
628.532	241.25
628.738	237.25
628.945	249.25
629.151	244.25
629.357	246.25
629.564	240.25
629.77	247.25
629.976	229.25
630.183	228.25
630.389	247.25
630.595	247.25
630.802	247.25
631.008	236.25
631.214	230.25
631.42	228.25
631.627	227.25
631.833	235.25
632.039	226.25
632.245	205.25
632.451	232.25
632.657	234.25
632.863	236.25
633.069	209.25
633.275	227.25
633.481	219.25
633.688	233.25
633.893	242.25
634.099	230.25
634.305	204.25
634.511	224.25
634.717	222.25
634.923	237.25
635.129	229.25
635.335	217.25
635.541	206.25
635.747	204.25
635.952	209.25
636.158	228.25
636.364	216.25
636.57	225.25
636.775	236.25
636.981	199.25
637.187	209.25
637.392	212.25
637.598	207.25
637.804	230.25
638.009	221.25
638.215	210.25
638.421	193.25
638.626	183.25
638.832	198.25
639.037	202.25
639.243	222.25
639.448	218.25
639.654	195.25
639.859	194.25
640.065	207.25
640.27	224.25
640.475	205.25
640.681	196.25
640.886	195.25
641.091	221.25
641.297	195.25
641.502	213.25
641.707	209.25
641.913	207.25
642.118	204.25
642.323	202.25
642.528	213.25
642.733	195.25
642.939	208.25
643.144	200.25
643.349	214.25
643.554	187.25
643.759	195.25
643.964	198.25
644.169	193.25
644.374	190.25
644.579	188.25
644.784	197.25
644.989	192.25
645.194	207.25
645.399	192.25
645.604	190.25
645.809	205.25
646.014	180.25
646.219	205.25
646.423	193.25
646.628	191.25
646.833	221.25
647.038	180.25
647.243	201.25
647.447	204.25
647.652	221.25
647.857	191.25
648.062	197.25
648.266	212.25
648.471	207.25
648.676	222.25
648.88	199.25
649.085	201.25
649.289	209.25
649.494	187.25
649.698	218.25
649.903	204.25
650.107	184.25
650.312	201.25
650.516	190.25
650.721	184.25
650.925	199.25
651.13	181.25
651.334	173.25
651.539	169.25
651.743	189.25
651.947	187.25
652.152	187.25
652.356	166.25
652.56	178.25
652.764	176.25
652.969	163.25
653.173	182.25
653.377	159.25
653.581	160.25
653.785	152.25
653.99	150.25
654.194	157.25
654.398	143.25
654.602	174.25
654.806	150.25
655.01	161.25
655.214	169.25
655.418	160.25
655.622	155.25
655.826	160.25
656.03	142.25
656.234	158.25
656.438	170.25
656.642	170.25
656.846	159.25
657.049	149.25
657.253	151.25
657.457	141.25
657.661	138.25
657.865	140.25
658.068	140.25
658.272	121.25
658.476	116.25
658.68	129.25
658.883	117.25
659.087	117.25
659.291	118.25
659.494	117.25
659.698	111.25
659.901	112.25
660.105	98.25
660.309	103.25
660.512	112.25
660.716	105.25
660.919	102.25
661.123	120.25
661.326	104.25
661.53	97.25
661.733	84.25
661.936	102.25
662.14	93.25
662.343	93.25
662.546	96.25
662.75	107.25
662.953	85.25
663.156	97.25
663.36	89.25
663.563	93.25
663.766	89.25
663.969	103.25
664.173	90.25
664.376	102.25
664.579	77.25
664.782	93.25
664.985	89.25
665.188	89.25
665.391	80.25
665.594	91.25
665.797	90.25
666	86.25
666.203	82.25
666.406	108.25
666.609	79.25
666.812	76.25
667.015	93.25
667.218	87.25
667.421	91.25
667.624	91.25
667.827	88.25
668.03	97.25
668.232	86.25
668.435	92.25
668.638	94.25
668.841	70.25
669.043	84.25
669.246	83.25
669.449	77.25
669.651	90.25
669.854	88.25
670.057	89.25
670.259	77.25
670.462	82.25
670.665	87.25
670.867	102.25
671.07	82.25
671.272	87.25
671.475	86.25
671.677	93.25
671.88	90.25
672.082	92.25
672.284	86.25
672.487	76.25
672.689	83.25
672.892	85.25
