Data from 1963.PennyLincolnUp.Lamp.En5.5.200Scan.071719.P1._HRD10591_13-59-26-063.txt Node
Date: Thu Jul 18 13:59:26 EDT 2019
User: cochatt
Spectrometer: HR+D1059
Trigger mode: 1
Integration Time (sec): 1.000000E-1
Scans to average: 1
Electric dark correction enabled: true
Nonlinearity correction enabled: false
Boxcar width: 0
XAxis mode: Wavelengths
Number of Pixels in Spectrum: 2048
>>>>>Begin Spectral Data<<<<<
223.165	1.5
223.4	1.5
223.635	1.5
223.869	-6.5
224.104	-18.5
224.338	-14.5
224.573	-18.5
224.808	-23.5
225.042	-8.5
225.277	1.5
225.511	-9.5
225.746	9.5
225.98	-0.5
226.215	5.5
226.449	9.5
226.683	18.5
226.918	26.5
227.152	27.5
227.387	29.5
227.621	38.5
227.856	41.5
228.09	43.5
228.324	47.5
228.559	49.5
228.793	49.5
229.027	80.5
229.262	115.5
229.496	106.5
229.73	126.5
229.964	156.5
230.199	134.5
230.433	112.5
230.667	115.5
230.901	118.5
231.136	113.5
231.37	109.5
231.604	119.5
231.838	128.5
232.072	115.5
232.306	123.5
232.541	114.5
232.775	128.5
233.009	121.5
233.243	126.5
233.477	116.5
233.711	125.5
233.945	126.5
234.179	126.5
234.413	119.5
234.647	126.5
234.881	123.5
235.115	133.5
235.349	134.5
235.583	130.5
235.817	118.5
236.051	127.5
236.285	125.5
236.519	140.5
236.753	135.5
236.987	136.5
237.221	166.5
237.455	217.5
237.689	173.5
237.922	145.5
238.156	149.5
238.39	136.5
238.624	141.5
238.858	132.5
239.091	132.5
239.325	134.5
239.559	133.5
239.793	142.5
240.027	147.5
240.26	150.5
240.494	166.5
240.728	157.5
240.961	172.5
241.195	145.5
241.429	153.5
241.662	136.5
241.896	151.5
242.13	156.5
242.363	158.5
242.597	144.5
242.83	155.5
243.064	150.5
243.298	153.5
243.531	149.5
243.765	152.5
243.998	156.5
244.232	158.5
244.465	170.5
244.699	172.5
244.932	173.5
245.166	173.5
245.399	148.5
245.633	166.5
245.866	174.5
246.099	168.5
246.333	158.5
246.566	177.5
246.8	178.5
247.033	181.5
247.266	171.5
247.5	185.5
247.733	184.5
247.966	178.5
248.2	182.5
248.433	170.5
248.666	198.5
248.899	189.5
249.133	224.5
249.366	217.5
249.599	215.5
249.832	220.5
250.066	227.5
250.299	199.5
250.532	215.5
250.765	224.5
250.998	237.5
251.231	241.5
251.465	227.5
251.698	229.5
251.931	205.5
252.164	211.5
252.397	217.5
252.63	215.5
252.863	218.5
253.096	220.5
253.329	249.5
253.562	247.5
253.795	245.5
254.028	247.5
254.261	228.5
254.494	228.5
254.727	265.5
254.96	298.5
255.193	275.5
255.426	261.5
255.659	254.5
255.892	247.5
256.124	258.5
256.357	259.5
256.59	248.5
256.823	230.5
257.056	220.5
257.289	225.5
257.521	229.5
257.754	238.5
257.987	256.5
258.22	227.5
258.452	206.5
258.685	241.5
258.918	253.5
259.151	229.5
259.383	243.5
259.616	253.5
259.849	256.5
260.081	250.5
260.314	277.5
260.547	277.5
260.779	241.5
261.012	263.5
261.244	269.5
261.477	249.5
261.71	260.5
261.942	253.5
262.175	257.5
262.407	242.5
262.64	253.5
262.872	253.5
263.105	245.5
263.337	256.5
263.57	254.5
263.802	238.5
264.035	239.5
264.267	229.5
264.499	232.5
264.732	249.5
264.964	246.5
265.197	235.5
265.429	265.5
265.661	246.5
265.894	264.5
266.126	268.5
266.358	264.5
266.591	259.5
266.823	253.5
267.055	263.5
267.287	275.5
267.52	278.5
267.752	264.5
267.984	265.5
268.216	255.5
268.448	278.5
268.681	272.5
268.913	288.5
269.145	289.5
269.377	295.5
269.609	314.5
269.841	311.5
270.073	300.5
270.306	319.5
270.538	327.5
270.77	328.5
271.002	314.5
271.234	311.5
271.466	333.5
271.698	325.5
271.93	330.5
272.162	356.5
272.394	350.5
272.626	340.5
272.858	328.5
273.09	301.5
273.322	325.5
273.553	305.5
273.785	323.5
274.017	301.5
274.249	303.5
274.481	310.5
274.713	320.5
274.945	321.5
275.176	316.5
275.408	317.5
275.64	298.5
275.872	303.5
276.104	298.5
276.335	326.5
276.567	301.5
276.799	327.5
277.031	356.5
277.262	356.5
277.494	365.5
277.726	333.5
277.957	345.5
278.189	330.5
278.421	309.5
278.652	322.5
278.884	335.5
279.115	318.5
279.347	307.5
279.579	320.5
279.81	316.5
280.042	305.5
280.273	316.5
280.505	340.5
280.736	319.5
280.968	321.5
281.199	315.5
281.431	323.5
281.662	336.5
281.894	328.5
282.125	322.5
282.356	330.5
282.588	347.5
282.819	366.5
283.051	329.5
283.282	345.5
283.513	333.5
283.745	341.5
283.976	350.5
284.207	354.5
284.439	350.5
284.67	358.5
284.901	331.5
285.132	335.5
285.364	363.5
285.595	348.5
285.826	325.5
286.057	349.5
286.288	364.5
286.52	327.5
286.751	348.5
286.982	359.5
287.213	356.5
287.444	364.5
287.675	352.5
287.906	369.5
288.138	353.5
288.369	400.5
288.6	379.5
288.831	375.5
289.062	350.5
289.293	381.5
289.524	364.5
289.755	355.5
289.986	375.5
290.217	375.5
290.448	362.5
290.679	363.5
290.91	369.5
291.141	358.5
291.371	361.5
291.602	371.5
291.833	372.5
292.064	379.5
292.295	347.5
292.526	368.5
292.757	361.5
292.987	361.5
293.218	373.5
293.449	380.5
293.68	381.5
293.91	355.5
294.141	364.5
294.372	358.5
294.603	392.5
294.833	390.5
295.064	385.5
295.295	373.5
295.525	375.5
295.756	367.5
295.987	393.5
296.217	403.5
296.448	413.5
296.679	392.5
296.909	382.5
297.14	407.5
297.37	385.5
297.601	385.5
297.831	385.5
298.062	394.5
298.292	380.5
298.523	409.5
298.753	405.5
298.984	389.5
299.214	391.5
299.445	403.5
299.675	393.5
299.905	397.5
300.136	420.5
300.366	395.5
300.597	405.5
300.827	399.5
301.057	397.5
301.288	414.5
301.518	423.5
301.748	431.5
301.979	420.5
302.209	416.5
302.439	423.5
302.669	407.5
302.9	413.5
303.13	438.5
303.36	423.5
303.59	425.5
303.82	411.5
304.051	429.5
304.281	421.5
304.511	404.5
304.741	408.5
304.971	415.5
305.201	413.5
305.431	404.5
305.661	391.5
305.891	422.5
306.121	415.5
306.352	420.5
306.582	435.5
306.812	415.5
307.042	422.5
307.272	419.5
307.502	417.5
307.731	404.5
307.961	415.5
308.191	437.5
308.421	418.5
308.651	401.5
308.881	424.5
309.111	419.5
309.341	412.5
309.571	423.5
309.8	449.5
310.03	459.5
310.26	446.5
310.49	420.5
310.72	448.5
310.949	454.5
311.179	464.5
311.409	457.5
311.639	459.5
311.868	449.5
312.098	452.5
312.328	455.5
312.557	455.5
312.787	458.5
313.017	467.5
313.246	448.5
313.476	464.5
313.706	491.5
313.935	510.5
314.165	472.5
314.394	459.5
314.624	475.5
314.853	487.5
315.083	509.5
315.312	458.5
315.542	483.5
315.771	450.5
316.001	477.5
316.23	459.5
316.46	453.5
316.689	450.5
316.919	466.5
317.148	486.5
317.377	480.5
317.607	482.5
317.836	467.5
318.065	471.5
318.295	493.5
318.524	484.5
318.753	445.5
318.983	463.5
319.212	471.5
319.441	475.5
319.67	484.5
319.9	475.5
320.129	476.5
320.358	472.5
320.587	482.5
320.816	479.5
321.046	470.5
321.275	484.5
321.504	465.5
321.733	475.5
321.962	484.5
322.191	490.5
322.42	508.5
322.649	490.5
322.878	547.5
323.108	533.5
323.337	529.5
323.566	541.5
323.795	581.5
324.024	588.5
324.253	661.5
324.482	831.5
324.71	1253.5
324.939	1790.5
325.168	1593.5
325.397	878.5
325.626	667.5
325.855	584.5
326.084	541.5
326.313	555.5
326.542	566.5
326.77	590.5
326.999	646.5
327.228	843.5
327.457	1181.5
327.686	1411.5
327.914	993.5
328.143	706.5
328.372	635.5
328.6	626.5
328.829	595.5
329.058	610.5
329.287	622.5
329.515	609.5
329.744	581.5
329.972	577.5
330.201	601.5
330.43	631.5
330.658	618.5
330.887	643.5
331.115	638.5
331.344	595.5
331.572	597.5
331.801	590.5
332.03	596.5
332.258	579.5
332.486	561.5
332.715	585.5
332.943	587.5
333.172	605.5
333.4	633.5
333.629	636.5
333.857	638.5
334.085	652.5
334.314	675.5
334.542	694.5
334.771	677.5
334.999	641.5
335.227	620.5
335.455	626.5
335.684	621.5
335.912	600.5
336.14	602.5
336.369	609.5
336.597	593.5
336.825	578.5
337.053	581.5
337.281	575.5
337.51	563.5
337.738	569.5
337.966	553.5
338.194	555.5
338.422	561.5
338.65	570.5
338.878	561.5
339.106	545.5
339.334	549.5
339.562	530.5
339.79	540.5
340.018	534.5
340.246	547.5
340.474	567.5
340.702	538.5
340.93	545.5
341.158	540.5
341.386	525.5
341.614	518.5
341.842	531.5
342.07	525.5
342.298	567.5
342.526	537.5
342.754	524.5
342.981	499.5
343.209	530.5
343.437	565.5
343.665	561.5
343.893	604.5
344.12	610.5
344.348	630.5
344.576	569.5
344.804	561.5
345.031	553.5
345.259	579.5
345.487	556.5
345.714	553.5
345.942	534.5
346.17	531.5
346.397	508.5
346.625	532.5
346.853	519.5
347.08	493.5
347.308	529.5
347.535	538.5
347.763	512.5
347.99	530.5
348.218	510.5
348.445	513.5
348.673	523.5
348.9	513.5
349.128	522.5
349.355	511.5
349.583	513.5
349.81	508.5
350.037	490.5
350.265	512.5
350.492	485.5
350.72	493.5
350.947	494.5
351.174	523.5
351.402	522.5
351.629	524.5
351.856	491.5
352.083	527.5
352.311	511.5
352.538	499.5
352.765	497.5
352.992	496.5
353.22	525.5
353.447	487.5
353.674	509.5
353.901	491.5
354.128	511.5
354.355	490.5
354.583	505.5
354.81	479.5
355.037	504.5
355.264	489.5
355.491	493.5
355.718	492.5
355.945	525.5
356.172	507.5
356.399	490.5
356.626	504.5
356.853	474.5
357.08	495.5
357.307	498.5
357.534	506.5
357.761	501.5
357.988	460.5
358.215	499.5
358.441	495.5
358.668	483.5
358.895	490.5
359.122	497.5
359.349	513.5
359.576	522.5
359.802	533.5
360.029	538.5
360.256	552.5
360.483	533.5
360.709	506.5
360.936	510.5
361.163	511.5
361.39	515.5
361.616	528.5
361.843	520.5
362.07	512.5
362.296	537.5
362.523	530.5
362.749	502.5
362.976	507.5
363.203	491.5
363.429	484.5
363.656	495.5
363.882	528.5
364.109	500.5
364.335	488.5
364.562	503.5
364.788	513.5
365.015	491.5
365.241	475.5
365.468	486.5
365.694	494.5
365.92	504.5
366.147	484.5
366.373	494.5
366.599	483.5
366.826	476.5
367.052	477.5
367.278	494.5
367.505	501.5
367.731	513.5
367.957	474.5
368.184	533.5
368.41	504.5
368.636	508.5
368.862	507.5
369.089	527.5
369.315	483.5
369.541	497.5
369.767	518.5
369.993	505.5
370.219	517.5
370.445	536.5
370.672	501.5
370.898	514.5
371.124	515.5
371.35	515.5
371.576	534.5
371.802	511.5
372.028	517.5
372.254	530.5
372.48	526.5
372.706	533.5
372.932	533.5
373.158	545.5
373.384	525.5
373.61	531.5
373.835	519.5
374.061	526.5
374.287	547.5
374.513	523.5
374.739	538.5
374.965	551.5
375.191	550.5
375.416	545.5
375.642	535.5
375.868	531.5
376.094	545.5
376.319	526.5
376.545	521.5
376.771	505.5
376.997	532.5
377.222	530.5
377.448	529.5
377.674	521.5
377.899	537.5
378.125	519.5
378.35	519.5
378.576	508.5
378.802	517.5
379.027	510.5
379.253	524.5
379.478	524.5
379.704	516.5
379.929	530.5
380.155	525.5
380.38	557.5
380.606	541.5
380.831	517.5
381.057	548.5
381.282	531.5
381.507	513.5
381.733	515.5
381.958	524.5
382.184	553.5
382.409	542.5
382.634	550.5
382.86	528.5
383.085	539.5
383.31	550.5
383.535	547.5
383.761	551.5
383.986	554.5
384.211	565.5
384.436	575.5
384.662	565.5
384.887	600.5
385.112	597.5
385.337	607.5
385.562	610.5
385.787	607.5
386.013	597.5
386.238	620.5
386.463	597.5
386.688	591.5
386.913	603.5
387.138	610.5
387.363	594.5
387.588	601.5
387.813	615.5
388.038	602.5
388.263	620.5
388.488	598.5
388.713	581.5
388.938	595.5
389.163	569.5
389.387	595.5
389.612	600.5
389.837	578.5
390.062	588.5
390.287	621.5
390.512	599.5
390.736	591.5
390.961	594.5
391.186	623.5
391.411	629.5
391.636	623.5
391.86	679.5
392.085	663.5
392.31	615.5
392.534	649.5
392.759	629.5
392.984	629.5
393.208	630.5
393.433	629.5
393.658	634.5
393.882	603.5
394.107	599.5
394.331	615.5
394.556	630.5
394.78	614.5
395.005	639.5
395.229	631.5
395.454	629.5
395.678	622.5
395.903	673.5
396.127	681.5
396.352	677.5
396.576	656.5
396.801	627.5
397.025	647.5
397.249	649.5
397.474	674.5
397.698	649.5
397.922	670.5
398.147	679.5
398.371	684.5
398.595	691.5
398.82	734.5
399.044	729.5
399.268	813.5
399.492	884.5
399.717	975.5
399.941	969.5
400.165	922.5
400.389	885.5
400.613	812.5
400.837	742.5
401.062	749.5
401.286	729.5
401.51	708.5
401.734	745.5
401.958	749.5
402.182	753.5
402.406	771.5
402.63	740.5
402.854	750.5
403.078	776.5
403.302	777.5
403.526	781.5
403.75	794.5
403.974	766.5
404.198	803.5
404.422	780.5
404.645	784.5
404.869	781.5
405.093	834.5
405.317	853.5
405.541	863.5
405.765	845.5
405.988	789.5
406.212	799.5
406.436	845.5
406.66	824.5
406.883	798.5
407.107	866.5
407.331	919.5
407.555	965.5
407.778	973.5
408.002	923.5
408.226	842.5
408.449	840.5
408.673	805.5
408.896	841.5
409.12	879.5
409.344	836.5
409.567	796.5
409.791	786.5
410.014	750.5
410.238	756.5
410.461	762.5
410.685	766.5
410.908	774.5
411.132	787.5
411.355	833.5
411.578	791.5
411.802	748.5
412.025	760.5
412.249	770.5
412.472	774.5
412.695	807.5
412.919	779.5
413.142	775.5
413.365	737.5
413.589	717.5
413.812	701.5
414.035	717.5
414.258	710.5
414.482	716.5
414.705	706.5
414.928	733.5
415.151	701.5
415.374	716.5
415.597	718.5
415.821	713.5
416.044	689.5
416.267	693.5
416.49	714.5
416.713	672.5
416.936	699.5
417.159	704.5
417.382	694.5
417.605	678.5
417.828	708.5
418.051	721.5
418.274	740.5
418.497	717.5
418.72	723.5
418.943	711.5
419.166	751.5
419.389	801.5
419.611	787.5
419.834	766.5
420.057	781.5
420.28	766.5
420.503	721.5
420.726	735.5
420.948	741.5
421.171	761.5
421.394	774.5
421.617	730.5
421.839	721.5
422.062	703.5
422.285	722.5
422.507	792.5
422.73	838.5
422.953	833.5
423.175	796.5
423.398	750.5
423.621	757.5
423.843	795.5
424.066	781.5
424.288	797.5
424.511	813.5
424.733	841.5
424.956	906.5
425.178	851.5
425.401	855.5
425.623	860.5
425.846	767.5
426.068	785.5
426.291	739.5
426.513	742.5
426.735	743.5
426.958	782.5
427.18	842.5
427.402	964.5
427.625	1009.5
427.847	902.5
428.069	823.5
428.292	767.5
428.514	699.5
428.736	682.5
428.958	683.5
429.181	683.5
429.403	655.5
429.625	660.5
429.847	715.5
430.069	748.5
430.292	773.5
430.514	690.5
430.736	671.5
430.958	663.5
431.18	664.5
431.402	640.5
431.624	659.5
431.846	678.5
432.068	661.5
432.29	676.5
432.512	654.5
432.734	672.5
432.956	655.5
433.178	668.5
433.4	681.5
433.622	666.5
433.844	655.5
434.066	653.5
434.287	680.5
434.509	693.5
434.731	720.5
434.953	740.5
435.175	734.5
435.397	759.5
435.618	729.5
435.84	762.5
436.062	823.5
436.284	864.5
436.505	780.5
436.727	718.5
436.949	684.5
437.17	664.5
437.392	661.5
437.614	711.5
437.835	673.5
438.057	763.5
438.278	875.5
438.5	863.5
438.721	934.5
438.943	887.5
439.165	743.5
439.386	714.5
439.608	716.5
439.829	725.5
440.05	741.5
440.272	772.5
440.493	769.5
440.715	693.5
440.936	710.5
441.158	678.5
441.379	715.5
441.6	716.5
441.822	737.5
442.043	762.5
442.264	827.5
442.486	866.5
442.707	798.5
442.928	766.5
443.149	776.5
443.371	797.5
443.592	806.5
443.813	884.5
444.034	951.5
444.255	842.5
444.476	808.5
444.698	818.5
444.919	821.5
445.14	931.5
445.361	843.5
445.582	822.5
445.803	844.5
446.024	894.5
446.245	890.5
446.466	831.5
446.687	756.5
446.908	730.5
447.129	675.5
447.35	664.5
447.571	663.5
447.792	661.5
448.013	628.5
448.234	645.5
448.455	707.5
448.675	814.5
448.896	910.5
449.117	793.5
449.338	755.5
449.559	854.5
449.779	956.5
450	775.5
450.221	714.5
450.442	655.5
450.662	634.5
450.883	653.5
451.104	663.5
451.324	638.5
451.545	616.5
451.766	608.5
451.986	634.5
452.207	597.5
452.428	600.5
452.648	585.5
452.869	594.5
453.089	617.5
453.31	601.5
453.53	608.5
453.751	596.5
453.971	585.5
454.192	619.5
454.412	617.5
454.633	607.5
454.853	596.5
455.073	573.5
455.294	614.5
455.514	665.5
455.734	647.5
455.955	584.5
456.175	570.5
456.395	574.5
456.616	572.5
456.836	580.5
457.056	574.5
457.276	571.5
457.497	563.5
457.717	548.5
457.937	574.5
458.157	577.5
458.377	591.5
458.598	603.5
458.818	654.5
459.038	709.5
459.258	782.5
459.478	696.5
459.698	675.5
459.918	686.5
460.138	689.5
460.358	734.5
460.578	745.5
460.798	725.5
461.018	731.5
461.238	734.5
461.458	717.5
461.678	712.5
461.898	742.5
462.118	736.5
462.338	758.5
462.558	757.5
462.777	788.5
462.997	844.5
463.217	888.5
463.437	897.5
463.657	858.5
463.876	841.5
464.096	823.5
464.316	791.5
464.536	794.5
464.755	791.5
464.975	784.5
465.195	794.5
465.414	793.5
465.634	735.5
465.854	697.5
466.073	673.5
466.293	678.5
466.512	641.5
466.732	627.5
466.951	631.5
467.171	636.5
467.391	640.5
467.61	638.5
467.829	645.5
468.049	622.5
468.268	655.5
468.488	623.5
468.707	631.5
468.927	617.5
469.146	635.5
469.365	619.5
469.585	627.5
469.804	649.5
470.023	665.5
470.243	644.5
470.462	664.5
470.681	680.5
470.901	666.5
471.12	660.5
471.339	640.5
471.558	653.5
471.777	650.5
471.997	617.5
472.216	627.5
472.435	657.5
472.654	651.5
472.873	629.5
473.092	634.5
473.311	643.5
473.53	616.5
473.749	633.5
473.968	655.5
474.187	717.5
474.406	739.5
474.625	657.5
474.844	633.5
475.063	625.5
475.282	611.5
475.501	627.5
475.72	637.5
475.939	630.5
476.158	651.5
476.377	649.5
476.596	637.5
476.814	668.5
477.033	674.5
477.252	670.5
477.471	703.5
477.69	710.5
477.908	701.5
478.127	725.5
478.346	719.5
478.564	719.5
478.783	716.5
479.002	750.5
479.22	763.5
479.439	771.5
479.658	780.5
479.876	790.5
480.095	814.5
480.313	829.5
480.532	859.5
480.751	812.5
480.969	819.5
481.188	861.5
481.406	884.5
481.624	793.5
481.843	782.5
482.061	746.5
482.28	758.5
482.498	732.5
482.717	718.5
482.935	723.5
483.153	719.5
483.372	731.5
483.59	729.5
483.808	743.5
484.027	728.5
484.245	758.5
484.463	739.5
484.681	753.5
484.9	739.5
485.118	741.5
485.336	742.5
485.554	781.5
485.772	749.5
485.99	746.5
486.209	769.5
486.427	779.5
486.645	771.5
486.863	810.5
487.081	794.5
487.299	783.5
487.517	796.5
487.735	784.5
487.953	773.5
488.171	799.5
488.389	801.5
488.607	797.5
488.825	799.5
489.043	793.5
489.261	788.5
489.479	813.5
489.696	799.5
489.914	802.5
490.132	801.5
490.35	788.5
490.568	818.5
490.786	841.5
491.003	829.5
491.221	860.5
491.439	854.5
491.657	859.5
491.874	847.5
492.092	850.5
492.31	863.5
492.527	862.5
492.745	906.5
492.963	875.5
493.18	896.5
493.398	907.5
493.615	927.5
493.833	895.5
494.05	924.5
494.268	918.5
494.485	921.5
494.703	902.5
494.92	905.5
495.138	908.5
495.355	897.5
495.573	909.5
495.79	938.5
496.008	915.5
496.225	929.5
496.442	925.5
496.66	955.5
496.877	942.5
497.094	923.5
497.312	939.5
497.529	973.5
497.746	997.5
497.963	1021.5
498.181	1044.5
498.398	1058.5
498.615	1092.5
498.832	1134.5
499.049	1207.5
499.267	1269.5
499.484	1333.5
499.701	1419.5
499.918	1548.5
500.135	1611.5
500.352	1776.5
500.569	1830.5
500.786	1854.5
501.003	1778.5
501.22	1669.5
501.437	1534.5
501.654	1432.5
501.871	1343.5
502.088	1295.5
502.305	1197.5
502.522	1142.5
502.739	1153.5
502.956	1078.5
503.172	1047.5
503.389	998.5
503.606	993.5
503.823	1002.5
504.04	976.5
504.256	978.5
504.473	974.5
504.69	995.5
504.907	999.5
505.123	953.5
505.34	924.5
505.557	871.5
505.773	870.5
505.99	867.5
506.207	870.5
506.423	870.5
506.64	855.5
506.856	839.5
507.073	831.5
507.289	831.5
507.506	806.5
507.722	825.5
507.939	825.5
508.155	800.5
508.372	801.5
508.588	812.5
508.805	815.5
509.021	781.5
509.238	787.5
509.454	797.5
509.67	791.5
509.887	785.5
510.103	769.5
510.319	780.5
510.536	821.5
510.752	1211.5
510.968	1068.5
511.184	767.5
511.401	753.5
511.617	757.5
511.833	764.5
512.049	763.5
512.265	727.5
512.481	740.5
512.698	730.5
512.914	750.5
513.13	746.5
513.346	745.5
513.562	711.5
513.778	737.5
513.994	724.5
514.21	767.5
514.426	760.5
514.642	804.5
514.858	808.5
515.074	854.5
515.29	923.5
515.506	1257.5
515.721	1112.5
515.937	898.5
516.153	841.5
516.369	828.5
516.585	791.5
516.801	824.5
517.016	829.5
517.232	867.5
517.448	878.5
517.664	895.5
517.879	893.5
518.095	916.5
518.311	917.5
518.527	876.5
518.742	846.5
518.958	831.5
519.173	833.5
519.389	789.5
519.605	789.5
519.82	784.5
520.036	767.5
520.251	800.5
520.467	807.5
520.682	802.5
520.898	785.5
521.113	790.5
521.329	774.5
521.544	848.5
521.76	1001.5
521.975	1521.5
522.19	1549.5
522.406	937.5
522.621	810.5
522.836	741.5
523.052	706.5
523.267	709.5
523.482	699.5
523.698	688.5
523.913	682.5
524.128	682.5
524.343	692.5
524.559	638.5
524.774	651.5
524.989	672.5
525.204	671.5
525.419	675.5
525.634	651.5
525.849	657.5
526.064	637.5
526.28	651.5
526.495	641.5
526.71	641.5
526.925	637.5
527.14	622.5
527.355	637.5
527.57	645.5
527.785	644.5
527.999	627.5
528.214	622.5
528.429	648.5
528.644	645.5
528.859	643.5
529.074	623.5
529.289	654.5
529.503	701.5
529.718	695.5
529.933	658.5
530.148	644.5
530.363	608.5
530.577	633.5
530.792	635.5
531.007	621.5
531.221	667.5
531.436	605.5
531.651	628.5
531.865	634.5
532.08	613.5
532.295	630.5
532.509	631.5
532.724	632.5
532.938	622.5
533.153	625.5
533.367	603.5
533.582	619.5
533.796	630.5
534.011	596.5
534.225	651.5
534.44	608.5
534.654	605.5
534.868	622.5
535.083	610.5
535.297	621.5
535.511	616.5
535.726	623.5
535.94	617.5
536.154	604.5
536.369	606.5
536.583	622.5
536.797	590.5
537.011	610.5
537.225	601.5
537.44	591.5
537.654	587.5
537.868	575.5
538.082	586.5
538.296	584.5
538.51	611.5
538.724	587.5
538.938	578.5
539.153	585.5
539.367	590.5
539.581	598.5
539.795	567.5
540.009	582.5
540.222	615.5
540.436	586.5
540.65	590.5
540.864	579.5
541.078	585.5
541.292	610.5
541.506	570.5
541.72	562.5
541.934	590.5
542.147	586.5
542.361	581.5
542.575	590.5
542.789	565.5
543.002	571.5
543.216	558.5
543.43	583.5
543.644	563.5
543.857	566.5
544.071	582.5
544.285	595.5
544.498	584.5
544.712	569.5
544.925	594.5
545.139	606.5
545.352	566.5
545.566	566.5
545.779	590.5
545.993	584.5
546.206	579.5
546.42	587.5
546.633	583.5
546.847	604.5
547.06	588.5
547.274	582.5
547.487	577.5
547.7	574.5
547.914	584.5
548.127	595.5
548.34	594.5
548.554	568.5
548.767	615.5
548.98	610.5
549.193	602.5
549.407	593.5
549.62	600.5
549.833	587.5
550.046	583.5
550.259	588.5
550.473	601.5
550.686	592.5
550.899	587.5
551.112	571.5
551.325	566.5
551.538	594.5
551.751	589.5
551.964	586.5
552.177	587.5
552.39	586.5
552.603	586.5
552.816	585.5
553.029	596.5
553.242	623.5
553.455	609.5
553.667	617.5
553.88	625.5
554.093	628.5
554.306	607.5
554.519	610.5
554.732	594.5
554.944	562.5
555.157	557.5
555.37	571.5
555.583	564.5
555.795	553.5
556.008	549.5
556.221	527.5
556.433	545.5
556.646	515.5
556.859	533.5
557.071	499.5
557.284	536.5
557.496	522.5
557.709	506.5
557.921	516.5
558.134	517.5
558.346	518.5
558.559	523.5
558.771	489.5
558.984	490.5
559.196	516.5
559.409	489.5
559.621	490.5
559.833	486.5
560.046	505.5
560.258	505.5
560.47	482.5
560.683	499.5
560.895	515.5
561.107	483.5
561.32	492.5
561.532	503.5
561.744	521.5
561.956	482.5
562.168	499.5
562.381	483.5
562.593	513.5
562.805	508.5
563.017	497.5
563.229	501.5
563.441	511.5
563.653	509.5
563.865	491.5
564.077	509.5
564.289	525.5
564.501	519.5
564.713	523.5
564.925	523.5
565.137	556.5
565.349	565.5
565.561	573.5
565.773	582.5
565.985	612.5
566.197	633.5
566.408	682.5
566.62	712.5
566.832	733.5
567.044	761.5
567.255	757.5
567.467	790.5
567.679	777.5
567.891	828.5
568.102	859.5
568.314	805.5
568.526	757.5
568.737	725.5
568.949	681.5
569.161	628.5
569.372	593.5
569.584	569.5
569.795	555.5
570.007	533.5
570.218	550.5
570.43	550.5
570.641	514.5
570.853	545.5
571.064	518.5
571.276	521.5
571.487	519.5
571.698	492.5
571.91	499.5
572.121	492.5
572.333	471.5
572.544	449.5
572.755	468.5
572.966	462.5
573.178	463.5
573.389	444.5
573.6	451.5
573.811	445.5
574.023	449.5
574.234	437.5
574.445	426.5
574.656	428.5
574.867	463.5
575.078	440.5
575.289	438.5
575.501	435.5
575.712	416.5
575.923	433.5
576.134	419.5
576.345	417.5
576.556	403.5
576.767	401.5
576.978	409.5
577.188	418.5
577.399	411.5
577.61	394.5
577.821	402.5
578.032	400.5
578.243	460.5
578.454	585.5
578.665	498.5
578.875	414.5
579.086	400.5
579.297	386.5
579.508	402.5
579.718	395.5
579.929	391.5
580.14	400.5
580.35	380.5
580.561	393.5
580.772	399.5
580.982	395.5
581.193	380.5
581.403	397.5
581.614	410.5
581.825	391.5
582.035	374.5
582.246	381.5
582.456	392.5
582.667	399.5
582.877	370.5
583.087	372.5
583.298	364.5
583.508	391.5
583.719	398.5
583.929	384.5
584.139	393.5
584.35	384.5
584.56	383.5
584.77	391.5
584.981	378.5
585.191	374.5
585.401	386.5
585.611	403.5
585.821	396.5
586.032	388.5
586.242	385.5
586.452	389.5
586.662	374.5
586.872	379.5
587.082	380.5
587.292	373.5
587.502	369.5
587.713	377.5
587.923	370.5
588.133	372.5
588.343	378.5
588.553	371.5
588.762	391.5
588.972	381.5
589.182	351.5
589.392	376.5
589.602	362.5
589.812	383.5
590.022	399.5
590.232	377.5
590.441	389.5
590.651	389.5
590.861	378.5
591.071	372.5
591.281	381.5
591.49	401.5
591.7	395.5
591.91	422.5
592.119	402.5
592.329	413.5
592.539	411.5
592.748	427.5
592.958	438.5
593.167	437.5
593.377	463.5
593.587	459.5
593.796	457.5
594.006	457.5
594.215	466.5
594.424	455.5
594.634	449.5
594.843	414.5
595.053	428.5
595.262	404.5
595.472	409.5
595.681	403.5
595.89	387.5
596.1	383.5
596.309	397.5
596.518	359.5
596.727	369.5
596.937	347.5
597.146	369.5
597.355	345.5
597.564	339.5
597.774	345.5
597.983	352.5
598.192	314.5
598.401	346.5
598.61	322.5
598.819	335.5
599.028	336.5
599.237	319.5
599.446	320.5
599.655	343.5
599.864	354.5
600.073	329.5
600.282	321.5
600.491	325.5
600.7	310.5
600.909	332.5
601.118	325.5
601.327	317.5
601.536	309.5
601.745	317.5
601.953	298.5
602.162	327.5
602.371	293.5
602.58	306.5
602.789	330.5
602.997	302.5
603.206	325.5
603.415	319.5
603.623	302.5
603.832	318.5
604.041	316.5
604.249	294.5
604.458	287.5
604.666	320.5
604.875	311.5
605.084	299.5
605.292	313.5
605.501	306.5
605.709	309.5
605.918	314.5
606.126	296.5
606.334	317.5
606.543	311.5
606.751	317.5
606.96	314.5
607.168	308.5
607.376	307.5
607.585	309.5
607.793	309.5
608.001	290.5
608.21	296.5
608.418	311.5
608.626	291.5
608.834	295.5
609.043	308.5
609.251	303.5
609.459	277.5
609.667	283.5
609.875	297.5
610.083	278.5
610.291	297.5
610.499	271.5
610.707	295.5
610.916	290.5
611.124	319.5
611.332	295.5
611.54	297.5
611.748	303.5
611.955	296.5
612.163	283.5
612.371	300.5
612.579	290.5
612.787	291.5
612.995	279.5
613.203	286.5
613.411	285.5
613.618	277.5
613.826	277.5
614.034	272.5
614.242	308.5
614.449	279.5
614.657	290.5
614.865	300.5
615.072	290.5
615.28	298.5
615.488	294.5
615.695	293.5
615.903	302.5
616.111	287.5
616.318	298.5
616.526	297.5
616.733	307.5
616.941	283.5
617.148	297.5
617.356	283.5
617.563	302.5
617.771	290.5
617.978	292.5
618.185	287.5
618.393	269.5
618.6	284.5
618.807	277.5
619.015	288.5
619.222	271.5
619.429	277.5
619.637	289.5
619.844	282.5
620.051	271.5
620.258	280.5
620.466	294.5
620.673	270.5
620.88	262.5
621.087	292.5
621.294	276.5
621.501	255.5
621.708	275.5
621.915	275.5
622.122	286.5
622.329	272.5
622.536	279.5
622.743	263.5
622.95	266.5
623.157	266.5
623.364	267.5
623.571	266.5
623.778	267.5
623.985	257.5
624.192	263.5
624.399	281.5
624.606	265.5
624.812	275.5
625.019	236.5
625.226	252.5
625.433	266.5
625.639	258.5
625.846	261.5
626.053	243.5
626.259	272.5
626.466	261.5
626.673	246.5
626.879	242.5
627.086	254.5
627.293	255.5
627.499	243.5
627.706	238.5
627.912	243.5
628.119	225.5
628.325	235.5
628.532	250.5
628.738	259.5
628.945	249.5
629.151	245.5
629.357	236.5
629.564	239.5
629.77	243.5
629.976	233.5
630.183	245.5
630.389	251.5
630.595	222.5
630.802	229.5
631.008	223.5
631.214	231.5
631.42	245.5
631.627	230.5
631.833	232.5
632.039	223.5
632.245	233.5
632.451	230.5
632.657	226.5
632.863	220.5
633.069	232.5
633.275	249.5
633.481	226.5
633.688	219.5
633.893	226.5
634.099	226.5
634.305	214.5
634.511	224.5
634.717	228.5
634.923	222.5
635.129	230.5
635.335	220.5
635.541	210.5
635.747	225.5
635.952	210.5
636.158	227.5
636.364	223.5
636.57	221.5
636.775	203.5
636.981	231.5
637.187	219.5
637.392	220.5
637.598	216.5
637.804	223.5
638.009	195.5
638.215	205.5
638.421	211.5
638.626	207.5
638.832	207.5
639.037	191.5
639.243	202.5
639.448	213.5
639.654	193.5
639.859	208.5
640.065	233.5
640.27	212.5
640.475	211.5
640.681	193.5
640.886	213.5
641.091	215.5
641.297	207.5
641.502	197.5
641.707	193.5
641.913	207.5
642.118	205.5
642.323	203.5
642.528	191.5
642.733	194.5
642.939	195.5
643.144	214.5
643.349	204.5
643.554	205.5
643.759	216.5
643.964	188.5
644.169	189.5
644.374	221.5
644.579	186.5
644.784	194.5
644.989	195.5
645.194	200.5
645.399	198.5
645.604	197.5
645.809	197.5
646.014	198.5
646.219	190.5
646.423	192.5
646.628	205.5
646.833	193.5
647.038	179.5
647.243	199.5
647.447	217.5
647.652	219.5
647.857	228.5
648.062	206.5
648.266	205.5
648.471	189.5
648.676	194.5
648.88	202.5
649.085	215.5
649.289	195.5
649.494	228.5
649.698	194.5
649.903	220.5
650.107	199.5
650.312	208.5
650.516	181.5
650.721	182.5
650.925	168.5
651.13	183.5
651.334	175.5
651.539	171.5
651.743	169.5
651.947	181.5
652.152	181.5
652.356	163.5
652.56	166.5
652.764	157.5
652.969	166.5
653.173	148.5
653.377	161.5
653.581	164.5
653.785	160.5
653.99	147.5
654.194	156.5
654.398	162.5
654.602	166.5
654.806	159.5
655.01	177.5
655.214	155.5
655.418	153.5
655.622	147.5
655.826	167.5
656.03	166.5
656.234	141.5
656.438	168.5
656.642	159.5
656.846	172.5
657.049	153.5
657.253	155.5
657.457	134.5
657.661	134.5
657.865	130.5
658.068	132.5
658.272	112.5
658.476	113.5
658.68	113.5
658.883	112.5
659.087	105.5
659.291	112.5
659.494	107.5
659.698	121.5
659.901	113.5
660.105	102.5
660.309	99.5
660.512	105.5
660.716	96.5
660.919	99.5
661.123	109.5
661.326	103.5
661.53	93.5
661.733	99.5
661.936	93.5
662.14	91.5
662.343	87.5
662.546	93.5
662.75	87.5
662.953	86.5
663.156	84.5
663.36	89.5
663.563	94.5
663.766	91.5
663.969	87.5
664.173	92.5
664.376	88.5
664.579	70.5
664.782	87.5
664.985	89.5
665.188	75.5
665.391	87.5
665.594	90.5
665.797	91.5
666	85.5
666.203	69.5
666.406	73.5
666.609	71.5
666.812	85.5
667.015	74.5
667.218	77.5
667.421	79.5
667.624	86.5
667.827	79.5
668.03	70.5
668.232	80.5
668.435	91.5
668.638	88.5
668.841	83.5
669.043	87.5
669.246	80.5
669.449	82.5
669.651	82.5
669.854	89.5
670.057	79.5
670.259	80.5
670.462	86.5
670.665	92.5
670.867	68.5
671.07	86.5
671.272	76.5
671.475	87.5
671.677	84.5
671.88	84.5
672.082	78.5
672.284	81.5
672.487	85.5
672.689	79.5
672.892	70.5
