Data from 1963.PennyLincolnUp.Lamp.En5.5.200Scan.071719.P1._HRD10591_13-57-55-063.txt Node
Date: Thu Jul 18 13:57:55 EDT 2019
User: cochatt
Spectrometer: HR+D1059
Trigger mode: 1
Integration Time (sec): 1.000000E-1
Scans to average: 1
Electric dark correction enabled: true
Nonlinearity correction enabled: false
Boxcar width: 0
XAxis mode: Wavelengths
Number of Pixels in Spectrum: 2048
>>>>>Begin Spectral Data<<<<<
223.165	-10.06
223.4	-10.06
223.635	-10.06
223.869	-23.06
224.104	-23.06
224.338	-10.06
224.573	-17.06
224.808	-2.06
225.042	-8.06
225.277	-10.06
225.511	-0.06
225.746	0.94
225.98	15.94
226.215	-4.06
226.449	20.94
226.683	3.94
226.918	26.94
227.152	38.94
227.387	25.94
227.621	35.94
227.856	36.94
228.09	47.94
228.324	65.94
228.559	63.94
228.793	71.94
229.027	96.94
229.262	87.94
229.496	97.94
229.73	104.94
229.964	116.94
230.199	123.94
230.433	115.94
230.667	115.94
230.901	105.94
231.136	104.94
231.37	119.94
231.604	119.94
231.838	108.94
232.072	99.94
232.306	118.94
232.541	120.94
232.775	106.94
233.009	122.94
233.243	120.94
233.477	120.94
233.711	126.94
233.945	99.94
234.179	119.94
234.413	131.94
234.647	126.94
234.881	125.94
235.115	125.94
235.349	122.94
235.583	116.94
235.817	144.94
236.051	133.94
236.285	119.94
236.519	126.94
236.753	125.94
236.987	132.94
237.221	145.94
237.455	190.94
237.689	148.94
237.922	133.94
238.156	130.94
238.39	123.94
238.624	122.94
238.858	124.94
239.091	131.94
239.325	129.94
239.559	126.94
239.793	152.94
240.027	135.94
240.26	136.94
240.494	147.94
240.728	135.94
240.961	150.94
241.195	146.94
241.429	133.94
241.662	142.94
241.896	127.94
242.13	137.94
242.363	150.94
242.597	146.94
242.83	145.94
243.064	133.94
243.298	138.94
243.531	152.94
243.765	160.94
243.998	155.94
244.232	159.94
244.465	143.94
244.699	161.94
244.932	149.94
245.166	173.94
245.399	151.94
245.633	162.94
245.866	169.94
246.099	159.94
246.333	155.94
246.566	172.94
246.8	156.94
247.033	160.94
247.266	160.94
247.5	164.94
247.733	164.94
247.966	170.94
248.2	186.94
248.433	187.94
248.666	194.94
248.899	191.94
249.133	193.94
249.366	207.94
249.599	211.94
249.832	208.94
250.066	201.94
250.299	194.94
250.532	191.94
250.765	208.94
250.998	217.94
251.231	211.94
251.465	206.94
251.698	199.94
251.931	203.94
252.164	194.94
252.397	209.94
252.63	216.94
252.863	215.94
253.096	221.94
253.329	231.94
253.562	227.94
253.795	227.94
254.028	217.94
254.261	215.94
254.494	222.94
254.727	243.94
254.96	256.94
255.193	242.94
255.426	248.94
255.659	235.94
255.892	207.94
256.124	228.94
256.357	228.94
256.59	236.94
256.823	205.94
257.056	207.94
257.289	219.94
257.521	221.94
257.754	207.94
257.987	226.94
258.22	206.94
258.452	235.94
258.685	211.94
258.918	210.94
259.151	219.94
259.383	227.94
259.616	239.94
259.849	236.94
260.081	237.94
260.314	245.94
260.547	244.94
260.779	230.94
261.012	243.94
261.244	230.94
261.477	220.94
261.71	229.94
261.942	245.94
262.175	243.94
262.407	235.94
262.64	217.94
262.872	233.94
263.105	227.94
263.337	226.94
263.57	229.94
263.802	232.94
264.035	220.94
264.267	242.94
264.499	204.94
264.732	237.94
264.964	234.94
265.197	247.94
265.429	231.94
265.661	235.94
265.894	245.94
266.126	255.94
266.358	245.94
266.591	253.94
266.823	233.94
267.055	262.94
267.287	269.94
267.52	244.94
267.752	231.94
267.984	261.94
268.216	248.94
268.448	277.94
268.681	246.94
268.913	269.94
269.145	277.94
269.377	277.94
269.609	287.94
269.841	265.94
270.073	272.94
270.306	273.94
270.538	295.94
270.77	308.94
271.002	279.94
271.234	300.94
271.466	298.94
271.698	284.94
271.93	305.94
272.162	323.94
272.394	313.94
272.626	290.94
272.858	289.94
273.09	298.94
273.322	294.94
273.553	286.94
273.785	293.94
274.017	276.94
274.249	295.94
274.481	296.94
274.713	295.94
274.945	283.94
275.176	299.94
275.408	274.94
275.64	275.94
275.872	289.94
276.104	308.94
276.335	295.94
276.567	296.94
276.799	298.94
277.031	327.94
277.262	316.94
277.494	320.94
277.726	317.94
277.957	298.94
278.189	313.94
278.421	303.94
278.652	305.94
278.884	285.94
279.115	312.94
279.347	314.94
279.579	285.94
279.81	291.94
280.042	303.94
280.273	313.94
280.505	293.94
280.736	303.94
280.968	301.94
281.199	295.94
281.431	304.94
281.662	271.94
281.894	300.94
282.125	303.94
282.356	322.94
282.588	311.94
282.819	327.94
283.051	323.94
283.282	323.94
283.513	331.94
283.745	330.94
283.976	315.94
284.207	333.94
284.439	316.94
284.67	308.94
284.901	328.94
285.132	326.94
285.364	330.94
285.595	341.94
285.826	328.94
286.057	327.94
286.288	322.94
286.52	318.94
286.751	329.94
286.982	311.94
287.213	335.94
287.444	323.94
287.675	325.94
287.906	337.94
288.138	338.94
288.369	324.94
288.6	343.94
288.831	343.94
289.062	325.94
289.293	311.94
289.524	343.94
289.755	342.94
289.986	346.94
290.217	325.94
290.448	330.94
290.679	353.94
290.91	336.94
291.141	356.94
291.371	339.94
291.602	369.94
291.833	361.94
292.064	352.94
292.295	344.94
292.526	371.94
292.757	351.94
292.987	341.94
293.218	370.94
293.449	352.94
293.68	352.94
293.91	347.94
294.141	341.94
294.372	325.94
294.603	340.94
294.833	349.94
295.064	355.94
295.295	338.94
295.525	330.94
295.756	333.94
295.987	352.94
296.217	379.94
296.448	372.94
296.679	364.94
296.909	343.94
297.14	360.94
297.37	367.94
297.601	361.94
297.831	357.94
298.062	359.94
298.292	365.94
298.523	368.94
298.753	382.94
298.984	381.94
299.214	371.94
299.445	372.94
299.675	381.94
299.905	373.94
300.136	361.94
300.366	389.94
300.597	393.94
300.827	405.94
301.057	397.94
301.288	384.94
301.518	374.94
301.748	386.94
301.979	395.94
302.209	383.94
302.439	402.94
302.669	411.94
302.9	384.94
303.13	367.94
303.36	392.94
303.59	383.94
303.82	407.94
304.051	397.94
304.281	403.94
304.511	398.94
304.741	395.94
304.971	406.94
305.201	402.94
305.431	398.94
305.661	405.94
305.891	390.94
306.121	385.94
306.352	397.94
306.582	391.94
306.812	384.94
307.042	407.94
307.272	403.94
307.502	396.94
307.731	390.94
307.961	385.94
308.191	405.94
308.421	398.94
308.651	405.94
308.881	400.94
309.111	387.94
309.341	401.94
309.571	396.94
309.8	405.94
310.03	427.94
310.26	411.94
310.49	404.94
310.72	429.94
310.949	445.94
311.179	444.94
311.409	436.94
311.639	409.94
311.868	427.94
312.098	431.94
312.328	436.94
312.557	422.94
312.787	443.94
313.017	442.94
313.246	444.94
313.476	431.94
313.706	428.94
313.935	433.94
314.165	411.94
314.394	464.94
314.624	428.94
314.853	453.94
315.083	439.94
315.312	418.94
315.542	443.94
315.771	431.94
316.001	423.94
316.23	431.94
316.46	427.94
316.689	428.94
316.919	428.94
317.148	445.94
317.377	440.94
317.607	436.94
317.836	434.94
318.065	426.94
318.295	429.94
318.524	411.94
318.753	447.94
318.983	427.94
319.212	433.94
319.441	441.94
319.67	426.94
319.9	435.94
320.129	420.94
320.358	435.94
320.587	428.94
320.816	432.94
321.046	439.94
321.275	441.94
321.504	432.94
321.733	451.94
321.962	440.94
322.191	433.94
322.42	442.94
322.649	446.94
322.878	458.94
323.108	468.94
323.337	468.94
323.566	457.94
323.795	502.94
324.024	517.94
324.253	570.94
324.482	709.94
324.71	992.94
324.939	1419.94
325.168	1250.94
325.397	724.94
325.626	554.94
325.855	522.94
326.084	504.94
326.313	514.94
326.542	501.94
326.77	530.94
326.999	589.94
327.228	674.94
327.457	948.94
327.686	1104.94
327.914	803.94
328.143	635.94
328.372	564.94
328.6	542.94
328.829	518.94
329.058	532.94
329.287	555.94
329.515	545.94
329.744	531.94
329.972	516.94
330.201	529.94
330.43	540.94
330.658	567.94
330.887	565.94
331.115	547.94
331.344	541.94
331.572	511.94
331.801	519.94
332.03	556.94
332.258	523.94
332.486	531.94
332.715	545.94
332.943	544.94
333.172	573.94
333.4	572.94
333.629	587.94
333.857	603.94
334.085	606.94
334.314	609.94
334.542	615.94
334.771	628.94
334.999	615.94
335.227	557.94
335.455	585.94
335.684	546.94
335.912	527.94
336.14	532.94
336.369	516.94
336.597	534.94
336.825	555.94
337.053	528.94
337.281	514.94
337.51	516.94
337.738	542.94
337.966	503.94
338.194	509.94
338.422	537.94
338.65	495.94
338.878	518.94
339.106	500.94
339.334	509.94
339.562	502.94
339.79	518.94
340.018	482.94
340.246	505.94
340.474	491.94
340.702	508.94
340.93	489.94
341.158	488.94
341.386	499.94
341.614	501.94
341.842	526.94
342.07	487.94
342.298	491.94
342.526	509.94
342.754	500.94
342.981	485.94
343.209	501.94
343.437	521.94
343.665	542.94
343.893	556.94
344.12	581.94
344.348	577.94
344.576	557.94
344.804	523.94
345.031	516.94
345.259	504.94
345.487	515.94
345.714	487.94
345.942	496.94
346.17	468.94
346.397	473.94
346.625	475.94
346.853	490.94
347.08	478.94
347.308	488.94
347.535	478.94
347.763	498.94
347.99	457.94
348.218	471.94
348.445	470.94
348.673	473.94
348.9	475.94
349.128	477.94
349.355	470.94
349.583	461.94
349.81	462.94
350.037	469.94
350.265	468.94
350.492	462.94
350.72	471.94
350.947	470.94
351.174	489.94
351.402	453.94
351.629	465.94
351.856	467.94
352.083	476.94
352.311	466.94
352.538	474.94
352.765	472.94
352.992	480.94
353.22	459.94
353.447	486.94
353.674	474.94
353.901	473.94
354.128	459.94
354.355	459.94
354.583	460.94
354.81	465.94
355.037	466.94
355.264	435.94
355.491	461.94
355.718	456.94
355.945	460.94
356.172	472.94
356.399	473.94
356.626	459.94
356.853	452.94
357.08	467.94
357.307	470.94
357.534	460.94
357.761	467.94
357.988	457.94
358.215	450.94
358.441	466.94
358.668	470.94
358.895	482.94
359.122	468.94
359.349	494.94
359.576	484.94
359.802	487.94
360.029	465.94
360.256	500.94
360.483	483.94
360.709	465.94
360.936	473.94
361.163	469.94
361.39	488.94
361.616	483.94
361.843	473.94
362.07	476.94
362.296	454.94
362.523	493.94
362.749	474.94
362.976	475.94
363.203	461.94
363.429	480.94
363.656	458.94
363.882	471.94
364.109	462.94
364.335	474.94
364.562	463.94
364.788	470.94
365.015	480.94
365.241	483.94
365.468	470.94
365.694	471.94
365.92	453.94
366.147	451.94
366.373	480.94
366.599	472.94
366.826	460.94
367.052	467.94
367.278	462.94
367.505	467.94
367.731	478.94
367.957	456.94
368.184	464.94
368.41	497.94
368.636	459.94
368.862	487.94
369.089	479.94
369.315	481.94
369.541	470.94
369.767	465.94
369.993	482.94
370.219	474.94
370.445	463.94
370.672	480.94
370.898	492.94
371.124	513.94
371.35	487.94
371.576	487.94
371.802	515.94
372.028	479.94
372.254	490.94
372.48	501.94
372.706	509.94
372.932	505.94
373.158	517.94
373.384	490.94
373.61	509.94
373.835	506.94
374.061	491.94
374.287	488.94
374.513	511.94
374.739	515.94
374.965	513.94
375.191	524.94
375.416	540.94
375.642	525.94
375.868	517.94
376.094	504.94
376.319	488.94
376.545	499.94
376.771	483.94
376.997	458.94
377.222	506.94
377.448	477.94
377.674	511.94
377.899	513.94
378.125	500.94
378.35	493.94
378.576	470.94
378.802	480.94
379.027	489.94
379.253	491.94
379.478	492.94
379.704	489.94
379.929	485.94
380.155	496.94
380.38	500.94
380.606	484.94
380.831	492.94
381.057	479.94
381.282	461.94
381.507	490.94
381.733	495.94
381.958	503.94
382.184	513.94
382.409	514.94
382.634	528.94
382.86	509.94
383.085	540.94
383.31	518.94
383.535	545.94
383.761	529.94
383.986	559.94
384.211	543.94
384.436	549.94
384.662	534.94
384.887	561.94
385.112	600.94
385.337	568.94
385.562	555.94
385.787	593.94
386.013	568.94
386.238	588.94
386.463	578.94
386.688	577.94
386.913	575.94
387.138	582.94
387.363	568.94
387.588	580.94
387.813	557.94
388.038	569.94
388.263	554.94
388.488	593.94
388.713	563.94
388.938	572.94
389.163	539.94
389.387	564.94
389.612	561.94
389.837	568.94
390.062	570.94
390.287	559.94
390.512	562.94
390.736	565.94
390.961	589.94
391.186	576.94
391.411	598.94
391.636	585.94
391.86	613.94
392.085	607.94
392.31	587.94
392.534	621.94
392.759	595.94
392.984	589.94
393.208	594.94
393.433	596.94
393.658	600.94
393.882	579.94
394.107	568.94
394.331	612.94
394.556	589.94
394.78	589.94
395.005	623.94
395.229	635.94
395.454	631.94
395.678	622.94
395.903	634.94
396.127	637.94
396.352	629.94
396.576	611.94
396.801	593.94
397.025	610.94
397.249	613.94
397.474	635.94
397.698	643.94
397.922	653.94
398.147	658.94
398.371	652.94
398.595	670.94
398.82	679.94
399.044	715.94
399.268	757.94
399.492	837.94
399.717	922.94
399.941	928.94
400.165	880.94
400.389	884.94
400.613	784.94
400.837	741.94
401.062	705.94
401.286	684.94
401.51	687.94
401.734	693.94
401.958	671.94
402.182	695.94
402.406	714.94
402.63	726.94
402.854	715.94
403.078	725.94
403.302	731.94
403.526	758.94
403.75	753.94
403.974	741.94
404.198	749.94
404.422	760.94
404.645	729.94
404.869	747.94
405.093	762.94
405.317	777.94
405.541	802.94
405.765	747.94
405.988	778.94
406.212	765.94
406.436	771.94
406.66	756.94
406.883	785.94
407.107	796.94
407.331	860.94
407.555	918.94
407.778	878.94
408.002	844.94
408.226	803.94
408.449	793.94
408.673	774.94
408.896	788.94
409.12	806.94
409.344	775.94
409.567	743.94
409.791	739.94
410.014	732.94
410.238	720.94
410.461	724.94
410.685	700.94
410.908	706.94
411.132	752.94
411.355	765.94
411.578	739.94
411.802	703.94
412.025	700.94
412.249	716.94
412.472	733.94
412.695	743.94
412.919	757.94
413.142	700.94
413.365	672.94
413.589	702.94
413.812	677.94
414.035	691.94
414.258	669.94
414.482	683.94
414.705	697.94
414.928	693.94
415.151	660.94
415.374	684.94
415.597	671.94
415.821	668.94
416.044	663.94
416.267	680.94
416.49	664.94
416.713	670.94
416.936	689.94
417.159	670.94
417.382	667.94
417.605	670.94
417.828	697.94
418.051	672.94
418.274	670.94
418.497	678.94
418.72	704.94
418.943	691.94
419.166	728.94
419.389	738.94
419.611	734.94
419.834	724.94
420.057	698.94
420.28	703.94
420.503	678.94
420.726	685.94
420.948	701.94
421.171	702.94
421.394	748.94
421.617	682.94
421.839	692.94
422.062	693.94
422.285	676.94
422.507	713.94
422.73	793.94
422.953	782.94
423.175	709.94
423.398	729.94
423.621	707.94
423.843	736.94
424.066	723.94
424.288	726.94
424.511	747.94
424.733	740.94
424.956	805.94
425.178	781.94
425.401	779.94
425.623	779.94
425.846	701.94
426.068	693.94
426.291	700.94
426.513	689.94
426.735	689.94
426.958	706.94
427.18	765.94
427.402	849.94
427.625	879.94
427.847	801.94
428.069	724.94
428.292	698.94
428.514	673.94
428.736	652.94
428.958	649.94
429.181	631.94
429.403	627.94
429.625	649.94
429.847	643.94
430.069	689.94
430.292	695.94
430.514	643.94
430.736	629.94
430.958	604.94
431.18	592.94
431.402	605.94
431.624	607.94
431.846	624.94
432.068	617.94
432.29	636.94
432.512	627.94
432.734	649.94
432.956	633.94
433.178	624.94
433.4	609.94
433.622	623.94
433.844	624.94
434.066	609.94
434.287	620.94
434.509	660.94
434.731	647.94
434.953	679.94
435.175	701.94
435.397	705.94
435.618	680.94
435.84	704.94
436.062	725.94
436.284	763.94
436.505	701.94
436.727	669.94
436.949	645.94
437.17	648.94
437.392	619.94
437.614	639.94
437.835	665.94
438.057	729.94
438.278	786.94
438.5	761.94
438.721	804.94
438.943	798.94
439.165	706.94
439.386	651.94
439.608	673.94
439.829	637.94
440.05	645.94
440.272	687.94
440.493	681.94
440.715	648.94
440.936	643.94
441.158	667.94
441.379	663.94
441.6	663.94
441.822	717.94
442.043	724.94
442.264	753.94
442.486	785.94
442.707	727.94
442.928	693.94
443.149	726.94
443.371	732.94
443.592	713.94
443.813	807.94
444.034	843.94
444.255	794.94
444.476	735.94
444.698	775.94
444.919	775.94
445.14	887.94
445.361	803.94
445.582	749.94
445.803	756.94
446.024	791.94
446.245	817.94
446.466	772.94
446.687	723.94
446.908	652.94
447.129	659.94
447.35	628.94
447.571	614.94
447.792	620.94
448.013	633.94
448.234	627.94
448.455	657.94
448.675	732.94
448.896	804.94
449.117	691.94
449.338	668.94
449.559	727.94
449.779	824.94
450	695.94
450.221	632.94
450.442	589.94
450.662	597.94
450.883	587.94
451.104	595.94
451.324	577.94
451.545	600.94
451.766	574.94
451.986	563.94
452.207	543.94
452.428	587.94
452.648	580.94
452.869	543.94
453.089	559.94
453.31	577.94
453.53	567.94
453.751	561.94
453.971	568.94
454.192	552.94
454.412	547.94
454.633	539.94
454.853	547.94
455.073	520.94
455.294	565.94
455.514	601.94
455.734	605.94
455.955	532.94
456.175	545.94
456.395	535.94
456.616	513.94
456.836	521.94
457.056	540.94
457.276	515.94
457.497	540.94
457.717	532.94
457.937	531.94
458.157	543.94
458.377	546.94
458.598	589.94
458.818	603.94
459.038	652.94
459.258	691.94
459.478	641.94
459.698	629.94
459.918	654.94
460.138	663.94
460.358	660.94
460.578	674.94
460.798	691.94
461.018	701.94
461.238	690.94
461.458	666.94
461.678	713.94
461.898	698.94
462.118	711.94
462.338	723.94
462.558	743.94
462.777	772.94
462.997	803.94
463.217	841.94
463.437	841.94
463.657	796.94
463.876	767.94
464.096	773.94
464.316	792.94
464.536	744.94
464.755	735.94
464.975	746.94
465.195	724.94
465.414	728.94
465.634	672.94
465.854	663.94
466.073	620.94
466.293	628.94
466.512	613.94
466.732	616.94
466.951	596.94
467.171	615.94
467.391	597.94
467.61	584.94
467.829	607.94
468.049	595.94
468.268	596.94
468.488	563.94
468.707	564.94
468.927	573.94
469.146	572.94
469.365	582.94
469.585	595.94
469.804	621.94
470.023	612.94
470.243	614.94
470.462	643.94
470.681	634.94
470.901	669.94
471.12	612.94
471.339	605.94
471.558	628.94
471.777	618.94
471.997	623.94
472.216	601.94
472.435	630.94
472.654	612.94
472.873	570.94
473.092	581.94
473.311	570.94
473.53	602.94
473.749	585.94
473.968	625.94
474.187	665.94
474.406	657.94
474.625	612.94
474.844	595.94
475.063	576.94
475.282	600.94
475.501	601.94
475.72	593.94
475.939	614.94
476.158	606.94
476.377	607.94
476.596	591.94
476.814	628.94
477.033	617.94
477.252	644.94
477.471	629.94
477.69	635.94
477.908	647.94
478.127	680.94
478.346	670.94
478.564	682.94
478.783	690.94
479.002	694.94
479.22	705.94
479.439	701.94
479.658	715.94
479.876	737.94
480.095	746.94
480.313	787.94
480.532	789.94
480.751	768.94
480.969	756.94
481.188	787.94
481.406	808.94
481.624	719.94
481.843	721.94
482.061	717.94
482.28	692.94
482.498	699.94
482.717	685.94
482.935	688.94
483.153	691.94
483.372	684.94
483.59	665.94
483.808	694.94
484.027	673.94
484.245	691.94
484.463	672.94
484.681	708.94
484.9	694.94
485.118	710.94
485.336	701.94
485.554	699.94
485.772	708.94
485.99	737.94
486.209	733.94
486.427	716.94
486.645	721.94
486.863	730.94
487.081	723.94
487.299	732.94
487.517	731.94
487.735	716.94
487.953	723.94
488.171	752.94
488.389	713.94
488.607	730.94
488.825	723.94
489.043	735.94
489.261	721.94
489.479	753.94
489.696	731.94
489.914	758.94
490.132	755.94
490.35	775.94
490.568	741.94
490.786	764.94
491.003	762.94
491.221	781.94
491.439	768.94
491.657	791.94
491.874	785.94
492.092	785.94
492.31	786.94
492.527	809.94
492.745	809.94
492.963	854.94
493.18	781.94
493.398	817.94
493.615	839.94
493.833	847.94
494.05	847.94
494.268	833.94
494.485	828.94
494.703	832.94
494.92	855.94
495.138	837.94
495.355	823.94
495.573	843.94
495.79	825.94
496.008	819.94
496.225	854.94
496.442	829.94
496.66	879.94
496.877	879.94
497.094	866.94
497.312	897.94
497.529	903.94
497.746	906.94
497.963	933.94
498.181	998.94
498.398	988.94
498.615	1025.94
498.832	1062.94
499.049	1119.94
499.267	1187.94
499.484	1229.94
499.701	1372.94
499.918	1415.94
500.135	1527.94
500.352	1691.94
500.569	1758.94
500.786	1723.94
501.003	1665.94
501.22	1580.94
501.437	1444.94
501.654	1333.94
501.871	1270.94
502.088	1213.94
502.305	1138.94
502.522	1089.94
502.739	1025.94
502.956	1021.94
503.172	957.94
503.389	956.94
503.606	939.94
503.823	905.94
504.04	900.94
504.256	902.94
504.473	939.94
504.69	908.94
504.907	929.94
505.123	892.94
505.34	850.94
505.557	808.94
505.773	837.94
505.99	823.94
506.207	799.94
506.423	789.94
506.64	769.94
506.856	801.94
507.073	761.94
507.289	749.94
507.506	751.94
507.722	761.94
507.939	801.94
508.155	730.94
508.372	696.94
508.588	759.94
508.805	735.94
509.021	722.94
509.238	736.94
509.454	729.94
509.67	729.94
509.887	704.94
510.103	723.94
510.319	717.94
510.536	738.94
510.752	1049.94
510.968	921.94
511.184	708.94
511.401	713.94
511.617	684.94
511.833	699.94
512.049	681.94
512.265	699.94
512.481	691.94
512.698	681.94
512.914	675.94
513.13	683.94
513.346	677.94
513.562	687.94
513.778	698.94
513.994	700.94
514.21	703.94
514.426	689.94
514.642	716.94
514.858	712.94
515.074	755.94
515.29	847.94
515.506	1051.94
515.721	974.94
515.937	779.94
516.153	725.94
516.369	734.94
516.585	759.94
516.801	804.94
517.016	791.94
517.232	802.94
517.448	852.94
517.664	841.94
517.879	869.94
518.095	852.94
518.311	843.94
518.527	802.94
518.742	774.94
518.958	763.94
519.173	757.94
519.389	728.94
519.605	745.94
519.82	713.94
520.036	720.94
520.251	733.94
520.467	744.94
520.682	720.94
520.898	700.94
521.113	703.94
521.329	732.94
521.544	757.94
521.76	855.94
521.975	1205.94
522.19	1232.94
522.406	817.94
522.621	695.94
522.836	662.94
523.052	668.94
523.267	632.94
523.482	653.94
523.698	633.94
523.913	627.94
524.128	603.94
524.343	632.94
524.559	635.94
524.774	608.94
524.989	615.94
525.204	636.94
525.419	609.94
525.634	617.94
525.849	629.94
526.064	624.94
526.28	615.94
526.495	619.94
526.71	593.94
526.925	602.94
527.14	602.94
527.355	598.94
527.57	580.94
527.785	592.94
527.999	602.94
528.214	614.94
528.429	617.94
528.644	605.94
528.859	596.94
529.074	579.94
529.289	589.94
529.503	648.94
529.718	636.94
529.933	595.94
530.148	604.94
530.363	601.94
530.577	572.94
530.792	582.94
531.007	603.94
531.221	601.94
531.436	603.94
531.651	614.94
531.865	585.94
532.08	596.94
532.295	588.94
532.509	579.94
532.724	566.94
532.938	592.94
533.153	594.94
533.367	595.94
533.582	595.94
533.796	570.94
534.011	600.94
534.225	581.94
534.44	597.94
534.654	597.94
534.868	581.94
535.083	572.94
535.297	564.94
535.511	594.94
535.726	582.94
535.94	575.94
536.154	566.94
536.369	577.94
536.583	578.94
536.797	543.94
537.011	553.94
537.225	572.94
537.44	549.94
537.654	556.94
537.868	548.94
538.082	536.94
538.296	541.94
538.51	556.94
538.724	549.94
538.938	566.94
539.153	570.94
539.367	555.94
539.581	535.94
539.795	535.94
540.009	545.94
540.222	561.94
540.436	560.94
540.65	538.94
540.864	571.94
541.078	565.94
541.292	532.94
541.506	567.94
541.72	566.94
541.934	541.94
542.147	537.94
542.361	550.94
542.575	547.94
542.789	555.94
543.002	534.94
543.216	531.94
543.43	530.94
543.644	520.94
543.857	569.94
544.071	565.94
544.285	547.94
544.498	544.94
544.712	571.94
544.925	576.94
545.139	563.94
545.352	549.94
545.566	555.94
545.779	551.94
545.993	565.94
546.206	561.94
546.42	566.94
546.633	556.94
546.847	541.94
547.06	532.94
547.274	563.94
547.487	545.94
547.7	547.94
547.914	576.94
548.127	547.94
548.34	544.94
548.554	548.94
548.767	536.94
548.98	585.94
549.193	590.94
549.407	547.94
549.62	580.94
549.833	562.94
550.046	582.94
550.259	545.94
550.473	554.94
550.686	549.94
550.899	540.94
551.112	540.94
551.325	537.94
551.538	547.94
551.751	533.94
551.964	536.94
552.177	565.94
552.39	557.94
552.603	580.94
552.816	592.94
553.029	581.94
553.242	559.94
553.455	583.94
553.667	587.94
553.88	609.94
554.093	575.94
554.306	570.94
554.519	585.94
554.732	548.94
554.944	524.94
555.157	549.94
555.37	526.94
555.583	521.94
555.795	524.94
556.008	505.94
556.221	507.94
556.433	502.94
556.646	527.94
556.859	519.94
557.071	505.94
557.284	500.94
557.496	491.94
557.709	511.94
557.921	486.94
558.134	480.94
558.346	472.94
558.559	488.94
558.771	471.94
558.984	489.94
559.196	489.94
559.409	481.94
559.621	479.94
559.833	461.94
560.046	458.94
560.258	498.94
560.47	463.94
560.683	473.94
560.895	465.94
561.107	453.94
561.32	480.94
561.532	479.94
561.744	475.94
561.956	460.94
562.168	486.94
562.381	468.94
562.593	488.94
562.805	483.94
563.017	467.94
563.229	497.94
563.441	489.94
563.653	496.94
563.865	485.94
564.077	473.94
564.289	504.94
564.501	480.94
564.713	505.94
564.925	521.94
565.137	523.94
565.349	545.94
565.561	547.94
565.773	536.94
565.985	587.94
566.197	625.94
566.408	638.94
566.62	655.94
566.832	710.94
567.044	719.94
567.255	713.94
567.467	738.94
567.679	734.94
567.891	811.94
568.102	818.94
568.314	791.94
568.526	755.94
568.737	671.94
568.949	611.94
569.161	613.94
569.372	576.94
569.584	578.94
569.795	539.94
570.007	515.94
570.218	526.94
570.43	528.94
570.641	503.94
570.853	500.94
571.064	492.94
571.276	529.94
571.487	498.94
571.698	479.94
571.91	465.94
572.121	471.94
572.333	462.94
572.544	447.94
572.755	419.94
572.966	426.94
573.178	434.94
573.389	452.94
573.6	426.94
573.811	433.94
574.023	425.94
574.234	413.94
574.445	411.94
574.656	429.94
574.867	431.94
575.078	442.94
575.289	415.94
575.501	408.94
575.712	393.94
575.923	400.94
576.134	395.94
576.345	414.94
576.556	411.94
576.767	407.94
576.978	385.94
577.188	395.94
577.399	402.94
577.61	413.94
577.821	389.94
578.032	413.94
578.243	416.94
578.454	529.94
578.665	459.94
578.875	379.94
579.086	374.94
579.297	383.94
579.508	377.94
579.718	376.94
579.929	378.94
580.14	369.94
580.35	380.94
580.561	367.94
580.772	384.94
580.982	384.94
581.193	361.94
581.403	393.94
581.614	363.94
581.825	381.94
582.035	371.94
582.246	370.94
582.456	366.94
582.667	364.94
582.877	348.94
583.087	360.94
583.298	376.94
583.508	362.94
583.719	377.94
583.929	379.94
584.139	373.94
584.35	354.94
584.56	387.94
584.77	357.94
584.981	359.94
585.191	358.94
585.401	364.94
585.611	359.94
585.821	372.94
586.032	357.94
586.242	335.94
586.452	358.94
586.662	354.94
586.872	354.94
587.082	364.94
587.292	356.94
587.502	368.94
587.713	349.94
587.923	353.94
588.133	361.94
588.343	338.94
588.553	347.94
588.762	352.94
588.972	376.94
589.182	361.94
589.392	381.94
589.602	361.94
589.812	369.94
590.022	362.94
590.232	352.94
590.441	370.94
590.651	354.94
590.861	365.94
591.071	362.94
591.281	376.94
591.49	356.94
591.7	373.94
591.91	371.94
592.119	387.94
592.329	392.94
592.539	411.94
592.748	411.94
592.958	431.94
593.167	422.94
593.377	418.94
593.587	443.94
593.796	452.94
594.006	440.94
594.215	448.94
594.424	442.94
594.634	444.94
594.843	403.94
595.053	405.94
595.262	389.94
595.472	379.94
595.681	374.94
595.89	388.94
596.1	354.94
596.309	354.94
596.518	379.94
596.727	349.94
596.937	345.94
597.146	323.94
597.355	356.94
597.564	355.94
597.774	324.94
597.983	323.94
598.192	309.94
598.401	340.94
598.61	316.94
598.819	335.94
599.028	323.94
599.237	317.94
599.446	317.94
599.655	327.94
599.864	325.94
600.073	300.94
600.282	305.94
600.491	319.94
600.7	308.94
600.909	316.94
601.118	316.94
601.327	308.94
601.536	301.94
601.745	320.94
601.953	287.94
602.162	301.94
602.371	295.94
602.58	309.94
602.789	318.94
602.997	286.94
603.206	287.94
603.415	303.94
603.623	291.94
603.832	275.94
604.041	298.94
604.249	295.94
604.458	299.94
604.666	297.94
604.875	312.94
605.084	300.94
605.292	299.94
605.501	292.94
605.709	272.94
605.918	294.94
606.126	303.94
606.334	303.94
606.543	288.94
606.751	282.94
606.96	281.94
607.168	291.94
607.376	296.94
607.585	303.94
607.793	285.94
608.001	279.94
608.21	283.94
608.418	288.94
608.626	270.94
608.834	278.94
609.043	267.94
609.251	285.94
609.459	275.94
609.667	286.94
609.875	290.94
610.083	299.94
610.291	301.94
610.499	277.94
610.707	283.94
610.916	263.94
611.124	294.94
611.332	282.94
611.54	307.94
611.748	295.94
611.955	283.94
612.163	279.94
612.371	286.94
612.579	277.94
612.787	298.94
612.995	285.94
613.203	285.94
613.411	295.94
613.618	289.94
613.826	287.94
614.034	289.94
614.242	287.94
614.449	264.94
614.657	287.94
614.865	257.94
615.072	273.94
615.28	275.94
615.488	277.94
615.695	268.94
615.903	302.94
616.111	289.94
616.318	280.94
616.526	267.94
616.733	289.94
616.941	277.94
617.148	292.94
617.356	279.94
617.563	265.94
617.771	290.94
617.978	293.94
618.185	276.94
618.393	274.94
618.6	269.94
618.807	259.94
619.015	272.94
619.222	285.94
619.429	253.94
619.637	279.94
619.844	264.94
620.051	283.94
620.258	257.94
620.466	287.94
620.673	261.94
620.88	247.94
621.087	263.94
621.294	267.94
621.501	264.94
621.708	269.94
621.915	264.94
622.122	273.94
622.329	248.94
622.536	264.94
622.743	272.94
622.95	263.94
623.157	258.94
623.364	251.94
623.571	249.94
623.778	259.94
623.985	269.94
624.192	258.94
624.399	262.94
624.606	260.94
624.812	239.94
625.019	240.94
625.226	257.94
625.433	239.94
625.639	247.94
625.846	255.94
626.053	247.94
626.259	260.94
626.466	235.94
626.673	245.94
626.879	241.94
627.086	235.94
627.293	250.94
627.499	248.94
627.706	224.94
627.912	235.94
628.119	223.94
628.325	236.94
628.532	221.94
628.738	218.94
628.945	250.94
629.151	228.94
629.357	225.94
629.564	226.94
629.77	208.94
629.976	226.94
630.183	229.94
630.389	211.94
630.595	205.94
630.802	221.94
631.008	227.94
631.214	232.94
631.42	234.94
631.627	233.94
631.833	224.94
632.039	214.94
632.245	219.94
632.451	230.94
632.657	223.94
632.863	217.94
633.069	220.94
633.275	224.94
633.481	206.94
633.688	218.94
633.893	218.94
634.099	213.94
634.305	215.94
634.511	224.94
634.717	230.94
634.923	223.94
635.129	204.94
635.335	203.94
635.541	209.94
635.747	218.94
635.952	212.94
636.158	206.94
636.364	193.94
636.57	211.94
636.775	211.94
636.981	204.94
637.187	200.94
637.392	216.94
637.598	196.94
637.804	224.94
638.009	207.94
638.215	214.94
638.421	220.94
638.626	188.94
638.832	194.94
639.037	215.94
639.243	195.94
639.448	217.94
639.654	195.94
639.859	193.94
640.065	202.94
640.27	199.94
640.475	189.94
640.681	210.94
640.886	192.94
641.091	201.94
641.297	182.94
641.502	198.94
641.707	196.94
641.913	194.94
642.118	193.94
642.323	204.94
642.528	196.94
642.733	210.94
642.939	199.94
643.144	190.94
643.349	167.94
643.554	203.94
643.759	191.94
643.964	179.94
644.169	181.94
644.374	189.94
644.579	192.94
644.784	188.94
644.989	196.94
645.194	191.94
645.399	192.94
645.604	177.94
645.809	199.94
646.014	187.94
646.219	188.94
646.423	183.94
646.628	193.94
646.833	190.94
647.038	209.94
647.243	185.94
647.447	206.94
647.652	200.94
647.857	191.94
648.062	198.94
648.266	193.94
648.471	207.94
648.676	193.94
648.88	205.94
649.085	203.94
649.289	185.94
649.494	183.94
649.698	218.94
649.903	200.94
650.107	177.94
650.312	181.94
650.516	192.94
650.721	191.94
650.925	161.94
651.13	175.94
651.334	178.94
651.539	170.94
651.743	173.94
651.947	165.94
652.152	169.94
652.356	168.94
652.56	154.94
652.764	156.94
652.969	171.94
653.173	155.94
653.377	151.94
653.581	155.94
653.785	156.94
653.99	159.94
654.194	153.94
654.398	151.94
654.602	138.94
654.806	136.94
655.01	156.94
655.214	155.94
655.418	152.94
655.622	163.94
655.826	154.94
656.03	148.94
656.234	162.94
656.438	147.94
656.642	151.94
656.846	147.94
657.049	137.94
657.253	144.94
657.457	148.94
657.661	117.94
657.865	131.94
658.068	128.94
658.272	120.94
658.476	123.94
658.68	105.94
658.883	102.94
659.087	127.94
659.291	115.94
659.494	92.94
659.698	105.94
659.901	116.94
660.105	105.94
660.309	105.94
660.512	93.94
660.716	99.94
660.919	87.94
661.123	87.94
661.326	96.94
661.53	90.94
661.733	80.94
661.936	93.94
662.14	97.94
662.343	83.94
662.546	84.94
662.75	96.94
662.953	87.94
663.156	76.94
663.36	80.94
663.563	92.94
663.766	86.94
663.969	94.94
664.173	86.94
664.376	67.94
664.579	81.94
664.782	92.94
664.985	75.94
665.188	72.94
665.391	79.94
665.594	92.94
665.797	75.94
666	85.94
666.203	65.94
666.406	80.94
666.609	87.94
666.812	73.94
667.015	97.94
667.218	85.94
667.421	92.94
667.624	74.94
667.827	91.94
668.03	97.94
668.232	81.94
668.435	88.94
668.638	74.94
668.841	73.94
669.043	79.94
669.246	79.94
669.449	75.94
669.651	87.94
669.854	80.94
670.057	86.94
670.259	74.94
670.462	85.94
670.665	86.94
670.867	75.94
671.07	88.94
671.272	78.94
671.475	86.94
671.677	75.94
671.88	82.94
672.082	83.94
672.284	91.94
672.487	68.94
672.689	81.94
672.892	74.94
