Data from 1963.PennyLincolnUp.Lamp.En5.5.200Scan.071719.P1._HRD10591_13-57-26-063.txt Node
Date: Thu Jul 18 13:57:26 EDT 2019
User: cochatt
Spectrometer: HR+D1059
Trigger mode: 1
Integration Time (sec): 1.000000E-1
Scans to average: 1
Electric dark correction enabled: true
Nonlinearity correction enabled: false
Boxcar width: 0
XAxis mode: Wavelengths
Number of Pixels in Spectrum: 2048
>>>>>Begin Spectral Data<<<<<
223.165	-10.38
223.4	-10.38
223.635	-10.38
223.869	-20.38
224.104	-24.38
224.338	-6.38
224.573	-12.38
224.808	-22.38
225.042	-16.38
225.277	-10.38
225.511	-8.38
225.746	7.62
225.98	8.62
226.215	21.62
226.449	24.62
226.683	26.62
226.918	13.62
227.152	28.62
227.387	24.62
227.621	36.62
227.856	53.62
228.09	52.62
228.324	69.62
228.559	46.62
228.793	77.62
229.027	95.62
229.262	111.62
229.496	101.62
229.73	127.62
229.964	115.62
230.199	120.62
230.433	113.62
230.667	106.62
230.901	126.62
231.136	107.62
231.37	122.62
231.604	114.62
231.838	109.62
232.072	109.62
232.306	122.62
232.541	122.62
232.775	116.62
233.009	120.62
233.243	109.62
233.477	115.62
233.711	110.62
233.945	120.62
234.179	117.62
234.413	123.62
234.647	125.62
234.881	123.62
235.115	129.62
235.349	123.62
235.583	116.62
235.817	140.62
236.051	145.62
236.285	125.62
236.519	139.62
236.753	142.62
236.987	137.62
237.221	146.62
237.455	165.62
237.689	157.62
237.922	128.62
238.156	142.62
238.39	135.62
238.624	133.62
238.858	131.62
239.091	128.62
239.325	119.62
239.559	134.62
239.793	134.62
240.027	135.62
240.26	149.62
240.494	165.62
240.728	142.62
240.961	144.62
241.195	146.62
241.429	143.62
241.662	135.62
241.896	132.62
242.13	131.62
242.363	146.62
242.597	138.62
242.83	149.62
243.064	150.62
243.298	151.62
243.531	141.62
243.765	147.62
243.998	151.62
244.232	158.62
244.465	149.62
244.699	142.62
244.932	157.62
245.166	160.62
245.399	145.62
245.633	157.62
245.866	153.62
246.099	150.62
246.333	173.62
246.566	159.62
246.8	151.62
247.033	161.62
247.266	160.62
247.5	175.62
247.733	184.62
247.966	179.62
248.2	174.62
248.433	168.62
248.666	180.62
248.899	195.62
249.133	197.62
249.366	190.62
249.599	200.62
249.832	187.62
250.066	186.62
250.299	183.62
250.532	191.62
250.765	197.62
250.998	214.62
251.231	208.62
251.465	214.62
251.698	204.62
251.931	217.62
252.164	199.62
252.397	189.62
252.63	197.62
252.863	215.62
253.096	214.62
253.329	239.62
253.562	215.62
253.795	224.62
254.028	218.62
254.261	223.62
254.494	221.62
254.727	224.62
254.96	236.62
255.193	249.62
255.426	235.62
255.659	244.62
255.892	229.62
256.124	219.62
256.357	229.62
256.59	208.62
256.823	221.62
257.056	213.62
257.289	210.62
257.521	219.62
257.754	227.62
257.987	225.62
258.22	211.62
258.452	217.62
258.685	215.62
258.918	223.62
259.151	229.62
259.383	224.62
259.616	234.62
259.849	231.62
260.081	226.62
260.314	229.62
260.547	244.62
260.779	236.62
261.012	236.62
261.244	229.62
261.477	231.62
261.71	229.62
261.942	243.62
262.175	225.62
262.407	225.62
262.64	221.62
262.872	231.62
263.105	223.62
263.337	219.62
263.57	229.62
263.802	232.62
264.035	241.62
264.267	210.62
264.499	221.62
264.732	235.62
264.964	237.62
265.197	229.62
265.429	228.62
265.661	240.62
265.894	262.62
266.126	222.62
266.358	259.62
266.591	246.62
266.823	247.62
267.055	251.62
267.287	247.62
267.52	258.62
267.752	259.62
267.984	264.62
268.216	246.62
268.448	259.62
268.681	239.62
268.913	247.62
269.145	267.62
269.377	283.62
269.609	263.62
269.841	267.62
270.073	273.62
270.306	281.62
270.538	287.62
270.77	299.62
271.002	276.62
271.234	294.62
271.466	285.62
271.698	315.62
271.93	289.62
272.162	312.62
272.394	305.62
272.626	301.62
272.858	293.62
273.09	291.62
273.322	284.62
273.553	273.62
273.785	273.62
274.017	285.62
274.249	283.62
274.481	287.62
274.713	298.62
274.945	291.62
275.176	272.62
275.408	287.62
275.64	282.62
275.872	282.62
276.104	296.62
276.335	277.62
276.567	313.62
276.799	289.62
277.031	285.62
277.262	313.62
277.494	324.62
277.726	305.62
277.957	308.62
278.189	312.62
278.421	292.62
278.652	302.62
278.884	281.62
279.115	289.62
279.347	292.62
279.579	294.62
279.81	299.62
280.042	294.62
280.273	279.62
280.505	297.62
280.736	314.62
280.968	299.62
281.199	307.62
281.431	301.62
281.662	321.62
281.894	324.62
282.125	303.62
282.356	325.62
282.588	307.62
282.819	323.62
283.051	310.62
283.282	314.62
283.513	310.62
283.745	330.62
283.976	326.62
284.207	304.62
284.439	317.62
284.67	303.62
284.901	321.62
285.132	344.62
285.364	319.62
285.595	324.62
285.826	313.62
286.057	330.62
286.288	343.62
286.52	317.62
286.751	336.62
286.982	325.62
287.213	326.62
287.444	334.62
287.675	350.62
287.906	323.62
288.138	336.62
288.369	350.62
288.6	354.62
288.831	356.62
289.062	340.62
289.293	337.62
289.524	331.62
289.755	333.62
289.986	349.62
290.217	344.62
290.448	341.62
290.679	343.62
290.91	336.62
291.141	354.62
291.371	340.62
291.602	329.62
291.833	352.62
292.064	349.62
292.295	357.62
292.526	348.62
292.757	344.62
292.987	341.62
293.218	359.62
293.449	341.62
293.68	349.62
293.91	350.62
294.141	329.62
294.372	340.62
294.603	367.62
294.833	358.62
295.064	355.62
295.295	360.62
295.525	365.62
295.756	343.62
295.987	374.62
296.217	365.62
296.448	368.62
296.679	358.62
296.909	373.62
297.14	360.62
297.37	363.62
297.601	372.62
297.831	343.62
298.062	350.62
298.292	374.62
298.523	371.62
298.753	365.62
298.984	375.62
299.214	371.62
299.445	368.62
299.675	375.62
299.905	377.62
300.136	367.62
300.366	377.62
300.597	362.62
300.827	380.62
301.057	395.62
301.288	413.62
301.518	401.62
301.748	378.62
301.979	402.62
302.209	389.62
302.439	409.62
302.669	391.62
302.9	387.62
303.13	398.62
303.36	409.62
303.59	371.62
303.82	392.62
304.051	385.62
304.281	422.62
304.511	394.62
304.741	401.62
304.971	388.62
305.201	398.62
305.431	388.62
305.661	391.62
305.891	381.62
306.121	395.62
306.352	407.62
306.582	399.62
306.812	376.62
307.042	379.62
307.272	385.62
307.502	400.62
307.731	407.62
307.961	416.62
308.191	395.62
308.421	399.62
308.651	401.62
308.881	381.62
309.111	394.62
309.341	387.62
309.571	406.62
309.8	405.62
310.03	401.62
310.26	398.62
310.49	391.62
310.72	419.62
310.949	421.62
311.179	412.62
311.409	409.62
311.639	415.62
311.868	424.62
312.098	395.62
312.328	417.62
312.557	420.62
312.787	440.62
313.017	444.62
313.246	431.62
313.476	423.62
313.706	412.62
313.935	450.62
314.165	435.62
314.394	431.62
314.624	441.62
314.853	422.62
315.083	419.62
315.312	430.62
315.542	417.62
315.771	424.62
316.001	442.62
316.23	428.62
316.46	412.62
316.689	439.62
316.919	449.62
317.148	420.62
317.377	426.62
317.607	417.62
317.836	429.62
318.065	413.62
318.295	425.62
318.524	430.62
318.753	445.62
318.983	422.62
319.212	411.62
319.441	424.62
319.67	428.62
319.9	431.62
320.129	422.62
320.358	442.62
320.587	432.62
320.816	421.62
321.046	427.62
321.275	442.62
321.504	437.62
321.733	414.62
321.962	453.62
322.191	447.62
322.42	443.62
322.649	450.62
322.878	452.62
323.108	454.62
323.337	467.62
323.566	462.62
323.795	480.62
324.024	503.62
324.253	526.62
324.482	657.62
324.71	860.62
324.939	1209.62
325.168	1045.62
325.397	647.62
325.626	553.62
325.855	508.62
326.084	491.62
326.313	479.62
326.542	487.62
326.77	494.62
326.999	557.62
327.228	631.62
327.457	841.62
327.686	982.62
327.914	725.62
328.143	563.62
328.372	521.62
328.6	547.62
328.829	508.62
329.058	518.62
329.287	505.62
329.515	499.62
329.744	498.62
329.972	485.62
330.201	535.62
330.43	527.62
330.658	494.62
330.887	532.62
331.115	554.62
331.344	513.62
331.572	502.62
331.801	528.62
332.03	517.62
332.258	548.62
332.486	513.62
332.715	535.62
332.943	565.62
333.172	571.62
333.4	556.62
333.629	593.62
333.857	605.62
334.085	629.62
334.314	614.62
334.542	597.62
334.771	584.62
334.999	560.62
335.227	566.62
335.455	547.62
335.684	550.62
335.912	559.62
336.14	553.62
336.369	522.62
336.597	531.62
336.825	528.62
337.053	527.62
337.281	538.62
337.51	530.62
337.738	526.62
337.966	523.62
338.194	540.62
338.422	521.62
338.65	550.62
338.878	526.62
339.106	520.62
339.334	517.62
339.562	489.62
339.79	493.62
340.018	504.62
340.246	492.62
340.474	511.62
340.702	492.62
340.93	513.62
341.158	493.62
341.386	506.62
341.614	494.62
341.842	477.62
342.07	462.62
342.298	475.62
342.526	475.62
342.754	490.62
342.981	475.62
343.209	493.62
343.437	516.62
343.665	539.62
343.893	549.62
344.12	561.62
344.348	539.62
344.576	517.62
344.804	525.62
345.031	502.62
345.259	513.62
345.487	488.62
345.714	489.62
345.942	491.62
346.17	474.62
346.397	468.62
346.625	494.62
346.853	495.62
347.08	474.62
347.308	478.62
347.535	458.62
347.763	473.62
347.99	473.62
348.218	483.62
348.445	472.62
348.673	492.62
348.9	471.62
349.128	449.62
349.355	454.62
349.583	462.62
349.81	481.62
350.037	480.62
350.265	472.62
350.492	463.62
350.72	457.62
350.947	464.62
351.174	481.62
351.402	457.62
351.629	459.62
351.856	477.62
352.083	446.62
352.311	474.62
352.538	470.62
352.765	460.62
352.992	467.62
353.22	471.62
353.447	458.62
353.674	464.62
353.901	445.62
354.128	449.62
354.355	446.62
354.583	480.62
354.81	446.62
355.037	464.62
355.264	463.62
355.491	478.62
355.718	456.62
355.945	445.62
356.172	450.62
356.399	462.62
356.626	463.62
356.853	465.62
357.08	465.62
357.307	438.62
357.534	464.62
357.761	477.62
357.988	463.62
358.215	461.62
358.441	457.62
358.668	470.62
358.895	473.62
359.122	464.62
359.349	456.62
359.576	456.62
359.802	483.62
360.029	507.62
360.256	500.62
360.483	466.62
360.709	477.62
360.936	480.62
361.163	485.62
361.39	467.62
361.616	458.62
361.843	476.62
362.07	485.62
362.296	469.62
362.523	470.62
362.749	488.62
362.976	460.62
363.203	470.62
363.429	460.62
363.656	472.62
363.882	459.62
364.109	455.62
364.335	464.62
364.562	490.62
364.788	455.62
365.015	479.62
365.241	465.62
365.468	455.62
365.694	443.62
365.92	471.62
366.147	468.62
366.373	457.62
366.599	474.62
366.826	459.62
367.052	466.62
367.278	469.62
367.505	480.62
367.731	470.62
367.957	475.62
368.184	457.62
368.41	479.62
368.636	483.62
368.862	493.62
369.089	492.62
369.315	463.62
369.541	472.62
369.767	492.62
369.993	463.62
370.219	474.62
370.445	475.62
370.672	488.62
370.898	492.62
371.124	468.62
371.35	477.62
371.576	487.62
371.802	500.62
372.028	493.62
372.254	472.62
372.48	487.62
372.706	494.62
372.932	523.62
373.158	515.62
373.384	499.62
373.61	492.62
373.835	488.62
374.061	492.62
374.287	517.62
374.513	507.62
374.739	476.62
374.965	519.62
375.191	549.62
375.416	524.62
375.642	512.62
375.868	516.62
376.094	505.62
376.319	493.62
376.545	507.62
376.771	492.62
376.997	462.62
377.222	465.62
377.448	495.62
377.674	497.62
377.899	467.62
378.125	489.62
378.35	500.62
378.576	494.62
378.802	492.62
379.027	480.62
379.253	494.62
379.478	500.62
379.704	471.62
379.929	512.62
380.155	489.62
380.38	485.62
380.606	510.62
380.831	486.62
381.057	499.62
381.282	485.62
381.507	492.62
381.733	492.62
381.958	488.62
382.184	517.62
382.409	495.62
382.634	507.62
382.86	517.62
383.085	520.62
383.31	528.62
383.535	516.62
383.761	527.62
383.986	542.62
384.211	549.62
384.436	547.62
384.662	554.62
384.887	569.62
385.112	538.62
385.337	565.62
385.562	590.62
385.787	560.62
386.013	560.62
386.238	573.62
386.463	565.62
386.688	579.62
386.913	565.62
387.138	560.62
387.363	584.62
387.588	557.62
387.813	557.62
388.038	571.62
388.263	563.62
388.488	563.62
388.713	551.62
388.938	553.62
389.163	559.62
389.387	544.62
389.612	563.62
389.837	574.62
390.062	572.62
390.287	542.62
390.512	561.62
390.736	550.62
390.961	557.62
391.186	570.62
391.411	588.62
391.636	617.62
391.86	611.62
392.085	623.62
392.31	615.62
392.534	588.62
392.759	587.62
392.984	600.62
393.208	603.62
393.433	610.62
393.658	593.62
393.882	600.62
394.107	604.62
394.331	589.62
394.556	587.62
394.78	584.62
395.005	583.62
395.229	616.62
395.454	587.62
395.678	607.62
395.903	657.62
396.127	641.62
396.352	605.62
396.576	601.62
396.801	607.62
397.025	621.62
397.249	619.62
397.474	629.62
397.698	633.62
397.922	630.62
398.147	609.62
398.371	634.62
398.595	632.62
398.82	670.62
399.044	700.62
399.268	751.62
399.492	823.62
399.717	897.62
399.941	912.62
400.165	867.62
400.389	841.62
400.613	764.62
400.837	719.62
401.062	684.62
401.286	679.62
401.51	688.62
401.734	676.62
401.958	667.62
402.182	689.62
402.406	697.62
402.63	710.62
402.854	711.62
403.078	712.62
403.302	705.62
403.526	727.62
403.75	719.62
403.974	765.62
404.198	728.62
404.422	723.62
404.645	747.62
404.869	737.62
405.093	748.62
405.317	755.62
405.541	802.62
405.765	755.62
405.988	701.62
406.212	740.62
406.436	749.62
406.66	735.62
406.883	760.62
407.107	801.62
407.331	817.62
407.555	870.62
407.778	876.62
408.002	862.62
408.226	814.62
408.449	762.62
408.673	747.62
408.896	774.62
409.12	773.62
409.344	756.62
409.567	726.62
409.791	724.62
410.014	720.62
410.238	701.62
410.461	723.62
410.685	713.62
410.908	702.62
411.132	712.62
411.355	741.62
411.578	740.62
411.802	706.62
412.025	709.62
412.249	700.62
412.472	709.62
412.695	749.62
412.919	730.62
413.142	707.62
413.365	671.62
413.589	676.62
413.812	693.62
414.035	653.62
414.258	658.62
414.482	672.62
414.705	676.62
414.928	665.62
415.151	670.62
415.374	673.62
415.597	666.62
415.821	639.62
416.044	646.62
416.267	658.62
416.49	667.62
416.713	637.62
416.936	651.62
417.159	659.62
417.382	646.62
417.605	677.62
417.828	667.62
418.051	666.62
418.274	667.62
418.497	654.62
418.72	691.62
418.943	659.62
419.166	731.62
419.389	733.62
419.611	728.62
419.834	710.62
420.057	698.62
420.28	693.62
420.503	679.62
420.726	677.62
420.948	696.62
421.171	680.62
421.394	703.62
421.617	663.62
421.839	666.62
422.062	694.62
422.285	687.62
422.507	698.62
422.73	781.62
422.953	762.62
423.175	688.62
423.398	709.62
423.621	711.62
423.843	714.62
424.066	729.62
424.288	709.62
424.511	708.62
424.733	726.62
424.956	784.62
425.178	782.62
425.401	756.62
425.623	739.62
425.846	686.62
426.068	680.62
426.291	650.62
426.513	654.62
426.735	666.62
426.958	716.62
427.18	727.62
427.402	825.62
427.625	841.62
427.847	760.62
428.069	699.62
428.292	673.62
428.514	654.62
428.736	633.62
428.958	635.62
429.181	617.62
429.403	594.62
429.625	637.62
429.847	639.62
430.069	665.62
430.292	659.62
430.514	629.62
430.736	619.62
430.958	591.62
431.18	618.62
431.402	611.62
431.624	603.62
431.846	607.62
432.068	591.62
432.29	583.62
432.512	635.62
432.734	630.62
432.956	613.62
433.178	606.62
433.4	628.62
433.622	619.62
433.844	622.62
434.066	616.62
434.287	619.62
434.509	630.62
434.731	655.62
434.953	656.62
435.175	696.62
435.397	703.62
435.618	668.62
435.84	678.62
436.062	726.62
436.284	758.62
436.505	672.62
436.727	639.62
436.949	635.62
437.17	624.62
437.392	597.62
437.614	603.62
437.835	613.62
438.057	678.62
438.278	715.62
438.5	728.62
438.721	806.62
438.943	768.62
439.165	684.62
439.386	653.62
439.608	640.62
439.829	644.62
440.05	650.62
440.272	674.62
440.493	664.62
440.715	663.62
440.936	639.62
441.158	680.62
441.379	641.62
441.6	671.62
441.822	695.62
442.043	711.62
442.264	753.62
442.486	745.62
442.707	712.62
442.928	673.62
443.149	683.62
443.371	712.62
443.592	719.62
443.813	767.62
444.034	824.62
444.255	750.62
444.476	729.62
444.698	749.62
444.919	765.62
445.14	875.62
445.361	780.62
445.582	723.62
445.803	725.62
446.024	750.62
446.245	786.62
446.466	728.62
446.687	679.62
446.908	636.62
447.129	629.62
447.35	603.62
447.571	610.62
447.792	611.62
448.013	607.62
448.234	600.62
448.455	597.62
448.675	693.62
448.896	741.62
449.117	676.62
449.338	658.62
449.559	715.62
449.779	791.62
450	676.62
450.221	611.62
450.442	599.62
450.662	582.62
450.883	580.62
451.104	575.62
451.324	583.62
451.545	586.62
451.766	558.62
451.986	546.62
452.207	568.62
452.428	543.62
452.648	548.62
452.869	538.62
453.089	559.62
453.31	554.62
453.53	564.62
453.751	561.62
453.971	555.62
454.192	569.62
454.412	541.62
454.633	537.62
454.853	555.62
455.073	547.62
455.294	564.62
455.514	588.62
455.734	590.62
455.955	537.62
456.175	553.62
456.395	535.62
456.616	518.62
456.836	515.62
457.056	516.62
457.276	523.62
457.497	559.62
457.717	538.62
457.937	533.62
458.157	558.62
458.377	545.62
458.598	575.62
458.818	580.62
459.038	637.62
459.258	661.62
459.478	633.62
459.698	633.62
459.918	628.62
460.138	634.62
460.358	666.62
460.578	676.62
460.798	686.62
461.018	701.62
461.238	645.62
461.458	670.62
461.678	657.62
461.898	676.62
462.118	681.62
462.338	720.62
462.558	727.62
462.777	748.62
462.997	790.62
463.217	838.62
463.437	819.62
463.657	802.62
463.876	766.62
464.096	762.62
464.316	755.62
464.536	767.62
464.755	740.62
464.975	707.62
465.195	697.62
465.414	713.62
465.634	673.62
465.854	632.62
466.073	586.62
466.293	627.62
466.512	608.62
466.732	604.62
466.951	587.62
467.171	575.62
467.391	582.62
467.61	582.62
467.829	574.62
468.049	572.62
468.268	606.62
468.488	575.62
468.707	592.62
468.927	586.62
469.146	561.62
469.365	555.62
469.585	554.62
469.804	593.62
470.023	589.62
470.243	597.62
470.462	593.62
470.681	602.62
470.901	626.62
471.12	609.62
471.339	607.62
471.558	581.62
471.777	584.62
471.997	566.62
472.216	571.62
472.435	614.62
472.654	612.62
472.873	575.62
473.092	585.62
473.311	597.62
473.53	583.62
473.749	564.62
473.968	601.62
474.187	650.62
474.406	659.62
474.625	611.62
474.844	592.62
475.063	588.62
475.282	596.62
475.501	564.62
475.72	568.62
475.939	573.62
476.158	579.62
476.377	596.62
476.596	604.62
476.814	613.62
477.033	617.62
477.252	608.62
477.471	627.62
477.69	647.62
477.908	648.62
478.127	674.62
478.346	659.62
478.564	685.62
478.783	691.62
479.002	692.62
479.22	691.62
479.439	716.62
479.658	715.62
479.876	739.62
480.095	736.62
480.313	765.62
480.532	751.62
480.751	777.62
480.969	749.62
481.188	784.62
481.406	773.62
481.624	709.62
481.843	714.62
482.061	693.62
482.28	674.62
482.498	671.62
482.717	669.62
482.935	685.62
483.153	672.62
483.372	701.62
483.59	685.62
483.808	681.62
484.027	668.62
484.245	696.62
484.463	686.62
484.681	685.62
484.9	686.62
485.118	709.62
485.336	693.62
485.554	719.62
485.772	712.62
485.99	695.62
486.209	708.62
486.427	727.62
486.645	721.62
486.863	726.62
487.081	720.62
487.299	725.62
487.517	697.62
487.735	732.62
487.953	687.62
488.171	689.62
488.389	730.62
488.607	704.62
488.825	714.62
489.043	704.62
489.261	710.62
489.479	755.62
489.696	736.62
489.914	768.62
490.132	728.62
490.35	736.62
490.568	735.62
490.786	730.62
491.003	750.62
491.221	787.62
491.439	750.62
491.657	750.62
491.874	789.62
492.092	782.62
492.31	785.62
492.527	772.62
492.745	808.62
492.963	814.62
493.18	785.62
493.398	783.62
493.615	794.62
493.833	835.62
494.05	812.62
494.268	803.62
494.485	834.62
494.703	774.62
494.92	803.62
495.138	799.62
495.355	817.62
495.573	840.62
495.79	828.62
496.008	847.62
496.225	816.62
496.442	833.62
496.66	848.62
496.877	829.62
497.094	848.62
497.312	859.62
497.529	891.62
497.746	880.62
497.963	891.62
498.181	967.62
498.398	975.62
498.615	974.62
498.832	1044.62
499.049	1063.62
499.267	1135.62
499.484	1244.62
499.701	1305.62
499.918	1416.62
500.135	1549.62
500.352	1641.62
500.569	1740.62
500.786	1737.62
501.003	1642.62
501.22	1523.62
501.437	1389.62
501.654	1323.62
501.871	1251.62
502.088	1151.62
502.305	1122.62
502.522	1064.62
502.739	1043.62
502.956	958.62
503.172	964.62
503.389	936.62
503.606	915.62
503.823	895.62
504.04	908.62
504.256	887.62
504.473	886.62
504.69	913.62
504.907	895.62
505.123	871.62
505.34	835.62
505.557	819.62
505.773	804.62
505.99	764.62
506.207	759.62
506.423	755.62
506.64	782.62
506.856	749.62
507.073	740.62
507.289	744.62
507.506	730.62
507.722	740.62
507.939	748.62
508.155	739.62
508.372	726.62
508.588	699.62
508.805	721.62
509.021	683.62
509.238	717.62
509.454	702.62
509.67	712.62
509.887	703.62
510.103	684.62
510.319	709.62
510.536	727.62
510.752	948.62
510.968	847.62
511.184	672.62
511.401	684.62
511.617	698.62
511.833	690.62
512.049	702.62
512.265	665.62
512.481	680.62
512.698	644.62
512.914	677.62
513.13	667.62
513.346	667.62
513.562	672.62
513.778	650.62
513.994	677.62
514.21	693.62
514.426	678.62
514.642	702.62
514.858	709.62
515.074	713.62
515.29	752.62
515.506	926.62
515.721	878.62
515.937	718.62
516.153	712.62
516.369	729.62
516.585	724.62
516.801	733.62
517.016	795.62
517.232	799.62
517.448	868.62
517.664	844.62
517.879	839.62
518.095	856.62
518.311	837.62
518.527	786.62
518.742	786.62
518.958	788.62
519.173	728.62
519.389	721.62
519.605	719.62
519.82	707.62
520.036	701.62
520.251	683.62
520.467	695.62
520.682	679.62
520.898	680.62
521.113	704.62
521.329	687.62
521.544	718.62
521.76	758.62
521.975	1021.62
522.19	1079.62
522.406	760.62
522.621	664.62
522.836	635.62
523.052	637.62
523.267	617.62
523.482	630.62
523.698	612.62
523.913	617.62
524.128	633.62
524.343	602.62
524.559	619.62
524.774	597.62
524.989	592.62
525.204	617.62
525.419	604.62
525.634	607.62
525.849	619.62
526.064	611.62
526.28	619.62
526.495	590.62
526.71	603.62
526.925	583.62
527.14	593.62
527.355	609.62
527.57	563.62
527.785	602.62
527.999	610.62
528.214	604.62
528.429	557.62
528.644	584.62
528.859	610.62
529.074	599.62
529.289	598.62
529.503	643.62
529.718	627.62
529.933	623.62
530.148	592.62
530.363	585.62
530.577	567.62
530.792	588.62
531.007	566.62
531.221	584.62
531.436	576.62
531.651	573.62
531.865	567.62
532.08	587.62
532.295	585.62
532.509	587.62
532.724	559.62
532.938	598.62
533.153	588.62
533.367	559.62
533.582	584.62
533.796	589.62
534.011	577.62
534.225	572.62
534.44	555.62
534.654	576.62
534.868	549.62
535.083	562.62
535.297	557.62
535.511	572.62
535.726	569.62
535.94	576.62
536.154	574.62
536.369	565.62
536.583	540.62
536.797	555.62
537.011	555.62
537.225	555.62
537.44	548.62
537.654	548.62
537.868	553.62
538.082	548.62
538.296	528.62
538.51	545.62
538.724	549.62
538.938	526.62
539.153	562.62
539.367	539.62
539.581	531.62
539.795	540.62
540.009	520.62
540.222	541.62
540.436	527.62
540.65	550.62
540.864	549.62
541.078	545.62
541.292	552.62
541.506	545.62
541.72	546.62
541.934	517.62
542.147	540.62
542.361	539.62
542.575	527.62
542.789	544.62
543.002	533.62
543.216	536.62
543.43	536.62
543.644	527.62
543.857	539.62
544.071	521.62
544.285	541.62
544.498	539.62
544.712	545.62
544.925	548.62
545.139	543.62
545.352	550.62
545.566	547.62
545.779	565.62
545.993	533.62
546.206	560.62
546.42	561.62
546.633	544.62
546.847	560.62
547.06	547.62
547.274	536.62
547.487	528.62
547.7	558.62
547.914	549.62
548.127	567.62
548.34	548.62
548.554	526.62
548.767	556.62
548.98	543.62
549.193	521.62
549.407	530.62
549.62	556.62
549.833	560.62
550.046	565.62
550.259	555.62
550.473	524.62
550.686	547.62
550.899	522.62
551.112	511.62
551.325	524.62
551.538	531.62
551.751	551.62
551.964	538.62
552.177	577.62
552.39	560.62
552.603	561.62
552.816	573.62
553.029	587.62
553.242	575.62
553.455	605.62
553.667	581.62
553.88	602.62
554.093	560.62
554.306	567.62
554.519	573.62
554.732	545.62
554.944	551.62
555.157	553.62
555.37	508.62
555.583	534.62
555.795	538.62
556.008	488.62
556.221	492.62
556.433	497.62
556.646	513.62
556.859	486.62
557.071	503.62
557.284	490.62
557.496	502.62
557.709	503.62
557.921	511.62
558.134	456.62
558.346	485.62
558.559	489.62
558.771	479.62
558.984	475.62
559.196	471.62
559.409	470.62
559.621	497.62
559.833	479.62
560.046	479.62
560.258	455.62
560.47	475.62
560.683	469.62
560.895	481.62
561.107	465.62
561.32	478.62
561.532	488.62
561.744	478.62
561.956	485.62
562.168	496.62
562.381	465.62
562.593	481.62
562.805	476.62
563.017	493.62
563.229	479.62
563.441	501.62
563.653	473.62
563.865	475.62
564.077	493.62
564.289	502.62
564.501	531.62
564.713	532.62
564.925	502.62
565.137	507.62
565.349	551.62
565.561	555.62
565.773	568.62
565.985	596.62
566.197	605.62
566.408	649.62
566.62	679.62
566.832	733.62
567.044	731.62
567.255	728.62
567.467	741.62
567.679	796.62
567.891	809.62
568.102	848.62
568.314	785.62
568.526	719.62
568.737	672.62
568.949	658.62
569.161	607.62
569.372	569.62
569.584	567.62
569.795	530.62
570.007	495.62
570.218	534.62
570.43	531.62
570.641	504.62
570.853	484.62
571.064	523.62
571.276	496.62
571.487	481.62
571.698	469.62
571.91	485.62
572.121	473.62
572.333	454.62
572.544	459.62
572.755	441.62
572.966	430.62
573.178	439.62
573.389	405.62
573.6	453.62
573.811	440.62
574.023	408.62
574.234	432.62
574.445	426.62
574.656	425.62
574.867	424.62
575.078	431.62
575.289	416.62
575.501	408.62
575.712	418.62
575.923	407.62
576.134	405.62
576.345	401.62
576.556	413.62
576.767	408.62
576.978	409.62
577.188	412.62
577.399	388.62
577.61	384.62
577.821	400.62
578.032	393.62
578.243	401.62
578.454	502.62
578.665	435.62
578.875	399.62
579.086	387.62
579.297	395.62
579.508	372.62
579.718	392.62
579.929	369.62
580.14	395.62
580.35	377.62
580.561	375.62
580.772	376.62
580.982	383.62
581.193	379.62
581.403	377.62
581.614	377.62
581.825	384.62
582.035	369.62
582.246	373.62
582.456	372.62
582.667	364.62
582.877	364.62
583.087	356.62
583.298	381.62
583.508	380.62
583.719	374.62
583.929	387.62
584.139	384.62
584.35	350.62
584.56	345.62
584.77	363.62
584.981	352.62
585.191	355.62
585.401	358.62
585.611	356.62
585.821	362.62
586.032	362.62
586.242	374.62
586.452	377.62
586.662	381.62
586.872	357.62
587.082	368.62
587.292	366.62
587.502	367.62
587.713	340.62
587.923	352.62
588.133	370.62
588.343	371.62
588.553	361.62
588.762	381.62
588.972	380.62
589.182	364.62
589.392	355.62
589.602	368.62
589.812	372.62
590.022	369.62
590.232	372.62
590.441	382.62
590.651	371.62
590.861	365.62
591.071	373.62
591.281	391.62
591.49	391.62
591.7	386.62
591.91	388.62
592.119	401.62
592.329	400.62
592.539	405.62
592.748	416.62
592.958	394.62
593.167	406.62
593.377	432.62
593.587	444.62
593.796	428.62
594.006	431.62
594.215	441.62
594.424	445.62
594.634	438.62
594.843	446.62
595.053	396.62
595.262	400.62
595.472	417.62
595.681	407.62
595.89	376.62
596.1	347.62
596.309	385.62
596.518	360.62
596.727	345.62
596.937	363.62
597.146	351.62
597.355	351.62
597.564	338.62
597.774	342.62
597.983	344.62
598.192	332.62
598.401	327.62
598.61	328.62
598.819	324.62
599.028	336.62
599.237	334.62
599.446	318.62
599.655	321.62
599.864	321.62
600.073	318.62
600.282	311.62
600.491	311.62
600.7	315.62
600.909	323.62
601.118	311.62
601.327	318.62
601.536	314.62
601.745	317.62
601.953	312.62
602.162	307.62
602.371	298.62
602.58	301.62
602.789	312.62
602.997	319.62
603.206	299.62
603.415	312.62
603.623	293.62
603.832	301.62
604.041	295.62
604.249	304.62
604.458	292.62
604.666	292.62
604.875	308.62
605.084	295.62
605.292	302.62
605.501	299.62
605.709	305.62
605.918	316.62
606.126	304.62
606.334	300.62
606.543	300.62
606.751	293.62
606.96	294.62
607.168	287.62
607.376	296.62
607.585	292.62
607.793	305.62
608.001	320.62
608.21	302.62
608.418	282.62
608.626	288.62
608.834	297.62
609.043	270.62
609.251	296.62
609.459	288.62
609.667	279.62
609.875	289.62
610.083	291.62
610.291	279.62
610.499	290.62
610.707	301.62
610.916	302.62
611.124	283.62
611.332	293.62
611.54	290.62
611.748	315.62
611.955	285.62
612.163	290.62
612.371	294.62
612.579	284.62
612.787	303.62
612.995	293.62
613.203	285.62
613.411	279.62
613.618	292.62
613.826	301.62
614.034	295.62
614.242	296.62
614.449	272.62
614.657	281.62
614.865	274.62
615.072	289.62
615.28	299.62
615.488	278.62
615.695	281.62
615.903	289.62
616.111	278.62
616.318	287.62
616.526	277.62
616.733	293.62
616.941	277.62
617.148	279.62
617.356	281.62
617.563	270.62
617.771	288.62
617.978	268.62
618.185	303.62
618.393	290.62
618.6	297.62
618.807	285.62
619.015	282.62
619.222	272.62
619.429	284.62
619.637	281.62
619.844	284.62
620.051	286.62
620.258	273.62
620.466	271.62
620.673	267.62
620.88	254.62
621.087	258.62
621.294	250.62
621.501	270.62
621.708	256.62
621.915	269.62
622.122	273.62
622.329	275.62
622.536	273.62
622.743	238.62
622.95	264.62
623.157	265.62
623.364	266.62
623.571	256.62
623.778	263.62
623.985	265.62
624.192	245.62
624.399	251.62
624.606	251.62
624.812	253.62
625.019	252.62
625.226	254.62
625.433	257.62
625.639	249.62
625.846	256.62
626.053	250.62
626.259	242.62
626.466	247.62
626.673	245.62
626.879	225.62
627.086	237.62
627.293	242.62
627.499	255.62
627.706	249.62
627.912	235.62
628.119	243.62
628.325	255.62
628.532	244.62
628.738	245.62
628.945	240.62
629.151	255.62
629.357	222.62
629.564	256.62
629.77	234.62
629.976	229.62
630.183	232.62
630.389	254.62
630.595	243.62
630.802	229.62
631.008	232.62
631.214	230.62
631.42	215.62
631.627	226.62
631.833	222.62
632.039	229.62
632.245	218.62
632.451	219.62
632.657	224.62
632.863	224.62
633.069	218.62
633.275	209.62
633.481	232.62
633.688	230.62
633.893	233.62
634.099	219.62
634.305	218.62
634.511	218.62
634.717	200.62
634.923	215.62
635.129	206.62
635.335	217.62
635.541	212.62
635.747	202.62
635.952	208.62
636.158	210.62
636.364	206.62
636.57	202.62
636.775	225.62
636.981	230.62
637.187	217.62
637.392	222.62
637.598	208.62
637.804	213.62
638.009	217.62
638.215	201.62
638.421	207.62
638.626	202.62
638.832	222.62
639.037	201.62
639.243	190.62
639.448	224.62
639.654	200.62
639.859	213.62
640.065	200.62
640.27	198.62
640.475	237.62
640.681	201.62
640.886	181.62
641.091	199.62
641.297	197.62
641.502	202.62
641.707	189.62
641.913	195.62
642.118	212.62
642.323	187.62
642.528	202.62
642.733	184.62
642.939	188.62
643.144	184.62
643.349	200.62
643.554	205.62
643.759	196.62
643.964	192.62
644.169	195.62
644.374	175.62
644.579	183.62
644.784	201.62
644.989	190.62
645.194	213.62
645.399	195.62
645.604	197.62
645.809	206.62
646.014	195.62
646.219	192.62
646.423	202.62
646.628	200.62
646.833	208.62
647.038	197.62
647.243	209.62
647.447	199.62
647.652	205.62
647.857	193.62
648.062	208.62
648.266	222.62
648.471	204.62
648.676	205.62
648.88	206.62
649.085	203.62
649.289	196.62
649.494	196.62
649.698	201.62
649.903	197.62
650.107	188.62
650.312	195.62
650.516	198.62
650.721	172.62
650.925	193.62
651.13	179.62
651.334	181.62
651.539	167.62
651.743	176.62
651.947	175.62
652.152	177.62
652.356	175.62
652.56	169.62
652.764	161.62
652.969	167.62
653.173	176.62
653.377	163.62
653.581	155.62
653.785	160.62
653.99	162.62
654.194	173.62
654.398	171.62
654.602	166.62
654.806	151.62
655.01	160.62
655.214	157.62
655.418	152.62
655.622	155.62
655.826	156.62
656.03	157.62
656.234	164.62
656.438	170.62
656.642	170.62
656.846	171.62
657.049	165.62
657.253	140.62
657.457	142.62
657.661	133.62
657.865	125.62
658.068	133.62
658.272	105.62
658.476	112.62
658.68	109.62
658.883	106.62
659.087	116.62
659.291	116.62
659.494	109.62
659.698	111.62
659.901	115.62
660.105	100.62
660.309	105.62
660.512	108.62
660.716	106.62
660.919	100.62
661.123	96.62
661.326	96.62
661.53	98.62
661.733	100.62
661.936	101.62
662.14	91.62
662.343	93.62
662.546	111.62
662.75	88.62
662.953	81.62
663.156	88.62
663.36	98.62
663.563	76.62
663.766	85.62
663.969	90.62
664.173	90.62
664.376	79.62
664.579	100.62
664.782	104.62
664.985	93.62
665.188	82.62
665.391	87.62
665.594	78.62
665.797	84.62
666	75.62
666.203	81.62
666.406	89.62
666.609	72.62
666.812	78.62
667.015	94.62
667.218	90.62
667.421	90.62
667.624	79.62
667.827	95.62
668.03	90.62
668.232	86.62
668.435	99.62
668.638	93.62
668.841	77.62
669.043	88.62
669.246	87.62
669.449	83.62
669.651	101.62
669.854	95.62
670.057	97.62
670.259	90.62
670.462	85.62
670.665	84.62
670.867	91.62
671.07	87.62
671.272	86.62
671.475	76.62
671.677	68.62
671.88	74.62
672.082	87.62
672.284	81.62
672.487	79.62
672.689	88.62
672.892	92.62
