Data from 1963.PennyLincolnUp.Lamp.En5.5.200Scan.071719.P1._HRD10591_14-00-10-064.txt Node
Date: Thu Jul 18 14:00:10 EDT 2019
User: cochatt
Spectrometer: HR+D1059
Trigger mode: 1
Integration Time (sec): 1.000000E-1
Scans to average: 1
Electric dark correction enabled: true
Nonlinearity correction enabled: false
Boxcar width: 0
XAxis mode: Wavelengths
Number of Pixels in Spectrum: 2048
>>>>>Begin Spectral Data<<<<<
223.165	-13.38
223.4	-13.38
223.635	-13.38
223.869	-24.38
224.104	-15.38
224.338	-7.38
224.573	-18.38
224.808	-15.38
225.042	3.62
225.277	6.62
225.511	-7.38
225.746	7.62
225.98	4.62
226.215	0.62
226.449	19.62
226.683	17.62
226.918	14.62
227.152	26.62
227.387	38.62
227.621	52.62
227.856	48.62
228.09	41.62
228.324	65.62
228.559	56.62
228.793	73.62
229.027	107.62
229.262	107.62
229.496	120.62
229.73	140.62
229.964	140.62
230.199	123.62
230.433	116.62
230.667	118.62
230.901	130.62
231.136	115.62
231.37	125.62
231.604	116.62
231.838	118.62
232.072	126.62
232.306	123.62
232.541	118.62
232.775	128.62
233.009	117.62
233.243	118.62
233.477	103.62
233.711	121.62
233.945	117.62
234.179	116.62
234.413	132.62
234.647	119.62
234.881	120.62
235.115	137.62
235.349	123.62
235.583	137.62
235.817	136.62
236.051	155.62
236.285	129.62
236.519	125.62
236.753	138.62
236.987	153.62
237.221	172.62
237.455	224.62
237.689	173.62
237.922	169.62
238.156	144.62
238.39	138.62
238.624	130.62
238.858	125.62
239.091	124.62
239.325	134.62
239.559	145.62
239.793	129.62
240.027	154.62
240.26	163.62
240.494	155.62
240.728	166.62
240.961	158.62
241.195	164.62
241.429	153.62
241.662	151.62
241.896	158.62
242.13	171.62
242.363	158.62
242.597	159.62
242.83	153.62
243.064	159.62
243.298	163.62
243.531	160.62
243.765	152.62
243.998	154.62
244.232	153.62
244.465	160.62
244.699	166.62
244.932	166.62
245.166	171.62
245.399	159.62
245.633	182.62
245.866	164.62
246.099	158.62
246.333	162.62
246.566	173.62
246.8	171.62
247.033	175.62
247.266	167.62
247.5	188.62
247.733	202.62
247.966	187.62
248.2	190.62
248.433	186.62
248.666	196.62
248.899	209.62
249.133	209.62
249.366	220.62
249.599	207.62
249.832	198.62
250.066	215.62
250.299	208.62
250.532	212.62
250.765	226.62
250.998	246.62
251.231	253.62
251.465	242.62
251.698	208.62
251.931	218.62
252.164	223.62
252.397	237.62
252.63	216.62
252.863	215.62
253.096	240.62
253.329	254.62
253.562	258.62
253.795	236.62
254.028	245.62
254.261	228.62
254.494	237.62
254.727	283.62
254.96	286.62
255.193	280.62
255.426	264.62
255.659	250.62
255.892	266.62
256.124	247.62
256.357	253.62
256.59	219.62
256.823	227.62
257.056	244.62
257.289	235.62
257.521	231.62
257.754	211.62
257.987	226.62
258.22	228.62
258.452	239.62
258.685	243.62
258.918	244.62
259.151	239.62
259.383	242.62
259.616	238.62
259.849	258.62
260.081	274.62
260.314	280.62
260.547	287.62
260.779	286.62
261.012	251.62
261.244	248.62
261.477	263.62
261.71	253.62
261.942	252.62
262.175	263.62
262.407	266.62
262.64	256.62
262.872	242.62
263.105	244.62
263.337	250.62
263.57	253.62
263.802	253.62
264.035	256.62
264.267	237.62
264.499	232.62
264.732	262.62
264.964	247.62
265.197	252.62
265.429	252.62
265.661	248.62
265.894	271.62
266.126	265.62
266.358	244.62
266.591	274.62
266.823	276.62
267.055	241.62
267.287	278.62
267.52	264.62
267.752	263.62
267.984	258.62
268.216	286.62
268.448	271.62
268.681	267.62
268.913	308.62
269.145	282.62
269.377	317.62
269.609	303.62
269.841	297.62
270.073	326.62
270.306	318.62
270.538	349.62
270.77	351.62
271.002	330.62
271.234	325.62
271.466	318.62
271.698	326.62
271.93	341.62
272.162	346.62
272.394	344.62
272.626	326.62
272.858	325.62
273.09	314.62
273.322	307.62
273.553	296.62
273.785	298.62
274.017	306.62
274.249	303.62
274.481	314.62
274.713	306.62
274.945	322.62
275.176	318.62
275.408	308.62
275.64	319.62
275.872	311.62
276.104	319.62
276.335	318.62
276.567	334.62
276.799	324.62
277.031	364.62
277.262	354.62
277.494	351.62
277.726	341.62
277.957	319.62
278.189	310.62
278.421	329.62
278.652	320.62
278.884	324.62
279.115	331.62
279.347	315.62
279.579	311.62
279.81	330.62
280.042	342.62
280.273	349.62
280.505	322.62
280.736	331.62
280.968	326.62
281.199	323.62
281.431	324.62
281.662	324.62
281.894	319.62
282.125	350.62
282.356	354.62
282.588	350.62
282.819	343.62
283.051	334.62
283.282	336.62
283.513	342.62
283.745	347.62
283.976	322.62
284.207	346.62
284.439	347.62
284.67	355.62
284.901	343.62
285.132	362.62
285.364	358.62
285.595	353.62
285.826	352.62
286.057	356.62
286.288	332.62
286.52	346.62
286.751	354.62
286.982	342.62
287.213	356.62
287.444	342.62
287.675	379.62
287.906	370.62
288.138	366.62
288.369	399.62
288.6	383.62
288.831	372.62
289.062	358.62
289.293	357.62
289.524	374.62
289.755	365.62
289.986	364.62
290.217	363.62
290.448	366.62
290.679	370.62
290.91	372.62
291.141	368.62
291.371	365.62
291.602	384.62
291.833	376.62
292.064	374.62
292.295	386.62
292.526	370.62
292.757	385.62
292.987	383.62
293.218	371.62
293.449	366.62
293.68	364.62
293.91	382.62
294.141	356.62
294.372	352.62
294.603	375.62
294.833	397.62
295.064	382.62
295.295	382.62
295.525	382.62
295.756	383.62
295.987	390.62
296.217	384.62
296.448	399.62
296.679	381.62
296.909	355.62
297.14	386.62
297.37	395.62
297.601	384.62
297.831	404.62
298.062	384.62
298.292	400.62
298.523	392.62
298.753	410.62
298.984	383.62
299.214	392.62
299.445	396.62
299.675	394.62
299.905	402.62
300.136	407.62
300.366	426.62
300.597	429.62
300.827	421.62
301.057	416.62
301.288	437.62
301.518	434.62
301.748	431.62
301.979	427.62
302.209	439.62
302.439	421.62
302.669	443.62
302.9	423.62
303.13	441.62
303.36	420.62
303.59	430.62
303.82	452.62
304.051	443.62
304.281	427.62
304.511	427.62
304.741	448.62
304.971	421.62
305.201	429.62
305.431	412.62
305.661	431.62
305.891	425.62
306.121	430.62
306.352	418.62
306.582	438.62
306.812	416.62
307.042	420.62
307.272	419.62
307.502	408.62
307.731	439.62
307.961	441.62
308.191	412.62
308.421	446.62
308.651	422.62
308.881	436.62
309.111	420.62
309.341	428.62
309.571	434.62
309.8	442.62
310.03	438.62
310.26	439.62
310.49	458.62
310.72	463.62
310.949	470.62
311.179	498.62
311.409	475.62
311.639	462.62
311.868	454.62
312.098	472.62
312.328	489.62
312.557	463.62
312.787	479.62
313.017	469.62
313.246	469.62
313.476	467.62
313.706	456.62
313.935	465.62
314.165	471.62
314.394	471.62
314.624	500.62
314.853	466.62
315.083	487.62
315.312	487.62
315.542	477.62
315.771	470.62
316.001	458.62
316.23	490.62
316.46	477.62
316.689	478.62
316.919	452.62
317.148	478.62
317.377	487.62
317.607	472.62
317.836	464.62
318.065	455.62
318.295	445.62
318.524	462.62
318.753	478.62
318.983	492.62
319.212	474.62
319.441	462.62
319.67	471.62
319.9	512.62
320.129	467.62
320.358	472.62
320.587	468.62
320.816	462.62
321.046	485.62
321.275	489.62
321.504	479.62
321.733	485.62
321.962	492.62
322.191	488.62
322.42	504.62
322.649	522.62
322.878	516.62
323.108	534.62
323.337	545.62
323.566	556.62
323.795	592.62
324.024	617.62
324.253	688.62
324.482	896.62
324.71	1296.62
324.939	1856.62
325.168	1655.62
325.397	912.62
325.626	694.62
325.855	603.62
326.084	569.62
326.313	562.62
326.542	567.62
326.77	616.62
326.999	676.62
327.228	846.62
327.457	1179.62
327.686	1476.62
327.914	992.62
328.143	731.62
328.372	672.62
328.6	652.62
328.829	589.62
329.058	617.62
329.287	640.62
329.515	614.62
329.744	580.62
329.972	579.62
330.201	608.62
330.43	627.62
330.658	632.62
330.887	657.62
331.115	687.62
331.344	607.62
331.572	584.62
331.801	606.62
332.03	606.62
332.258	597.62
332.486	597.62
332.715	587.62
332.943	598.62
333.172	602.62
333.4	633.62
333.629	633.62
333.857	669.62
334.085	680.62
334.314	662.62
334.542	674.62
334.771	702.62
334.999	654.62
335.227	637.62
335.455	620.62
335.684	624.62
335.912	596.62
336.14	591.62
336.369	568.62
336.597	611.62
336.825	606.62
337.053	584.62
337.281	576.62
337.51	563.62
337.738	565.62
337.966	558.62
338.194	566.62
338.422	566.62
338.65	581.62
338.878	563.62
339.106	568.62
339.334	590.62
339.562	549.62
339.79	529.62
340.018	542.62
340.246	536.62
340.474	528.62
340.702	564.62
340.93	545.62
341.158	559.62
341.386	544.62
341.614	539.62
341.842	569.62
342.07	519.62
342.298	534.62
342.526	543.62
342.754	573.62
342.981	526.62
343.209	558.62
343.437	578.62
343.665	551.62
343.893	623.62
344.12	622.62
344.348	611.62
344.576	590.62
344.804	586.62
345.031	563.62
345.259	569.62
345.487	572.62
345.714	552.62
345.942	554.62
346.17	527.62
346.397	511.62
346.625	506.62
346.853	523.62
347.08	509.62
347.308	519.62
347.535	508.62
347.763	536.62
347.99	540.62
348.218	534.62
348.445	539.62
348.673	537.62
348.9	530.62
349.128	516.62
349.355	494.62
349.583	517.62
349.81	503.62
350.037	509.62
350.265	521.62
350.492	507.62
350.72	517.62
350.947	524.62
351.174	491.62
351.402	519.62
351.629	505.62
351.856	539.62
352.083	532.62
352.311	538.62
352.538	530.62
352.765	522.62
352.992	528.62
353.22	512.62
353.447	500.62
353.674	507.62
353.901	516.62
354.128	502.62
354.355	508.62
354.583	469.62
354.81	504.62
355.037	512.62
355.264	515.62
355.491	483.62
355.718	500.62
355.945	484.62
356.172	506.62
356.399	500.62
356.626	495.62
356.853	501.62
357.08	492.62
357.307	498.62
357.534	479.62
357.761	498.62
357.988	512.62
358.215	510.62
358.441	492.62
358.668	504.62
358.895	520.62
359.122	529.62
359.349	499.62
359.576	531.62
359.802	527.62
360.029	565.62
360.256	557.62
360.483	546.62
360.709	519.62
360.936	534.62
361.163	520.62
361.39	521.62
361.616	533.62
361.843	527.62
362.07	519.62
362.296	527.62
362.523	528.62
362.749	524.62
362.976	510.62
363.203	521.62
363.429	515.62
363.656	508.62
363.882	524.62
364.109	521.62
364.335	503.62
364.562	489.62
364.788	527.62
365.015	488.62
365.241	518.62
365.468	515.62
365.694	512.62
365.92	528.62
366.147	512.62
366.373	527.62
366.599	489.62
366.826	498.62
367.052	522.62
367.278	531.62
367.505	514.62
367.731	540.62
367.957	499.62
368.184	519.62
368.41	537.62
368.636	534.62
368.862	518.62
369.089	520.62
369.315	501.62
369.541	507.62
369.767	520.62
369.993	522.62
370.219	520.62
370.445	522.62
370.672	528.62
370.898	508.62
371.124	523.62
371.35	528.62
371.576	537.62
371.802	540.62
372.028	534.62
372.254	536.62
372.48	531.62
372.706	553.62
372.932	567.62
373.158	545.62
373.384	535.62
373.61	501.62
373.835	529.62
374.061	518.62
374.287	539.62
374.513	541.62
374.739	548.62
374.965	562.62
375.191	566.62
375.416	538.62
375.642	534.62
375.868	541.62
376.094	535.62
376.319	508.62
376.545	502.62
376.771	528.62
376.997	538.62
377.222	555.62
377.448	532.62
377.674	510.62
377.899	495.62
378.125	518.62
378.35	541.62
378.576	517.62
378.802	510.62
379.027	531.62
379.253	536.62
379.478	518.62
379.704	504.62
379.929	529.62
380.155	533.62
380.38	532.62
380.606	535.62
380.831	510.62
381.057	530.62
381.282	532.62
381.507	542.62
381.733	543.62
381.958	532.62
382.184	551.62
382.409	551.62
382.634	543.62
382.86	546.62
383.085	534.62
383.31	555.62
383.535	559.62
383.761	575.62
383.986	587.62
384.211	576.62
384.436	606.62
384.662	606.62
384.887	603.62
385.112	594.62
385.337	582.62
385.562	605.62
385.787	602.62
386.013	648.62
386.238	621.62
386.463	607.62
386.688	615.62
386.913	595.62
387.138	582.62
387.363	618.62
387.588	617.62
387.813	603.62
388.038	604.62
388.263	609.62
388.488	638.62
388.713	596.62
388.938	623.62
389.163	599.62
389.387	625.62
389.612	555.62
389.837	608.62
390.062	584.62
390.287	594.62
390.512	610.62
390.736	591.62
390.961	614.62
391.186	616.62
391.411	599.62
391.636	635.62
391.86	652.62
392.085	666.62
392.31	667.62
392.534	654.62
392.759	657.62
392.984	648.62
393.208	620.62
393.433	633.62
393.658	639.62
393.882	636.62
394.107	625.62
394.331	628.62
394.556	626.62
394.78	644.62
395.005	649.62
395.229	619.62
395.454	634.62
395.678	654.62
395.903	639.62
396.127	662.62
396.352	667.62
396.576	636.62
396.801	648.62
397.025	650.62
397.249	666.62
397.474	664.62
397.698	662.62
397.922	656.62
398.147	692.62
398.371	699.62
398.595	698.62
398.82	706.62
399.044	758.62
399.268	826.62
399.492	874.62
399.717	962.62
399.941	983.62
400.165	964.62
400.389	908.62
400.613	820.62
400.837	758.62
401.062	764.62
401.286	758.62
401.51	714.62
401.734	745.62
401.958	716.62
402.182	732.62
402.406	750.62
402.63	768.62
402.854	780.62
403.078	760.62
403.302	781.62
403.526	818.62
403.75	792.62
403.974	790.62
404.198	812.62
404.422	795.62
404.645	788.62
404.869	807.62
405.093	833.62
405.317	866.62
405.541	902.62
405.765	839.62
405.988	788.62
406.212	802.62
406.436	842.62
406.66	852.62
406.883	840.62
407.107	864.62
407.331	916.62
407.555	983.62
407.778	978.62
408.002	912.62
408.226	860.62
408.449	844.62
408.673	855.62
408.896	843.62
409.12	882.62
409.344	864.62
409.567	801.62
409.791	786.62
410.014	766.62
410.238	792.62
410.461	731.62
410.685	772.62
410.908	769.62
411.132	779.62
411.355	823.62
411.578	792.62
411.802	744.62
412.025	760.62
412.249	767.62
412.472	773.62
412.695	812.62
412.919	794.62
413.142	758.62
413.365	746.62
413.589	774.62
413.812	722.62
414.035	750.62
414.258	720.62
414.482	704.62
414.705	716.62
414.928	702.62
415.151	738.62
415.374	722.62
415.597	706.62
415.821	700.62
416.044	700.62
416.267	705.62
416.49	726.62
416.713	699.62
416.936	710.62
417.159	714.62
417.382	714.62
417.605	731.62
417.828	734.62
418.051	746.62
418.274	746.62
418.497	746.62
418.72	721.62
418.943	747.62
419.166	750.62
419.389	789.62
419.611	789.62
419.834	767.62
420.057	768.62
420.28	768.62
420.503	757.62
420.726	714.62
420.948	713.62
421.171	798.62
421.394	796.62
421.617	769.62
421.839	726.62
422.062	749.62
422.285	724.62
422.507	818.62
422.73	858.62
422.953	833.62
423.175	786.62
423.398	783.62
423.621	774.62
423.843	790.62
424.066	773.62
424.288	805.62
424.511	800.62
424.733	833.62
424.956	906.62
425.178	872.62
425.401	865.62
425.623	884.62
425.846	780.62
426.068	747.62
426.291	751.62
426.513	742.62
426.735	744.62
426.958	791.62
427.18	841.62
427.402	949.62
427.625	1021.62
427.847	910.62
428.069	820.62
428.292	782.62
428.514	721.62
428.736	709.62
428.958	667.62
429.181	705.62
429.403	676.62
429.625	699.62
429.847	706.62
430.069	755.62
430.292	762.62
430.514	697.62
430.736	692.62
430.958	676.62
431.18	670.62
431.402	683.62
431.624	643.62
431.846	666.62
432.068	668.62
432.29	665.62
432.512	669.62
432.734	663.62
432.956	672.62
433.178	666.62
433.4	686.62
433.622	664.62
433.844	690.62
434.066	664.62
434.287	665.62
434.509	717.62
434.731	705.62
434.953	724.62
435.175	729.62
435.397	756.62
435.618	735.62
435.84	780.62
436.062	854.62
436.284	899.62
436.505	772.62
436.727	738.62
436.949	693.62
437.17	674.62
437.392	719.62
437.614	699.62
437.835	721.62
438.057	785.62
438.278	884.62
438.5	877.62
438.721	958.62
438.943	896.62
439.165	775.62
439.386	741.62
439.608	731.62
439.829	731.62
440.05	755.62
440.272	767.62
440.493	756.62
440.715	698.62
440.936	700.62
441.158	702.62
441.379	708.62
441.6	721.62
441.822	772.62
442.043	794.62
442.264	849.62
442.486	886.62
442.707	801.62
442.928	770.62
443.149	748.62
443.371	791.62
443.592	820.62
443.813	920.62
444.034	972.62
444.255	858.62
444.476	822.62
444.698	830.62
444.919	848.62
445.14	900.62
445.361	845.62
445.582	807.62
445.803	835.62
446.024	903.62
446.245	889.62
446.466	842.62
446.687	775.62
446.908	716.62
447.129	707.62
447.35	695.62
447.571	682.62
447.792	666.62
448.013	678.62
448.234	683.62
448.455	697.62
448.675	788.62
448.896	906.62
449.117	766.62
449.338	756.62
449.559	861.62
449.779	939.62
450	790.62
450.221	708.62
450.442	676.62
450.662	653.62
450.883	664.62
451.104	670.62
451.324	661.62
451.545	645.62
451.766	634.62
451.986	582.62
452.207	618.62
452.428	628.62
452.648	603.62
452.869	624.62
453.089	632.62
453.31	618.62
453.53	606.62
453.751	624.62
453.971	615.62
454.192	623.62
454.412	603.62
454.633	610.62
454.853	616.62
455.073	587.62
455.294	636.62
455.514	679.62
455.734	646.62
455.955	597.62
456.175	593.62
456.395	593.62
456.616	585.62
456.836	567.62
457.056	581.62
457.276	577.62
457.497	580.62
457.717	581.62
457.937	604.62
458.157	584.62
458.377	590.62
458.598	630.62
458.818	668.62
459.038	742.62
459.258	750.62
459.478	696.62
459.698	670.62
459.918	694.62
460.138	730.62
460.358	720.62
460.578	710.62
460.798	745.62
461.018	747.62
461.238	720.62
461.458	705.62
461.678	718.62
461.898	735.62
462.118	740.62
462.338	784.62
462.558	789.62
462.777	827.62
462.997	850.62
463.217	902.62
463.437	899.62
463.657	834.62
463.876	792.62
464.096	815.62
464.316	826.62
464.536	808.62
464.755	810.62
464.975	790.62
465.195	801.62
465.414	820.62
465.634	761.62
465.854	714.62
466.073	702.62
466.293	694.62
466.512	671.62
466.732	650.62
466.951	644.62
467.171	646.62
467.391	642.62
467.61	656.62
467.829	662.62
468.049	680.62
468.268	641.62
468.488	636.62
468.707	620.62
468.927	622.62
469.146	622.62
469.365	639.62
469.585	599.62
469.804	660.62
470.023	678.62
470.243	668.62
470.462	669.62
470.681	679.62
470.901	695.62
471.12	670.62
471.339	654.62
471.558	657.62
471.777	655.62
471.997	654.62
472.216	652.62
472.435	676.62
472.654	674.62
472.873	643.62
473.092	630.62
473.311	617.62
473.53	628.62
473.749	628.62
473.968	684.62
474.187	732.62
474.406	750.62
474.625	666.62
474.844	646.62
475.063	638.62
475.282	635.62
475.501	642.62
475.72	617.62
475.939	635.62
476.158	655.62
476.377	662.62
476.596	638.62
476.814	665.62
477.033	670.62
477.252	682.62
477.471	675.62
477.69	674.62
477.908	698.62
478.127	701.62
478.346	717.62
478.564	736.62
478.783	757.62
479.002	769.62
479.22	750.62
479.439	794.62
479.658	782.62
479.876	773.62
480.095	794.62
480.313	842.62
480.532	842.62
480.751	827.62
480.969	822.62
481.188	851.62
481.406	879.62
481.624	808.62
481.843	764.62
482.061	751.62
482.28	767.62
482.498	742.62
482.717	725.62
482.935	751.62
483.153	729.62
483.372	724.62
483.59	726.62
483.808	738.62
484.027	759.62
484.245	732.62
484.463	739.62
484.681	751.62
484.9	759.62
485.118	749.62
485.336	784.62
485.554	778.62
485.772	795.62
485.99	784.62
486.209	784.62
486.427	743.62
486.645	804.62
486.863	823.62
487.081	785.62
487.299	788.62
487.517	763.62
487.735	776.62
487.953	811.62
488.171	792.62
488.389	782.62
488.607	789.62
488.825	816.62
489.043	787.62
489.261	799.62
489.479	792.62
489.696	785.62
489.914	786.62
490.132	806.62
490.35	826.62
490.568	821.62
490.786	837.62
491.003	830.62
491.221	823.62
491.439	862.62
491.657	866.62
491.874	879.62
492.092	889.62
492.31	890.62
492.527	891.62
492.745	900.62
492.963	891.62
493.18	888.62
493.398	932.62
493.615	906.62
493.833	910.62
494.05	916.62
494.268	916.62
494.485	922.62
494.703	927.62
494.92	924.62
495.138	922.62
495.355	922.62
495.573	918.62
495.79	948.62
496.008	909.62
496.225	916.62
496.442	948.62
496.66	937.62
496.877	954.62
497.094	931.62
497.312	963.62
497.529	1015.62
497.746	1014.62
497.963	1028.62
498.181	1046.62
498.398	1084.62
498.615	1104.62
498.832	1187.62
499.049	1198.62
499.267	1324.62
499.484	1360.62
499.701	1438.62
499.918	1534.62
500.135	1708.62
500.352	1828.62
500.569	1875.62
500.786	1888.62
501.003	1818.62
501.22	1668.62
501.437	1542.62
501.654	1450.62
501.871	1367.62
502.088	1280.62
502.305	1222.62
502.522	1160.62
502.739	1123.62
502.956	1070.62
503.172	1048.62
503.389	1022.62
503.606	1027.62
503.823	1008.62
504.04	1012.62
504.256	982.62
504.473	1000.62
504.69	1017.62
504.907	984.62
505.123	938.62
505.34	927.62
505.557	899.62
505.773	897.62
505.99	900.62
506.207	880.62
506.423	889.62
506.64	907.62
506.856	894.62
507.073	870.62
507.289	861.62
507.506	855.62
507.722	847.62
507.939	869.62
508.155	861.62
508.372	809.62
508.588	803.62
508.805	811.62
509.021	822.62
509.238	818.62
509.454	831.62
509.67	827.62
509.887	788.62
510.103	805.62
510.319	818.62
510.536	866.62
510.752	1292.62
510.968	1095.62
511.184	784.62
511.401	759.62
511.617	775.62
511.833	757.62
512.049	764.62
512.265	766.62
512.481	774.62
512.698	765.62
512.914	744.62
513.13	754.62
513.346	728.62
513.562	731.62
513.778	749.62
513.994	784.62
514.21	789.62
514.426	803.62
514.642	807.62
514.858	818.62
515.074	882.62
515.29	970.62
515.506	1304.62
515.721	1158.62
515.937	904.62
516.153	837.62
516.369	803.62
516.585	847.62
516.801	839.62
517.016	859.62
517.232	896.62
517.448	896.62
517.664	916.62
517.879	923.62
518.095	924.62
518.311	920.62
518.527	906.62
518.742	870.62
518.958	856.62
519.173	831.62
519.389	809.62
519.605	798.62
519.82	784.62
520.036	806.62
520.251	814.62
520.467	836.62
520.682	805.62
520.898	806.62
521.113	802.62
521.329	804.62
521.544	891.62
521.76	1045.62
521.975	1544.62
522.19	1594.62
522.406	975.62
522.621	785.62
522.836	742.62
523.052	730.62
523.267	721.62
523.482	692.62
523.698	683.62
523.913	698.62
524.128	713.62
524.343	675.62
524.559	694.62
524.774	653.62
524.989	659.62
525.204	679.62
525.419	701.62
525.634	648.62
525.849	672.62
526.064	655.62
526.28	666.62
526.495	669.62
526.71	657.62
526.925	658.62
527.14	628.62
527.355	627.62
527.57	652.62
527.785	621.62
527.999	638.62
528.214	636.62
528.429	667.62
528.644	646.62
528.859	645.62
529.074	632.62
529.289	663.62
529.503	713.62
529.718	692.62
529.933	670.62
530.148	622.62
530.363	635.62
530.577	627.62
530.792	637.62
531.007	619.62
531.221	643.62
531.436	649.62
531.651	650.62
531.865	649.62
532.08	623.62
532.295	624.62
532.509	649.62
532.724	655.62
532.938	630.62
533.153	637.62
533.367	623.62
533.582	631.62
533.796	623.62
534.011	620.62
534.225	624.62
534.44	628.62
534.654	622.62
534.868	618.62
535.083	617.62
535.297	626.62
535.511	632.62
535.726	629.62
535.94	628.62
536.154	638.62
536.369	621.62
536.583	605.62
536.797	598.62
537.011	600.62
537.225	592.62
537.44	611.62
537.654	612.62
537.868	602.62
538.082	585.62
538.296	606.62
538.51	603.62
538.724	596.62
538.938	573.62
539.153	586.62
539.367	600.62
539.581	602.62
539.795	599.62
540.009	596.62
540.222	587.62
540.436	588.62
540.65	602.62
540.864	582.62
541.078	586.62
541.292	602.62
541.506	578.62
541.72	579.62
541.934	585.62
542.147	574.62
542.361	577.62
542.575	584.62
542.789	571.62
543.002	590.62
543.216	574.62
543.43	604.62
543.644	589.62
543.857	573.62
544.071	583.62
544.285	578.62
544.498	583.62
544.712	590.62
544.925	592.62
545.139	593.62
545.352	575.62
545.566	574.62
545.779	576.62
545.993	620.62
546.206	588.62
546.42	589.62
546.633	614.62
546.847	565.62
547.06	598.62
547.274	590.62
547.487	594.62
547.7	584.62
547.914	598.62
548.127	580.62
548.34	607.62
548.554	597.62
548.767	600.62
548.98	600.62
549.193	583.62
549.407	608.62
549.62	580.62
549.833	605.62
550.046	601.62
550.259	575.62
550.473	574.62
550.686	587.62
550.899	581.62
551.112	574.62
551.325	564.62
551.538	576.62
551.751	595.62
551.964	589.62
552.177	609.62
552.39	606.62
552.603	623.62
552.816	616.62
553.029	616.62
553.242	611.62
553.455	634.62
553.667	620.62
553.88	649.62
554.093	618.62
554.306	576.62
554.519	590.62
554.732	580.62
554.944	573.62
555.157	587.62
555.37	550.62
555.583	564.62
555.795	564.62
556.008	573.62
556.221	548.62
556.433	537.62
556.646	540.62
556.859	528.62
557.071	534.62
557.284	518.62
557.496	525.62
557.709	530.62
557.921	505.62
558.134	492.62
558.346	529.62
558.559	528.62
558.771	518.62
558.984	497.62
559.196	490.62
559.409	508.62
559.621	505.62
559.833	506.62
560.046	490.62
560.258	498.62
560.47	504.62
560.683	507.62
560.895	511.62
561.107	516.62
561.32	509.62
561.532	507.62
561.744	492.62
561.956	500.62
562.168	528.62
562.381	513.62
562.593	506.62
562.805	510.62
563.017	501.62
563.229	478.62
563.441	508.62
563.653	523.62
563.865	522.62
564.077	513.62
564.289	510.62
564.501	546.62
564.713	556.62
564.925	562.62
565.137	573.62
565.349	554.62
565.561	559.62
565.773	600.62
565.985	623.62
566.197	619.62
566.408	691.62
566.62	719.62
566.832	757.62
567.044	739.62
567.255	754.62
567.467	786.62
567.679	785.62
567.891	838.62
568.102	850.62
568.314	827.62
568.526	741.62
568.737	716.62
568.949	663.62
569.161	646.62
569.372	604.62
569.584	590.62
569.795	568.62
570.007	582.62
570.218	593.62
570.43	564.62
570.641	535.62
570.853	530.62
571.064	547.62
571.276	538.62
571.487	529.62
571.698	520.62
571.91	488.62
572.121	484.62
572.333	459.62
572.544	457.62
572.755	473.62
572.966	440.62
573.178	463.62
573.389	438.62
573.6	459.62
573.811	437.62
574.023	448.62
574.234	431.62
574.445	433.62
574.656	444.62
574.867	451.62
575.078	455.62
575.289	453.62
575.501	444.62
575.712	434.62
575.923	425.62
576.134	419.62
576.345	428.62
576.556	430.62
576.767	437.62
576.978	432.62
577.188	420.62
577.399	414.62
577.61	419.62
577.821	436.62
578.032	422.62
578.243	427.62
578.454	605.62
578.665	529.62
578.875	407.62
579.086	405.62
579.297	428.62
579.508	400.62
579.718	406.62
579.929	405.62
580.14	406.62
580.35	386.62
580.561	406.62
580.772	408.62
580.982	411.62
581.193	383.62
581.403	382.62
581.614	396.62
581.825	388.62
582.035	388.62
582.246	384.62
582.456	390.62
582.667	395.62
582.877	415.62
583.087	386.62
583.298	380.62
583.508	389.62
583.719	386.62
583.929	401.62
584.139	382.62
584.35	381.62
584.56	394.62
584.77	392.62
584.981	401.62
585.191	380.62
585.401	378.62
585.611	384.62
585.821	370.62
586.032	381.62
586.242	366.62
586.452	388.62
586.662	394.62
586.872	363.62
587.082	377.62
587.292	372.62
587.502	392.62
587.713	382.62
587.923	376.62
588.133	379.62
588.343	371.62
588.553	368.62
588.762	370.62
588.972	374.62
589.182	375.62
589.392	377.62
589.602	365.62
589.812	384.62
590.022	394.62
590.232	393.62
590.441	396.62
590.651	379.62
590.861	376.62
591.071	379.62
591.281	381.62
591.49	377.62
591.7	395.62
591.91	400.62
592.119	398.62
592.329	424.62
592.539	421.62
592.748	424.62
592.958	434.62
593.167	439.62
593.377	442.62
593.587	483.62
593.796	454.62
594.006	454.62
594.215	448.62
594.424	464.62
594.634	448.62
594.843	453.62
595.053	437.62
595.262	423.62
595.472	404.62
595.681	397.62
595.89	393.62
596.1	389.62
596.309	376.62
596.518	374.62
596.727	364.62
596.937	360.62
597.146	366.62
597.355	346.62
597.564	351.62
597.774	348.62
597.983	357.62
598.192	336.62
598.401	334.62
598.61	350.62
598.819	345.62
599.028	344.62
599.237	331.62
599.446	342.62
599.655	350.62
599.864	329.62
600.073	316.62
600.282	355.62
600.491	327.62
600.7	327.62
600.909	329.62
601.118	329.62
601.327	339.62
601.536	328.62
601.745	324.62
601.953	320.62
602.162	333.62
602.371	330.62
602.58	320.62
602.789	329.62
602.997	312.62
603.206	315.62
603.415	318.62
603.623	314.62
603.832	320.62
604.041	323.62
604.249	313.62
604.458	326.62
604.666	301.62
604.875	308.62
605.084	319.62
605.292	321.62
605.501	300.62
605.709	295.62
605.918	295.62
606.126	286.62
606.334	300.62
606.543	309.62
606.751	310.62
606.96	300.62
607.168	308.62
607.376	297.62
607.585	287.62
607.793	291.62
608.001	302.62
608.21	299.62
608.418	297.62
608.626	311.62
608.834	303.62
609.043	282.62
609.251	298.62
609.459	297.62
609.667	303.62
609.875	291.62
610.083	294.62
610.291	301.62
610.499	298.62
610.707	305.62
610.916	296.62
611.124	314.62
611.332	312.62
611.54	322.62
611.748	319.62
611.955	305.62
612.163	294.62
612.371	295.62
612.579	292.62
612.787	279.62
612.995	295.62
613.203	308.62
613.411	310.62
613.618	299.62
613.826	300.62
614.034	270.62
614.242	282.62
614.449	283.62
614.657	300.62
614.865	310.62
615.072	279.62
615.28	302.62
615.488	284.62
615.695	292.62
615.903	300.62
616.111	295.62
616.318	279.62
616.526	298.62
616.733	303.62
616.941	299.62
617.148	288.62
617.356	306.62
617.563	289.62
617.771	301.62
617.978	283.62
618.185	291.62
618.393	291.62
618.6	299.62
618.807	304.62
619.015	300.62
619.222	303.62
619.429	298.62
619.637	292.62
619.844	293.62
620.051	274.62
620.258	278.62
620.466	271.62
620.673	255.62
620.88	276.62
621.087	267.62
621.294	285.62
621.501	281.62
621.708	278.62
621.915	281.62
622.122	270.62
622.329	272.62
622.536	285.62
622.743	279.62
622.95	272.62
623.157	264.62
623.364	277.62
623.571	277.62
623.778	285.62
623.985	260.62
624.192	260.62
624.399	254.62
624.606	262.62
624.812	258.62
625.019	279.62
625.226	252.62
625.433	271.62
625.639	268.62
625.846	254.62
626.053	242.62
626.259	253.62
626.466	248.62
626.673	252.62
626.879	242.62
627.086	260.62
627.293	252.62
627.499	247.62
627.706	274.62
627.912	247.62
628.119	247.62
628.325	262.62
628.532	255.62
628.738	248.62
628.945	238.62
629.151	254.62
629.357	243.62
629.564	257.62
629.77	248.62
629.976	226.62
630.183	254.62
630.389	237.62
630.595	236.62
630.802	241.62
631.008	245.62
631.214	248.62
631.42	247.62
631.627	267.62
631.833	243.62
632.039	221.62
632.245	232.62
632.451	231.62
632.657	238.62
632.863	217.62
633.069	234.62
633.275	242.62
633.481	241.62
633.688	224.62
633.893	230.62
634.099	242.62
634.305	234.62
634.511	210.62
634.717	221.62
634.923	216.62
635.129	212.62
635.335	225.62
635.541	216.62
635.747	212.62
635.952	215.62
636.158	205.62
636.364	205.62
636.57	219.62
636.775	230.62
636.981	230.62
637.187	214.62
637.392	201.62
637.598	204.62
637.804	221.62
638.009	219.62
638.215	239.62
638.421	216.62
638.626	209.62
638.832	210.62
639.037	218.62
639.243	222.62
639.448	208.62
639.654	218.62
639.859	211.62
640.065	202.62
640.27	204.62
640.475	200.62
640.681	206.62
640.886	218.62
641.091	200.62
641.297	223.62
641.502	214.62
641.707	224.62
641.913	204.62
642.118	207.62
642.323	197.62
642.528	220.62
642.733	193.62
642.939	213.62
643.144	206.62
643.349	195.62
643.554	207.62
643.759	203.62
643.964	196.62
644.169	195.62
644.374	198.62
644.579	213.62
644.784	218.62
644.989	197.62
645.194	199.62
645.399	208.62
645.604	206.62
645.809	210.62
646.014	194.62
646.219	189.62
646.423	201.62
646.628	213.62
646.833	191.62
647.038	204.62
647.243	206.62
647.447	200.62
647.652	207.62
647.857	201.62
648.062	215.62
648.266	197.62
648.471	195.62
648.676	214.62
648.88	208.62
649.085	200.62
649.289	193.62
649.494	201.62
649.698	224.62
649.903	198.62
650.107	195.62
650.312	200.62
650.516	180.62
650.721	182.62
650.925	182.62
651.13	182.62
651.334	169.62
651.539	176.62
651.743	178.62
651.947	188.62
652.152	158.62
652.356	172.62
652.56	155.62
652.764	149.62
652.969	172.62
653.173	182.62
653.377	161.62
653.581	165.62
653.785	156.62
653.99	151.62
654.194	164.62
654.398	149.62
654.602	136.62
654.806	155.62
655.01	139.62
655.214	154.62
655.418	161.62
655.622	146.62
655.826	152.62
656.03	151.62
656.234	156.62
656.438	157.62
656.642	159.62
656.846	154.62
657.049	144.62
657.253	140.62
657.457	141.62
657.661	129.62
657.865	131.62
658.068	113.62
658.272	133.62
658.476	114.62
658.68	119.62
658.883	117.62
659.087	109.62
659.291	116.62
659.494	101.62
659.698	108.62
659.901	115.62
660.105	103.62
660.309	107.62
660.512	91.62
660.716	87.62
660.919	99.62
661.123	91.62
661.326	111.62
661.53	99.62
661.733	90.62
661.936	92.62
662.14	87.62
662.343	83.62
662.546	84.62
662.75	90.62
662.953	88.62
663.156	71.62
663.36	86.62
663.563	96.62
663.766	77.62
663.969	90.62
664.173	83.62
664.376	91.62
664.579	84.62
664.782	93.62
664.985	90.62
665.188	85.62
665.391	97.62
665.594	65.62
665.797	82.62
666	103.62
666.203	81.62
666.406	98.62
666.609	75.62
666.812	84.62
667.015	87.62
667.218	101.62
667.421	77.62
667.624	80.62
667.827	83.62
668.03	83.62
668.232	90.62
668.435	103.62
668.638	84.62
668.841	84.62
669.043	85.62
669.246	94.62
669.449	98.62
669.651	85.62
669.854	86.62
670.057	81.62
670.259	89.62
670.462	88.62
670.665	87.62
670.867	72.62
671.07	84.62
671.272	87.62
671.475	89.62
671.677	82.62
671.88	73.62
672.082	100.62
672.284	92.62
672.487	86.62
672.689	87.62
672.892	92.62
