Data from 1963.PennyLincolnUp.Lamp.En5.5.200Scan.071719.P1._HRD10591_13-58-47-063.txt Node
Date: Thu Jul 18 13:58:47 EDT 2019
User: cochatt
Spectrometer: HR+D1059
Trigger mode: 1
Integration Time (sec): 1.000000E-1
Scans to average: 1
Electric dark correction enabled: true
Nonlinearity correction enabled: false
Boxcar width: 0
XAxis mode: Wavelengths
Number of Pixels in Spectrum: 2048
>>>>>Begin Spectral Data<<<<<
223.165	-19.5
223.4	-19.5
223.635	-19.5
223.869	-15.5
224.104	-11.5
224.338	-13.5
224.573	-21.5
224.808	-2.5
225.042	-9.5
225.277	-5.5
225.511	-8.5
225.746	-1.5
225.98	8.5
226.215	17.5
226.449	16.5
226.683	13.5
226.918	36.5
227.152	16.5
227.387	20.5
227.621	27.5
227.856	44.5
228.09	41.5
228.324	35.5
228.559	36.5
228.793	64.5
229.027	94.5
229.262	112.5
229.496	107.5
229.73	116.5
229.964	117.5
230.199	119.5
230.433	107.5
230.667	106.5
230.901	115.5
231.136	126.5
231.37	114.5
231.604	105.5
231.838	122.5
232.072	108.5
232.306	122.5
232.541	119.5
232.775	109.5
233.009	124.5
233.243	103.5
233.477	114.5
233.711	117.5
233.945	115.5
234.179	124.5
234.413	120.5
234.647	118.5
234.881	124.5
235.115	123.5
235.349	121.5
235.583	124.5
235.817	120.5
236.051	124.5
236.285	125.5
236.519	122.5
236.753	120.5
236.987	137.5
237.221	159.5
237.455	211.5
237.689	181.5
237.922	135.5
238.156	144.5
238.39	142.5
238.624	134.5
238.858	138.5
239.091	131.5
239.325	134.5
239.559	131.5
239.793	143.5
240.027	131.5
240.26	146.5
240.494	154.5
240.728	143.5
240.961	156.5
241.195	153.5
241.429	156.5
241.662	150.5
241.896	145.5
242.13	160.5
242.363	146.5
242.597	167.5
242.83	171.5
243.064	149.5
243.298	152.5
243.531	158.5
243.765	160.5
243.998	162.5
244.232	140.5
244.465	154.5
244.699	164.5
244.932	169.5
245.166	182.5
245.399	166.5
245.633	152.5
245.866	170.5
246.099	166.5
246.333	163.5
246.566	164.5
246.8	174.5
247.033	180.5
247.266	176.5
247.5	172.5
247.733	190.5
247.966	196.5
248.2	173.5
248.433	192.5
248.666	197.5
248.899	198.5
249.133	196.5
249.366	211.5
249.599	216.5
249.832	185.5
250.066	192.5
250.299	181.5
250.532	198.5
250.765	211.5
250.998	200.5
251.231	231.5
251.465	233.5
251.698	222.5
251.931	227.5
252.164	216.5
252.397	211.5
252.63	203.5
252.863	221.5
253.096	227.5
253.329	235.5
253.562	242.5
253.795	232.5
254.028	221.5
254.261	236.5
254.494	233.5
254.727	256.5
254.96	275.5
255.193	273.5
255.426	254.5
255.659	235.5
255.892	233.5
256.124	242.5
256.357	251.5
256.59	222.5
256.823	221.5
257.056	211.5
257.289	229.5
257.521	236.5
257.754	230.5
257.987	226.5
258.22	213.5
258.452	222.5
258.685	237.5
258.918	219.5
259.151	246.5
259.383	238.5
259.616	248.5
259.849	254.5
260.081	244.5
260.314	259.5
260.547	252.5
260.779	269.5
261.012	261.5
261.244	259.5
261.477	260.5
261.71	253.5
261.942	243.5
262.175	252.5
262.407	242.5
262.64	217.5
262.872	244.5
263.105	229.5
263.337	242.5
263.57	240.5
263.802	259.5
264.035	236.5
264.267	245.5
264.499	218.5
264.732	224.5
264.964	228.5
265.197	248.5
265.429	250.5
265.661	239.5
265.894	242.5
266.126	252.5
266.358	260.5
266.591	244.5
266.823	243.5
267.055	269.5
267.287	256.5
267.52	248.5
267.752	248.5
267.984	241.5
268.216	268.5
268.448	266.5
268.681	274.5
268.913	282.5
269.145	289.5
269.377	280.5
269.609	285.5
269.841	278.5
270.073	289.5
270.306	291.5
270.538	334.5
270.77	330.5
271.002	325.5
271.234	312.5
271.466	314.5
271.698	329.5
271.93	331.5
272.162	318.5
272.394	328.5
272.626	324.5
272.858	323.5
273.09	308.5
273.322	309.5
273.553	304.5
273.785	297.5
274.017	290.5
274.249	293.5
274.481	300.5
274.713	314.5
274.945	298.5
275.176	284.5
275.408	293.5
275.64	298.5
275.872	291.5
276.104	290.5
276.335	294.5
276.567	313.5
276.799	327.5
277.031	328.5
277.262	325.5
277.494	347.5
277.726	329.5
277.957	316.5
278.189	301.5
278.421	300.5
278.652	317.5
278.884	328.5
279.115	323.5
279.347	298.5
279.579	314.5
279.81	307.5
280.042	328.5
280.273	310.5
280.505	301.5
280.736	316.5
280.968	329.5
281.199	308.5
281.431	328.5
281.662	313.5
281.894	325.5
282.125	327.5
282.356	317.5
282.588	340.5
282.819	345.5
283.051	321.5
283.282	324.5
283.513	327.5
283.745	329.5
283.976	339.5
284.207	338.5
284.439	317.5
284.67	324.5
284.901	323.5
285.132	348.5
285.364	361.5
285.595	328.5
285.826	324.5
286.057	347.5
286.288	345.5
286.52	333.5
286.751	351.5
286.982	340.5
287.213	333.5
287.444	338.5
287.675	342.5
287.906	359.5
288.138	349.5
288.369	381.5
288.6	373.5
288.831	357.5
289.062	363.5
289.293	374.5
289.524	343.5
289.755	344.5
289.986	366.5
290.217	348.5
290.448	348.5
290.679	347.5
290.91	352.5
291.141	365.5
291.371	366.5
291.602	384.5
291.833	384.5
292.064	362.5
292.295	348.5
292.526	358.5
292.757	364.5
292.987	354.5
293.218	353.5
293.449	382.5
293.68	378.5
293.91	366.5
294.141	357.5
294.372	361.5
294.603	349.5
294.833	361.5
295.064	354.5
295.295	362.5
295.525	388.5
295.756	371.5
295.987	369.5
296.217	381.5
296.448	396.5
296.679	384.5
296.909	392.5
297.14	374.5
297.37	397.5
297.601	381.5
297.831	375.5
298.062	380.5
298.292	380.5
298.523	388.5
298.753	396.5
298.984	384.5
299.214	390.5
299.445	372.5
299.675	391.5
299.905	392.5
300.136	407.5
300.366	401.5
300.597	398.5
300.827	398.5
301.057	414.5
301.288	400.5
301.518	402.5
301.748	403.5
301.979	419.5
302.209	410.5
302.439	434.5
302.669	420.5
302.9	424.5
303.13	423.5
303.36	403.5
303.59	432.5
303.82	405.5
304.051	426.5
304.281	412.5
304.511	408.5
304.741	402.5
304.971	404.5
305.201	407.5
305.431	415.5
305.661	396.5
305.891	413.5
306.121	429.5
306.352	420.5
306.582	402.5
306.812	404.5
307.042	406.5
307.272	394.5
307.502	396.5
307.731	420.5
307.961	424.5
308.191	427.5
308.421	394.5
308.651	396.5
308.881	403.5
309.111	408.5
309.341	410.5
309.571	413.5
309.8	422.5
310.03	428.5
310.26	425.5
310.49	428.5
310.72	437.5
310.949	420.5
311.179	462.5
311.409	444.5
311.639	441.5
311.868	455.5
312.098	460.5
312.328	442.5
312.557	472.5
312.787	453.5
313.017	455.5
313.246	443.5
313.476	450.5
313.706	459.5
313.935	469.5
314.165	448.5
314.394	460.5
314.624	467.5
314.853	466.5
315.083	451.5
315.312	454.5
315.542	463.5
315.771	452.5
316.001	455.5
316.23	473.5
316.46	424.5
316.689	456.5
316.919	443.5
317.148	457.5
317.377	458.5
317.607	467.5
317.836	445.5
318.065	454.5
318.295	468.5
318.524	480.5
318.753	451.5
318.983	471.5
319.212	442.5
319.441	463.5
319.67	463.5
319.9	444.5
320.129	477.5
320.358	494.5
320.587	456.5
320.816	478.5
321.046	480.5
321.275	461.5
321.504	461.5
321.733	472.5
321.962	459.5
322.191	488.5
322.42	487.5
322.649	502.5
322.878	485.5
323.108	484.5
323.337	489.5
323.566	530.5
323.795	540.5
324.024	580.5
324.253	625.5
324.482	790.5
324.71	1152.5
324.939	1629.5
325.168	1452.5
325.397	793.5
325.626	624.5
325.855	548.5
326.084	549.5
326.313	532.5
326.542	526.5
326.77	564.5
326.999	613.5
327.228	796.5
327.457	1074.5
327.686	1289.5
327.914	899.5
328.143	677.5
328.372	617.5
328.6	596.5
328.829	568.5
329.058	568.5
329.287	590.5
329.515	571.5
329.744	563.5
329.972	560.5
330.201	571.5
330.43	605.5
330.658	602.5
330.887	620.5
331.115	614.5
331.344	584.5
331.572	565.5
331.801	556.5
332.03	582.5
332.258	553.5
332.486	566.5
332.715	564.5
332.943	580.5
333.172	579.5
333.4	619.5
333.629	610.5
333.857	636.5
334.085	640.5
334.314	659.5
334.542	677.5
334.771	678.5
334.999	612.5
335.227	590.5
335.455	596.5
335.684	585.5
335.912	574.5
336.14	550.5
336.369	577.5
336.597	586.5
336.825	590.5
337.053	555.5
337.281	558.5
337.51	546.5
337.738	568.5
337.966	540.5
338.194	537.5
338.422	566.5
338.65	524.5
338.878	533.5
339.106	537.5
339.334	549.5
339.562	523.5
339.79	538.5
340.018	522.5
340.246	520.5
340.474	536.5
340.702	524.5
340.93	506.5
341.158	518.5
341.386	521.5
341.614	524.5
341.842	513.5
342.07	516.5
342.298	520.5
342.526	525.5
342.754	528.5
342.981	489.5
343.209	534.5
343.437	548.5
343.665	553.5
343.893	594.5
344.12	585.5
344.348	599.5
344.576	573.5
344.804	560.5
345.031	551.5
345.259	522.5
345.487	544.5
345.714	521.5
345.942	528.5
346.17	520.5
346.397	518.5
346.625	529.5
346.853	504.5
347.08	500.5
347.308	502.5
347.535	503.5
347.763	507.5
347.99	514.5
348.218	482.5
348.445	518.5
348.673	500.5
348.9	499.5
349.128	504.5
349.355	505.5
349.583	505.5
349.81	477.5
350.037	490.5
350.265	489.5
350.492	490.5
350.72	483.5
350.947	484.5
351.174	486.5
351.402	524.5
351.629	488.5
351.856	517.5
352.083	516.5
352.311	516.5
352.538	508.5
352.765	502.5
352.992	480.5
353.22	469.5
353.447	501.5
353.674	501.5
353.901	485.5
354.128	472.5
354.355	489.5
354.583	477.5
354.81	478.5
355.037	499.5
355.264	475.5
355.491	477.5
355.718	486.5
355.945	476.5
356.172	476.5
356.399	477.5
356.626	462.5
356.853	471.5
357.08	490.5
357.307	481.5
357.534	475.5
357.761	485.5
357.988	491.5
358.215	484.5
358.441	459.5
358.668	486.5
358.895	483.5
359.122	481.5
359.349	472.5
359.576	523.5
359.802	524.5
360.029	537.5
360.256	533.5
360.483	524.5
360.709	523.5
360.936	513.5
361.163	521.5
361.39	522.5
361.616	510.5
361.843	518.5
362.07	504.5
362.296	502.5
362.523	489.5
362.749	506.5
362.976	486.5
363.203	501.5
363.429	521.5
363.656	507.5
363.882	513.5
364.109	476.5
364.335	494.5
364.562	459.5
364.788	502.5
365.015	509.5
365.241	489.5
365.468	501.5
365.694	496.5
365.92	499.5
366.147	486.5
366.373	489.5
366.599	489.5
366.826	483.5
367.052	505.5
367.278	485.5
367.505	500.5
367.731	496.5
367.957	498.5
368.184	506.5
368.41	497.5
368.636	524.5
368.862	487.5
369.089	488.5
369.315	507.5
369.541	490.5
369.767	518.5
369.993	483.5
370.219	485.5
370.445	524.5
370.672	505.5
370.898	493.5
371.124	481.5
371.35	523.5
371.576	532.5
371.802	537.5
372.028	526.5
372.254	503.5
372.48	527.5
372.706	524.5
372.932	529.5
373.158	504.5
373.384	522.5
373.61	509.5
373.835	522.5
374.061	529.5
374.287	525.5
374.513	523.5
374.739	516.5
374.965	553.5
375.191	528.5
375.416	556.5
375.642	545.5
375.868	523.5
376.094	542.5
376.319	503.5
376.545	522.5
376.771	530.5
376.997	548.5
377.222	533.5
377.448	497.5
377.674	536.5
377.899	525.5
378.125	516.5
378.35	512.5
378.576	524.5
378.802	513.5
379.027	520.5
379.253	510.5
379.478	521.5
379.704	510.5
379.929	516.5
380.155	518.5
380.38	526.5
380.606	523.5
380.831	498.5
381.057	515.5
381.282	514.5
381.507	527.5
381.733	494.5
381.958	528.5
382.184	526.5
382.409	523.5
382.634	517.5
382.86	528.5
383.085	537.5
383.31	535.5
383.535	560.5
383.761	534.5
383.986	541.5
384.211	557.5
384.436	571.5
384.662	595.5
384.887	592.5
385.112	585.5
385.337	577.5
385.562	581.5
385.787	593.5
386.013	609.5
386.238	614.5
386.463	605.5
386.688	617.5
386.913	601.5
387.138	576.5
387.363	590.5
387.588	586.5
387.813	590.5
388.038	593.5
388.263	568.5
388.488	594.5
388.713	607.5
388.938	600.5
389.163	564.5
389.387	607.5
389.612	582.5
389.837	593.5
390.062	590.5
390.287	564.5
390.512	596.5
390.736	616.5
390.961	581.5
391.186	584.5
391.411	593.5
391.636	613.5
391.86	648.5
392.085	643.5
392.31	626.5
392.534	624.5
392.759	619.5
392.984	632.5
393.208	620.5
393.433	603.5
393.658	613.5
393.882	606.5
394.107	601.5
394.331	619.5
394.556	619.5
394.78	615.5
395.005	638.5
395.229	608.5
395.454	632.5
395.678	638.5
395.903	612.5
396.127	648.5
396.352	645.5
396.576	618.5
396.801	640.5
397.025	624.5
397.249	615.5
397.474	643.5
397.698	629.5
397.922	681.5
398.147	690.5
398.371	688.5
398.595	680.5
398.82	694.5
399.044	734.5
399.268	778.5
399.492	865.5
399.717	929.5
399.941	961.5
400.165	932.5
400.389	898.5
400.613	792.5
400.837	728.5
401.062	712.5
401.286	721.5
401.51	707.5
401.734	705.5
401.958	712.5
402.182	720.5
402.406	744.5
402.63	725.5
402.854	722.5
403.078	748.5
403.302	737.5
403.526	770.5
403.75	782.5
403.974	782.5
404.198	782.5
404.422	759.5
404.645	785.5
404.869	809.5
405.093	811.5
405.317	812.5
405.541	863.5
405.765	784.5
405.988	782.5
406.212	760.5
406.436	808.5
406.66	812.5
406.883	798.5
407.107	852.5
407.331	909.5
407.555	932.5
407.778	938.5
408.002	884.5
408.226	847.5
408.449	826.5
408.673	826.5
408.896	790.5
409.12	829.5
409.344	841.5
409.567	768.5
409.791	747.5
410.014	727.5
410.238	760.5
410.461	748.5
410.685	725.5
410.908	754.5
411.132	763.5
411.355	784.5
411.578	757.5
411.802	743.5
412.025	737.5
412.249	749.5
412.472	757.5
412.695	776.5
412.919	770.5
413.142	733.5
413.365	698.5
413.589	700.5
413.812	721.5
414.035	701.5
414.258	704.5
414.482	710.5
414.705	714.5
414.928	731.5
415.151	720.5
415.374	710.5
415.597	698.5
415.821	688.5
416.044	688.5
416.267	696.5
416.49	680.5
416.713	681.5
416.936	677.5
417.159	684.5
417.382	712.5
417.605	704.5
417.828	695.5
418.051	699.5
418.274	711.5
418.497	718.5
418.72	710.5
418.943	706.5
419.166	743.5
419.389	785.5
419.611	783.5
419.834	769.5
420.057	717.5
420.28	721.5
420.503	714.5
420.726	725.5
420.948	714.5
421.171	753.5
421.394	747.5
421.617	739.5
421.839	712.5
422.062	710.5
422.285	733.5
422.507	783.5
422.73	836.5
422.953	816.5
423.175	766.5
423.398	759.5
423.621	744.5
423.843	761.5
424.066	756.5
424.288	738.5
424.511	762.5
424.733	800.5
424.956	845.5
425.178	844.5
425.401	820.5
425.623	839.5
425.846	742.5
426.068	718.5
426.291	696.5
426.513	717.5
426.735	688.5
426.958	766.5
427.18	830.5
427.402	902.5
427.625	984.5
427.847	858.5
428.069	747.5
428.292	725.5
428.514	699.5
428.736	699.5
428.958	684.5
429.181	658.5
429.403	666.5
429.625	662.5
429.847	673.5
430.069	738.5
430.292	748.5
430.514	680.5
430.736	669.5
430.958	661.5
431.18	633.5
431.402	649.5
431.624	679.5
431.846	656.5
432.068	652.5
432.29	668.5
432.512	665.5
432.734	660.5
432.956	652.5
433.178	648.5
433.4	645.5
433.622	652.5
433.844	672.5
434.066	649.5
434.287	668.5
434.509	668.5
434.731	669.5
434.953	712.5
435.175	732.5
435.397	729.5
435.618	707.5
435.84	738.5
436.062	816.5
436.284	870.5
436.505	737.5
436.727	700.5
436.949	669.5
437.17	663.5
437.392	656.5
437.614	662.5
437.835	699.5
438.057	766.5
438.278	819.5
438.5	812.5
438.721	870.5
438.943	884.5
439.165	728.5
439.386	693.5
439.608	703.5
439.829	696.5
440.05	717.5
440.272	756.5
440.493	714.5
440.715	694.5
440.936	682.5
441.158	669.5
441.379	714.5
441.6	731.5
441.822	741.5
442.043	747.5
442.264	840.5
442.486	847.5
442.707	778.5
442.928	727.5
443.149	745.5
443.371	736.5
443.592	770.5
443.813	882.5
444.034	928.5
444.255	812.5
444.476	768.5
444.698	819.5
444.919	817.5
445.14	925.5
445.361	850.5
445.582	794.5
445.803	800.5
446.024	846.5
446.245	893.5
446.466	821.5
446.687	736.5
446.908	706.5
447.129	662.5
447.35	648.5
447.571	648.5
447.792	631.5
448.013	642.5
448.234	644.5
448.455	700.5
448.675	772.5
448.896	876.5
449.117	776.5
449.338	741.5
449.559	816.5
449.779	896.5
450	755.5
450.221	654.5
450.442	640.5
450.662	632.5
450.883	629.5
451.104	632.5
451.324	622.5
451.545	621.5
451.766	594.5
451.986	611.5
452.207	605.5
452.428	596.5
452.648	609.5
452.869	598.5
453.089	602.5
453.31	613.5
453.53	613.5
453.751	572.5
453.971	572.5
454.192	593.5
454.412	589.5
454.633	568.5
454.853	564.5
455.073	597.5
455.294	602.5
455.514	628.5
455.734	636.5
455.955	576.5
456.175	558.5
456.395	566.5
456.616	562.5
456.836	577.5
457.056	571.5
457.276	532.5
457.497	556.5
457.717	548.5
457.937	581.5
458.157	580.5
458.377	599.5
458.598	593.5
458.818	637.5
459.038	701.5
459.258	701.5
459.478	650.5
459.698	632.5
459.918	668.5
460.138	666.5
460.358	721.5
460.578	732.5
460.798	722.5
461.018	726.5
461.238	705.5
461.458	713.5
461.678	701.5
461.898	728.5
462.118	709.5
462.338	762.5
462.558	762.5
462.777	793.5
462.997	818.5
463.217	867.5
463.437	883.5
463.657	796.5
463.876	788.5
464.096	812.5
464.316	786.5
464.536	801.5
464.755	764.5
464.975	764.5
465.195	773.5
465.414	762.5
465.634	730.5
465.854	673.5
466.073	670.5
466.293	642.5
466.512	624.5
466.732	626.5
466.951	625.5
467.171	648.5
467.391	628.5
467.61	628.5
467.829	651.5
468.049	635.5
468.268	626.5
468.488	601.5
468.707	609.5
468.927	594.5
469.146	604.5
469.365	630.5
469.585	623.5
469.804	610.5
470.023	634.5
470.243	626.5
470.462	653.5
470.681	668.5
470.901	656.5
471.12	632.5
471.339	624.5
471.558	618.5
471.777	624.5
471.997	635.5
472.216	629.5
472.435	631.5
472.654	650.5
472.873	588.5
473.092	589.5
473.311	616.5
473.53	621.5
473.749	616.5
473.968	634.5
474.187	714.5
474.406	737.5
474.625	648.5
474.844	615.5
475.063	590.5
475.282	598.5
475.501	618.5
475.72	606.5
475.939	638.5
476.158	617.5
476.377	654.5
476.596	634.5
476.814	638.5
477.033	652.5
477.252	666.5
477.471	686.5
477.69	692.5
477.908	678.5
478.127	716.5
478.346	699.5
478.564	710.5
478.783	732.5
479.002	741.5
479.22	732.5
479.439	752.5
479.658	760.5
479.876	757.5
480.095	735.5
480.313	810.5
480.532	802.5
480.751	800.5
480.969	810.5
481.188	842.5
481.406	822.5
481.624	773.5
481.843	742.5
482.061	718.5
482.28	744.5
482.498	717.5
482.717	701.5
482.935	713.5
483.153	718.5
483.372	719.5
483.59	704.5
483.808	708.5
484.027	700.5
484.245	746.5
484.463	738.5
484.681	751.5
484.9	728.5
485.118	729.5
485.336	747.5
485.554	741.5
485.772	761.5
485.99	748.5
486.209	752.5
486.427	747.5
486.645	786.5
486.863	760.5
487.081	769.5
487.299	763.5
487.517	762.5
487.735	769.5
487.953	767.5
488.171	758.5
488.389	758.5
488.607	746.5
488.825	760.5
489.043	775.5
489.261	762.5
489.479	766.5
489.696	769.5
489.914	754.5
490.132	787.5
490.35	786.5
490.568	793.5
490.786	792.5
491.003	801.5
491.221	823.5
491.439	825.5
491.657	829.5
491.874	862.5
492.092	853.5
492.31	845.5
492.527	844.5
492.745	856.5
492.963	850.5
493.18	870.5
493.398	870.5
493.615	885.5
493.833	883.5
494.05	880.5
494.268	890.5
494.485	898.5
494.703	895.5
494.92	915.5
495.138	867.5
495.355	880.5
495.573	884.5
495.79	890.5
496.008	890.5
496.225	904.5
496.442	907.5
496.66	921.5
496.877	911.5
497.094	923.5
497.312	922.5
497.529	927.5
497.746	937.5
497.963	981.5
498.181	1003.5
498.398	1049.5
498.615	1062.5
498.832	1128.5
499.049	1190.5
499.267	1196.5
499.484	1317.5
499.701	1378.5
499.918	1512.5
500.135	1648.5
500.352	1753.5
500.569	1851.5
500.786	1829.5
501.003	1756.5
501.22	1620.5
501.437	1508.5
501.654	1373.5
501.871	1321.5
502.088	1264.5
502.305	1192.5
502.522	1133.5
502.739	1101.5
502.956	1069.5
503.172	1021.5
503.389	1016.5
503.606	968.5
503.823	964.5
504.04	949.5
504.256	978.5
504.473	973.5
504.69	961.5
504.907	965.5
505.123	921.5
505.34	918.5
505.557	890.5
505.773	842.5
505.99	867.5
506.207	838.5
506.423	845.5
506.64	809.5
506.856	806.5
507.073	805.5
507.289	806.5
507.506	776.5
507.722	807.5
507.939	822.5
508.155	816.5
508.372	788.5
508.588	770.5
508.805	773.5
509.021	770.5
509.238	765.5
509.454	783.5
509.67	768.5
509.887	763.5
510.103	792.5
510.319	781.5
510.536	810.5
510.752	1158.5
510.968	1015.5
511.184	754.5
511.401	756.5
511.617	724.5
511.833	728.5
512.049	747.5
512.265	741.5
512.481	746.5
512.698	731.5
512.914	743.5
513.13	741.5
513.346	733.5
513.562	725.5
513.778	726.5
513.994	737.5
514.21	769.5
514.426	710.5
514.642	758.5
514.858	786.5
515.074	814.5
515.29	883.5
515.506	1186.5
515.721	1058.5
515.937	830.5
516.153	790.5
516.369	809.5
516.585	797.5
516.801	819.5
517.016	830.5
517.232	871.5
517.448	893.5
517.664	883.5
517.879	884.5
518.095	918.5
518.311	880.5
518.527	846.5
518.742	841.5
518.958	809.5
519.173	798.5
519.389	796.5
519.605	778.5
519.82	758.5
520.036	748.5
520.251	770.5
520.467	781.5
520.682	787.5
520.898	772.5
521.113	754.5
521.329	769.5
521.544	811.5
521.76	932.5
521.975	1404.5
522.19	1402.5
522.406	907.5
522.621	772.5
522.836	729.5
523.052	696.5
523.267	688.5
523.482	668.5
523.698	679.5
523.913	691.5
524.128	662.5
524.343	650.5
524.559	682.5
524.774	641.5
524.989	642.5
525.204	661.5
525.419	651.5
525.634	648.5
525.849	647.5
526.064	637.5
526.28	632.5
526.495	642.5
526.71	629.5
526.925	631.5
527.14	612.5
527.355	608.5
527.57	625.5
527.785	608.5
527.999	626.5
528.214	613.5
528.429	618.5
528.644	598.5
528.859	621.5
529.074	625.5
529.289	613.5
529.503	667.5
529.718	664.5
529.933	635.5
530.148	630.5
530.363	636.5
530.577	628.5
530.792	620.5
531.007	603.5
531.221	604.5
531.436	617.5
531.651	636.5
531.865	633.5
532.08	616.5
532.295	616.5
532.509	611.5
532.724	610.5
532.938	608.5
533.153	612.5
533.367	626.5
533.582	595.5
533.796	591.5
534.011	602.5
534.225	629.5
534.44	595.5
534.654	588.5
534.868	592.5
535.083	604.5
535.297	596.5
535.511	619.5
535.726	609.5
535.94	609.5
536.154	610.5
536.369	588.5
536.583	566.5
536.797	593.5
537.011	596.5
537.225	602.5
537.44	574.5
537.654	586.5
537.868	568.5
538.082	573.5
538.296	565.5
538.51	554.5
538.724	565.5
538.938	567.5
539.153	575.5
539.367	587.5
539.581	544.5
539.795	558.5
540.009	580.5
540.222	578.5
540.436	583.5
540.65	584.5
540.864	586.5
541.078	563.5
541.292	587.5
541.506	577.5
541.72	585.5
541.934	579.5
542.147	558.5
542.361	560.5
542.575	539.5
542.789	556.5
543.002	550.5
543.216	560.5
543.43	578.5
543.644	592.5
543.857	561.5
544.071	585.5
544.285	590.5
544.498	566.5
544.712	578.5
544.925	583.5
545.139	571.5
545.352	556.5
545.566	590.5
545.779	589.5
545.993	579.5
546.206	597.5
546.42	586.5
546.633	546.5
546.847	581.5
547.06	560.5
547.274	545.5
547.487	590.5
547.7	563.5
547.914	565.5
548.127	565.5
548.34	592.5
548.554	568.5
548.767	566.5
548.98	585.5
549.193	596.5
549.407	580.5
549.62	570.5
549.833	580.5
550.046	588.5
550.259	584.5
550.473	573.5
550.686	581.5
550.899	558.5
551.112	540.5
551.325	555.5
551.538	580.5
551.751	556.5
551.964	571.5
552.177	581.5
552.39	587.5
552.603	580.5
552.816	582.5
553.029	603.5
553.242	611.5
553.455	609.5
553.667	615.5
553.88	599.5
554.093	611.5
554.306	608.5
554.519	589.5
554.732	589.5
554.944	549.5
555.157	557.5
555.37	552.5
555.583	548.5
555.795	541.5
556.008	536.5
556.221	532.5
556.433	536.5
556.646	527.5
556.859	509.5
557.071	507.5
557.284	504.5
557.496	513.5
557.709	517.5
557.921	517.5
558.134	484.5
558.346	478.5
558.559	505.5
558.771	504.5
558.984	503.5
559.196	490.5
559.409	481.5
559.621	469.5
559.833	474.5
560.046	481.5
560.258	487.5
560.47	490.5
560.683	517.5
560.895	501.5
561.107	513.5
561.32	490.5
561.532	488.5
561.744	501.5
561.956	482.5
562.168	496.5
562.381	479.5
562.593	499.5
562.805	504.5
563.017	494.5
563.229	511.5
563.441	508.5
563.653	497.5
563.865	511.5
564.077	516.5
564.289	498.5
564.501	538.5
564.713	539.5
564.925	536.5
565.137	564.5
565.349	536.5
565.561	558.5
565.773	588.5
565.985	602.5
566.197	610.5
566.408	668.5
566.62	693.5
566.832	720.5
567.044	748.5
567.255	759.5
567.467	751.5
567.679	800.5
567.891	834.5
568.102	838.5
568.314	822.5
568.526	765.5
568.737	728.5
568.949	668.5
569.161	619.5
569.372	572.5
569.584	576.5
569.795	544.5
570.007	549.5
570.218	565.5
570.43	557.5
570.641	500.5
570.853	518.5
571.064	519.5
571.276	516.5
571.487	496.5
571.698	496.5
571.91	490.5
572.121	481.5
572.333	446.5
572.544	456.5
572.755	460.5
572.966	454.5
573.178	448.5
573.389	425.5
573.6	424.5
573.811	418.5
574.023	451.5
574.234	433.5
574.445	446.5
574.656	420.5
574.867	428.5
575.078	442.5
575.289	437.5
575.501	441.5
575.712	413.5
575.923	405.5
576.134	404.5
576.345	407.5
576.556	411.5
576.767	418.5
576.978	427.5
577.188	440.5
577.399	419.5
577.61	396.5
577.821	385.5
578.032	412.5
578.243	406.5
578.454	572.5
578.665	466.5
578.875	415.5
579.086	400.5
579.297	400.5
579.508	385.5
579.718	393.5
579.929	379.5
580.14	389.5
580.35	388.5
580.561	398.5
580.772	380.5
580.982	374.5
581.193	370.5
581.403	402.5
581.614	406.5
581.825	392.5
582.035	380.5
582.246	374.5
582.456	380.5
582.667	379.5
582.877	357.5
583.087	372.5
583.298	384.5
583.508	370.5
583.719	382.5
583.929	365.5
584.139	375.5
584.35	358.5
584.56	382.5
584.77	377.5
584.981	362.5
585.191	377.5
585.401	372.5
585.611	369.5
585.821	370.5
586.032	381.5
586.242	380.5
586.452	372.5
586.662	379.5
586.872	368.5
587.082	363.5
587.292	350.5
587.502	359.5
587.713	384.5
587.923	368.5
588.133	383.5
588.343	347.5
588.553	358.5
588.762	352.5
588.972	363.5
589.182	372.5
589.392	376.5
589.602	367.5
589.812	378.5
590.022	372.5
590.232	372.5
590.441	353.5
590.651	382.5
590.861	388.5
591.071	374.5
591.281	373.5
591.49	384.5
591.7	396.5
591.91	389.5
592.119	413.5
592.329	404.5
592.539	412.5
592.748	407.5
592.958	448.5
593.167	432.5
593.377	424.5
593.587	441.5
593.796	437.5
594.006	458.5
594.215	452.5
594.424	454.5
594.634	432.5
594.843	427.5
595.053	415.5
595.262	428.5
595.472	377.5
595.681	384.5
595.89	379.5
596.1	381.5
596.309	368.5
596.518	370.5
596.727	343.5
596.937	358.5
597.146	357.5
597.355	342.5
597.564	349.5
597.774	344.5
597.983	342.5
598.192	331.5
598.401	346.5
598.61	339.5
598.819	342.5
599.028	348.5
599.237	347.5
599.446	338.5
599.655	346.5
599.864	348.5
600.073	341.5
600.282	320.5
600.491	323.5
600.7	305.5
600.909	320.5
601.118	316.5
601.327	333.5
601.536	296.5
601.745	325.5
601.953	315.5
602.162	334.5
602.371	329.5
602.58	310.5
602.789	317.5
602.997	318.5
603.206	308.5
603.415	311.5
603.623	279.5
603.832	319.5
604.041	312.5
604.249	301.5
604.458	314.5
604.666	308.5
604.875	324.5
605.084	289.5
605.292	304.5
605.501	285.5
605.709	292.5
605.918	282.5
606.126	301.5
606.334	294.5
606.543	290.5
606.751	313.5
606.96	312.5
607.168	295.5
607.376	305.5
607.585	290.5
607.793	307.5
608.001	294.5
608.21	293.5
608.418	291.5
608.626	288.5
608.834	290.5
609.043	279.5
609.251	289.5
609.459	289.5
609.667	301.5
609.875	304.5
610.083	304.5
610.291	298.5
610.499	300.5
610.707	297.5
610.916	298.5
611.124	293.5
611.332	289.5
611.54	292.5
611.748	305.5
611.955	323.5
612.163	288.5
612.371	298.5
612.579	304.5
612.787	282.5
612.995	292.5
613.203	281.5
613.411	302.5
613.618	285.5
613.826	279.5
614.034	278.5
614.242	289.5
614.449	277.5
614.657	286.5
614.865	289.5
615.072	294.5
615.28	297.5
615.488	284.5
615.695	290.5
615.903	299.5
616.111	281.5
616.318	292.5
616.526	302.5
616.733	286.5
616.941	290.5
617.148	286.5
617.356	301.5
617.563	309.5
617.771	288.5
617.978	272.5
618.185	295.5
618.393	279.5
618.6	286.5
618.807	283.5
619.015	273.5
619.222	285.5
619.429	287.5
619.637	294.5
619.844	291.5
620.051	273.5
620.258	267.5
620.466	267.5
620.673	276.5
620.88	259.5
621.087	281.5
621.294	271.5
621.501	265.5
621.708	262.5
621.915	268.5
622.122	269.5
622.329	254.5
622.536	260.5
622.743	280.5
622.95	278.5
623.157	257.5
623.364	252.5
623.571	264.5
623.778	271.5
623.985	270.5
624.192	261.5
624.399	265.5
624.606	245.5
624.812	254.5
625.019	240.5
625.226	256.5
625.433	247.5
625.639	240.5
625.846	241.5
626.053	245.5
626.259	241.5
626.466	256.5
626.673	241.5
626.879	261.5
627.086	246.5
627.293	250.5
627.499	246.5
627.706	257.5
627.912	248.5
628.119	237.5
628.325	230.5
628.532	231.5
628.738	241.5
628.945	255.5
629.151	257.5
629.357	251.5
629.564	226.5
629.77	224.5
629.976	242.5
630.183	243.5
630.389	226.5
630.595	229.5
630.802	221.5
631.008	236.5
631.214	230.5
631.42	235.5
631.627	231.5
631.833	239.5
632.039	227.5
632.245	224.5
632.451	234.5
632.657	223.5
632.863	221.5
633.069	208.5
633.275	235.5
633.481	208.5
633.688	203.5
633.893	220.5
634.099	218.5
634.305	225.5
634.511	212.5
634.717	210.5
634.923	200.5
635.129	202.5
635.335	222.5
635.541	216.5
635.747	209.5
635.952	215.5
636.158	224.5
636.364	212.5
636.57	223.5
636.775	217.5
636.981	205.5
637.187	220.5
637.392	201.5
637.598	214.5
637.804	206.5
638.009	206.5
638.215	196.5
638.421	207.5
638.626	202.5
638.832	208.5
639.037	203.5
639.243	203.5
639.448	220.5
639.654	196.5
639.859	193.5
640.065	205.5
640.27	212.5
640.475	210.5
640.681	200.5
640.886	190.5
641.091	210.5
641.297	207.5
641.502	192.5
641.707	202.5
641.913	202.5
642.118	200.5
642.323	203.5
642.528	201.5
642.733	190.5
642.939	189.5
643.144	188.5
643.349	197.5
643.554	212.5
643.759	207.5
643.964	196.5
644.169	190.5
644.374	180.5
644.579	208.5
644.784	185.5
644.989	194.5
645.194	196.5
645.399	206.5
645.604	192.5
645.809	175.5
646.014	203.5
646.219	193.5
646.423	197.5
646.628	190.5
646.833	209.5
647.038	205.5
647.243	202.5
647.447	210.5
647.652	195.5
647.857	194.5
648.062	207.5
648.266	192.5
648.471	212.5
648.676	216.5
648.88	192.5
649.085	212.5
649.289	212.5
649.494	205.5
649.698	216.5
649.903	215.5
650.107	204.5
650.312	185.5
650.516	179.5
650.721	169.5
650.925	171.5
651.13	160.5
651.334	171.5
651.539	187.5
651.743	172.5
651.947	178.5
652.152	157.5
652.356	157.5
652.56	154.5
652.764	165.5
652.969	160.5
653.173	148.5
653.377	160.5
653.581	168.5
653.785	146.5
653.99	150.5
654.194	161.5
654.398	137.5
654.602	166.5
654.806	154.5
655.01	141.5
655.214	146.5
655.418	143.5
655.622	142.5
655.826	148.5
656.03	172.5
656.234	159.5
656.438	164.5
656.642	149.5
656.846	150.5
657.049	151.5
657.253	142.5
657.457	141.5
657.661	130.5
657.865	124.5
658.068	130.5
658.272	116.5
658.476	131.5
658.68	112.5
658.883	120.5
659.087	110.5
659.291	100.5
659.494	106.5
659.698	123.5
659.901	112.5
660.105	99.5
660.309	108.5
660.512	105.5
660.716	99.5
660.919	85.5
661.123	100.5
661.326	103.5
661.53	89.5
661.733	94.5
661.936	90.5
662.14	81.5
662.343	86.5
662.546	84.5
662.75	99.5
662.953	88.5
663.156	94.5
663.36	70.5
663.563	91.5
663.766	86.5
663.969	76.5
664.173	59.5
664.376	88.5
664.579	90.5
664.782	72.5
664.985	66.5
665.188	92.5
665.391	85.5
665.594	82.5
665.797	92.5
666	91.5
666.203	81.5
666.406	87.5
666.609	79.5
666.812	85.5
667.015	86.5
667.218	77.5
667.421	84.5
667.624	77.5
667.827	85.5
668.03	64.5
668.232	86.5
668.435	92.5
668.638	77.5
668.841	84.5
669.043	78.5
669.246	96.5
669.449	84.5
669.651	81.5
669.854	74.5
670.057	75.5
670.259	73.5
670.462	81.5
670.665	77.5
670.867	65.5
671.07	63.5
671.272	80.5
671.475	66.5
671.677	88.5
671.88	82.5
672.082	76.5
672.284	72.5
672.487	86.5
672.689	86.5
672.892	83.5
