Data from 1964.PennyLincolnUp.Lamp.En5.5.200Scan.071719.P1._HRD10591_14-05-40-909.txt Node
Date: Thu Jul 18 14:05:40 EDT 2019
User: cochatt
Spectrometer: HR+D1059
Trigger mode: 1
Integration Time (sec): 1.000000E-1
Scans to average: 1
Electric dark correction enabled: true
Nonlinearity correction enabled: false
Boxcar width: 0
XAxis mode: Wavelengths
Number of Pixels in Spectrum: 2048
>>>>>Begin Spectral Data<<<<<
223.165	-6.56
223.4	-6.56
223.635	-6.56
223.869	-14.56
224.104	-16.56
224.338	-20.56
224.573	-16.56
224.808	-4.56
225.042	-11.56
225.277	-12.56
225.511	-9.56
225.746	7.44
225.98	12.44
226.215	11.44
226.449	21.44
226.683	11.44
226.918	20.44
227.152	28.44
227.387	37.44
227.621	27.44
227.856	40.44
228.09	44.44
228.324	45.44
228.559	61.44
228.793	52.44
229.027	77.44
229.262	99.44
229.496	105.44
229.73	127.44
229.964	122.44
230.199	113.44
230.433	105.44
230.667	107.44
230.901	103.44
231.136	99.44
231.37	106.44
231.604	98.44
231.838	104.44
232.072	97.44
232.306	113.44
232.541	110.44
232.775	93.44
233.009	106.44
233.243	113.44
233.477	110.44
233.711	103.44
233.945	101.44
234.179	109.44
234.413	119.44
234.647	103.44
234.881	111.44
235.115	111.44
235.349	108.44
235.583	125.44
235.817	99.44
236.051	111.44
236.285	108.44
236.519	124.44
236.753	137.44
236.987	133.44
237.221	163.44
237.455	184.44
237.689	163.44
237.922	121.44
238.156	122.44
238.39	123.44
238.624	115.44
238.858	125.44
239.091	128.44
239.325	133.44
239.559	124.44
239.793	122.44
240.027	138.44
240.26	142.44
240.494	151.44
240.728	130.44
240.961	145.44
241.195	131.44
241.429	118.44
241.662	135.44
241.896	147.44
242.13	129.44
242.363	122.44
242.597	127.44
242.83	131.44
243.064	140.44
243.298	136.44
243.531	133.44
243.765	127.44
243.998	132.44
244.232	155.44
244.465	137.44
244.699	155.44
244.932	127.44
245.166	134.44
245.399	135.44
245.633	151.44
245.866	139.44
246.099	144.44
246.333	153.44
246.566	163.44
246.8	153.44
247.033	154.44
247.266	162.44
247.5	163.44
247.733	167.44
247.966	163.44
248.2	162.44
248.433	169.44
248.666	167.44
248.899	192.44
249.133	179.44
249.366	200.44
249.599	199.44
249.832	185.44
250.066	177.44
250.299	194.44
250.532	173.44
250.765	191.44
250.998	215.44
251.231	214.44
251.465	211.44
251.698	206.44
251.931	202.44
252.164	192.44
252.397	196.44
252.63	196.44
252.863	185.44
253.096	211.44
253.329	227.44
253.562	211.44
253.795	221.44
254.028	217.44
254.261	220.44
254.494	217.44
254.727	242.44
254.96	265.44
255.193	267.44
255.426	227.44
255.659	224.44
255.892	227.44
256.124	232.44
256.357	228.44
256.59	215.44
256.823	213.44
257.056	208.44
257.289	217.44
257.521	227.44
257.754	214.44
257.987	195.44
258.22	203.44
258.452	211.44
258.685	204.44
258.918	202.44
259.151	221.44
259.383	236.44
259.616	236.44
259.849	216.44
260.081	244.44
260.314	246.44
260.547	258.44
260.779	257.44
261.012	229.44
261.244	226.44
261.477	224.44
261.71	229.44
261.942	215.44
262.175	225.44
262.407	220.44
262.64	230.44
262.872	226.44
263.105	227.44
263.337	235.44
263.57	215.44
263.802	224.44
264.035	215.44
264.267	207.44
264.499	218.44
264.732	217.44
264.964	238.44
265.197	235.44
265.429	243.44
265.661	230.44
265.894	237.44
266.126	230.44
266.358	220.44
266.591	228.44
266.823	232.44
267.055	246.44
267.287	247.44
267.52	233.44
267.752	233.44
267.984	244.44
268.216	231.44
268.448	237.44
268.681	257.44
268.913	255.44
269.145	274.44
269.377	280.44
269.609	270.44
269.841	293.44
270.073	281.44
270.306	311.44
270.538	314.44
270.77	300.44
271.002	293.44
271.234	286.44
271.466	282.44
271.698	323.44
271.93	312.44
272.162	323.44
272.394	319.44
272.626	296.44
272.858	287.44
273.09	278.44
273.322	303.44
273.553	277.44
273.785	288.44
274.017	258.44
274.249	277.44
274.481	287.44
274.713	272.44
274.945	264.44
275.176	280.44
275.408	280.44
275.64	267.44
275.872	281.44
276.104	272.44
276.335	278.44
276.567	298.44
276.799	298.44
277.031	300.44
277.262	338.44
277.494	315.44
277.726	313.44
277.957	296.44
278.189	289.44
278.421	279.44
278.652	281.44
278.884	304.44
279.115	295.44
279.347	289.44
279.579	291.44
279.81	281.44
280.042	267.44
280.273	287.44
280.505	285.44
280.736	297.44
280.968	285.44
281.199	287.44
281.431	296.44
281.662	281.44
281.894	288.44
282.125	292.44
282.356	293.44
282.588	311.44
282.819	306.44
283.051	305.44
283.282	305.44
283.513	304.44
283.745	290.44
283.976	303.44
284.207	321.44
284.439	299.44
284.67	292.44
284.901	303.44
285.132	311.44
285.364	287.44
285.595	311.44
285.826	310.44
286.057	296.44
286.288	305.44
286.52	307.44
286.751	296.44
286.982	309.44
287.213	305.44
287.444	305.44
287.675	313.44
287.906	328.44
288.138	328.44
288.369	316.44
288.6	313.44
288.831	316.44
289.062	325.44
289.293	317.44
289.524	293.44
289.755	331.44
289.986	318.44
290.217	324.44
290.448	324.44
290.679	326.44
290.91	327.44
291.141	316.44
291.371	327.44
291.602	336.44
291.833	307.44
292.064	333.44
292.295	316.44
292.526	315.44
292.757	314.44
292.987	319.44
293.218	313.44
293.449	330.44
293.68	335.44
293.91	308.44
294.141	319.44
294.372	313.44
294.603	326.44
294.833	315.44
295.064	343.44
295.295	328.44
295.525	330.44
295.756	338.44
295.987	339.44
296.217	355.44
296.448	346.44
296.679	336.44
296.909	319.44
297.14	336.44
297.37	347.44
297.601	313.44
297.831	314.44
298.062	341.44
298.292	352.44
298.523	339.44
298.753	336.44
298.984	337.44
299.214	348.44
299.445	342.44
299.675	337.44
299.905	351.44
300.136	332.44
300.366	354.44
300.597	333.44
300.827	352.44
301.057	363.44
301.288	374.44
301.518	363.44
301.748	350.44
301.979	348.44
302.209	345.44
302.439	354.44
302.669	359.44
302.9	365.44
303.13	375.44
303.36	352.44
303.59	351.44
303.82	367.44
304.051	371.44
304.281	369.44
304.511	371.44
304.741	373.44
304.971	346.44
305.201	370.44
305.431	359.44
305.661	372.44
305.891	351.44
306.121	358.44
306.352	369.44
306.582	355.44
306.812	370.44
307.042	349.44
307.272	383.44
307.502	360.44
307.731	360.44
307.961	356.44
308.191	379.44
308.421	369.44
308.651	370.44
308.881	380.44
309.111	361.44
309.341	364.44
309.571	377.44
309.8	378.44
310.03	378.44
310.26	381.44
310.49	404.44
310.72	419.44
310.949	422.44
311.179	404.44
311.409	396.44
311.639	410.44
311.868	392.44
312.098	389.44
312.328	392.44
312.557	411.44
312.787	417.44
313.017	413.44
313.246	408.44
313.476	416.44
313.706	396.44
313.935	387.44
314.165	398.44
314.394	415.44
314.624	399.44
314.853	408.44
315.083	397.44
315.312	407.44
315.542	410.44
315.771	423.44
316.001	390.44
316.23	404.44
316.46	389.44
316.689	396.44
316.919	426.44
317.148	409.44
317.377	425.44
317.607	421.44
317.836	401.44
318.065	388.44
318.295	404.44
318.524	422.44
318.753	403.44
318.983	408.44
319.212	411.44
319.441	412.44
319.67	414.44
319.9	429.44
320.129	401.44
320.358	403.44
320.587	407.44
320.816	425.44
321.046	412.44
321.275	423.44
321.504	406.44
321.733	429.44
321.962	412.44
322.191	441.44
322.42	436.44
322.649	436.44
322.878	433.44
323.108	468.44
323.337	477.44
323.566	475.44
323.795	488.44
324.024	538.44
324.253	615.44
324.482	827.44
324.71	1207.44
324.939	1637.44
325.168	1391.44
325.397	767.44
325.626	575.44
325.855	488.44
326.084	489.44
326.313	461.44
326.542	467.44
326.77	525.44
326.999	588.44
327.228	743.44
327.457	1068.44
327.686	1267.44
327.914	844.44
328.143	619.44
328.372	543.44
328.6	545.44
328.829	534.44
329.058	529.44
329.287	557.44
329.515	513.44
329.744	498.44
329.972	509.44
330.201	515.44
330.43	550.44
330.658	540.44
330.887	539.44
331.115	552.44
331.344	505.44
331.572	493.44
331.801	490.44
332.03	492.44
332.258	481.44
332.486	484.44
332.715	473.44
332.943	476.44
333.172	505.44
333.4	494.44
333.629	497.44
333.857	527.44
334.085	524.44
334.314	515.44
334.542	530.44
334.771	553.44
334.999	543.44
335.227	483.44
335.455	487.44
335.684	473.44
335.912	485.44
336.14	492.44
336.369	486.44
336.597	484.44
336.825	463.44
337.053	470.44
337.281	454.44
337.51	461.44
337.738	480.44
337.966	459.44
338.194	475.44
338.422	452.44
338.65	478.44
338.878	440.44
339.106	452.44
339.334	464.44
339.562	439.44
339.79	449.44
340.018	470.44
340.246	469.44
340.474	428.44
340.702	440.44
340.93	447.44
341.158	459.44
341.386	464.44
341.614	437.44
341.842	429.44
342.07	446.44
342.298	433.44
342.526	453.44
342.754	432.44
342.981	415.44
343.209	465.44
343.437	443.44
343.665	465.44
343.893	456.44
344.12	482.44
344.348	456.44
344.576	461.44
344.804	442.44
345.031	457.44
345.259	479.44
345.487	454.44
345.714	436.44
345.942	441.44
346.17	430.44
346.397	444.44
346.625	431.44
346.853	423.44
347.08	419.44
347.308	408.44
347.535	426.44
347.763	438.44
347.99	416.44
348.218	435.44
348.445	437.44
348.673	417.44
348.9	427.44
349.128	417.44
349.355	411.44
349.583	392.44
349.81	403.44
350.037	401.44
350.265	415.44
350.492	400.44
350.72	421.44
350.947	420.44
351.174	435.44
351.402	403.44
351.629	419.44
351.856	400.44
352.083	453.44
352.311	443.44
352.538	425.44
352.765	451.44
352.992	416.44
353.22	412.44
353.447	423.44
353.674	408.44
353.901	389.44
354.128	387.44
354.355	385.44
354.583	401.44
354.81	396.44
355.037	404.44
355.264	397.44
355.491	389.44
355.718	387.44
355.945	386.44
356.172	417.44
356.399	396.44
356.626	388.44
356.853	378.44
357.08	403.44
357.307	404.44
357.534	404.44
357.761	415.44
357.988	412.44
358.215	420.44
358.441	390.44
358.668	390.44
358.895	416.44
359.122	390.44
359.349	404.44
359.576	405.44
359.802	425.44
360.029	432.44
360.256	440.44
360.483	415.44
360.709	420.44
360.936	407.44
361.163	411.44
361.39	397.44
361.616	391.44
361.843	407.44
362.07	412.44
362.296	410.44
362.523	396.44
362.749	403.44
362.976	407.44
363.203	401.44
363.429	396.44
363.656	425.44
363.882	383.44
364.109	403.44
364.335	389.44
364.562	403.44
364.788	392.44
365.015	397.44
365.241	390.44
365.468	417.44
365.694	397.44
365.92	396.44
366.147	397.44
366.373	397.44
366.599	398.44
366.826	379.44
367.052	393.44
367.278	382.44
367.505	384.44
367.731	390.44
367.957	385.44
368.184	391.44
368.41	399.44
368.636	403.44
368.862	416.44
369.089	405.44
369.315	411.44
369.541	370.44
369.767	405.44
369.993	385.44
370.219	405.44
370.445	394.44
370.672	380.44
370.898	379.44
371.124	408.44
371.35	388.44
371.576	411.44
371.802	385.44
372.028	393.44
372.254	402.44
372.48	405.44
372.706	385.44
372.932	396.44
373.158	398.44
373.384	419.44
373.61	400.44
373.835	385.44
374.061	384.44
374.287	391.44
374.513	389.44
374.739	411.44
374.965	402.44
375.191	435.44
375.416	419.44
375.642	397.44
375.868	394.44
376.094	398.44
376.319	367.44
376.545	410.44
376.771	397.44
376.997	392.44
377.222	368.44
377.448	383.44
377.674	378.44
377.899	395.44
378.125	400.44
378.35	379.44
378.576	387.44
378.802	393.44
379.027	378.44
379.253	388.44
379.478	384.44
379.704	391.44
379.929	377.44
380.155	390.44
380.38	388.44
380.606	386.44
380.831	387.44
381.057	399.44
381.282	402.44
381.507	407.44
381.733	402.44
381.958	400.44
382.184	402.44
382.409	380.44
382.634	405.44
382.86	404.44
383.085	389.44
383.31	397.44
383.535	410.44
383.761	427.44
383.986	389.44
384.211	415.44
384.436	400.44
384.662	423.44
384.887	421.44
385.112	408.44
385.337	406.44
385.562	420.44
385.787	427.44
386.013	434.44
386.238	446.44
386.463	413.44
386.688	444.44
386.913	403.44
387.138	422.44
387.363	430.44
387.588	424.44
387.813	451.44
388.038	416.44
388.263	435.44
388.488	420.44
388.713	427.44
388.938	434.44
389.163	424.44
389.387	431.44
389.612	423.44
389.837	426.44
390.062	435.44
390.287	421.44
390.512	412.44
390.736	422.44
390.961	414.44
391.186	436.44
391.411	416.44
391.636	444.44
391.86	430.44
392.085	440.44
392.31	423.44
392.534	426.44
392.759	453.44
392.984	427.44
393.208	433.44
393.433	437.44
393.658	434.44
393.882	426.44
394.107	431.44
394.331	433.44
394.556	434.44
394.78	442.44
395.005	427.44
395.229	449.44
395.454	454.44
395.678	456.44
395.903	440.44
396.127	473.44
396.352	447.44
396.576	435.44
396.801	449.44
397.025	434.44
397.249	435.44
397.474	457.44
397.698	468.44
397.922	466.44
398.147	451.44
398.371	465.44
398.595	480.44
398.82	466.44
399.044	488.44
399.268	533.44
399.492	573.44
399.717	587.44
399.941	619.44
400.165	608.44
400.389	593.44
400.613	545.44
400.837	515.44
401.062	512.44
401.286	510.44
401.51	472.44
401.734	475.44
401.958	459.44
402.182	490.44
402.406	494.44
402.63	491.44
402.854	501.44
403.078	523.44
403.302	481.44
403.526	488.44
403.75	518.44
403.974	513.44
404.198	533.44
404.422	527.44
404.645	502.44
404.869	510.44
405.093	535.44
405.317	562.44
405.541	581.44
405.765	541.44
405.988	528.44
406.212	532.44
406.436	550.44
406.66	533.44
406.883	529.44
407.107	555.44
407.331	589.44
407.555	640.44
407.778	613.44
408.002	598.44
408.226	523.44
408.449	531.44
408.673	530.44
408.896	566.44
409.12	578.44
409.344	566.44
409.567	499.44
409.791	528.44
410.014	509.44
410.238	483.44
410.461	481.44
410.685	502.44
410.908	507.44
411.132	528.44
411.355	536.44
411.578	520.44
411.802	486.44
412.025	498.44
412.249	501.44
412.472	535.44
412.695	553.44
412.919	535.44
413.142	498.44
413.365	468.44
413.589	484.44
413.812	482.44
414.035	458.44
414.258	465.44
414.482	460.44
414.705	477.44
414.928	470.44
415.151	463.44
415.374	472.44
415.597	498.44
415.821	446.44
416.044	453.44
416.267	473.44
416.49	465.44
416.713	472.44
416.936	466.44
417.159	444.44
417.382	477.44
417.605	471.44
417.828	474.44
418.051	471.44
418.274	451.44
418.497	449.44
418.72	454.44
418.943	469.44
419.166	471.44
419.389	497.44
419.611	492.44
419.834	503.44
420.057	467.44
420.28	494.44
420.503	470.44
420.726	456.44
420.948	484.44
421.171	518.44
421.394	559.44
421.617	513.44
421.839	475.44
422.062	487.44
422.285	486.44
422.507	510.44
422.73	573.44
422.953	553.44
423.175	503.44
423.398	491.44
423.621	481.44
423.843	493.44
424.066	487.44
424.288	516.44
424.511	533.44
424.733	540.44
424.956	599.44
425.178	605.44
425.401	571.44
425.623	604.44
425.846	532.44
426.068	495.44
426.291	476.44
426.513	474.44
426.735	499.44
426.958	513.44
427.18	597.44
427.402	691.44
427.625	719.44
427.847	617.44
428.069	565.44
428.292	512.44
428.514	477.44
428.736	466.44
428.958	467.44
429.181	442.44
429.403	443.44
429.625	464.44
429.847	490.44
430.069	517.44
430.292	519.44
430.514	462.44
430.736	461.44
430.958	456.44
431.18	437.44
431.402	426.44
431.624	422.44
431.846	430.44
432.068	407.44
432.29	432.44
432.512	421.44
432.734	457.44
432.956	436.44
433.178	465.44
433.4	444.44
433.622	443.44
433.844	456.44
434.066	440.44
434.287	416.44
434.509	443.44
434.731	456.44
434.953	427.44
435.175	457.44
435.397	486.44
435.618	476.44
435.84	508.44
436.062	588.44
436.284	629.44
436.505	540.44
436.727	515.44
436.949	479.44
437.17	455.44
437.392	431.44
437.614	476.44
437.835	474.44
438.057	559.44
438.278	623.44
438.5	613.44
438.721	661.44
438.943	639.44
439.165	523.44
439.386	492.44
439.608	476.44
439.829	479.44
440.05	508.44
440.272	561.44
440.493	523.44
440.715	479.44
440.936	460.44
441.158	468.44
441.379	479.44
441.6	474.44
441.822	482.44
442.043	506.44
442.264	561.44
442.486	603.44
442.707	522.44
442.928	477.44
443.149	506.44
443.371	511.44
443.592	543.44
443.813	613.44
444.034	629.44
444.255	556.44
444.476	515.44
444.698	505.44
444.919	501.44
445.14	584.44
445.361	545.44
445.582	529.44
445.803	573.44
446.024	650.44
446.245	633.44
446.466	612.44
446.687	504.44
446.908	473.44
447.129	474.44
447.35	456.44
447.571	454.44
447.792	421.44
448.013	433.44
448.234	442.44
448.455	489.44
448.675	579.44
448.896	659.44
449.117	575.44
449.338	537.44
449.559	610.44
449.779	687.44
450	565.44
450.221	480.44
450.442	453.44
450.662	439.44
450.883	417.44
451.104	436.44
451.324	421.44
451.545	420.44
451.766	411.44
451.986	387.44
452.207	386.44
452.428	379.44
452.648	387.44
452.869	404.44
453.089	407.44
453.31	407.44
453.53	387.44
453.751	390.44
453.971	407.44
454.192	417.44
454.412	402.44
454.633	429.44
454.853	389.44
455.073	378.44
455.294	395.44
455.514	464.44
455.734	445.44
455.955	415.44
456.175	407.44
456.395	390.44
456.616	376.44
456.836	402.44
457.056	367.44
457.276	370.44
457.497	378.44
457.717	375.44
457.937	388.44
458.157	393.44
458.377	375.44
458.598	401.44
458.818	452.44
459.038	491.44
459.258	500.44
459.478	466.44
459.698	433.44
459.918	429.44
460.138	459.44
460.358	436.44
460.578	447.44
460.798	435.44
461.018	456.44
461.238	446.44
461.458	468.44
461.678	427.44
461.898	428.44
462.118	444.44
462.338	466.44
462.558	475.44
462.777	457.44
462.997	485.44
463.217	489.44
463.437	517.44
463.657	493.44
463.876	482.44
464.096	487.44
464.316	479.44
464.536	481.44
464.755	484.44
464.975	494.44
465.195	500.44
465.414	490.44
465.634	461.44
465.854	436.44
466.073	419.44
466.293	435.44
466.512	406.44
466.732	415.44
466.951	418.44
467.171	407.44
467.391	405.44
467.61	435.44
467.829	409.44
468.049	409.44
468.268	432.44
468.488	381.44
468.707	408.44
468.927	409.44
469.146	398.44
469.365	419.44
469.585	418.44
469.804	406.44
470.023	409.44
470.243	407.44
470.462	415.44
470.681	423.44
470.901	442.44
471.12	429.44
471.339	420.44
471.558	420.44
471.777	411.44
471.997	396.44
472.216	425.44
472.435	449.44
472.654	409.44
472.873	417.44
473.092	410.44
473.311	423.44
473.53	434.44
473.749	409.44
473.968	442.44
474.187	542.44
474.406	528.44
474.625	454.44
474.844	436.44
475.063	419.44
475.282	403.44
475.501	414.44
475.72	427.44
475.939	424.44
476.158	419.44
476.377	424.44
476.596	434.44
476.814	437.44
477.033	436.44
477.252	444.44
477.471	470.44
477.69	451.44
477.908	466.44
478.127	464.44
478.346	443.44
478.564	470.44
478.783	454.44
479.002	464.44
479.22	463.44
479.439	481.44
479.658	486.44
479.876	493.44
480.095	487.44
480.313	519.44
480.532	484.44
480.751	511.44
480.969	524.44
481.188	559.44
481.406	555.44
481.624	523.44
481.843	504.44
482.061	499.44
482.28	466.44
482.498	494.44
482.717	480.44
482.935	482.44
483.153	462.44
483.372	461.44
483.59	473.44
483.808	465.44
484.027	492.44
484.245	472.44
484.463	465.44
484.681	497.44
484.9	502.44
485.118	501.44
485.336	484.44
485.554	513.44
485.772	491.44
485.99	477.44
486.209	486.44
486.427	475.44
486.645	509.44
486.863	531.44
487.081	500.44
487.299	504.44
487.517	500.44
487.735	496.44
487.953	500.44
488.171	515.44
488.389	503.44
488.607	509.44
488.825	523.44
489.043	513.44
489.261	516.44
489.479	498.44
489.696	511.44
489.914	513.44
490.132	520.44
490.35	517.44
490.568	523.44
490.786	517.44
491.003	539.44
491.221	539.44
491.439	561.44
491.657	578.44
491.874	561.44
492.092	562.44
492.31	577.44
492.527	561.44
492.745	541.44
492.963	584.44
493.18	585.44
493.398	577.44
493.615	583.44
493.833	571.44
494.05	597.44
494.268	570.44
494.485	591.44
494.703	585.44
494.92	614.44
495.138	567.44
495.355	569.44
495.573	581.44
495.79	592.44
496.008	587.44
496.225	582.44
496.442	597.44
496.66	629.44
496.877	587.44
497.094	584.44
497.312	611.44
497.529	608.44
497.746	639.44
497.963	614.44
498.181	651.44
498.398	675.44
498.615	672.44
498.832	689.44
499.049	695.44
499.267	735.44
499.484	767.44
499.701	791.44
499.918	778.44
500.135	839.44
500.352	893.44
500.569	927.44
500.786	951.44
501.003	900.44
501.22	864.44
501.437	858.44
501.654	785.44
501.871	776.44
502.088	731.44
502.305	709.44
502.522	681.44
502.739	666.44
502.956	655.44
503.172	639.44
503.389	656.44
503.606	627.44
503.823	603.44
504.04	601.44
504.256	597.44
504.473	582.44
504.69	590.44
504.907	587.44
505.123	617.44
505.34	581.44
505.557	585.44
505.773	576.44
505.99	562.44
506.207	554.44
506.423	570.44
506.64	564.44
506.856	529.44
507.073	541.44
507.289	543.44
507.506	528.44
507.722	543.44
507.939	544.44
508.155	520.44
508.372	526.44
508.588	516.44
508.805	528.44
509.021	503.44
509.238	530.44
509.454	520.44
509.67	507.44
509.887	507.44
510.103	510.44
510.319	515.44
510.536	556.44
510.752	790.44
510.968	645.44
511.184	538.44
511.401	479.44
511.617	496.44
511.833	489.44
512.049	479.44
512.265	495.44
512.481	500.44
512.698	507.44
512.914	493.44
513.13	491.44
513.346	474.44
513.562	481.44
513.778	475.44
513.994	487.44
514.21	494.44
514.426	485.44
514.642	524.44
514.858	553.44
515.074	562.44
515.29	614.44
515.506	777.44
515.721	669.44
515.937	549.44
516.153	511.44
516.369	515.44
516.585	523.44
516.801	526.44
517.016	537.44
517.232	513.44
517.448	516.44
517.664	547.44
517.879	532.44
518.095	535.44
518.311	537.44
518.527	509.44
518.742	510.44
518.958	501.44
519.173	517.44
519.389	496.44
519.605	491.44
519.82	482.44
520.036	496.44
520.251	513.44
520.467	505.44
520.682	498.44
520.898	516.44
521.113	526.44
521.329	540.44
521.544	571.44
521.76	673.44
521.975	955.44
522.19	901.44
522.406	597.44
522.621	524.44
522.836	491.44
523.052	459.44
523.267	444.44
523.482	454.44
523.698	459.44
523.913	451.44
524.128	436.44
524.343	448.44
524.559	434.44
524.774	440.44
524.989	437.44
525.204	444.44
525.419	431.44
525.634	445.44
525.849	440.44
526.064	415.44
526.28	409.44
526.495	422.44
526.71	421.44
526.925	392.44
527.14	408.44
527.355	403.44
527.57	400.44
527.785	418.44
527.999	414.44
528.214	427.44
528.429	398.44
528.644	395.44
528.859	414.44
529.074	415.44
529.289	401.44
529.503	452.44
529.718	456.44
529.933	425.44
530.148	431.44
530.363	391.44
530.577	427.44
530.792	404.44
531.007	407.44
531.221	411.44
531.436	391.44
531.651	402.44
531.865	414.44
532.08	411.44
532.295	397.44
532.509	396.44
532.724	397.44
532.938	404.44
533.153	383.44
533.367	396.44
533.582	409.44
533.796	407.44
534.011	405.44
534.225	376.44
534.44	375.44
534.654	390.44
534.868	388.44
535.083	409.44
535.297	391.44
535.511	388.44
535.726	392.44
535.94	376.44
536.154	397.44
536.369	383.44
536.583	388.44
536.797	402.44
537.011	385.44
537.225	375.44
537.44	375.44
537.654	379.44
537.868	360.44
538.082	377.44
538.296	391.44
538.51	406.44
538.724	388.44
538.938	382.44
539.153	347.44
539.367	375.44
539.581	376.44
539.795	364.44
540.009	383.44
540.222	377.44
540.436	379.44
540.65	400.44
540.864	389.44
541.078	383.44
541.292	376.44
541.506	379.44
541.72	394.44
541.934	392.44
542.147	371.44
542.361	385.44
542.575	378.44
542.789	367.44
543.002	368.44
543.216	363.44
543.43	383.44
543.644	383.44
543.857	371.44
544.071	380.44
544.285	381.44
544.498	398.44
544.712	387.44
544.925	367.44
545.139	365.44
545.352	383.44
545.566	355.44
545.779	383.44
545.993	371.44
546.206	364.44
546.42	377.44
546.633	381.44
546.847	377.44
547.06	388.44
547.274	384.44
547.487	373.44
547.7	366.44
547.914	375.44
548.127	358.44
548.34	388.44
548.554	357.44
548.767	347.44
548.98	369.44
549.193	368.44
549.407	372.44
549.62	386.44
549.833	368.44
550.046	360.44
550.259	387.44
550.473	355.44
550.686	361.44
550.899	377.44
551.112	365.44
551.325	364.44
551.538	367.44
551.751	375.44
551.964	380.44
552.177	360.44
552.39	361.44
552.603	370.44
552.816	367.44
553.029	359.44
553.242	383.44
553.455	381.44
553.667	376.44
553.88	388.44
554.093	381.44
554.306	381.44
554.519	380.44
554.732	363.44
554.944	352.44
555.157	359.44
555.37	369.44
555.583	353.44
555.795	352.44
556.008	336.44
556.221	349.44
556.433	326.44
556.646	345.44
556.859	348.44
557.071	328.44
557.284	325.44
557.496	327.44
557.709	336.44
557.921	333.44
558.134	325.44
558.346	328.44
558.559	330.44
558.771	325.44
558.984	338.44
559.196	328.44
559.409	328.44
559.621	319.44
559.833	322.44
560.046	324.44
560.258	332.44
560.47	311.44
560.683	320.44
560.895	325.44
561.107	313.44
561.32	328.44
561.532	320.44
561.744	336.44
561.956	325.44
562.168	315.44
562.381	332.44
562.593	322.44
562.805	320.44
563.017	331.44
563.229	331.44
563.441	322.44
563.653	331.44
563.865	311.44
564.077	334.44
564.289	344.44
564.501	328.44
564.713	344.44
564.925	346.44
565.137	359.44
565.349	351.44
565.561	353.44
565.773	352.44
565.985	360.44
566.197	373.44
566.408	385.44
566.62	421.44
566.832	405.44
567.044	411.44
567.255	431.44
567.467	428.44
567.679	422.44
567.891	466.44
568.102	441.44
568.314	434.44
568.526	416.44
568.737	403.44
568.949	381.44
569.161	356.44
569.372	357.44
569.584	338.44
569.795	354.44
570.007	344.44
570.218	373.44
570.43	341.44
570.641	327.44
570.853	329.44
571.064	328.44
571.276	331.44
571.487	317.44
571.698	307.44
571.91	319.44
572.121	313.44
572.333	297.44
572.544	303.44
572.755	303.44
572.966	272.44
573.178	308.44
573.389	302.44
573.6	297.44
573.811	280.44
574.023	282.44
574.234	295.44
574.445	285.44
574.656	289.44
574.867	284.44
575.078	275.44
575.289	276.44
575.501	262.44
575.712	263.44
575.923	277.44
576.134	292.44
576.345	286.44
576.556	278.44
576.767	266.44
576.978	270.44
577.188	280.44
577.399	271.44
577.61	289.44
577.821	273.44
578.032	258.44
578.243	280.44
578.454	399.44
578.665	290.44
578.875	266.44
579.086	268.44
579.297	264.44
579.508	278.44
579.718	261.44
579.929	254.44
580.14	265.44
580.35	248.44
580.561	272.44
580.772	277.44
580.982	248.44
581.193	265.44
581.403	261.44
581.614	266.44
581.825	255.44
582.035	263.44
582.246	254.44
582.456	254.44
582.667	244.44
582.877	256.44
583.087	243.44
583.298	269.44
583.508	262.44
583.719	255.44
583.929	247.44
584.139	253.44
584.35	254.44
584.56	242.44
584.77	263.44
584.981	263.44
585.191	259.44
585.401	247.44
585.611	263.44
585.821	258.44
586.032	247.44
586.242	256.44
586.452	256.44
586.662	250.44
586.872	241.44
587.082	265.44
587.292	260.44
587.502	263.44
587.713	259.44
587.923	251.44
588.133	250.44
588.343	243.44
588.553	248.44
588.762	254.44
588.972	236.44
589.182	251.44
589.392	236.44
589.602	245.44
589.812	243.44
590.022	250.44
590.232	243.44
590.441	240.44
590.651	259.44
590.861	247.44
591.071	247.44
591.281	241.44
591.49	248.44
591.7	269.44
591.91	261.44
592.119	247.44
592.329	259.44
592.539	264.44
592.748	273.44
592.958	262.44
593.167	257.44
593.377	266.44
593.587	277.44
593.796	259.44
594.006	279.44
594.215	289.44
594.424	290.44
594.634	280.44
594.843	255.44
595.053	265.44
595.262	269.44
595.472	246.44
595.681	235.44
595.89	234.44
596.1	264.44
596.309	230.44
596.518	236.44
596.727	246.44
596.937	244.44
597.146	233.44
597.355	239.44
597.564	236.44
597.774	227.44
597.983	226.44
598.192	236.44
598.401	226.44
598.61	220.44
598.819	225.44
599.028	233.44
599.237	228.44
599.446	219.44
599.655	212.44
599.864	227.44
600.073	210.44
600.282	233.44
600.491	228.44
600.7	219.44
600.909	216.44
601.118	204.44
601.327	236.44
601.536	234.44
601.745	211.44
601.953	198.44
602.162	203.44
602.371	221.44
602.58	215.44
602.789	220.44
602.997	229.44
603.206	205.44
603.415	212.44
603.623	212.44
603.832	229.44
604.041	213.44
604.249	229.44
604.458	210.44
604.666	191.44
604.875	220.44
605.084	188.44
605.292	210.44
605.501	199.44
605.709	197.44
605.918	203.44
606.126	206.44
606.334	199.44
606.543	205.44
606.751	204.44
606.96	210.44
607.168	195.44
607.376	225.44
607.585	235.44
607.793	209.44
608.001	199.44
608.21	206.44
608.418	202.44
608.626	198.44
608.834	209.44
609.043	211.44
609.251	203.44
609.459	199.44
609.667	204.44
609.875	187.44
610.083	200.44
610.291	220.44
610.499	199.44
610.707	195.44
610.916	212.44
611.124	223.44
611.332	210.44
611.54	211.44
611.748	210.44
611.955	198.44
612.163	202.44
612.371	194.44
612.579	203.44
612.787	207.44
612.995	195.44
613.203	201.44
613.411	210.44
613.618	184.44
613.826	188.44
614.034	199.44
614.242	202.44
614.449	204.44
614.657	197.44
614.865	183.44
615.072	191.44
615.28	188.44
615.488	202.44
615.695	200.44
615.903	186.44
616.111	205.44
616.318	204.44
616.526	199.44
616.733	203.44
616.941	212.44
617.148	226.44
617.356	190.44
617.563	196.44
617.771	210.44
617.978	190.44
618.185	201.44
618.393	189.44
618.6	198.44
618.807	188.44
619.015	193.44
619.222	179.44
619.429	187.44
619.637	218.44
619.844	196.44
620.051	188.44
620.258	187.44
620.466	181.44
620.673	195.44
620.88	194.44
621.087	217.44
621.294	197.44
621.501	195.44
621.708	186.44
621.915	180.44
622.122	179.44
622.329	186.44
622.536	193.44
622.743	198.44
622.95	172.44
623.157	189.44
623.364	187.44
623.571	179.44
623.778	186.44
623.985	189.44
624.192	181.44
624.399	188.44
624.606	188.44
624.812	179.44
625.019	168.44
625.226	170.44
625.433	192.44
625.639	167.44
625.846	163.44
626.053	172.44
626.259	182.44
626.466	177.44
626.673	167.44
626.879	186.44
627.086	181.44
627.293	182.44
627.499	182.44
627.706	184.44
627.912	164.44
628.119	161.44
628.325	174.44
628.532	175.44
628.738	172.44
628.945	188.44
629.151	157.44
629.357	168.44
629.564	164.44
629.77	168.44
629.976	178.44
630.183	177.44
630.389	180.44
630.595	180.44
630.802	168.44
631.008	155.44
631.214	172.44
631.42	167.44
631.627	169.44
631.833	163.44
632.039	169.44
632.245	170.44
632.451	164.44
632.657	184.44
632.863	157.44
633.069	173.44
633.275	168.44
633.481	165.44
633.688	168.44
633.893	179.44
634.099	147.44
634.305	148.44
634.511	163.44
634.717	167.44
634.923	168.44
635.129	158.44
635.335	160.44
635.541	169.44
635.747	176.44
635.952	169.44
636.158	169.44
636.364	158.44
636.57	161.44
636.775	183.44
636.981	155.44
637.187	151.44
637.392	162.44
637.598	162.44
637.804	157.44
638.009	160.44
638.215	166.44
638.421	147.44
638.626	167.44
638.832	159.44
639.037	159.44
639.243	158.44
639.448	160.44
639.654	159.44
639.859	154.44
640.065	154.44
640.27	159.44
640.475	139.44
640.681	139.44
640.886	172.44
641.091	148.44
641.297	151.44
641.502	160.44
641.707	148.44
641.913	154.44
642.118	145.44
642.323	148.44
642.528	143.44
642.733	145.44
642.939	147.44
643.144	148.44
643.349	152.44
643.554	142.44
643.759	141.44
643.964	154.44
644.169	147.44
644.374	160.44
644.579	144.44
644.784	144.44
644.989	140.44
645.194	151.44
645.399	159.44
645.604	148.44
645.809	157.44
646.014	145.44
646.219	153.44
646.423	149.44
646.628	144.44
646.833	147.44
647.038	163.44
647.243	133.44
647.447	151.44
647.652	155.44
647.857	138.44
648.062	147.44
648.266	139.44
648.471	151.44
648.676	153.44
648.88	156.44
649.085	152.44
649.289	144.44
649.494	144.44
649.698	153.44
649.903	174.44
650.107	163.44
650.312	164.44
650.516	136.44
650.721	137.44
650.925	126.44
651.13	133.44
651.334	146.44
651.539	139.44
651.743	125.44
651.947	129.44
652.152	121.44
652.356	132.44
652.56	127.44
652.764	129.44
652.969	127.44
653.173	142.44
653.377	123.44
653.581	118.44
653.785	125.44
653.99	139.44
654.194	127.44
654.398	126.44
654.602	113.44
654.806	127.44
655.01	140.44
655.214	131.44
655.418	125.44
655.622	133.44
655.826	117.44
656.03	131.44
656.234	128.44
656.438	134.44
656.642	133.44
656.846	135.44
657.049	126.44
657.253	128.44
657.457	127.44
657.661	100.44
657.865	111.44
658.068	101.44
658.272	119.44
658.476	96.44
658.68	115.44
658.883	99.44
659.087	101.44
659.291	99.44
659.494	101.44
659.698	108.44
659.901	88.44
660.105	93.44
660.309	98.44
660.512	93.44
660.716	85.44
660.919	95.44
661.123	95.44
661.326	86.44
661.53	88.44
661.733	86.44
661.936	81.44
662.14	77.44
662.343	80.44
662.546	95.44
662.75	95.44
662.953	85.44
663.156	85.44
663.36	83.44
663.563	88.44
663.766	81.44
663.969	78.44
664.173	79.44
664.376	72.44
664.579	75.44
664.782	75.44
664.985	78.44
665.188	89.44
665.391	83.44
665.594	82.44
665.797	75.44
666	88.44
666.203	81.44
666.406	75.44
666.609	82.44
666.812	93.44
667.015	83.44
667.218	89.44
667.421	75.44
667.624	77.44
667.827	69.44
668.03	84.44
668.232	68.44
668.435	90.44
668.638	73.44
668.841	83.44
669.043	87.44
669.246	77.44
669.449	71.44
669.651	80.44
669.854	86.44
670.057	83.44
670.259	76.44
670.462	101.44
670.665	77.44
670.867	84.44
671.07	90.44
671.272	71.44
671.475	88.44
671.677	86.44
671.88	81.44
672.082	83.44
672.284	76.44
672.487	70.44
672.689	92.44
672.892	73.44
