Data from 1964.PennyLincolnUp.Lamp.En5.5.200Scan.071719.P1._HRD10591_14-05-46-910.txt Node
Date: Thu Jul 18 14:05:46 EDT 2019
User: cochatt
Spectrometer: HR+D1059
Trigger mode: 1
Integration Time (sec): 1.000000E-1
Scans to average: 1
Electric dark correction enabled: true
Nonlinearity correction enabled: false
Boxcar width: 0
XAxis mode: Wavelengths
Number of Pixels in Spectrum: 2048
>>>>>Begin Spectral Data<<<<<
223.165	-13
223.4	-13
223.635	-13
223.869	1
224.104	-12
224.338	-20
224.573	-15
224.808	-12
225.042	-14
225.277	-14
225.511	3
225.746	-10
225.98	-3
226.215	10
226.449	15
226.683	30
226.918	24
227.152	30
227.387	39
227.621	42
227.856	42
228.09	44
228.324	38
228.559	46
228.793	70
229.027	102
229.262	105
229.496	93
229.73	123
229.964	131
230.199	125
230.433	118
230.667	108
230.901	100
231.136	115
231.37	115
231.604	115
231.838	109
232.072	103
232.306	114
232.541	99
232.775	109
233.009	123
233.243	105
233.477	130
233.711	130
233.945	117
234.179	112
234.413	118
234.647	105
234.881	102
235.115	122
235.349	127
235.583	122
235.817	105
236.051	112
236.285	122
236.519	122
236.753	125
236.987	140
237.221	157
237.455	215
237.689	157
237.922	135
238.156	135
238.39	126
238.624	134
238.858	129
239.091	129
239.325	132
239.559	124
239.793	124
240.027	132
240.26	142
240.494	155
240.728	151
240.961	135
241.195	154
241.429	148
241.662	144
241.896	136
242.13	131
242.363	139
242.597	136
242.83	158
243.064	142
243.298	137
243.531	143
243.765	146
243.998	153
244.232	150
244.465	148
244.699	144
244.932	141
245.166	154
245.399	140
245.633	142
245.866	144
246.099	156
246.333	155
246.566	158
246.8	174
247.033	150
247.266	157
247.5	163
247.733	166
247.966	161
248.2	171
248.433	190
248.666	189
248.899	199
249.133	199
249.366	195
249.599	175
249.832	190
250.066	179
250.299	197
250.532	188
250.765	219
250.998	218
251.231	232
251.465	220
251.698	219
251.931	197
252.164	201
252.397	205
252.63	199
252.863	204
253.096	239
253.329	235
253.562	229
253.795	234
254.028	213
254.261	209
254.494	225
254.727	228
254.96	283
255.193	250
255.426	251
255.659	226
255.892	234
256.124	249
256.357	247
256.59	231
256.823	239
257.056	223
257.289	209
257.521	232
257.754	213
257.987	215
258.22	230
258.452	225
258.685	217
258.918	219
259.151	233
259.383	241
259.616	234
259.849	236
260.081	248
260.314	256
260.547	257
260.779	253
261.012	252
261.244	240
261.477	244
261.71	235
261.942	249
262.175	219
262.407	235
262.64	224
262.872	220
263.105	217
263.337	226
263.57	233
263.802	219
264.035	240
264.267	237
264.499	215
264.732	216
264.964	245
265.197	245
265.429	236
265.661	232
265.894	240
266.126	245
266.358	223
266.591	243
266.823	252
267.055	255
267.287	256
267.52	235
267.752	247
267.984	248
268.216	254
268.448	253
268.681	268
268.913	267
269.145	283
269.377	297
269.609	288
269.841	299
270.073	287
270.306	289
270.538	332
270.77	315
271.002	328
271.234	324
271.466	316
271.698	309
271.93	327
272.162	343
272.394	315
272.626	320
272.858	302
273.09	324
273.322	293
273.553	282
273.785	288
274.017	278
274.249	295
274.481	286
274.713	281
274.945	284
275.176	291
275.408	292
275.64	302
275.872	296
276.104	304
276.335	308
276.567	304
276.799	317
277.031	345
277.262	349
277.494	337
277.726	318
277.957	308
278.189	299
278.421	311
278.652	295
278.884	291
279.115	282
279.347	297
279.579	316
279.81	305
280.042	306
280.273	309
280.505	296
280.736	286
280.968	296
281.199	313
281.431	309
281.662	297
281.894	297
282.125	290
282.356	296
282.588	334
282.819	325
283.051	325
283.282	323
283.513	315
283.745	302
283.976	330
284.207	312
284.439	309
284.67	316
284.901	312
285.132	324
285.364	311
285.595	320
285.826	315
286.057	319
286.288	306
286.52	339
286.751	341
286.982	311
287.213	326
287.444	332
287.675	320
287.906	353
288.138	332
288.369	340
288.6	344
288.831	343
289.062	334
289.293	338
289.524	326
289.755	328
289.986	333
290.217	345
290.448	344
290.679	334
290.91	349
291.141	336
291.371	336
291.602	319
291.833	331
292.064	327
292.295	305
292.526	330
292.757	336
292.987	294
293.218	328
293.449	349
293.68	347
293.91	338
294.141	334
294.372	324
294.603	344
294.833	334
295.064	356
295.295	334
295.525	328
295.756	338
295.987	353
296.217	371
296.448	360
296.679	358
296.909	345
297.14	343
297.37	345
297.601	354
297.831	361
298.062	354
298.292	348
298.523	343
298.753	353
298.984	352
299.214	359
299.445	351
299.675	364
299.905	345
300.136	363
300.366	347
300.597	360
300.827	371
301.057	367
301.288	376
301.518	387
301.748	372
301.979	362
302.209	375
302.439	371
302.669	376
302.9	382
303.13	364
303.36	387
303.59	355
303.82	357
304.051	377
304.281	388
304.511	359
304.741	364
304.971	357
305.201	369
305.431	373
305.661	377
305.891	376
306.121	367
306.352	371
306.582	391
306.812	384
307.042	371
307.272	374
307.502	382
307.731	378
307.961	383
308.191	395
308.421	381
308.651	376
308.881	394
309.111	389
309.341	383
309.571	387
309.8	389
310.03	409
310.26	425
310.49	393
310.72	426
310.949	415
311.179	422
311.409	417
311.639	396
311.868	415
312.098	424
312.328	425
312.557	435
312.787	422
313.017	425
313.246	444
313.476	387
313.706	412
313.935	423
314.165	419
314.394	443
314.624	425
314.853	421
315.083	409
315.312	416
315.542	417
315.771	406
316.001	410
316.23	396
316.46	407
316.689	413
316.919	412
317.148	436
317.377	406
317.607	428
317.836	419
318.065	412
318.295	404
318.524	425
318.753	422
318.983	439
319.212	424
319.441	421
319.67	415
319.9	429
320.129	429
320.358	433
320.587	414
320.816	439
321.046	442
321.275	454
321.504	430
321.733	442
321.962	441
322.191	457
322.42	434
322.649	453
322.878	474
323.108	484
323.337	495
323.566	502
323.795	514
324.024	551
324.253	655
324.482	846
324.71	1229
324.939	1695
325.168	1464
325.397	789
325.626	601
325.855	531
326.084	500
326.313	492
326.542	498
326.77	531
326.999	624
327.228	789
327.457	1130
327.686	1268
327.914	876
328.143	641
328.372	574
328.6	572
328.829	568
329.058	565
329.287	540
329.515	515
329.744	525
329.972	514
330.201	529
330.43	551
330.658	565
330.887	572
331.115	557
331.344	520
331.572	507
331.801	505
332.03	520
332.258	494
332.486	494
332.715	504
332.943	522
333.172	497
333.4	507
333.629	509
333.857	533
334.085	551
334.314	536
334.542	584
334.771	590
334.999	539
335.227	534
335.455	507
335.684	491
335.912	454
336.14	505
336.369	503
336.597	502
336.825	488
337.053	487
337.281	487
337.51	472
337.738	475
337.966	481
338.194	470
338.422	462
338.65	463
338.878	491
339.106	439
339.334	448
339.562	447
339.79	455
340.018	451
340.246	482
340.474	471
340.702	464
340.93	469
341.158	465
341.386	461
341.614	459
341.842	475
342.07	456
342.298	468
342.526	447
342.754	444
342.981	443
343.209	462
343.437	475
343.665	473
343.893	487
344.12	501
344.348	506
344.576	490
344.804	490
345.031	475
345.259	480
345.487	461
345.714	473
345.942	457
346.17	465
346.397	451
346.625	443
346.853	429
347.08	450
347.308	429
347.535	448
347.763	444
347.99	469
348.218	440
348.445	428
348.673	428
348.9	441
349.128	452
349.355	426
349.583	437
349.81	410
350.037	428
350.265	440
350.492	417
350.72	410
350.947	429
351.174	451
351.402	441
351.629	438
351.856	438
352.083	430
352.311	429
352.538	428
352.765	455
352.992	447
353.22	436
353.447	432
353.674	419
353.901	431
354.128	408
354.355	393
354.583	422
354.81	424
355.037	410
355.264	419
355.491	411
355.718	403
355.945	429
356.172	401
356.399	418
356.626	410
356.853	425
357.08	411
357.307	399
357.534	414
357.761	412
357.988	421
358.215	396
358.441	425
358.668	396
358.895	407
359.122	410
359.349	415
359.576	410
359.802	443
360.029	454
360.256	471
360.483	460
360.709	427
360.936	409
361.163	432
361.39	421
361.616	425
361.843	406
362.07	427
362.296	412
362.523	405
362.749	422
362.976	395
363.203	429
363.429	439
363.656	409
363.882	407
364.109	422
364.335	418
364.562	404
364.788	411
365.015	415
365.241	393
365.468	409
365.694	412
365.92	418
366.147	419
366.373	424
366.599	416
366.826	405
367.052	419
367.278	419
367.505	409
367.731	430
367.957	423
368.184	415
368.41	420
368.636	418
368.862	413
369.089	413
369.315	399
369.541	425
369.767	400
369.993	417
370.219	416
370.445	424
370.672	425
370.898	407
371.124	397
371.35	398
371.576	401
371.802	386
372.028	415
372.254	412
372.48	422
372.706	400
372.932	422
373.158	400
373.384	423
373.61	413
373.835	401
374.061	422
374.287	406
374.513	423
374.739	417
374.965	428
375.191	406
375.416	439
375.642	422
375.868	413
376.094	415
376.319	401
376.545	407
376.771	386
376.997	402
377.222	390
377.448	411
377.674	402
377.899	403
378.125	379
378.35	402
378.576	400
378.802	400
379.027	384
379.253	372
379.478	381
379.704	397
379.929	399
380.155	401
380.38	423
380.606	409
380.831	415
381.057	432
381.282	406
381.507	396
381.733	422
381.958	410
382.184	412
382.409	428
382.634	411
382.86	416
383.085	406
383.31	408
383.535	418
383.761	414
383.986	418
384.211	437
384.436	413
384.662	420
384.887	416
385.112	455
385.337	411
385.562	448
385.787	427
386.013	467
386.238	469
386.463	450
386.688	443
386.913	440
387.138	435
387.363	451
387.588	436
387.813	427
388.038	450
388.263	449
388.488	441
388.713	472
388.938	434
389.163	462
389.387	438
389.612	433
389.837	451
390.062	426
390.287	431
390.512	437
390.736	437
390.961	433
391.186	468
391.411	467
391.636	445
391.86	474
392.085	451
392.31	465
392.534	460
392.759	457
392.984	449
393.208	440
393.433	458
393.658	452
393.882	454
394.107	429
394.331	454
394.556	443
394.78	432
395.005	441
395.229	453
395.454	449
395.678	464
395.903	473
396.127	486
396.352	478
396.576	454
396.801	463
397.025	450
397.249	447
397.474	463
397.698	466
397.922	484
398.147	489
398.371	509
398.595	489
398.82	510
399.044	499
399.268	535
399.492	568
399.717	595
399.941	624
400.165	615
400.389	621
400.613	573
400.837	505
401.062	494
401.286	489
401.51	501
401.734	488
401.958	517
402.182	509
402.406	520
402.63	494
402.854	523
403.078	526
403.302	515
403.526	532
403.75	525
403.974	510
404.198	520
404.422	517
404.645	555
404.869	548
405.093	541
405.317	578
405.541	604
405.765	557
405.988	538
406.212	548
406.436	544
406.66	566
406.883	551
407.107	545
407.331	602
407.555	653
407.778	653
408.002	611
408.226	563
408.449	568
408.673	551
408.896	558
409.12	619
409.344	570
409.567	511
409.791	504
410.014	515
410.238	519
410.461	501
410.685	527
410.908	520
411.132	547
411.355	582
411.578	556
411.802	508
412.025	524
412.249	536
412.472	515
412.695	554
412.919	556
413.142	516
413.365	489
413.589	514
413.812	485
414.035	502
414.258	485
414.482	502
414.705	479
414.928	470
415.151	467
415.374	479
415.597	456
415.821	488
416.044	473
416.267	483
416.49	468
416.713	477
416.936	446
417.159	476
417.382	495
417.605	462
417.828	486
418.051	484
418.274	505
418.497	478
418.72	487
418.943	474
419.166	470
419.389	508
419.611	489
419.834	515
420.057	490
420.28	493
420.503	486
420.726	479
420.948	515
421.171	536
421.394	523
421.617	503
421.839	474
422.062	486
422.285	517
422.507	557
422.73	608
422.953	606
423.175	525
423.398	516
423.621	492
423.843	550
424.066	538
424.288	518
424.511	539
424.733	579
424.956	644
425.178	609
425.401	619
425.623	588
425.846	529
426.068	523
426.291	488
426.513	487
426.735	507
426.958	555
427.18	596
427.402	692
427.625	761
427.847	663
428.069	605
428.292	537
428.514	501
428.736	489
428.958	501
429.181	484
429.403	473
429.625	483
429.847	494
430.069	557
430.292	554
430.514	475
430.736	483
430.958	485
431.18	472
431.402	475
431.624	447
431.846	444
432.068	427
432.29	438
432.512	442
432.734	461
432.956	443
433.178	467
433.4	453
433.622	438
433.844	459
434.066	448
434.287	457
434.509	441
434.731	459
434.953	462
435.175	486
435.397	499
435.618	520
435.84	542
436.062	608
436.284	658
436.505	547
436.727	491
436.949	495
437.17	472
437.392	474
437.614	477
437.835	516
438.057	565
438.278	657
438.5	629
438.721	699
438.943	678
439.165	537
439.386	502
439.608	504
439.829	501
440.05	521
440.272	552
440.493	517
440.715	492
440.936	485
441.158	483
441.379	484
441.6	482
441.822	490
442.043	525
442.264	614
442.486	639
442.707	553
442.928	529
443.149	536
443.371	528
443.592	568
443.813	643
444.034	671
444.255	590
444.476	534
444.698	524
444.919	520
445.14	622
445.361	561
445.582	549
445.803	589
446.024	667
446.245	656
446.466	629
446.687	530
446.908	492
447.129	485
447.35	476
447.571	461
447.792	463
448.013	465
448.234	461
448.455	523
448.675	622
448.896	680
449.117	594
449.338	564
449.559	643
449.779	716
450	577
450.221	473
450.442	471
450.662	454
450.883	440
451.104	465
451.324	423
451.545	429
451.766	428
451.986	412
452.207	424
452.428	401
452.648	408
452.869	419
453.089	413
453.31	409
453.53	405
453.751	413
453.971	407
454.192	413
454.412	395
454.633	387
454.853	401
455.073	416
455.294	457
455.514	487
455.734	462
455.955	417
456.175	397
456.395	398
456.616	389
456.836	387
457.056	399
457.276	380
457.497	405
457.717	393
457.937	408
458.157	396
458.377	409
458.598	414
458.818	441
459.038	504
459.258	529
459.478	466
459.698	445
459.918	430
460.138	427
460.358	439
460.578	442
460.798	483
461.018	466
461.238	452
461.458	456
461.678	458
461.898	487
462.118	448
462.338	475
462.558	475
462.777	501
462.997	494
463.217	533
463.437	505
463.657	489
463.876	517
464.096	505
464.316	501
464.536	492
464.755	495
464.975	509
465.195	487
465.414	533
465.634	502
465.854	457
466.073	458
466.293	421
466.512	441
466.732	418
466.951	412
467.171	415
467.391	431
467.61	429
467.829	410
468.049	448
468.268	421
468.488	385
468.707	401
468.927	395
469.146	398
469.365	406
469.585	406
469.804	410
470.023	419
470.243	427
470.462	425
470.681	443
470.901	421
471.12	411
471.339	435
471.558	450
471.777	436
471.997	430
472.216	431
472.435	459
472.654	460
472.873	444
473.092	431
473.311	444
473.53	430
473.749	437
473.968	451
474.187	552
474.406	573
474.625	478
474.844	435
475.063	429
475.282	444
475.501	428
475.72	424
475.939	426
476.158	454
476.377	440
476.596	433
476.814	448
477.033	461
477.252	459
477.471	456
477.69	479
477.908	471
478.127	471
478.346	452
478.564	471
478.783	494
479.002	486
479.22	498
479.439	499
479.658	485
479.876	519
480.095	514
480.313	545
480.532	529
480.751	544
480.969	555
481.188	562
481.406	587
481.624	516
481.843	513
482.061	528
482.28	490
482.498	473
482.717	495
482.935	507
483.153	499
483.372	478
483.59	515
483.808	496
484.027	511
484.245	483
484.463	493
484.681	504
484.9	515
485.118	502
485.336	499
485.554	500
485.772	513
485.99	507
486.209	526
486.427	517
486.645	521
486.863	510
487.081	527
487.299	522
487.517	538
487.735	521
487.953	534
488.171	495
488.389	522
488.607	549
488.825	537
489.043	532
489.261	531
489.479	558
489.696	518
489.914	512
490.132	563
490.35	537
490.568	541
490.786	555
491.003	567
491.221	563
491.439	575
491.657	593
491.874	606
492.092	597
492.31	601
492.527	588
492.745	603
492.963	598
493.18	580
493.398	615
493.615	609
493.833	579
494.05	597
494.268	592
494.485	591
494.703	592
494.92	575
495.138	620
495.355	615
495.573	611
495.79	624
496.008	600
496.225	591
496.442	613
496.66	609
496.877	601
497.094	642
497.312	636
497.529	639
497.746	643
497.963	645
498.181	686
498.398	684
498.615	712
498.832	728
499.049	718
499.267	756
499.484	783
499.701	820
499.918	862
500.135	897
500.352	945
500.569	980
500.786	935
501.003	937
501.22	908
501.437	846
501.654	815
501.871	809
502.088	777
502.305	739
502.522	725
502.739	696
502.956	688
503.172	647
503.389	658
503.606	636
503.823	639
504.04	657
504.256	627
504.473	636
504.69	643
504.907	629
505.123	605
505.34	588
505.557	609
505.773	590
505.99	583
506.207	581
506.423	582
506.64	554
506.856	564
507.073	573
507.289	564
507.506	571
507.722	552
507.939	569
508.155	547
508.372	547
508.588	532
508.805	550
509.021	535
509.238	557
509.454	557
509.67	541
509.887	528
510.103	544
510.319	537
510.536	585
510.752	796
510.968	672
511.184	548
511.401	534
511.617	521
511.833	492
512.049	522
512.265	490
512.481	522
512.698	505
512.914	507
513.13	501
513.346	514
513.562	503
513.778	501
513.994	525
514.21	509
514.426	523
514.642	521
514.858	581
515.074	557
515.29	647
515.506	801
515.721	679
515.937	569
516.153	547
516.369	527
516.585	551
516.801	542
517.016	533
517.232	540
517.448	531
517.664	552
517.879	545
518.095	572
518.311	544
518.527	542
518.742	536
518.958	523
519.173	527
519.389	527
519.605	521
519.82	501
520.036	520
520.251	525
520.467	528
520.682	564
520.898	531
521.113	549
521.329	571
521.544	601
521.76	704
521.975	967
522.19	901
522.406	625
522.621	527
522.836	517
523.052	492
523.267	483
523.482	478
523.698	464
523.913	448
524.128	429
524.343	450
524.559	452
524.774	448
524.989	446
525.204	446
525.419	444
525.634	427
525.849	427
526.064	434
526.28	428
526.495	418
526.71	428
526.925	439
527.14	441
527.355	423
527.57	424
527.785	423
527.999	410
528.214	454
528.429	424
528.644	427
528.859	441
529.074	434
529.289	446
529.503	454
529.718	472
529.933	449
530.148	430
530.363	444
530.577	413
530.792	420
531.007	421
531.221	427
531.436	431
531.651	420
531.865	431
532.08	425
532.295	418
532.509	421
532.724	422
532.938	397
533.153	432
533.367	405
533.582	419
533.796	405
534.011	420
534.225	407
534.44	406
534.654	402
534.868	415
535.083	408
535.297	424
535.511	381
535.726	449
535.94	406
536.154	398
536.369	406
536.583	409
536.797	406
537.011	414
537.225	411
537.44	388
537.654	398
537.868	388
538.082	396
538.296	401
538.51	389
538.724	396
538.938	394
539.153	389
539.367	407
539.581	430
539.795	408
540.009	401
540.222	383
540.436	388
540.65	387
540.864	392
541.078	407
541.292	395
541.506	384
541.72	384
541.934	383
542.147	410
542.361	401
542.575	390
542.789	395
543.002	401
543.216	386
543.43	412
543.644	398
543.857	401
544.071	391
544.285	385
544.498	391
544.712	399
544.925	399
545.139	396
545.352	391
545.566	391
545.779	402
545.993	397
546.206	406
546.42	403
546.633	399
546.847	392
547.06	400
547.274	398
547.487	372
547.7	376
547.914	375
548.127	383
548.34	387
548.554	383
548.767	367
548.98	383
549.193	379
549.407	379
549.62	374
549.833	388
550.046	366
550.259	380
550.473	376
550.686	371
550.899	375
551.112	377
551.325	361
551.538	368
551.751	365
551.964	375
552.177	377
552.39	377
552.603	391
552.816	363
553.029	381
553.242	376
553.455	392
553.667	400
553.88	394
554.093	395
554.306	397
554.519	400
554.732	375
554.944	376
555.157	367
555.37	379
555.583	385
555.795	361
556.008	365
556.221	357
556.433	373
556.646	354
556.859	345
557.071	344
557.284	344
557.496	368
557.709	344
557.921	331
558.134	331
558.346	340
558.559	336
558.771	337
558.984	323
559.196	345
559.409	338
559.621	340
559.833	341
560.046	332
560.258	335
560.47	343
560.683	322
560.895	334
561.107	362
561.32	323
561.532	328
561.744	320
561.956	345
562.168	315
562.381	355
562.593	336
562.805	332
563.017	350
563.229	351
563.441	342
563.653	349
563.865	349
564.077	345
564.289	341
564.501	347
564.713	348
564.925	353
565.137	359
565.349	366
565.561	368
565.773	395
565.985	371
566.197	382
566.408	415
566.62	415
566.832	413
567.044	444
567.255	419
567.467	435
567.679	469
567.891	465
568.102	456
568.314	451
568.526	427
568.737	416
568.949	421
569.161	382
569.372	363
569.584	376
569.795	362
570.007	351
570.218	366
570.43	372
570.641	343
570.853	331
571.064	326
571.276	362
571.487	326
571.698	315
571.91	317
572.121	320
572.333	320
572.544	328
572.755	301
572.966	309
573.178	307
573.389	307
573.6	311
573.811	300
574.023	289
574.234	299
574.445	318
574.656	299
574.867	312
575.078	290
575.289	305
575.501	283
575.712	300
575.923	275
576.134	270
576.345	266
576.556	280
576.767	290
576.978	274
577.188	284
577.399	281
577.61	299
577.821	273
578.032	279
578.243	299
578.454	376
578.665	337
578.875	291
579.086	280
579.297	268
579.508	291
579.718	270
579.929	271
580.14	265
580.35	286
580.561	267
580.772	277
580.982	268
581.193	275
581.403	270
581.614	275
581.825	296
582.035	266
582.246	279
582.456	255
582.667	268
582.877	264
583.087	267
583.298	263
583.508	253
583.719	283
583.929	262
584.139	261
584.35	244
584.56	263
584.77	265
584.981	252
585.191	273
585.401	245
585.611	244
585.821	269
586.032	265
586.242	249
586.452	264
586.662	256
586.872	256
587.082	262
587.292	249
587.502	268
587.713	254
587.923	243
588.133	240
588.343	263
588.553	243
588.762	258
588.972	265
589.182	247
589.392	259
589.602	260
589.812	272
590.022	261
590.232	268
590.441	262
590.651	271
590.861	251
591.071	263
591.281	259
591.49	261
591.7	269
591.91	263
592.119	261
592.329	268
592.539	289
592.748	261
592.958	271
593.167	279
593.377	287
593.587	281
593.796	282
594.006	281
594.215	275
594.424	287
594.634	264
594.843	283
595.053	261
595.262	264
595.472	251
595.681	251
595.89	278
596.1	252
596.309	260
596.518	245
596.727	259
596.937	248
597.146	252
597.355	235
597.564	245
597.774	244
597.983	240
598.192	243
598.401	228
598.61	229
598.819	222
599.028	228
599.237	220
599.446	227
599.655	229
599.864	240
600.073	243
600.282	227
600.491	240
600.7	243
600.909	219
601.118	228
601.327	223
601.536	224
601.745	222
601.953	237
602.162	218
602.371	217
602.58	216
602.789	219
602.997	219
603.206	247
603.415	216
603.623	215
603.832	206
604.041	210
604.249	209
604.458	228
604.666	208
604.875	219
605.084	213
605.292	211
605.501	215
605.709	207
605.918	212
606.126	219
606.334	208
606.543	213
606.751	213
606.96	225
607.168	223
607.376	205
607.585	220
607.793	228
608.001	206
608.21	204
608.418	214
608.626	211
608.834	224
609.043	224
609.251	207
609.459	210
609.667	207
609.875	213
610.083	211
610.291	209
610.499	201
610.707	209
610.916	210
611.124	196
611.332	213
611.54	227
611.748	207
611.955	221
612.163	209
612.371	216
612.579	223
612.787	224
612.995	210
613.203	196
613.411	199
613.618	197
613.826	202
614.034	212
614.242	218
614.449	203
614.657	203
614.865	197
615.072	213
615.28	195
615.488	195
615.695	209
615.903	205
616.111	209
616.318	212
616.526	202
616.733	221
616.941	195
617.148	193
617.356	204
617.563	211
617.771	201
617.978	210
618.185	221
618.393	191
618.6	215
618.807	209
619.015	213
619.222	209
619.429	220
619.637	205
619.844	191
620.051	203
620.258	219
620.466	200
620.673	194
620.88	206
621.087	206
621.294	195
621.501	192
621.708	193
621.915	200
622.122	202
622.329	195
622.536	200
622.743	187
622.95	187
623.157	191
623.364	207
623.571	177
623.778	198
623.985	197
624.192	208
624.399	189
624.606	197
624.812	163
625.019	179
625.226	192
625.433	204
625.639	178
625.846	197
626.053	181
626.259	177
626.466	215
626.673	181
626.879	181
627.086	174
627.293	181
627.499	161
627.706	175
627.912	173
628.119	178
628.325	190
628.532	193
628.738	171
628.945	189
629.151	166
629.357	181
629.564	177
629.77	174
629.976	179
630.183	185
630.389	156
630.595	201
630.802	175
631.008	167
631.214	170
631.42	180
631.627	171
631.833	168
632.039	181
632.245	177
632.451	163
632.657	173
632.863	163
633.069	164
633.275	163
633.481	157
633.688	169
633.893	180
634.099	175
634.305	173
634.511	180
634.717	169
634.923	173
635.129	171
635.335	157
635.541	156
635.747	156
635.952	167
636.158	163
636.364	170
636.57	150
636.775	165
636.981	155
637.187	160
637.392	151
637.598	153
637.804	165
638.009	172
638.215	162
638.421	171
638.626	156
638.832	162
639.037	152
639.243	161
639.448	159
639.654	159
639.859	160
640.065	155
640.27	169
640.475	151
640.681	157
640.886	160
641.091	150
641.297	155
641.502	158
641.707	159
641.913	174
642.118	165
642.323	169
642.528	157
642.733	151
642.939	164
643.144	139
643.349	159
643.554	161
643.759	164
643.964	145
644.169	157
644.374	162
644.579	157
644.784	152
644.989	160
645.194	171
645.399	148
645.604	158
645.809	155
646.014	157
646.219	143
646.423	159
646.628	148
646.833	154
647.038	160
647.243	160
647.447	150
647.652	157
647.857	140
648.062	145
648.266	159
648.471	172
648.676	168
648.88	154
649.085	160
649.289	139
649.494	155
649.698	161
649.903	167
650.107	153
650.312	140
650.516	146
650.721	144
650.925	121
651.13	135
651.334	139
651.539	152
651.743	144
651.947	137
652.152	142
652.356	140
652.56	139
652.764	130
652.969	135
653.173	127
653.377	127
653.581	132
653.785	133
653.99	138
654.194	134
654.398	141
654.602	126
654.806	124
655.01	151
655.214	131
655.418	133
655.622	138
655.826	125
656.03	130
656.234	132
656.438	122
656.642	134
656.846	131
657.049	128
657.253	128
657.457	111
657.661	133
657.865	97
658.068	104
658.272	102
658.476	99
658.68	110
658.883	115
659.087	100
659.291	97
659.494	117
659.698	102
659.901	94
660.105	103
660.309	83
660.512	106
660.716	102
660.919	95
661.123	100
661.326	83
661.53	94
661.733	82
661.936	95
662.14	80
662.343	95
662.546	101
662.75	79
662.953	81
663.156	84
663.36	94
663.563	97
663.766	89
663.969	79
664.173	91
664.376	86
664.579	88
664.782	89
664.985	86
665.188	82
665.391	80
665.594	84
665.797	86
666	78
666.203	77
666.406	81
666.609	96
666.812	83
667.015	97
667.218	89
667.421	88
667.624	92
667.827	67
668.03	80
668.232	94
668.435	86
668.638	78
668.841	76
669.043	95
669.246	79
669.449	85
669.651	88
669.854	91
670.057	89
670.259	79
670.462	84
670.665	105
670.867	81
671.07	71
671.272	90
671.475	94
671.677	80
671.88	102
672.082	76
672.284	69
672.487	87
672.689	79
672.892	83
