Data from 1964.PennyLincolnUp.Lamp.En5.5.200Scan.071719.P1._HRD10591_14-03-55-908.txt Node
Date: Thu Jul 18 14:03:55 EDT 2019
User: cochatt
Spectrometer: HR+D1059
Trigger mode: 1
Integration Time (sec): 1.000000E-1
Scans to average: 1
Electric dark correction enabled: true
Nonlinearity correction enabled: false
Boxcar width: 0
XAxis mode: Wavelengths
Number of Pixels in Spectrum: 2048
>>>>>Begin Spectral Data<<<<<
223.165	-22
223.4	-22
223.635	-22
223.869	-18
224.104	-21
224.338	-15
224.573	-15
224.808	2
225.042	-6
225.277	-7
225.511	-9
225.746	-5
225.98	16
226.215	22
226.449	6
226.683	14
226.918	29
227.152	29
227.387	37
227.621	38
227.856	36
228.09	39
228.324	47
228.559	58
228.793	61
229.027	74
229.262	83
229.496	97
229.73	101
229.964	117
230.199	108
230.433	105
230.667	102
230.901	100
231.136	99
231.37	104
231.604	90
231.838	98
232.072	106
232.306	110
232.541	108
232.775	94
233.009	106
233.243	96
233.477	106
233.711	115
233.945	123
234.179	118
234.413	118
234.647	118
234.881	84
235.115	112
235.349	103
235.583	106
235.817	103
236.051	128
236.285	115
236.519	109
236.753	135
236.987	131
237.221	149
237.455	179
237.689	155
237.922	113
238.156	117
238.39	119
238.624	129
238.858	115
239.091	128
239.325	120
239.559	130
239.793	118
240.027	122
240.26	118
240.494	154
240.728	147
240.961	134
241.195	143
241.429	143
241.662	138
241.896	135
242.13	129
242.363	131
242.597	146
242.83	143
243.064	149
243.298	146
243.531	149
243.765	126
243.998	137
244.232	150
244.465	149
244.699	149
244.932	138
245.166	141
245.399	134
245.633	142
245.866	152
246.099	153
246.333	133
246.566	154
246.8	143
247.033	144
247.266	162
247.5	158
247.733	149
247.966	158
248.2	153
248.433	166
248.666	170
248.899	194
249.133	192
249.366	191
249.599	177
249.832	177
250.066	157
250.299	178
250.532	166
250.765	189
250.998	192
251.231	197
251.465	197
251.698	200
251.931	177
252.164	195
252.397	186
252.63	199
252.863	182
253.096	194
253.329	207
253.562	215
253.795	207
254.028	209
254.261	202
254.494	217
254.727	231
254.96	245
255.193	228
255.426	243
255.659	217
255.892	201
256.124	229
256.357	239
256.59	225
256.823	214
257.056	209
257.289	201
257.521	202
257.754	199
257.987	200
258.22	218
258.452	208
258.685	206
258.918	215
259.151	212
259.383	205
259.616	216
259.849	227
260.081	243
260.314	232
260.547	241
260.779	215
261.012	243
261.244	198
261.477	219
261.71	207
261.942	215
262.175	222
262.407	189
262.64	205
262.872	196
263.105	212
263.337	212
263.57	206
263.802	202
264.035	211
264.267	219
264.499	211
264.732	222
264.964	202
265.197	213
265.429	201
265.661	206
265.894	215
266.126	216
266.358	210
266.591	214
266.823	238
267.055	226
267.287	236
267.52	223
267.752	222
267.984	212
268.216	241
268.448	233
268.681	250
268.913	250
269.145	257
269.377	262
269.609	265
269.841	264
270.073	270
270.306	268
270.538	294
270.77	296
271.002	286
271.234	279
271.466	283
271.698	284
271.93	279
272.162	293
272.394	298
272.626	300
272.858	277
273.09	279
273.322	274
273.553	261
273.785	260
274.017	255
274.249	281
274.481	253
274.713	266
274.945	289
275.176	284
275.408	254
275.64	257
275.872	262
276.104	260
276.335	279
276.567	267
276.799	279
277.031	265
277.262	300
277.494	314
277.726	295
277.957	292
278.189	269
278.421	264
278.652	262
278.884	271
279.115	277
279.347	279
279.579	279
279.81	284
280.042	269
280.273	271
280.505	282
280.736	277
280.968	266
281.199	294
281.431	287
281.662	272
281.894	285
282.125	277
282.356	278
282.588	302
282.819	301
283.051	287
283.282	272
283.513	313
283.745	291
283.976	298
284.207	292
284.439	276
284.67	306
284.901	300
285.132	299
285.364	290
285.595	294
285.826	309
286.057	281
286.288	308
286.52	315
286.751	297
286.982	292
287.213	293
287.444	317
287.675	303
287.906	326
288.138	319
288.369	321
288.6	322
288.831	305
289.062	318
289.293	310
289.524	318
289.755	321
289.986	317
290.217	289
290.448	282
290.679	299
290.91	306
291.141	318
291.371	300
291.602	307
291.833	303
292.064	313
292.295	313
292.526	298
292.757	325
292.987	317
293.218	293
293.449	326
293.68	326
293.91	302
294.141	317
294.372	291
294.603	315
294.833	324
295.064	314
295.295	313
295.525	315
295.756	308
295.987	330
296.217	321
296.448	315
296.679	315
296.909	312
297.14	307
297.37	309
297.601	322
297.831	339
298.062	311
298.292	313
298.523	330
298.753	329
298.984	322
299.214	335
299.445	330
299.675	323
299.905	335
300.136	334
300.366	328
300.597	345
300.827	339
301.057	323
301.288	346
301.518	342
301.748	344
301.979	350
302.209	351
302.439	349
302.669	353
302.9	346
303.13	357
303.36	351
303.59	336
303.82	343
304.051	335
304.281	354
304.511	371
304.741	336
304.971	341
305.201	345
305.431	352
305.661	361
305.891	351
306.121	369
306.352	345
306.582	351
306.812	362
307.042	353
307.272	342
307.502	334
307.731	340
307.961	358
308.191	356
308.421	362
308.651	342
308.881	347
309.111	365
309.341	358
309.571	360
309.8	353
310.03	356
310.26	358
310.49	371
310.72	367
310.949	371
311.179	387
311.409	365
311.639	381
311.868	391
312.098	398
312.328	381
312.557	389
312.787	370
313.017	383
313.246	380
313.476	369
313.706	398
313.935	397
314.165	388
314.394	402
314.624	387
314.853	388
315.083	409
315.312	385
315.542	384
315.771	378
316.001	397
316.23	379
316.46	396
316.689	393
316.919	392
317.148	394
317.377	387
317.607	395
317.836	369
318.065	391
318.295	398
318.524	383
318.753	383
318.983	397
319.212	381
319.441	382
319.67	397
319.9	380
320.129	381
320.358	380
320.587	399
320.816	372
321.046	411
321.275	391
321.504	399
321.733	379
321.962	397
322.191	419
322.42	413
322.649	414
322.878	422
323.108	422
323.337	440
323.566	413
323.795	449
324.024	477
324.253	529
324.482	695
324.71	1019
324.939	1346
325.168	1131
325.397	641
325.626	493
325.855	469
326.084	441
326.313	425
326.542	455
326.77	471
326.999	510
327.228	676
327.457	905
327.686	1032
327.914	738
328.143	533
328.372	504
328.6	480
328.829	482
329.058	461
329.287	451
329.515	462
329.744	472
329.972	452
330.201	474
330.43	487
330.658	515
330.887	504
331.115	506
331.344	477
331.572	451
331.801	469
332.03	459
332.258	458
332.486	452
332.715	449
332.943	454
333.172	458
333.4	466
333.629	472
333.857	494
334.085	476
334.314	493
334.542	524
334.771	523
334.999	459
335.227	480
335.455	469
335.684	459
335.912	465
336.14	467
336.369	464
336.597	450
336.825	437
337.053	439
337.281	471
337.51	430
337.738	437
337.966	444
338.194	435
338.422	432
338.65	436
338.878	416
339.106	428
339.334	423
339.562	425
339.79	415
340.018	428
340.246	430
340.474	426
340.702	410
340.93	432
341.158	426
341.386	421
341.614	417
341.842	423
342.07	413
342.298	403
342.526	426
342.754	417
342.981	424
343.209	420
343.437	414
343.665	434
343.893	463
344.12	460
344.348	459
344.576	447
344.804	431
345.031	435
345.259	461
345.487	422
345.714	437
345.942	427
346.17	425
346.397	411
346.625	406
346.853	417
347.08	400
347.308	398
347.535	409
347.763	411
347.99	406
348.218	403
348.445	403
348.673	402
348.9	415
349.128	394
349.355	403
349.583	392
349.81	393
350.037	384
350.265	420
350.492	388
350.72	404
350.947	391
351.174	387
351.402	412
351.629	424
351.856	391
352.083	397
352.311	371
352.538	382
352.765	383
352.992	406
353.22	401
353.447	379
353.674	401
353.901	393
354.128	378
354.355	355
354.583	389
354.81	383
355.037	367
355.264	389
355.491	365
355.718	385
355.945	372
356.172	381
356.399	378
356.626	385
356.853	406
357.08	364
357.307	385
357.534	373
357.761	379
357.988	387
358.215	372
358.441	391
358.668	382
358.895	390
359.122	384
359.349	397
359.576	385
359.802	411
360.029	399
360.256	411
360.483	413
360.709	395
360.936	393
361.163	405
361.39	400
361.616	399
361.843	373
362.07	392
362.296	375
362.523	400
362.749	401
362.976	382
363.203	395
363.429	392
363.656	397
363.882	378
364.109	386
364.335	390
364.562	403
364.788	374
365.015	380
365.241	378
365.468	394
365.694	395
365.92	399
366.147	367
366.373	390
366.599	385
366.826	373
367.052	382
367.278	363
367.505	391
367.731	381
367.957	395
368.184	385
368.41	392
368.636	379
368.862	396
369.089	365
369.315	385
369.541	377
369.767	378
369.993	378
370.219	365
370.445	373
370.672	380
370.898	366
371.124	393
371.35	402
371.576	379
371.802	369
372.028	381
372.254	401
372.48	376
372.706	392
372.932	378
373.158	375
373.384	381
373.61	396
373.835	397
374.061	374
374.287	389
374.513	395
374.739	381
374.965	397
375.191	411
375.416	397
375.642	378
375.868	386
376.094	380
376.319	378
376.545	374
376.771	371
376.997	365
377.222	371
377.448	361
377.674	357
377.899	390
378.125	364
378.35	378
378.576	359
378.802	369
379.027	382
379.253	387
379.478	348
379.704	383
379.929	377
380.155	369
380.38	381
380.606	375
380.831	385
381.057	386
381.282	395
381.507	381
381.733	381
381.958	362
382.184	407
382.409	390
382.634	382
382.86	404
383.085	378
383.31	389
383.535	408
383.761	401
383.986	394
384.211	403
384.436	403
384.662	395
384.887	411
385.112	416
385.337	420
385.562	406
385.787	413
386.013	405
386.238	416
386.463	420
386.688	412
386.913	426
387.138	426
387.363	388
387.588	401
387.813	419
388.038	416
388.263	397
388.488	418
388.713	437
388.938	398
389.163	413
389.387	421
389.612	404
389.837	410
390.062	407
390.287	397
390.512	402
390.736	419
390.961	423
391.186	415
391.411	419
391.636	412
391.86	420
392.085	434
392.31	404
392.534	432
392.759	427
392.984	441
393.208	434
393.433	418
393.658	403
393.882	399
394.107	397
394.331	422
394.556	416
394.78	413
395.005	411
395.229	421
395.454	435
395.678	426
395.903	436
396.127	448
396.352	466
396.576	439
396.801	433
397.025	412
397.249	446
397.474	444
397.698	449
397.922	455
398.147	440
398.371	461
398.595	480
398.82	462
399.044	484
399.268	543
399.492	539
399.717	586
399.941	532
400.165	560
400.389	554
400.613	517
400.837	493
401.062	483
401.286	472
401.51	453
401.734	469
401.958	457
402.182	456
402.406	467
402.63	445
402.854	451
403.078	462
403.302	477
403.526	494
403.75	485
403.974	472
404.198	489
404.422	513
404.645	493
404.869	491
405.093	501
405.317	550
405.541	572
405.765	549
405.988	513
406.212	505
406.436	499
406.66	519
406.883	519
407.107	501
407.331	554
407.555	587
407.778	638
408.002	564
408.226	538
408.449	523
408.673	520
408.896	541
409.12	551
409.344	530
409.567	479
409.791	505
410.014	473
410.238	466
410.461	471
410.685	477
410.908	478
411.132	510
411.355	525
411.578	499
411.802	466
412.025	482
412.249	484
412.472	497
412.695	533
412.919	519
413.142	476
413.365	446
413.589	471
413.812	443
414.035	452
414.258	435
414.482	440
414.705	461
414.928	461
415.151	445
415.374	446
415.597	443
415.821	441
416.044	444
416.267	456
416.49	452
416.713	457
416.936	437
417.159	417
417.382	462
417.605	430
417.828	462
418.051	462
418.274	454
418.497	421
418.72	443
418.943	441
419.166	462
419.389	470
419.611	479
419.834	483
420.057	460
420.28	468
420.503	458
420.726	449
420.948	479
421.171	505
421.394	517
421.617	487
421.839	443
422.062	461
422.285	475
422.507	501
422.73	535
422.953	524
423.175	481
423.398	469
423.621	472
423.843	487
424.066	471
424.288	470
424.511	469
424.733	532
424.956	569
425.178	541
425.401	546
425.623	584
425.846	505
426.068	469
426.291	476
426.513	485
426.735	480
426.958	490
427.18	549
427.402	646
427.625	686
427.847	591
428.069	517
428.292	485
428.514	474
428.736	438
428.958	451
429.181	456
429.403	445
429.625	432
429.847	471
430.069	485
430.292	501
430.514	436
430.736	442
430.958	445
431.18	414
431.402	436
431.624	421
431.846	423
432.068	411
432.29	409
432.512	426
432.734	426
432.956	418
433.178	416
433.4	408
433.622	404
433.844	440
434.066	425
434.287	427
434.509	426
434.731	442
434.953	438
435.175	464
435.397	475
435.618	475
435.84	476
436.062	575
436.284	563
436.505	504
436.727	457
436.949	438
437.17	445
437.392	446
437.614	452
437.835	441
438.057	511
438.278	581
438.5	577
438.721	629
438.943	605
439.165	490
439.386	457
439.608	441
439.829	449
440.05	485
440.272	484
440.493	476
440.715	452
440.936	447
441.158	426
441.379	447
441.6	448
441.822	470
442.043	485
442.264	535
442.486	545
442.707	513
442.928	460
443.149	461
443.371	489
443.592	519
443.813	565
444.034	612
444.255	527
444.476	491
444.698	495
444.919	493
445.14	583
445.361	526
445.582	503
445.803	504
446.024	602
446.245	588
446.466	530
446.687	476
446.908	455
447.129	437
447.35	417
447.571	435
447.792	430
448.013	401
448.234	443
448.455	449
448.675	543
448.896	614
449.117	539
449.338	517
449.559	566
449.779	658
450	498
450.221	439
450.442	421
450.662	394
450.883	418
451.104	402
451.324	389
451.545	397
451.766	410
451.986	383
452.207	376
452.428	379
452.648	372
452.869	369
453.089	364
453.31	393
453.53	389
453.751	373
453.971	392
454.192	380
454.412	365
454.633	370
454.853	379
455.073	372
455.294	384
455.514	449
455.734	444
455.955	375
456.175	378
456.395	379
456.616	373
456.836	373
457.056	366
457.276	371
457.497	367
457.717	380
457.937	363
458.157	376
458.377	373
458.598	380
458.818	418
459.038	445
459.258	494
459.478	428
459.698	409
459.918	402
460.138	441
460.358	426
460.578	428
460.798	436
461.018	449
461.238	428
461.458	443
461.678	435
461.898	438
462.118	437
462.338	455
462.558	450
462.777	465
462.997	471
463.217	500
463.437	505
463.657	465
463.876	458
464.096	457
464.316	453
464.536	477
464.755	453
464.975	444
465.195	496
465.414	495
465.634	457
465.854	431
466.073	404
466.293	393
466.512	402
466.732	389
466.951	413
467.171	409
467.391	396
467.61	385
467.829	416
468.049	400
468.268	386
468.488	397
468.707	385
468.927	396
469.146	388
469.365	391
469.585	393
469.804	394
470.023	410
470.243	404
470.462	400
470.681	413
470.901	394
471.12	405
471.339	411
471.558	409
471.777	409
471.997	404
472.216	426
472.435	405
472.654	401
472.873	401
473.092	386
473.311	409
473.53	411
473.749	407
473.968	446
474.187	483
474.406	490
474.625	413
474.844	431
475.063	393
475.282	411
475.501	398
475.72	399
475.939	392
476.158	418
476.377	405
476.596	398
476.814	402
477.033	411
477.252	419
477.471	435
477.69	430
477.908	421
478.127	449
478.346	443
478.564	468
478.783	460
479.002	461
479.22	445
479.439	463
479.658	455
479.876	473
480.095	480
480.313	501
480.532	490
480.751	491
480.969	524
481.188	511
481.406	526
481.624	478
481.843	483
482.061	469
482.28	471
482.498	451
482.717	457
482.935	457
483.153	454
483.372	476
483.59	466
483.808	466
484.027	461
484.245	429
484.463	454
484.681	472
484.9	453
485.118	469
485.336	459
485.554	458
485.772	461
485.99	476
486.209	459
486.427	483
486.645	477
486.863	476
487.081	469
487.299	492
487.517	483
487.735	491
487.953	473
488.171	475
488.389	458
488.607	467
488.825	494
489.043	479
489.261	496
489.479	479
489.696	513
489.914	477
490.132	483
490.35	488
490.568	483
490.786	488
491.003	529
491.221	517
491.439	537
491.657	536
491.874	565
492.092	534
492.31	539
492.527	540
492.745	546
492.963	546
493.18	557
493.398	550
493.615	558
493.833	552
494.05	564
494.268	558
494.485	549
494.703	547
494.92	559
495.138	554
495.355	550
495.573	535
495.79	573
496.008	573
496.225	554
496.442	533
496.66	577
496.877	574
497.094	590
497.312	572
497.529	605
497.746	583
497.963	613
498.181	623
498.398	627
498.615	636
498.832	657
499.049	689
499.267	717
499.484	743
499.701	757
499.918	788
500.135	832
500.352	882
500.569	886
500.786	889
501.003	840
501.22	826
501.437	817
501.654	767
501.871	749
502.088	709
502.305	689
502.522	648
502.739	649
502.956	634
503.172	609
503.389	594
503.606	605
503.823	597
504.04	595
504.256	562
504.473	572
504.69	570
504.907	598
505.123	558
505.34	559
505.557	548
505.773	533
505.99	546
506.207	522
506.423	547
506.64	525
506.856	544
507.073	523
507.289	511
507.506	507
507.722	514
507.939	525
508.155	481
508.372	504
508.588	485
508.805	483
509.021	517
509.238	512
509.454	494
509.67	480
509.887	497
510.103	494
510.319	497
510.536	523
510.752	678
510.968	605
511.184	499
511.401	465
511.617	462
511.833	491
512.049	474
512.265	474
512.481	452
512.698	465
512.914	467
513.13	457
513.346	458
513.562	454
513.778	446
513.994	463
514.21	465
514.426	486
514.642	511
514.858	511
515.074	513
515.29	559
515.506	660
515.721	625
515.937	506
516.153	487
516.369	479
516.585	493
516.801	498
517.016	499
517.232	518
517.448	519
517.664	510
517.879	499
518.095	489
518.311	495
518.527	486
518.742	488
518.958	497
519.173	495
519.389	471
519.605	476
519.82	458
520.036	499
520.251	471
520.467	477
520.682	468
520.898	478
521.113	485
521.329	503
521.544	538
521.76	579
521.975	756
522.19	753
522.406	538
522.621	489
522.836	436
523.052	452
523.267	439
523.482	424
523.698	418
523.913	432
524.128	425
524.343	421
524.559	417
524.774	427
524.989	404
525.204	399
525.419	408
525.634	386
525.849	413
526.064	399
526.28	404
526.495	386
526.71	389
526.925	379
527.14	391
527.355	393
527.57	399
527.785	391
527.999	404
528.214	382
528.429	382
528.644	383
528.859	406
529.074	374
529.289	390
529.503	427
529.718	425
529.933	385
530.148	403
530.363	383
530.577	374
530.792	374
531.007	421
531.221	401
531.436	381
531.651	407
531.865	415
532.08	396
532.295	392
532.509	380
532.724	367
532.938	374
533.153	399
533.367	379
533.582	398
533.796	370
534.011	385
534.225	393
534.44	384
534.654	372
534.868	380
535.083	362
535.297	340
535.511	375
535.726	377
535.94	385
536.154	374
536.369	387
536.583	373
536.797	376
537.011	383
537.225	375
537.44	371
537.654	367
537.868	361
538.082	372
538.296	366
538.51	362
538.724	368
538.938	375
539.153	378
539.367	377
539.581	372
539.795	367
540.009	367
540.222	383
540.436	380
540.65	342
540.864	354
541.078	367
541.292	379
541.506	373
541.72	353
541.934	375
542.147	362
542.361	363
542.575	364
542.789	373
543.002	359
543.216	366
543.43	386
543.644	361
543.857	371
544.071	369
544.285	380
544.498	349
544.712	357
544.925	377
545.139	372
545.352	365
545.566	361
545.779	364
545.993	369
546.206	341
546.42	357
546.633	376
546.847	357
547.06	353
547.274	360
547.487	348
547.7	354
547.914	365
548.127	345
548.34	358
548.554	378
548.767	369
548.98	376
549.193	353
549.407	377
549.62	360
549.833	358
550.046	350
550.259	371
550.473	365
550.686	359
550.899	345
551.112	359
551.325	341
551.538	342
551.751	348
551.964	342
552.177	365
552.39	372
552.603	373
552.816	355
553.029	367
553.242	371
553.455	363
553.667	364
553.88	352
554.093	374
554.306	350
554.519	343
554.732	334
554.944	346
555.157	348
555.37	331
555.583	349
555.795	346
556.008	339
556.221	332
556.433	339
556.646	340
556.859	328
557.071	314
557.284	299
557.496	305
557.709	339
557.921	320
558.134	317
558.346	319
558.559	327
558.771	328
558.984	323
559.196	311
559.409	321
559.621	323
559.833	318
560.046	311
560.258	314
560.47	319
560.683	298
560.895	323
561.107	298
561.32	301
561.532	312
561.744	315
561.956	324
562.168	317
562.381	316
562.593	305
562.805	327
563.017	300
563.229	324
563.441	326
563.653	331
563.865	318
564.077	308
564.289	326
564.501	334
564.713	332
564.925	338
565.137	340
565.349	338
565.561	338
565.773	347
565.985	365
566.197	375
566.408	385
566.62	397
566.832	419
567.044	418
567.255	398
567.467	395
567.679	427
567.891	420
568.102	426
568.314	415
568.526	386
568.737	379
568.949	385
569.161	356
569.372	340
569.584	328
569.795	333
570.007	330
570.218	324
570.43	332
570.641	322
570.853	299
571.064	325
571.276	307
571.487	308
571.698	318
571.91	290
572.121	300
572.333	298
572.544	293
572.755	278
572.966	277
573.178	315
573.389	288
573.6	296
573.811	290
574.023	281
574.234	268
574.445	275
574.656	270
574.867	284
575.078	264
575.289	263
575.501	285
575.712	277
575.923	273
576.134	273
576.345	259
576.556	250
576.767	265
576.978	272
577.188	274
577.399	263
577.61	259
577.821	278
578.032	259
578.243	267
578.454	338
578.665	302
578.875	260
579.086	246
579.297	249
579.508	251
579.718	268
579.929	251
580.14	249
580.35	261
580.561	265
580.772	257
580.982	261
581.193	249
581.403	241
581.614	260
581.825	256
582.035	263
582.246	245
582.456	242
582.667	260
582.877	248
583.087	246
583.298	252
583.508	246
583.719	232
583.929	253
584.139	245
584.35	237
584.56	251
584.77	266
584.981	254
585.191	262
585.401	229
585.611	255
585.821	249
586.032	257
586.242	229
586.452	248
586.662	246
586.872	254
587.082	238
587.292	243
587.502	261
587.713	235
587.923	231
588.133	235
588.343	239
588.553	235
588.762	237
588.972	257
589.182	282
589.392	263
589.602	238
589.812	261
590.022	261
590.232	243
590.441	237
590.651	245
590.861	228
591.071	247
591.281	257
591.49	265
591.7	253
591.91	245
592.119	248
592.329	226
592.539	243
592.748	253
592.958	263
593.167	256
593.377	265
593.587	270
593.796	270
594.006	275
594.215	263
594.424	275
594.634	264
594.843	264
595.053	260
595.262	255
595.472	254
595.681	236
595.89	242
596.1	235
596.309	236
596.518	234
596.727	234
596.937	217
597.146	222
597.355	211
597.564	214
597.774	213
597.983	227
598.192	224
598.401	234
598.61	226
598.819	217
599.028	215
599.237	243
599.446	206
599.655	213
599.864	221
600.073	223
600.282	227
600.491	220
600.7	228
600.909	227
601.118	208
601.327	210
601.536	198
601.745	218
601.953	224
602.162	221
602.371	226
602.58	224
602.789	205
602.997	207
603.206	222
603.415	199
603.623	201
603.832	207
604.041	210
604.249	205
604.458	206
604.666	209
604.875	199
605.084	204
605.292	204
605.501	210
605.709	190
605.918	212
606.126	213
606.334	202
606.543	219
606.751	203
606.96	206
607.168	208
607.376	192
607.585	197
607.793	206
608.001	205
608.21	203
608.418	209
608.626	195
608.834	203
609.043	207
609.251	198
609.459	191
609.667	209
609.875	192
610.083	190
610.291	207
610.499	203
610.707	196
610.916	206
611.124	194
611.332	205
611.54	188
611.748	216
611.955	222
612.163	204
612.371	207
612.579	200
612.787	205
612.995	202
613.203	206
613.411	194
613.618	191
613.826	196
614.034	193
614.242	191
614.449	198
614.657	175
614.865	194
615.072	189
615.28	185
615.488	198
615.695	197
615.903	201
616.111	202
616.318	199
616.526	207
616.733	198
616.941	179
617.148	196
617.356	201
617.563	192
617.771	191
617.978	193
618.185	197
618.393	186
618.6	189
618.807	204
619.015	207
619.222	194
619.429	194
619.637	188
619.844	204
620.051	191
620.258	189
620.466	206
620.673	190
620.88	182
621.087	183
621.294	192
621.501	189
621.708	177
621.915	186
622.122	199
622.329	203
622.536	202
622.743	170
622.95	168
623.157	181
623.364	187
623.571	170
623.778	187
623.985	186
624.192	172
624.399	175
624.606	175
624.812	181
625.019	190
625.226	174
625.433	183
625.639	174
625.846	174
626.053	168
626.259	171
626.466	190
626.673	153
626.879	159
627.086	170
627.293	178
627.499	180
627.706	174
627.912	166
628.119	166
628.325	180
628.532	166
628.738	166
628.945	169
629.151	173
629.357	174
629.564	157
629.77	161
629.976	164
630.183	174
630.389	156
630.595	178
630.802	169
631.008	162
631.214	154
631.42	159
631.627	179
631.833	164
632.039	168
632.245	156
632.451	152
632.657	166
632.863	148
633.069	152
633.275	153
633.481	162
633.688	157
633.893	160
634.099	165
634.305	163
634.511	168
634.717	165
634.923	166
635.129	167
635.335	157
635.541	155
635.747	167
635.952	162
636.158	153
636.364	163
636.57	157
636.775	132
636.981	137
637.187	159
637.392	156
637.598	173
637.804	142
638.009	173
638.215	161
638.421	149
638.626	156
638.832	164
639.037	162
639.243	153
639.448	150
639.654	152
639.859	153
640.065	151
640.27	162
640.475	140
640.681	153
640.886	140
641.091	145
641.297	169
641.502	147
641.707	152
641.913	155
642.118	155
642.323	156
642.528	152
642.733	163
642.939	147
643.144	143
643.349	154
643.554	150
643.759	148
643.964	147
644.169	139
644.374	140
644.579	148
644.784	154
644.989	149
645.194	145
645.399	149
645.604	140
645.809	146
646.014	137
646.219	157
646.423	145
646.628	149
646.833	153
647.038	150
647.243	146
647.447	157
647.652	147
647.857	130
648.062	141
648.266	156
648.471	143
648.676	155
648.88	139
649.085	146
649.289	139
649.494	141
649.698	160
649.903	168
650.107	151
650.312	145
650.516	156
650.721	145
650.925	153
651.13	141
651.334	146
651.539	143
651.743	131
651.947	146
652.152	124
652.356	143
652.56	148
652.764	134
652.969	125
653.173	119
653.377	136
653.581	143
653.785	137
653.99	127
654.194	135
654.398	142
654.602	124
654.806	127
655.01	126
655.214	126
655.418	113
655.622	117
655.826	132
656.03	132
656.234	133
656.438	131
656.642	133
656.846	131
657.049	119
657.253	126
657.457	116
657.661	107
657.865	106
658.068	116
658.272	107
658.476	101
658.68	111
658.883	107
659.087	106
659.291	100
659.494	91
659.698	93
659.901	88
660.105	101
660.309	92
660.512	94
660.716	85
660.919	89
661.123	95
661.326	85
661.53	69
661.733	88
661.936	82
662.14	85
662.343	89
662.546	97
662.75	87
662.953	76
663.156	84
663.36	78
663.563	82
663.766	75
663.969	83
664.173	90
664.376	74
664.579	92
664.782	85
664.985	89
665.188	103
665.391	93
665.594	94
665.797	90
666	93
666.203	98
666.406	89
666.609	74
666.812	92
667.015	79
667.218	91
667.421	79
667.624	73
667.827	83
668.03	85
668.232	72
668.435	91
668.638	89
668.841	85
669.043	91
669.246	89
669.449	86
669.651	83
669.854	76
670.057	85
670.259	79
670.462	73
670.665	85
670.867	88
671.07	78
671.272	83
671.475	85
671.677	91
671.88	79
672.082	73
672.284	87
672.487	69
672.689	87
672.892	79
