Data from 1964.PennyLincolnUp.Lamp.En5.5.200Scan.071719.P1._HRD10591_14-04-53-909.txt Node
Date: Thu Jul 18 14:04:53 EDT 2019
User: cochatt
Spectrometer: HR+D1059
Trigger mode: 1
Integration Time (sec): 1.000000E-1
Scans to average: 1
Electric dark correction enabled: true
Nonlinearity correction enabled: false
Boxcar width: 0
XAxis mode: Wavelengths
Number of Pixels in Spectrum: 2048
>>>>>Begin Spectral Data<<<<<
223.165	-24.38
223.4	-24.38
223.635	-24.38
223.869	-6.38
224.104	-13.38
224.338	-11.38
224.573	-12.38
224.808	0.62
225.042	-9.38
225.277	7.62
225.511	-3.38
225.746	-0.38
225.98	-8.38
226.215	2.62
226.449	11.62
226.683	6.62
226.918	26.62
227.152	33.62
227.387	28.62
227.621	40.62
227.856	42.62
228.09	61.62
228.324	28.62
228.559	58.62
228.793	76.62
229.027	84.62
229.262	91.62
229.496	108.62
229.73	120.62
229.964	127.62
230.199	122.62
230.433	120.62
230.667	120.62
230.901	113.62
231.136	103.62
231.37	107.62
231.604	102.62
231.838	93.62
232.072	114.62
232.306	127.62
232.541	119.62
232.775	121.62
233.009	124.62
233.243	98.62
233.477	107.62
233.711	120.62
233.945	132.62
234.179	130.62
234.413	134.62
234.647	125.62
234.881	116.62
235.115	116.62
235.349	120.62
235.583	102.62
235.817	134.62
236.051	124.62
236.285	128.62
236.519	112.62
236.753	126.62
236.987	154.62
237.221	181.62
237.455	185.62
237.689	170.62
237.922	145.62
238.156	134.62
238.39	117.62
238.624	132.62
238.858	128.62
239.091	129.62
239.325	136.62
239.559	123.62
239.793	130.62
240.027	124.62
240.26	139.62
240.494	136.62
240.728	141.62
240.961	146.62
241.195	129.62
241.429	133.62
241.662	128.62
241.896	154.62
242.13	148.62
242.363	157.62
242.597	140.62
242.83	134.62
243.064	146.62
243.298	145.62
243.531	145.62
243.765	137.62
243.998	156.62
244.232	146.62
244.465	150.62
244.699	145.62
244.932	158.62
245.166	125.62
245.399	143.62
245.633	150.62
245.866	150.62
246.099	156.62
246.333	150.62
246.566	156.62
246.8	136.62
247.033	157.62
247.266	160.62
247.5	167.62
247.733	165.62
247.966	161.62
248.2	183.62
248.433	175.62
248.666	176.62
248.899	178.62
249.133	190.62
249.366	179.62
249.599	190.62
249.832	169.62
250.066	167.62
250.299	192.62
250.532	183.62
250.765	211.62
250.998	210.62
251.231	210.62
251.465	211.62
251.698	225.62
251.931	210.62
252.164	204.62
252.397	198.62
252.63	199.62
252.863	214.62
253.096	235.62
253.329	227.62
253.562	228.62
253.795	214.62
254.028	221.62
254.261	226.62
254.494	240.62
254.727	232.62
254.96	244.62
255.193	269.62
255.426	248.62
255.659	228.62
255.892	244.62
256.124	230.62
256.357	225.62
256.59	223.62
256.823	223.62
257.056	222.62
257.289	222.62
257.521	216.62
257.754	215.62
257.987	218.62
258.22	232.62
258.452	202.62
258.685	205.62
258.918	226.62
259.151	211.62
259.383	224.62
259.616	220.62
259.849	232.62
260.081	240.62
260.314	265.62
260.547	255.62
260.779	241.62
261.012	230.62
261.244	251.62
261.477	244.62
261.71	220.62
261.942	237.62
262.175	214.62
262.407	244.62
262.64	209.62
262.872	231.62
263.105	240.62
263.337	236.62
263.57	228.62
263.802	228.62
264.035	208.62
264.267	220.62
264.499	219.62
264.732	220.62
264.964	229.62
265.197	242.62
265.429	244.62
265.661	242.62
265.894	231.62
266.126	239.62
266.358	246.62
266.591	222.62
266.823	241.62
267.055	245.62
267.287	252.62
267.52	234.62
267.752	246.62
267.984	229.62
268.216	256.62
268.448	250.62
268.681	256.62
268.913	261.62
269.145	290.62
269.377	294.62
269.609	295.62
269.841	271.62
270.073	288.62
270.306	296.62
270.538	298.62
270.77	320.62
271.002	311.62
271.234	293.62
271.466	305.62
271.698	305.62
271.93	314.62
272.162	322.62
272.394	317.62
272.626	310.62
272.858	297.62
273.09	283.62
273.322	277.62
273.553	289.62
273.785	287.62
274.017	283.62
274.249	287.62
274.481	294.62
274.713	301.62
274.945	288.62
275.176	279.62
275.408	270.62
275.64	287.62
275.872	272.62
276.104	310.62
276.335	297.62
276.567	291.62
276.799	317.62
277.031	324.62
277.262	336.62
277.494	338.62
277.726	332.62
277.957	306.62
278.189	308.62
278.421	310.62
278.652	289.62
278.884	292.62
279.115	287.62
279.347	273.62
279.579	282.62
279.81	279.62
280.042	279.62
280.273	298.62
280.505	281.62
280.736	286.62
280.968	309.62
281.199	312.62
281.431	280.62
281.662	285.62
281.894	302.62
282.125	295.62
282.356	309.62
282.588	318.62
282.819	316.62
283.051	320.62
283.282	293.62
283.513	310.62
283.745	293.62
283.976	299.62
284.207	312.62
284.439	320.62
284.67	301.62
284.901	328.62
285.132	317.62
285.364	316.62
285.595	325.62
285.826	310.62
286.057	310.62
286.288	328.62
286.52	312.62
286.751	325.62
286.982	313.62
287.213	307.62
287.444	338.62
287.675	323.62
287.906	326.62
288.138	347.62
288.369	315.62
288.6	327.62
288.831	336.62
289.062	333.62
289.293	332.62
289.524	357.62
289.755	344.62
289.986	321.62
290.217	330.62
290.448	346.62
290.679	306.62
290.91	325.62
291.141	321.62
291.371	327.62
291.602	336.62
291.833	344.62
292.064	326.62
292.295	329.62
292.526	333.62
292.757	318.62
292.987	330.62
293.218	331.62
293.449	333.62
293.68	327.62
293.91	328.62
294.141	330.62
294.372	324.62
294.603	319.62
294.833	334.62
295.064	330.62
295.295	296.62
295.525	334.62
295.756	335.62
295.987	328.62
296.217	361.62
296.448	357.62
296.679	321.62
296.909	325.62
297.14	342.62
297.37	356.62
297.601	340.62
297.831	324.62
298.062	353.62
298.292	359.62
298.523	343.62
298.753	352.62
298.984	361.62
299.214	338.62
299.445	354.62
299.675	369.62
299.905	360.62
300.136	363.62
300.366	349.62
300.597	354.62
300.827	351.62
301.057	389.62
301.288	378.62
301.518	365.62
301.748	367.62
301.979	366.62
302.209	380.62
302.439	360.62
302.669	355.62
302.9	359.62
303.13	365.62
303.36	356.62
303.59	374.62
303.82	366.62
304.051	382.62
304.281	364.62
304.511	375.62
304.741	350.62
304.971	359.62
305.201	359.62
305.431	377.62
305.661	375.62
305.891	371.62
306.121	385.62
306.352	369.62
306.582	357.62
306.812	380.62
307.042	380.62
307.272	368.62
307.502	362.62
307.731	367.62
307.961	390.62
308.191	356.62
308.421	372.62
308.651	365.62
308.881	380.62
309.111	382.62
309.341	381.62
309.571	377.62
309.8	385.62
310.03	394.62
310.26	393.62
310.49	395.62
310.72	403.62
310.949	412.62
311.179	407.62
311.409	390.62
311.639	412.62
311.868	407.62
312.098	400.62
312.328	412.62
312.557	410.62
312.787	450.62
313.017	413.62
313.246	415.62
313.476	408.62
313.706	403.62
313.935	413.62
314.165	409.62
314.394	442.62
314.624	415.62
314.853	424.62
315.083	419.62
315.312	421.62
315.542	389.62
315.771	396.62
316.001	412.62
316.23	407.62
316.46	427.62
316.689	398.62
316.919	398.62
317.148	433.62
317.377	412.62
317.607	406.62
317.836	403.62
318.065	393.62
318.295	397.62
318.524	404.62
318.753	393.62
318.983	398.62
319.212	415.62
319.441	419.62
319.67	414.62
319.9	414.62
320.129	412.62
320.358	389.62
320.587	407.62
320.816	415.62
321.046	421.62
321.275	432.62
321.504	431.62
321.733	410.62
321.962	441.62
322.191	436.62
322.42	446.62
322.649	445.62
322.878	455.62
323.108	459.62
323.337	463.62
323.566	487.62
323.795	490.62
324.024	530.62
324.253	583.62
324.482	798.62
324.71	1185.62
324.939	1600.62
325.168	1382.62
325.397	734.62
325.626	561.62
325.855	544.62
326.084	509.62
326.313	487.62
326.542	487.62
326.77	532.62
326.999	581.62
327.228	766.62
327.457	1030.62
327.686	1191.62
327.914	818.62
328.143	591.62
328.372	559.62
328.6	561.62
328.829	523.62
329.058	551.62
329.287	551.62
329.515	519.62
329.744	511.62
329.972	505.62
330.201	494.62
330.43	557.62
330.658	534.62
330.887	559.62
331.115	538.62
331.344	504.62
331.572	516.62
331.801	478.62
332.03	499.62
332.258	482.62
332.486	481.62
332.715	499.62
332.943	466.62
333.172	486.62
333.4	505.62
333.629	528.62
333.857	517.62
334.085	536.62
334.314	532.62
334.542	564.62
334.771	577.62
334.999	536.62
335.227	516.62
335.455	499.62
335.684	508.62
335.912	481.62
336.14	480.62
336.369	481.62
336.597	468.62
336.825	490.62
337.053	474.62
337.281	489.62
337.51	477.62
337.738	474.62
337.966	460.62
338.194	460.62
338.422	462.62
338.65	463.62
338.878	470.62
339.106	468.62
339.334	477.62
339.562	461.62
339.79	453.62
340.018	465.62
340.246	466.62
340.474	459.62
340.702	452.62
340.93	473.62
341.158	449.62
341.386	466.62
341.614	430.62
341.842	440.62
342.07	446.62
342.298	450.62
342.526	442.62
342.754	445.62
342.981	435.62
343.209	446.62
343.437	451.62
343.665	482.62
343.893	493.62
344.12	513.62
344.348	481.62
344.576	479.62
344.804	462.62
345.031	461.62
345.259	454.62
345.487	462.62
345.714	452.62
345.942	454.62
346.17	432.62
346.397	428.62
346.625	458.62
346.853	421.62
347.08	421.62
347.308	438.62
347.535	449.62
347.763	418.62
347.99	429.62
348.218	442.62
348.445	421.62
348.673	445.62
348.9	438.62
349.128	439.62
349.355	408.62
349.583	412.62
349.81	417.62
350.037	421.62
350.265	411.62
350.492	406.62
350.72	430.62
350.947	410.62
351.174	423.62
351.402	431.62
351.629	425.62
351.856	411.62
352.083	422.62
352.311	436.62
352.538	416.62
352.765	441.62
352.992	403.62
353.22	426.62
353.447	420.62
353.674	410.62
353.901	412.62
354.128	415.62
354.355	384.62
354.583	410.62
354.81	412.62
355.037	406.62
355.264	408.62
355.491	409.62
355.718	406.62
355.945	395.62
356.172	384.62
356.399	401.62
356.626	404.62
356.853	387.62
357.08	403.62
357.307	403.62
357.534	395.62
357.761	410.62
357.988	375.62
358.215	403.62
358.441	402.62
358.668	404.62
358.895	394.62
359.122	410.62
359.349	418.62
359.576	429.62
359.802	422.62
360.029	427.62
360.256	420.62
360.483	441.62
360.709	411.62
360.936	418.62
361.163	397.62
361.39	416.62
361.616	388.62
361.843	406.62
362.07	399.62
362.296	414.62
362.523	423.62
362.749	398.62
362.976	413.62
363.203	409.62
363.429	406.62
363.656	412.62
363.882	394.62
364.109	400.62
364.335	406.62
364.562	387.62
364.788	396.62
365.015	401.62
365.241	427.62
365.468	398.62
365.694	425.62
365.92	399.62
366.147	398.62
366.373	425.62
366.599	394.62
366.826	400.62
367.052	377.62
367.278	372.62
367.505	397.62
367.731	401.62
367.957	386.62
368.184	391.62
368.41	394.62
368.636	422.62
368.862	398.62
369.089	390.62
369.315	402.62
369.541	383.62
369.767	402.62
369.993	398.62
370.219	409.62
370.445	402.62
370.672	387.62
370.898	396.62
371.124	392.62
371.35	384.62
371.576	399.62
371.802	408.62
372.028	416.62
372.254	422.62
372.48	407.62
372.706	409.62
372.932	403.62
373.158	405.62
373.384	405.62
373.61	393.62
373.835	412.62
374.061	397.62
374.287	413.62
374.513	404.62
374.739	406.62
374.965	399.62
375.191	417.62
375.416	412.62
375.642	406.62
375.868	407.62
376.094	406.62
376.319	417.62
376.545	392.62
376.771	390.62
376.997	407.62
377.222	393.62
377.448	399.62
377.674	391.62
377.899	417.62
378.125	400.62
378.35	378.62
378.576	376.62
378.802	391.62
379.027	389.62
379.253	378.62
379.478	398.62
379.704	378.62
379.929	399.62
380.155	391.62
380.38	416.62
380.606	390.62
380.831	386.62
381.057	399.62
381.282	392.62
381.507	388.62
381.733	401.62
381.958	433.62
382.184	409.62
382.409	413.62
382.634	412.62
382.86	404.62
383.085	406.62
383.31	398.62
383.535	405.62
383.761	393.62
383.986	422.62
384.211	412.62
384.436	403.62
384.662	423.62
384.887	436.62
385.112	422.62
385.337	417.62
385.562	431.62
385.787	433.62
386.013	446.62
386.238	455.62
386.463	448.62
386.688	441.62
386.913	436.62
387.138	419.62
387.363	446.62
387.588	452.62
387.813	427.62
388.038	430.62
388.263	432.62
388.488	441.62
388.713	452.62
388.938	428.62
389.163	447.62
389.387	429.62
389.612	416.62
389.837	416.62
390.062	441.62
390.287	433.62
390.512	429.62
390.736	418.62
390.961	444.62
391.186	426.62
391.411	429.62
391.636	444.62
391.86	450.62
392.085	458.62
392.31	442.62
392.534	460.62
392.759	442.62
392.984	449.62
393.208	454.62
393.433	439.62
393.658	449.62
393.882	449.62
394.107	456.62
394.331	438.62
394.556	422.62
394.78	442.62
395.005	440.62
395.229	424.62
395.454	454.62
395.678	450.62
395.903	492.62
396.127	476.62
396.352	477.62
396.576	470.62
396.801	462.62
397.025	445.62
397.249	458.62
397.474	454.62
397.698	449.62
397.922	470.62
398.147	471.62
398.371	487.62
398.595	481.62
398.82	492.62
399.044	508.62
399.268	548.62
399.492	548.62
399.717	605.62
399.941	607.62
400.165	594.62
400.389	590.62
400.613	554.62
400.837	518.62
401.062	485.62
401.286	493.62
401.51	491.62
401.734	467.62
401.958	502.62
402.182	503.62
402.406	490.62
402.63	501.62
402.854	503.62
403.078	530.62
403.302	489.62
403.526	506.62
403.75	502.62
403.974	526.62
404.198	521.62
404.422	530.62
404.645	540.62
404.869	536.62
405.093	549.62
405.317	591.62
405.541	584.62
405.765	557.62
405.988	524.62
406.212	534.62
406.436	548.62
406.66	551.62
406.883	553.62
407.107	568.62
407.331	620.62
407.555	637.62
407.778	646.62
408.002	588.62
408.226	568.62
408.449	551.62
408.673	551.62
408.896	603.62
409.12	566.62
409.344	568.62
409.567	535.62
409.791	526.62
410.014	505.62
410.238	503.62
410.461	492.62
410.685	504.62
410.908	515.62
411.132	533.62
411.355	556.62
411.578	532.62
411.802	487.62
412.025	524.62
412.249	490.62
412.472	516.62
412.695	571.62
412.919	551.62
413.142	501.62
413.365	498.62
413.589	493.62
413.812	492.62
414.035	484.62
414.258	489.62
414.482	469.62
414.705	461.62
414.928	463.62
415.151	475.62
415.374	487.62
415.597	469.62
415.821	456.62
416.044	488.62
416.267	465.62
416.49	480.62
416.713	463.62
416.936	497.62
417.159	473.62
417.382	459.62
417.605	475.62
417.828	494.62
418.051	500.62
418.274	497.62
418.497	471.62
418.72	494.62
418.943	462.62
419.166	485.62
419.389	519.62
419.611	510.62
419.834	490.62
420.057	487.62
420.28	492.62
420.503	487.62
420.726	486.62
420.948	477.62
421.171	520.62
421.394	537.62
421.617	500.62
421.839	465.62
422.062	510.62
422.285	525.62
422.507	554.62
422.73	586.62
422.953	562.62
423.175	510.62
423.398	510.62
423.621	502.62
423.843	522.62
424.066	521.62
424.288	505.62
424.511	508.62
424.733	572.62
424.956	619.62
425.178	596.62
425.401	572.62
425.623	605.62
425.846	523.62
426.068	499.62
426.291	500.62
426.513	494.62
426.735	506.62
426.958	526.62
427.18	624.62
427.402	685.62
427.625	745.62
427.847	622.62
428.069	583.62
428.292	518.62
428.514	481.62
428.736	490.62
428.958	478.62
429.181	463.62
429.403	474.62
429.625	464.62
429.847	491.62
430.069	530.62
430.292	541.62
430.514	478.62
430.736	482.62
430.958	425.62
431.18	450.62
431.402	448.62
431.624	428.62
431.846	445.62
432.068	445.62
432.29	460.62
432.512	425.62
432.734	458.62
432.956	453.62
433.178	460.62
433.4	456.62
433.622	446.62
433.844	453.62
434.066	436.62
434.287	425.62
434.509	458.62
434.731	426.62
434.953	456.62
435.175	495.62
435.397	474.62
435.618	491.62
435.84	550.62
436.062	614.62
436.284	639.62
436.505	552.62
436.727	487.62
436.949	466.62
437.17	455.62
437.392	476.62
437.614	468.62
437.835	495.62
438.057	543.62
438.278	626.62
438.5	624.62
438.721	647.62
438.943	658.62
439.165	533.62
439.386	519.62
439.608	494.62
439.829	481.62
440.05	502.62
440.272	536.62
440.493	519.62
440.715	481.62
440.936	462.62
441.158	458.62
441.379	462.62
441.6	459.62
441.822	498.62
442.043	507.62
442.264	578.62
442.486	614.62
442.707	534.62
442.928	490.62
443.149	502.62
443.371	531.62
443.592	546.62
443.813	622.62
444.034	668.62
444.255	557.62
444.476	502.62
444.698	524.62
444.919	526.62
445.14	615.62
445.361	573.62
445.582	490.62
445.803	554.62
446.024	621.62
446.245	636.62
446.466	572.62
446.687	503.62
446.908	497.62
447.129	454.62
447.35	470.62
447.571	448.62
447.792	437.62
448.013	452.62
448.234	464.62
448.455	502.62
448.675	568.62
448.896	637.62
449.117	556.62
449.338	560.62
449.559	621.62
449.779	694.62
450	570.62
450.221	494.62
450.442	456.62
450.662	461.62
450.883	455.62
451.104	458.62
451.324	427.62
451.545	416.62
451.766	430.62
451.986	414.62
452.207	395.62
452.428	409.62
452.648	395.62
452.869	412.62
453.089	427.62
453.31	405.62
453.53	411.62
453.751	416.62
453.971	403.62
454.192	410.62
454.412	377.62
454.633	411.62
454.853	394.62
455.073	414.62
455.294	430.62
455.514	472.62
455.734	455.62
455.955	399.62
456.175	386.62
456.395	390.62
456.616	384.62
456.836	376.62
457.056	392.62
457.276	376.62
457.497	369.62
457.717	392.62
457.937	401.62
458.157	396.62
458.377	396.62
458.598	430.62
458.818	460.62
459.038	512.62
459.258	502.62
459.478	454.62
459.698	440.62
459.918	450.62
460.138	448.62
460.358	452.62
460.578	461.62
460.798	457.62
461.018	463.62
461.238	445.62
461.458	439.62
461.678	466.62
461.898	473.62
462.118	451.62
462.338	474.62
462.558	473.62
462.777	485.62
462.997	507.62
463.217	528.62
463.437	519.62
463.657	507.62
463.876	489.62
464.096	478.62
464.316	498.62
464.536	492.62
464.755	484.62
464.975	486.62
465.195	518.62
465.414	525.62
465.634	479.62
465.854	458.62
466.073	440.62
466.293	425.62
466.512	411.62
466.732	418.62
466.951	411.62
467.171	413.62
467.391	435.62
467.61	437.62
467.829	393.62
468.049	418.62
468.268	426.62
468.488	412.62
468.707	397.62
468.927	396.62
469.146	409.62
469.365	401.62
469.585	413.62
469.804	422.62
470.023	421.62
470.243	413.62
470.462	417.62
470.681	422.62
470.901	412.62
471.12	436.62
471.339	442.62
471.558	422.62
471.777	413.62
471.997	410.62
472.216	436.62
472.435	443.62
472.654	433.62
472.873	428.62
473.092	418.62
473.311	420.62
473.53	408.62
473.749	423.62
473.968	448.62
474.187	522.62
474.406	537.62
474.625	465.62
474.844	438.62
475.063	419.62
475.282	411.62
475.501	412.62
475.72	427.62
475.939	414.62
476.158	431.62
476.377	419.62
476.596	442.62
476.814	443.62
477.033	434.62
477.252	425.62
477.471	446.62
477.69	478.62
477.908	458.62
478.127	467.62
478.346	476.62
478.564	460.62
478.783	474.62
479.002	491.62
479.22	482.62
479.439	495.62
479.658	497.62
479.876	502.62
480.095	510.62
480.313	520.62
480.532	522.62
480.751	501.62
480.969	523.62
481.188	548.62
481.406	572.62
481.624	526.62
481.843	508.62
482.061	505.62
482.28	466.62
482.498	488.62
482.717	486.62
482.935	490.62
483.153	456.62
483.372	475.62
483.59	484.62
483.808	469.62
484.027	501.62
484.245	489.62
484.463	486.62
484.681	502.62
484.9	506.62
485.118	486.62
485.336	485.62
485.554	503.62
485.772	522.62
485.99	479.62
486.209	504.62
486.427	500.62
486.645	518.62
486.863	496.62
487.081	534.62
487.299	503.62
487.517	536.62
487.735	520.62
487.953	517.62
488.171	520.62
488.389	510.62
488.607	524.62
488.825	497.62
489.043	512.62
489.261	521.62
489.479	541.62
489.696	505.62
489.914	540.62
490.132	534.62
490.35	540.62
490.568	558.62
490.786	528.62
491.003	534.62
491.221	571.62
491.439	558.62
491.657	580.62
491.874	571.62
492.092	596.62
492.31	589.62
492.527	559.62
492.745	570.62
492.963	591.62
493.18	585.62
493.398	571.62
493.615	588.62
493.833	593.62
494.05	588.62
494.268	565.62
494.485	598.62
494.703	582.62
494.92	548.62
495.138	589.62
495.355	606.62
495.573	601.62
495.79	606.62
496.008	577.62
496.225	591.62
496.442	578.62
496.66	606.62
496.877	600.62
497.094	605.62
497.312	582.62
497.529	622.62
497.746	622.62
497.963	645.62
498.181	660.62
498.398	660.62
498.615	686.62
498.832	669.62
499.049	730.62
499.267	749.62
499.484	755.62
499.701	799.62
499.918	846.62
500.135	880.62
500.352	954.62
500.569	930.62
500.786	942.62
501.003	896.62
501.22	875.62
501.437	866.62
501.654	822.62
501.871	803.62
502.088	752.62
502.305	721.62
502.522	711.62
502.739	691.62
502.956	659.62
503.172	649.62
503.389	635.62
503.606	641.62
503.823	625.62
504.04	614.62
504.256	600.62
504.473	591.62
504.69	585.62
504.907	588.62
505.123	594.62
505.34	594.62
505.557	589.62
505.773	574.62
505.99	584.62
506.207	580.62
506.423	581.62
506.64	556.62
506.856	567.62
507.073	561.62
507.289	564.62
507.506	527.62
507.722	564.62
507.939	536.62
508.155	530.62
508.372	531.62
508.588	537.62
508.805	523.62
509.021	502.62
509.238	540.62
509.454	529.62
509.67	529.62
509.887	540.62
510.103	493.62
510.319	509.62
510.536	556.62
510.752	782.62
510.968	656.62
511.184	523.62
511.401	497.62
511.617	486.62
511.833	524.62
512.049	513.62
512.265	499.62
512.481	519.62
512.698	484.62
512.914	472.62
513.13	481.62
513.346	485.62
513.562	481.62
513.778	474.62
513.994	504.62
514.21	502.62
514.426	510.62
514.642	525.62
514.858	530.62
515.074	559.62
515.29	621.62
515.506	761.62
515.721	658.62
515.937	564.62
516.153	546.62
516.369	514.62
516.585	526.62
516.801	531.62
517.016	545.62
517.232	542.62
517.448	537.62
517.664	553.62
517.879	540.62
518.095	531.62
518.311	531.62
518.527	528.62
518.742	522.62
518.958	520.62
519.173	518.62
519.389	509.62
519.605	496.62
519.82	493.62
520.036	522.62
520.251	514.62
520.467	545.62
520.682	510.62
520.898	505.62
521.113	511.62
521.329	550.62
521.544	554.62
521.76	648.62
521.975	918.62
522.19	895.62
522.406	588.62
522.621	500.62
522.836	483.62
523.052	466.62
523.267	462.62
523.482	449.62
523.698	445.62
523.913	455.62
524.128	466.62
524.343	431.62
524.559	426.62
524.774	444.62
524.989	452.62
525.204	438.62
525.419	448.62
525.634	425.62
525.849	436.62
526.064	426.62
526.28	422.62
526.495	430.62
526.71	444.62
526.925	409.62
527.14	398.62
527.355	431.62
527.57	424.62
527.785	430.62
527.999	441.62
528.214	388.62
528.429	425.62
528.644	406.62
528.859	402.62
529.074	439.62
529.289	432.62
529.503	455.62
529.718	448.62
529.933	434.62
530.148	419.62
530.363	436.62
530.577	406.62
530.792	408.62
531.007	423.62
531.221	403.62
531.436	437.62
531.651	403.62
531.865	390.62
532.08	413.62
532.295	422.62
532.509	418.62
532.724	409.62
532.938	420.62
533.153	404.62
533.367	409.62
533.582	401.62
533.796	394.62
534.011	393.62
534.225	423.62
534.44	385.62
534.654	393.62
534.868	400.62
535.083	393.62
535.297	397.62
535.511	401.62
535.726	404.62
535.94	399.62
536.154	381.62
536.369	401.62
536.583	383.62
536.797	384.62
537.011	370.62
537.225	398.62
537.44	388.62
537.654	381.62
537.868	405.62
538.082	384.62
538.296	390.62
538.51	388.62
538.724	398.62
538.938	402.62
539.153	383.62
539.367	380.62
539.581	394.62
539.795	396.62
540.009	395.62
540.222	382.62
540.436	381.62
540.65	382.62
540.864	399.62
541.078	390.62
541.292	393.62
541.506	390.62
541.72	386.62
541.934	372.62
542.147	370.62
542.361	374.62
542.575	394.62
542.789	376.62
543.002	374.62
543.216	394.62
543.43	378.62
543.644	371.62
543.857	390.62
544.071	377.62
544.285	384.62
544.498	370.62
544.712	373.62
544.925	382.62
545.139	399.62
545.352	372.62
545.566	386.62
545.779	388.62
545.993	402.62
546.206	374.62
546.42	386.62
546.633	383.62
546.847	381.62
547.06	374.62
547.274	394.62
547.487	382.62
547.7	384.62
547.914	353.62
548.127	372.62
548.34	365.62
548.554	390.62
548.767	388.62
548.98	374.62
549.193	387.62
549.407	375.62
549.62	354.62
549.833	364.62
550.046	388.62
550.259	374.62
550.473	353.62
550.686	380.62
550.899	372.62
551.112	383.62
551.325	388.62
551.538	380.62
551.751	377.62
551.964	357.62
552.177	382.62
552.39	400.62
552.603	382.62
552.816	390.62
553.029	383.62
553.242	391.62
553.455	390.62
553.667	394.62
553.88	370.62
554.093	379.62
554.306	391.62
554.519	392.62
554.732	358.62
554.944	372.62
555.157	333.62
555.37	355.62
555.583	352.62
555.795	369.62
556.008	353.62
556.221	343.62
556.433	353.62
556.646	334.62
556.859	337.62
557.071	329.62
557.284	354.62
557.496	349.62
557.709	368.62
557.921	352.62
558.134	325.62
558.346	331.62
558.559	333.62
558.771	359.62
558.984	327.62
559.196	349.62
559.409	327.62
559.621	344.62
559.833	337.62
560.046	319.62
560.258	326.62
560.47	336.62
560.683	335.62
560.895	332.62
561.107	335.62
561.32	349.62
561.532	329.62
561.744	342.62
561.956	329.62
562.168	346.62
562.381	330.62
562.593	325.62
562.805	326.62
563.017	333.62
563.229	314.62
563.441	328.62
563.653	328.62
563.865	341.62
564.077	339.62
564.289	337.62
564.501	367.62
564.713	363.62
564.925	354.62
565.137	357.62
565.349	349.62
565.561	385.62
565.773	370.62
565.985	388.62
566.197	396.62
566.408	409.62
566.62	396.62
566.832	418.62
567.044	421.62
567.255	430.62
567.467	442.62
567.679	445.62
567.891	456.62
568.102	452.62
568.314	431.62
568.526	424.62
568.737	398.62
568.949	390.62
569.161	384.62
569.372	365.62
569.584	352.62
569.795	351.62
570.007	344.62
570.218	368.62
570.43	351.62
570.641	340.62
570.853	331.62
571.064	347.62
571.276	345.62
571.487	344.62
571.698	333.62
571.91	322.62
572.121	293.62
572.333	298.62
572.544	306.62
572.755	294.62
572.966	305.62
573.178	306.62
573.389	295.62
573.6	309.62
573.811	297.62
574.023	310.62
574.234	286.62
574.445	287.62
574.656	292.62
574.867	301.62
575.078	293.62
575.289	300.62
575.501	292.62
575.712	294.62
575.923	293.62
576.134	267.62
576.345	277.62
576.556	284.62
576.767	293.62
576.978	277.62
577.188	286.62
577.399	286.62
577.61	278.62
577.821	288.62
578.032	287.62
578.243	295.62
578.454	372.62
578.665	308.62
578.875	276.62
579.086	264.62
579.297	272.62
579.508	270.62
579.718	274.62
579.929	273.62
580.14	271.62
580.35	251.62
580.561	260.62
580.772	272.62
580.982	253.62
581.193	250.62
581.403	268.62
581.614	264.62
581.825	270.62
582.035	257.62
582.246	260.62
582.456	272.62
582.667	262.62
582.877	280.62
583.087	238.62
583.298	256.62
583.508	273.62
583.719	264.62
583.929	258.62
584.139	249.62
584.35	270.62
584.56	265.62
584.77	260.62
584.981	252.62
585.191	272.62
585.401	262.62
585.611	265.62
585.821	271.62
586.032	273.62
586.242	248.62
586.452	262.62
586.662	231.62
586.872	265.62
587.082	265.62
587.292	255.62
587.502	256.62
587.713	249.62
587.923	258.62
588.133	256.62
588.343	257.62
588.553	245.62
588.762	274.62
588.972	262.62
589.182	272.62
589.392	265.62
589.602	253.62
589.812	268.62
590.022	256.62
590.232	253.62
590.441	238.62
590.651	250.62
590.861	263.62
591.071	251.62
591.281	263.62
591.49	239.62
591.7	257.62
591.91	274.62
592.119	268.62
592.329	275.62
592.539	285.62
592.748	269.62
592.958	273.62
593.167	287.62
593.377	267.62
593.587	302.62
593.796	290.62
594.006	286.62
594.215	295.62
594.424	284.62
594.634	274.62
594.843	275.62
595.053	269.62
595.262	258.62
595.472	264.62
595.681	261.62
595.89	256.62
596.1	240.62
596.309	245.62
596.518	237.62
596.727	251.62
596.937	244.62
597.146	236.62
597.355	236.62
597.564	246.62
597.774	244.62
597.983	253.62
598.192	221.62
598.401	232.62
598.61	218.62
598.819	236.62
599.028	239.62
599.237	228.62
599.446	231.62
599.655	228.62
599.864	235.62
600.073	234.62
600.282	246.62
600.491	234.62
600.7	251.62
600.909	234.62
601.118	207.62
601.327	226.62
601.536	224.62
601.745	220.62
601.953	232.62
602.162	228.62
602.371	213.62
602.58	216.62
602.789	228.62
602.997	226.62
603.206	210.62
603.415	228.62
603.623	219.62
603.832	211.62
604.041	207.62
604.249	215.62
604.458	224.62
604.666	224.62
604.875	220.62
605.084	212.62
605.292	191.62
605.501	218.62
605.709	216.62
605.918	207.62
606.126	199.62
606.334	205.62
606.543	209.62
606.751	220.62
606.96	222.62
607.168	206.62
607.376	227.62
607.585	221.62
607.793	221.62
608.001	231.62
608.21	216.62
608.418	202.62
608.626	205.62
608.834	222.62
609.043	202.62
609.251	214.62
609.459	216.62
609.667	214.62
609.875	184.62
610.083	217.62
610.291	229.62
610.499	213.62
610.707	212.62
610.916	211.62
611.124	219.62
611.332	221.62
611.54	203.62
611.748	212.62
611.955	222.62
612.163	214.62
612.371	198.62
612.579	215.62
612.787	217.62
612.995	218.62
613.203	205.62
613.411	210.62
613.618	197.62
613.826	203.62
614.034	201.62
614.242	200.62
614.449	213.62
614.657	221.62
614.865	217.62
615.072	205.62
615.28	211.62
615.488	219.62
615.695	187.62
615.903	193.62
616.111	216.62
616.318	199.62
616.526	200.62
616.733	199.62
616.941	206.62
617.148	209.62
617.356	205.62
617.563	210.62
617.771	200.62
617.978	194.62
618.185	206.62
618.393	200.62
618.6	210.62
618.807	197.62
619.015	187.62
619.222	210.62
619.429	200.62
619.637	204.62
619.844	193.62
620.051	195.62
620.258	194.62
620.466	220.62
620.673	189.62
620.88	173.62
621.087	199.62
621.294	175.62
621.501	201.62
621.708	180.62
621.915	201.62
622.122	196.62
622.329	194.62
622.536	198.62
622.743	195.62
622.95	209.62
623.157	196.62
623.364	187.62
623.571	195.62
623.778	167.62
623.985	177.62
624.192	182.62
624.399	168.62
624.606	204.62
624.812	178.62
625.019	168.62
625.226	191.62
625.433	198.62
625.639	188.62
625.846	170.62
626.053	177.62
626.259	196.62
626.466	196.62
626.673	168.62
626.879	184.62
627.086	180.62
627.293	182.62
627.499	171.62
627.706	185.62
627.912	181.62
628.119	190.62
628.325	185.62
628.532	174.62
628.738	182.62
628.945	186.62
629.151	180.62
629.357	166.62
629.564	172.62
629.77	173.62
629.976	184.62
630.183	173.62
630.389	178.62
630.595	204.62
630.802	168.62
631.008	166.62
631.214	173.62
631.42	166.62
631.627	169.62
631.833	153.62
632.039	174.62
632.245	170.62
632.451	182.62
632.657	152.62
632.863	171.62
633.069	168.62
633.275	167.62
633.481	168.62
633.688	162.62
633.893	158.62
634.099	174.62
634.305	161.62
634.511	152.62
634.717	166.62
634.923	167.62
635.129	156.62
635.335	159.62
635.541	161.62
635.747	175.62
635.952	169.62
636.158	168.62
636.364	146.62
636.57	166.62
636.775	161.62
636.981	163.62
637.187	170.62
637.392	161.62
637.598	161.62
637.804	149.62
638.009	150.62
638.215	159.62
638.421	153.62
638.626	159.62
638.832	157.62
639.037	169.62
639.243	163.62
639.448	160.62
639.654	162.62
639.859	145.62
640.065	143.62
640.27	161.62
640.475	142.62
640.681	159.62
640.886	164.62
641.091	165.62
641.297	162.62
641.502	153.62
641.707	151.62
641.913	159.62
642.118	145.62
642.323	146.62
642.528	152.62
642.733	132.62
642.939	164.62
643.144	152.62
643.349	150.62
643.554	147.62
643.759	174.62
643.964	156.62
644.169	157.62
644.374	137.62
644.579	155.62
644.784	152.62
644.989	161.62
645.194	158.62
645.399	169.62
645.604	138.62
645.809	140.62
646.014	142.62
646.219	137.62
646.423	145.62
646.628	157.62
646.833	149.62
647.038	151.62
647.243	149.62
647.447	151.62
647.652	161.62
647.857	141.62
648.062	157.62
648.266	144.62
648.471	155.62
648.676	144.62
648.88	150.62
649.085	134.62
649.289	151.62
649.494	159.62
649.698	177.62
649.903	158.62
650.107	138.62
650.312	153.62
650.516	141.62
650.721	144.62
650.925	147.62
651.13	154.62
651.334	138.62
651.539	128.62
651.743	148.62
651.947	140.62
652.152	145.62
652.356	139.62
652.56	134.62
652.764	141.62
652.969	129.62
653.173	128.62
653.377	134.62
653.581	142.62
653.785	130.62
653.99	129.62
654.194	124.62
654.398	121.62
654.602	126.62
654.806	126.62
655.01	145.62
655.214	147.62
655.418	125.62
655.622	130.62
655.826	145.62
656.03	138.62
656.234	124.62
656.438	127.62
656.642	137.62
656.846	123.62
657.049	116.62
657.253	127.62
657.457	117.62
657.661	112.62
657.865	112.62
658.068	108.62
658.272	122.62
658.476	112.62
658.68	124.62
658.883	106.62
659.087	94.62
659.291	96.62
659.494	104.62
659.698	97.62
659.901	103.62
660.105	92.62
660.309	91.62
660.512	96.62
660.716	96.62
660.919	103.62
661.123	96.62
661.326	87.62
661.53	105.62
661.733	90.62
661.936	95.62
662.14	107.62
662.343	99.62
662.546	92.62
662.75	97.62
662.953	80.62
663.156	86.62
663.36	94.62
663.563	94.62
663.766	82.62
663.969	88.62
664.173	78.62
664.376	86.62
664.579	94.62
664.782	90.62
664.985	90.62
665.188	81.62
665.391	78.62
665.594	84.62
665.797	93.62
666	91.62
666.203	87.62
666.406	75.62
666.609	80.62
666.812	88.62
667.015	103.62
667.218	93.62
667.421	89.62
667.624	77.62
667.827	82.62
668.03	80.62
668.232	81.62
668.435	70.62
668.638	79.62
668.841	95.62
669.043	95.62
669.246	80.62
669.449	81.62
669.651	71.62
669.854	85.62
670.057	85.62
670.259	92.62
670.462	92.62
670.665	82.62
670.867	85.62
671.07	87.62
671.272	93.62
671.475	94.62
671.677	82.62
671.88	80.62
672.082	81.62
672.284	69.62
672.487	93.62
672.689	84.62
672.892	76.62
