Data from 1964.PennyLincolnUp.Lamp.En5.5.200Scan.071719.P1._HRD10591_14-05-37-910.txt Node
Date: Thu Jul 18 14:05:37 EDT 2019
User: cochatt
Spectrometer: HR+D1059
Trigger mode: 1
Integration Time (sec): 1.000000E-1
Scans to average: 1
Electric dark correction enabled: true
Nonlinearity correction enabled: false
Boxcar width: 0
XAxis mode: Wavelengths
Number of Pixels in Spectrum: 2048
>>>>>Begin Spectral Data<<<<<
223.165	-22.5
223.4	-22.5
223.635	-22.5
223.869	-22.5
224.104	-13.5
224.338	-22.5
224.573	-5.5
224.808	-9.5
225.042	-9.5
225.277	-5.5
225.511	-11.5
225.746	8.5
225.98	11.5
226.215	9.5
226.449	18.5
226.683	16.5
226.918	34.5
227.152	23.5
227.387	44.5
227.621	42.5
227.856	40.5
228.09	42.5
228.324	44.5
228.559	42.5
228.793	64.5
229.027	94.5
229.262	104.5
229.496	108.5
229.73	117.5
229.964	137.5
230.199	120.5
230.433	118.5
230.667	107.5
230.901	98.5
231.136	98.5
231.37	99.5
231.604	118.5
231.838	126.5
232.072	121.5
232.306	105.5
232.541	118.5
232.775	100.5
233.009	118.5
233.243	107.5
233.477	108.5
233.711	104.5
233.945	102.5
234.179	111.5
234.413	116.5
234.647	110.5
234.881	107.5
235.115	132.5
235.349	106.5
235.583	120.5
235.817	123.5
236.051	117.5
236.285	104.5
236.519	122.5
236.753	138.5
236.987	135.5
237.221	151.5
237.455	201.5
237.689	160.5
237.922	143.5
238.156	132.5
238.39	122.5
238.624	119.5
238.858	132.5
239.091	130.5
239.325	132.5
239.559	130.5
239.793	134.5
240.027	120.5
240.26	136.5
240.494	157.5
240.728	149.5
240.961	135.5
241.195	131.5
241.429	135.5
241.662	139.5
241.896	144.5
242.13	140.5
242.363	138.5
242.597	133.5
242.83	150.5
243.064	135.5
243.298	135.5
243.531	139.5
243.765	150.5
243.998	134.5
244.232	134.5
244.465	157.5
244.699	151.5
244.932	152.5
245.166	147.5
245.399	155.5
245.633	160.5
245.866	151.5
246.099	134.5
246.333	150.5
246.566	171.5
246.8	156.5
247.033	163.5
247.266	156.5
247.5	171.5
247.733	182.5
247.966	171.5
248.2	167.5
248.433	188.5
248.666	182.5
248.899	198.5
249.133	209.5
249.366	193.5
249.599	185.5
249.832	178.5
250.066	170.5
250.299	175.5
250.532	203.5
250.765	198.5
250.998	203.5
251.231	228.5
251.465	208.5
251.698	195.5
251.931	204.5
252.164	205.5
252.397	199.5
252.63	215.5
252.863	204.5
253.096	213.5
253.329	231.5
253.562	230.5
253.795	212.5
254.028	221.5
254.261	222.5
254.494	260.5
254.727	262.5
254.96	280.5
255.193	278.5
255.426	237.5
255.659	237.5
255.892	239.5
256.124	239.5
256.357	239.5
256.59	227.5
256.823	230.5
257.056	228.5
257.289	217.5
257.521	237.5
257.754	212.5
257.987	217.5
258.22	208.5
258.452	205.5
258.685	213.5
258.918	200.5
259.151	219.5
259.383	232.5
259.616	231.5
259.849	226.5
260.081	245.5
260.314	268.5
260.547	247.5
260.779	245.5
261.012	243.5
261.244	242.5
261.477	230.5
261.71	240.5
261.942	237.5
262.175	236.5
262.407	227.5
262.64	223.5
262.872	227.5
263.105	222.5
263.337	234.5
263.57	212.5
263.802	222.5
264.035	222.5
264.267	221.5
264.499	225.5
264.732	225.5
264.964	204.5
265.197	232.5
265.429	226.5
265.661	230.5
265.894	238.5
266.126	238.5
266.358	245.5
266.591	240.5
266.823	222.5
267.055	213.5
267.287	261.5
267.52	229.5
267.752	238.5
267.984	234.5
268.216	243.5
268.448	252.5
268.681	250.5
268.913	267.5
269.145	289.5
269.377	288.5
269.609	298.5
269.841	298.5
270.073	287.5
270.306	298.5
270.538	314.5
270.77	340.5
271.002	317.5
271.234	293.5
271.466	313.5
271.698	298.5
271.93	332.5
272.162	319.5
272.394	320.5
272.626	328.5
272.858	319.5
273.09	313.5
273.322	290.5
273.553	278.5
273.785	279.5
274.017	280.5
274.249	291.5
274.481	293.5
274.713	291.5
274.945	286.5
275.176	298.5
275.408	275.5
275.64	292.5
275.872	286.5
276.104	297.5
276.335	267.5
276.567	312.5
276.799	284.5
277.031	311.5
277.262	332.5
277.494	339.5
277.726	319.5
277.957	308.5
278.189	317.5
278.421	308.5
278.652	288.5
278.884	305.5
279.115	293.5
279.347	301.5
279.579	285.5
279.81	293.5
280.042	292.5
280.273	303.5
280.505	291.5
280.736	289.5
280.968	297.5
281.199	294.5
281.431	310.5
281.662	316.5
281.894	303.5
282.125	301.5
282.356	320.5
282.588	321.5
282.819	320.5
283.051	299.5
283.282	300.5
283.513	315.5
283.745	323.5
283.976	315.5
284.207	317.5
284.439	315.5
284.67	313.5
284.901	301.5
285.132	311.5
285.364	318.5
285.595	307.5
285.826	324.5
286.057	317.5
286.288	309.5
286.52	325.5
286.751	311.5
286.982	319.5
287.213	314.5
287.444	322.5
287.675	342.5
287.906	327.5
288.138	334.5
288.369	330.5
288.6	342.5
288.831	343.5
289.062	349.5
289.293	338.5
289.524	327.5
289.755	326.5
289.986	315.5
290.217	333.5
290.448	343.5
290.679	342.5
290.91	325.5
291.141	341.5
291.371	338.5
291.602	323.5
291.833	328.5
292.064	333.5
292.295	336.5
292.526	324.5
292.757	338.5
292.987	309.5
293.218	315.5
293.449	334.5
293.68	335.5
293.91	339.5
294.141	325.5
294.372	338.5
294.603	340.5
294.833	340.5
295.064	328.5
295.295	339.5
295.525	328.5
295.756	353.5
295.987	340.5
296.217	342.5
296.448	354.5
296.679	349.5
296.909	337.5
297.14	340.5
297.37	340.5
297.601	348.5
297.831	347.5
298.062	337.5
298.292	337.5
298.523	344.5
298.753	354.5
298.984	343.5
299.214	328.5
299.445	346.5
299.675	355.5
299.905	346.5
300.136	360.5
300.366	376.5
300.597	351.5
300.827	357.5
301.057	356.5
301.288	370.5
301.518	365.5
301.748	358.5
301.979	360.5
302.209	347.5
302.439	373.5
302.669	356.5
302.9	382.5
303.13	357.5
303.36	346.5
303.59	373.5
303.82	382.5
304.051	379.5
304.281	378.5
304.511	388.5
304.741	365.5
304.971	375.5
305.201	382.5
305.431	362.5
305.661	377.5
305.891	359.5
306.121	374.5
306.352	398.5
306.582	376.5
306.812	360.5
307.042	354.5
307.272	391.5
307.502	375.5
307.731	384.5
307.961	379.5
308.191	366.5
308.421	365.5
308.651	376.5
308.881	375.5
309.111	379.5
309.341	361.5
309.571	389.5
309.8	404.5
310.03	404.5
310.26	395.5
310.49	388.5
310.72	396.5
310.949	410.5
311.179	420.5
311.409	413.5
311.639	416.5
311.868	396.5
312.098	408.5
312.328	405.5
312.557	433.5
312.787	438.5
313.017	434.5
313.246	425.5
313.476	421.5
313.706	410.5
313.935	419.5
314.165	445.5
314.394	455.5
314.624	413.5
314.853	411.5
315.083	407.5
315.312	407.5
315.542	414.5
315.771	398.5
316.001	415.5
316.23	425.5
316.46	386.5
316.689	420.5
316.919	389.5
317.148	410.5
317.377	399.5
317.607	432.5
317.836	422.5
318.065	415.5
318.295	432.5
318.524	437.5
318.753	431.5
318.983	412.5
319.212	403.5
319.441	426.5
319.67	419.5
319.9	416.5
320.129	410.5
320.358	437.5
320.587	413.5
320.816	423.5
321.046	417.5
321.275	431.5
321.504	444.5
321.733	444.5
321.962	448.5
322.191	452.5
322.42	457.5
322.649	455.5
322.878	474.5
323.108	476.5
323.337	474.5
323.566	507.5
323.795	532.5
324.024	559.5
324.253	658.5
324.482	874.5
324.71	1275.5
324.939	1765.5
325.168	1424.5
325.397	799.5
325.626	584.5
325.855	527.5
326.084	524.5
326.313	491.5
326.542	509.5
326.77	547.5
326.999	621.5
327.228	791.5
327.457	1112.5
327.686	1316.5
327.914	869.5
328.143	634.5
328.372	586.5
328.6	568.5
328.829	529.5
329.058	542.5
329.287	546.5
329.515	535.5
329.744	530.5
329.972	507.5
330.201	540.5
330.43	554.5
330.658	576.5
330.887	578.5
331.115	563.5
331.344	548.5
331.572	505.5
331.801	491.5
332.03	512.5
332.258	493.5
332.486	482.5
332.715	502.5
332.943	505.5
333.172	514.5
333.4	527.5
333.629	500.5
333.857	540.5
334.085	553.5
334.314	556.5
334.542	565.5
334.771	574.5
334.999	545.5
335.227	511.5
335.455	500.5
335.684	543.5
335.912	491.5
336.14	502.5
336.369	489.5
336.597	483.5
336.825	477.5
337.053	473.5
337.281	484.5
337.51	476.5
337.738	464.5
337.966	488.5
338.194	473.5
338.422	458.5
338.65	477.5
338.878	462.5
339.106	465.5
339.334	473.5
339.562	470.5
339.79	462.5
340.018	463.5
340.246	450.5
340.474	448.5
340.702	452.5
340.93	453.5
341.158	431.5
341.386	456.5
341.614	466.5
341.842	477.5
342.07	456.5
342.298	452.5
342.526	454.5
342.754	446.5
342.981	458.5
343.209	458.5
343.437	454.5
343.665	463.5
343.893	474.5
344.12	474.5
344.348	470.5
344.576	463.5
344.804	470.5
345.031	463.5
345.259	468.5
345.487	472.5
345.714	478.5
345.942	445.5
346.17	464.5
346.397	438.5
346.625	428.5
346.853	438.5
347.08	424.5
347.308	457.5
347.535	444.5
347.763	448.5
347.99	447.5
348.218	447.5
348.445	448.5
348.673	445.5
348.9	442.5
349.128	421.5
349.355	416.5
349.583	427.5
349.81	418.5
350.037	413.5
350.265	416.5
350.492	433.5
350.72	450.5
350.947	444.5
351.174	422.5
351.402	450.5
351.629	423.5
351.856	431.5
352.083	429.5
352.311	459.5
352.538	439.5
352.765	452.5
352.992	448.5
353.22	429.5
353.447	432.5
353.674	436.5
353.901	434.5
354.128	418.5
354.355	401.5
354.583	406.5
354.81	416.5
355.037	415.5
355.264	405.5
355.491	410.5
355.718	394.5
355.945	401.5
356.172	410.5
356.399	411.5
356.626	412.5
356.853	399.5
357.08	394.5
357.307	408.5
357.534	394.5
357.761	418.5
357.988	386.5
358.215	414.5
358.441	429.5
358.668	414.5
358.895	421.5
359.122	430.5
359.349	426.5
359.576	438.5
359.802	441.5
360.029	432.5
360.256	463.5
360.483	449.5
360.709	419.5
360.936	440.5
361.163	397.5
361.39	407.5
361.616	437.5
361.843	412.5
362.07	422.5
362.296	410.5
362.523	429.5
362.749	412.5
362.976	402.5
363.203	422.5
363.429	430.5
363.656	420.5
363.882	415.5
364.109	394.5
364.335	395.5
364.562	423.5
364.788	390.5
365.015	414.5
365.241	409.5
365.468	415.5
365.694	437.5
365.92	431.5
366.147	409.5
366.373	420.5
366.599	394.5
366.826	406.5
367.052	408.5
367.278	396.5
367.505	392.5
367.731	418.5
367.957	393.5
368.184	399.5
368.41	423.5
368.636	415.5
368.862	443.5
369.089	429.5
369.315	412.5
369.541	406.5
369.767	398.5
369.993	416.5
370.219	415.5
370.445	411.5
370.672	396.5
370.898	395.5
371.124	403.5
371.35	391.5
371.576	418.5
371.802	405.5
372.028	384.5
372.254	410.5
372.48	414.5
372.706	413.5
372.932	422.5
373.158	437.5
373.384	418.5
373.61	389.5
373.835	424.5
374.061	418.5
374.287	400.5
374.513	421.5
374.739	424.5
374.965	409.5
375.191	427.5
375.416	439.5
375.642	415.5
375.868	395.5
376.094	407.5
376.319	397.5
376.545	414.5
376.771	393.5
376.997	400.5
377.222	400.5
377.448	381.5
377.674	395.5
377.899	387.5
378.125	406.5
378.35	404.5
378.576	401.5
378.802	396.5
379.027	397.5
379.253	404.5
379.478	398.5
379.704	410.5
379.929	383.5
380.155	410.5
380.38	388.5
380.606	406.5
380.831	404.5
381.057	404.5
381.282	395.5
381.507	404.5
381.733	408.5
381.958	394.5
382.184	400.5
382.409	411.5
382.634	406.5
382.86	411.5
383.085	396.5
383.31	412.5
383.535	411.5
383.761	425.5
383.986	429.5
384.211	420.5
384.436	429.5
384.662	434.5
384.887	436.5
385.112	419.5
385.337	442.5
385.562	434.5
385.787	446.5
386.013	456.5
386.238	436.5
386.463	461.5
386.688	433.5
386.913	437.5
387.138	432.5
387.363	443.5
387.588	454.5
387.813	422.5
388.038	437.5
388.263	434.5
388.488	438.5
388.713	448.5
388.938	425.5
389.163	411.5
389.387	438.5
389.612	449.5
389.837	440.5
390.062	454.5
390.287	438.5
390.512	437.5
390.736	440.5
390.961	453.5
391.186	435.5
391.411	434.5
391.636	426.5
391.86	443.5
392.085	462.5
392.31	467.5
392.534	447.5
392.759	448.5
392.984	455.5
393.208	433.5
393.433	449.5
393.658	431.5
393.882	451.5
394.107	443.5
394.331	444.5
394.556	454.5
394.78	448.5
395.005	443.5
395.229	468.5
395.454	431.5
395.678	446.5
395.903	462.5
396.127	491.5
396.352	481.5
396.576	471.5
396.801	423.5
397.025	451.5
397.249	452.5
397.474	462.5
397.698	469.5
397.922	482.5
398.147	462.5
398.371	502.5
398.595	483.5
398.82	492.5
399.044	503.5
399.268	531.5
399.492	571.5
399.717	567.5
399.941	643.5
400.165	613.5
400.389	615.5
400.613	574.5
400.837	525.5
401.062	504.5
401.286	499.5
401.51	490.5
401.734	523.5
401.958	501.5
402.182	492.5
402.406	491.5
402.63	517.5
402.854	499.5
403.078	511.5
403.302	513.5
403.526	531.5
403.75	517.5
403.974	494.5
404.198	499.5
404.422	509.5
404.645	518.5
404.869	518.5
405.093	535.5
405.317	573.5
405.541	612.5
405.765	560.5
405.988	524.5
406.212	534.5
406.436	547.5
406.66	558.5
406.883	534.5
407.107	579.5
407.331	601.5
407.555	654.5
407.778	644.5
408.002	579.5
408.226	572.5
408.449	551.5
408.673	540.5
408.896	576.5
409.12	593.5
409.344	572.5
409.567	514.5
409.791	536.5
410.014	514.5
410.238	512.5
410.461	502.5
410.685	510.5
410.908	521.5
411.132	543.5
411.355	556.5
411.578	530.5
411.802	519.5
412.025	490.5
412.249	509.5
412.472	531.5
412.695	551.5
412.919	535.5
413.142	517.5
413.365	485.5
413.589	499.5
413.812	494.5
414.035	480.5
414.258	496.5
414.482	493.5
414.705	500.5
414.928	467.5
415.151	491.5
415.374	466.5
415.597	476.5
415.821	488.5
416.044	474.5
416.267	482.5
416.49	482.5
416.713	480.5
416.936	472.5
417.159	477.5
417.382	471.5
417.605	465.5
417.828	484.5
418.051	479.5
418.274	490.5
418.497	472.5
418.72	454.5
418.943	474.5
419.166	506.5
419.389	502.5
419.611	500.5
419.834	483.5
420.057	493.5
420.28	480.5
420.503	484.5
420.726	503.5
420.948	522.5
421.171	532.5
421.394	554.5
421.617	491.5
421.839	494.5
422.062	503.5
422.285	498.5
422.507	526.5
422.73	580.5
422.953	566.5
423.175	503.5
423.398	506.5
423.621	494.5
423.843	528.5
424.066	533.5
424.288	524.5
424.511	527.5
424.733	599.5
424.956	615.5
425.178	597.5
425.401	585.5
425.623	617.5
425.846	542.5
426.068	495.5
426.291	498.5
426.513	502.5
426.735	517.5
426.958	562.5
427.18	604.5
427.402	713.5
427.625	753.5
427.847	660.5
428.069	590.5
428.292	554.5
428.514	514.5
428.736	480.5
428.958	453.5
429.181	468.5
429.403	478.5
429.625	499.5
429.847	520.5
430.069	552.5
430.292	546.5
430.514	479.5
430.736	478.5
430.958	468.5
431.18	455.5
431.402	452.5
431.624	445.5
431.846	438.5
432.068	430.5
432.29	451.5
432.512	446.5
432.734	465.5
432.956	450.5
433.178	456.5
433.4	459.5
433.622	455.5
433.844	464.5
434.066	437.5
434.287	452.5
434.509	462.5
434.731	477.5
434.953	454.5
435.175	499.5
435.397	488.5
435.618	495.5
435.84	535.5
436.062	611.5
436.284	645.5
436.505	529.5
436.727	492.5
436.949	469.5
437.17	462.5
437.392	458.5
437.614	474.5
437.835	503.5
438.057	557.5
438.278	637.5
438.5	634.5
438.721	709.5
438.943	663.5
439.165	535.5
439.386	510.5
439.608	502.5
439.829	491.5
440.05	531.5
440.272	540.5
440.493	522.5
440.715	484.5
440.936	491.5
441.158	467.5
441.379	474.5
441.6	473.5
441.822	478.5
442.043	536.5
442.264	590.5
442.486	612.5
442.707	539.5
442.928	517.5
443.149	514.5
443.371	539.5
443.592	582.5
443.813	644.5
444.034	662.5
444.255	574.5
444.476	531.5
444.698	526.5
444.919	529.5
445.14	604.5
445.361	568.5
445.582	541.5
445.803	605.5
446.024	689.5
446.245	654.5
446.466	609.5
446.687	502.5
446.908	466.5
447.129	478.5
447.35	465.5
447.571	463.5
447.792	460.5
448.013	450.5
448.234	466.5
448.455	485.5
448.675	591.5
448.896	684.5
449.117	590.5
449.338	549.5
449.559	636.5
449.779	662.5
450	567.5
450.221	489.5
450.442	470.5
450.662	451.5
450.883	426.5
451.104	442.5
451.324	442.5
451.545	429.5
451.766	390.5
451.986	401.5
452.207	420.5
452.428	410.5
452.648	414.5
452.869	396.5
453.089	401.5
453.31	424.5
453.53	413.5
453.751	405.5
453.971	416.5
454.192	401.5
454.412	415.5
454.633	410.5
454.853	392.5
455.073	414.5
455.294	432.5
455.514	485.5
455.734	465.5
455.955	399.5
456.175	386.5
456.395	397.5
456.616	392.5
456.836	397.5
457.056	364.5
457.276	388.5
457.497	393.5
457.717	378.5
457.937	386.5
458.157	379.5
458.377	405.5
458.598	424.5
458.818	455.5
459.038	507.5
459.258	524.5
459.478	477.5
459.698	428.5
459.918	436.5
460.138	429.5
460.358	463.5
460.578	461.5
460.798	469.5
461.018	426.5
461.238	448.5
461.458	462.5
461.678	447.5
461.898	446.5
462.118	468.5
462.338	472.5
462.558	482.5
462.777	500.5
462.997	500.5
463.217	513.5
463.437	504.5
463.657	491.5
463.876	477.5
464.096	500.5
464.316	488.5
464.536	492.5
464.755	491.5
464.975	499.5
465.195	478.5
465.414	522.5
465.634	491.5
465.854	444.5
466.073	450.5
466.293	446.5
466.512	445.5
466.732	434.5
466.951	413.5
467.171	413.5
467.391	414.5
467.61	412.5
467.829	421.5
468.049	418.5
468.268	419.5
468.488	413.5
468.707	427.5
468.927	415.5
469.146	416.5
469.365	399.5
469.585	431.5
469.804	408.5
470.023	438.5
470.243	420.5
470.462	429.5
470.681	448.5
470.901	436.5
471.12	427.5
471.339	424.5
471.558	438.5
471.777	420.5
471.997	425.5
472.216	423.5
472.435	458.5
472.654	444.5
472.873	436.5
473.092	429.5
473.311	424.5
473.53	430.5
473.749	425.5
473.968	471.5
474.187	542.5
474.406	546.5
474.625	464.5
474.844	437.5
475.063	424.5
475.282	416.5
475.501	438.5
475.72	430.5
475.939	440.5
476.158	424.5
476.377	436.5
476.596	472.5
476.814	446.5
477.033	446.5
477.252	447.5
477.471	441.5
477.69	463.5
477.908	451.5
478.127	476.5
478.346	454.5
478.564	468.5
478.783	474.5
479.002	467.5
479.22	493.5
479.439	500.5
479.658	481.5
479.876	487.5
480.095	492.5
480.313	534.5
480.532	537.5
480.751	511.5
480.969	532.5
481.188	575.5
481.406	577.5
481.624	528.5
481.843	508.5
482.061	506.5
482.28	487.5
482.498	494.5
482.717	499.5
482.935	494.5
483.153	512.5
483.372	484.5
483.59	499.5
483.808	499.5
484.027	483.5
484.245	504.5
484.463	502.5
484.681	507.5
484.9	497.5
485.118	486.5
485.336	479.5
485.554	496.5
485.772	518.5
485.99	518.5
486.209	516.5
486.427	507.5
486.645	521.5
486.863	503.5
487.081	528.5
487.299	514.5
487.517	500.5
487.735	506.5
487.953	525.5
488.171	520.5
488.389	514.5
488.607	523.5
488.825	534.5
489.043	524.5
489.261	520.5
489.479	529.5
489.696	518.5
489.914	533.5
490.132	552.5
490.35	543.5
490.568	540.5
490.786	535.5
491.003	564.5
491.221	547.5
491.439	584.5
491.657	595.5
491.874	588.5
492.092	558.5
492.31	568.5
492.527	587.5
492.745	594.5
492.963	604.5
493.18	603.5
493.398	585.5
493.615	588.5
493.833	615.5
494.05	586.5
494.268	605.5
494.485	599.5
494.703	583.5
494.92	603.5
495.138	596.5
495.355	601.5
495.573	623.5
495.79	596.5
496.008	615.5
496.225	575.5
496.442	591.5
496.66	604.5
496.877	595.5
497.094	603.5
497.312	619.5
497.529	635.5
497.746	642.5
497.963	630.5
498.181	677.5
498.398	676.5
498.615	706.5
498.832	698.5
499.049	723.5
499.267	732.5
499.484	790.5
499.701	786.5
499.918	825.5
500.135	898.5
500.352	925.5
500.569	934.5
500.786	945.5
501.003	931.5
501.22	892.5
501.437	875.5
501.654	839.5
501.871	835.5
502.088	745.5
502.305	750.5
502.522	703.5
502.739	703.5
502.956	671.5
503.172	654.5
503.389	652.5
503.606	643.5
503.823	647.5
504.04	598.5
504.256	610.5
504.473	598.5
504.69	618.5
504.907	633.5
505.123	582.5
505.34	612.5
505.557	586.5
505.773	584.5
505.99	583.5
506.207	591.5
506.423	584.5
506.64	547.5
506.856	559.5
507.073	548.5
507.289	553.5
507.506	547.5
507.722	558.5
507.939	555.5
508.155	547.5
508.372	548.5
508.588	529.5
508.805	520.5
509.021	541.5
509.238	566.5
509.454	543.5
509.67	544.5
509.887	555.5
510.103	532.5
510.319	534.5
510.536	580.5
510.752	829.5
510.968	675.5
511.184	542.5
511.401	500.5
511.617	499.5
511.833	520.5
512.049	494.5
512.265	518.5
512.481	500.5
512.698	500.5
512.914	512.5
513.13	510.5
513.346	514.5
513.562	521.5
513.778	520.5
513.994	481.5
514.21	514.5
514.426	530.5
514.642	559.5
514.858	578.5
515.074	578.5
515.29	650.5
515.506	830.5
515.721	727.5
515.937	588.5
516.153	538.5
516.369	532.5
516.585	527.5
516.801	524.5
517.016	531.5
517.232	543.5
517.448	532.5
517.664	534.5
517.879	555.5
518.095	546.5
518.311	538.5
518.527	540.5
518.742	529.5
518.958	499.5
519.173	512.5
519.389	493.5
519.605	506.5
519.82	490.5
520.036	536.5
520.251	534.5
520.467	525.5
520.682	524.5
520.898	528.5
521.113	529.5
521.329	562.5
521.544	599.5
521.76	690.5
521.975	976.5
522.19	965.5
522.406	626.5
522.621	530.5
522.836	498.5
523.052	486.5
523.267	462.5
523.482	450.5
523.698	457.5
523.913	457.5
524.128	468.5
524.343	435.5
524.559	437.5
524.774	453.5
524.989	415.5
525.204	459.5
525.419	442.5
525.634	417.5
525.849	441.5
526.064	432.5
526.28	421.5
526.495	422.5
526.71	420.5
526.925	418.5
527.14	415.5
527.355	422.5
527.57	418.5
527.785	424.5
527.999	406.5
528.214	407.5
528.429	411.5
528.644	416.5
528.859	420.5
529.074	443.5
529.289	427.5
529.503	495.5
529.718	461.5
529.933	436.5
530.148	414.5
530.363	420.5
530.577	410.5
530.792	416.5
531.007	383.5
531.221	418.5
531.436	407.5
531.651	398.5
531.865	403.5
532.08	406.5
532.295	405.5
532.509	388.5
532.724	427.5
532.938	418.5
533.153	426.5
533.367	401.5
533.582	411.5
533.796	394.5
534.011	398.5
534.225	395.5
534.44	391.5
534.654	383.5
534.868	397.5
535.083	396.5
535.297	413.5
535.511	404.5
535.726	421.5
535.94	406.5
536.154	398.5
536.369	380.5
536.583	390.5
536.797	403.5
537.011	411.5
537.225	388.5
537.44	396.5
537.654	407.5
537.868	388.5
538.082	395.5
538.296	390.5
538.51	405.5
538.724	368.5
538.938	381.5
539.153	386.5
539.367	396.5
539.581	391.5
539.795	400.5
540.009	386.5
540.222	398.5
540.436	379.5
540.65	404.5
540.864	380.5
541.078	404.5
541.292	393.5
541.506	390.5
541.72	390.5
541.934	391.5
542.147	379.5
542.361	396.5
542.575	369.5
542.789	378.5
543.002	381.5
543.216	386.5
543.43	383.5
543.644	396.5
543.857	398.5
544.071	389.5
544.285	393.5
544.498	382.5
544.712	399.5
544.925	389.5
545.139	389.5
545.352	381.5
545.566	366.5
545.779	374.5
545.993	386.5
546.206	397.5
546.42	378.5
546.633	379.5
546.847	387.5
547.06	397.5
547.274	383.5
547.487	370.5
547.7	354.5
547.914	367.5
548.127	370.5
548.34	367.5
548.554	363.5
548.767	379.5
548.98	388.5
549.193	377.5
549.407	368.5
549.62	363.5
549.833	373.5
550.046	362.5
550.259	383.5
550.473	367.5
550.686	373.5
550.899	374.5
551.112	358.5
551.325	363.5
551.538	359.5
551.751	380.5
551.964	376.5
552.177	365.5
552.39	384.5
552.603	370.5
552.816	383.5
553.029	360.5
553.242	394.5
553.455	399.5
553.667	388.5
553.88	380.5
554.093	387.5
554.306	393.5
554.519	379.5
554.732	377.5
554.944	385.5
555.157	370.5
555.37	358.5
555.583	376.5
555.795	350.5
556.008	370.5
556.221	370.5
556.433	334.5
556.646	338.5
556.859	340.5
557.071	322.5
557.284	347.5
557.496	332.5
557.709	341.5
557.921	347.5
558.134	350.5
558.346	330.5
558.559	318.5
558.771	332.5
558.984	340.5
559.196	316.5
559.409	337.5
559.621	348.5
559.833	343.5
560.046	303.5
560.258	315.5
560.47	323.5
560.683	326.5
560.895	320.5
561.107	336.5
561.32	314.5
561.532	335.5
561.744	327.5
561.956	349.5
562.168	340.5
562.381	337.5
562.593	326.5
562.805	333.5
563.017	333.5
563.229	342.5
563.441	350.5
563.653	314.5
563.865	333.5
564.077	341.5
564.289	346.5
564.501	364.5
564.713	347.5
564.925	349.5
565.137	348.5
565.349	360.5
565.561	368.5
565.773	362.5
565.985	380.5
566.197	382.5
566.408	370.5
566.62	405.5
566.832	416.5
567.044	440.5
567.255	429.5
567.467	426.5
567.679	445.5
567.891	447.5
568.102	444.5
568.314	456.5
568.526	400.5
568.737	398.5
568.949	386.5
569.161	374.5
569.372	363.5
569.584	358.5
569.795	348.5
570.007	347.5
570.218	372.5
570.43	361.5
570.641	329.5
570.853	325.5
571.064	320.5
571.276	338.5
571.487	330.5
571.698	339.5
571.91	328.5
572.121	303.5
572.333	296.5
572.544	300.5
572.755	296.5
572.966	314.5
573.178	303.5
573.389	274.5
573.6	284.5
573.811	294.5
574.023	298.5
574.234	319.5
574.445	294.5
574.656	282.5
574.867	296.5
575.078	322.5
575.289	291.5
575.501	276.5
575.712	292.5
575.923	263.5
576.134	288.5
576.345	278.5
576.556	286.5
576.767	280.5
576.978	261.5
577.188	288.5
577.399	276.5
577.61	279.5
577.821	278.5
578.032	287.5
578.243	289.5
578.454	388.5
578.665	329.5
578.875	268.5
579.086	268.5
579.297	280.5
579.508	248.5
579.718	263.5
579.929	271.5
580.14	280.5
580.35	275.5
580.561	261.5
580.772	263.5
580.982	264.5
581.193	259.5
581.403	258.5
581.614	264.5
581.825	266.5
582.035	263.5
582.246	271.5
582.456	270.5
582.667	265.5
582.877	258.5
583.087	253.5
583.298	264.5
583.508	248.5
583.719	287.5
583.929	255.5
584.139	265.5
584.35	258.5
584.56	248.5
584.77	255.5
584.981	250.5
585.191	239.5
585.401	246.5
585.611	258.5
585.821	270.5
586.032	261.5
586.242	254.5
586.452	259.5
586.662	243.5
586.872	256.5
587.082	255.5
587.292	242.5
587.502	255.5
587.713	252.5
587.923	251.5
588.133	245.5
588.343	262.5
588.553	260.5
588.762	266.5
588.972	263.5
589.182	231.5
589.392	254.5
589.602	250.5
589.812	256.5
590.022	246.5
590.232	254.5
590.441	239.5
590.651	264.5
590.861	261.5
591.071	260.5
591.281	269.5
591.49	270.5
591.7	247.5
591.91	253.5
592.119	253.5
592.329	249.5
592.539	273.5
592.748	285.5
592.958	275.5
593.167	266.5
593.377	283.5
593.587	291.5
593.796	283.5
594.006	284.5
594.215	271.5
594.424	301.5
594.634	276.5
594.843	276.5
595.053	267.5
595.262	269.5
595.472	261.5
595.681	245.5
595.89	256.5
596.1	253.5
596.309	234.5
596.518	237.5
596.727	222.5
596.937	241.5
597.146	238.5
597.355	224.5
597.564	239.5
597.774	247.5
597.983	239.5
598.192	240.5
598.401	227.5
598.61	233.5
598.819	216.5
599.028	232.5
599.237	242.5
599.446	225.5
599.655	234.5
599.864	212.5
600.073	239.5
600.282	214.5
600.491	216.5
600.7	228.5
600.909	214.5
601.118	228.5
601.327	231.5
601.536	217.5
601.745	225.5
601.953	235.5
602.162	219.5
602.371	208.5
602.58	198.5
602.789	217.5
602.997	208.5
603.206	207.5
603.415	222.5
603.623	203.5
603.832	197.5
604.041	204.5
604.249	202.5
604.458	211.5
604.666	212.5
604.875	211.5
605.084	218.5
605.292	219.5
605.501	207.5
605.709	218.5
605.918	222.5
606.126	217.5
606.334	207.5
606.543	216.5
606.751	213.5
606.96	217.5
607.168	197.5
607.376	204.5
607.585	210.5
607.793	209.5
608.001	198.5
608.21	219.5
608.418	202.5
608.626	219.5
608.834	219.5
609.043	210.5
609.251	204.5
609.459	217.5
609.667	199.5
609.875	210.5
610.083	212.5
610.291	196.5
610.499	221.5
610.707	206.5
610.916	210.5
611.124	221.5
611.332	217.5
611.54	226.5
611.748	200.5
611.955	206.5
612.163	202.5
612.371	214.5
612.579	226.5
612.787	209.5
612.995	216.5
613.203	208.5
613.411	206.5
613.618	195.5
613.826	205.5
614.034	218.5
614.242	197.5
614.449	207.5
614.657	214.5
614.865	204.5
615.072	217.5
615.28	213.5
615.488	200.5
615.695	204.5
615.903	216.5
616.111	211.5
616.318	216.5
616.526	218.5
616.733	199.5
616.941	192.5
617.148	206.5
617.356	207.5
617.563	224.5
617.771	219.5
617.978	212.5
618.185	185.5
618.393	203.5
618.6	203.5
618.807	183.5
619.015	200.5
619.222	195.5
619.429	188.5
619.637	187.5
619.844	194.5
620.051	186.5
620.258	190.5
620.466	190.5
620.673	192.5
620.88	186.5
621.087	187.5
621.294	189.5
621.501	171.5
621.708	201.5
621.915	202.5
622.122	184.5
622.329	186.5
622.536	195.5
622.743	193.5
622.95	211.5
623.157	201.5
623.364	198.5
623.571	194.5
623.778	197.5
623.985	186.5
624.192	190.5
624.399	188.5
624.606	182.5
624.812	169.5
625.019	200.5
625.226	180.5
625.433	186.5
625.639	189.5
625.846	181.5
626.053	191.5
626.259	182.5
626.466	191.5
626.673	204.5
626.879	174.5
627.086	184.5
627.293	166.5
627.499	198.5
627.706	191.5
627.912	195.5
628.119	184.5
628.325	176.5
628.532	183.5
628.738	173.5
628.945	196.5
629.151	182.5
629.357	159.5
629.564	176.5
629.77	158.5
629.976	181.5
630.183	178.5
630.389	179.5
630.595	162.5
630.802	188.5
631.008	168.5
631.214	180.5
631.42	175.5
631.627	174.5
631.833	168.5
632.039	170.5
632.245	191.5
632.451	169.5
632.657	168.5
632.863	167.5
633.069	167.5
633.275	159.5
633.481	181.5
633.688	164.5
633.893	182.5
634.099	170.5
634.305	168.5
634.511	164.5
634.717	175.5
634.923	158.5
635.129	171.5
635.335	158.5
635.541	160.5
635.747	167.5
635.952	173.5
636.158	166.5
636.364	151.5
636.57	157.5
636.775	178.5
636.981	173.5
637.187	176.5
637.392	168.5
637.598	163.5
637.804	166.5
638.009	165.5
638.215	177.5
638.421	171.5
638.626	168.5
638.832	161.5
639.037	159.5
639.243	148.5
639.448	167.5
639.654	165.5
639.859	160.5
640.065	157.5
640.27	154.5
640.475	141.5
640.681	159.5
640.886	163.5
641.091	144.5
641.297	155.5
641.502	139.5
641.707	164.5
641.913	162.5
642.118	151.5
642.323	158.5
642.528	168.5
642.733	171.5
642.939	143.5
643.144	148.5
643.349	145.5
643.554	141.5
643.759	146.5
643.964	156.5
644.169	160.5
644.374	133.5
644.579	156.5
644.784	164.5
644.989	148.5
645.194	150.5
645.399	154.5
645.604	140.5
645.809	146.5
646.014	146.5
646.219	148.5
646.423	154.5
646.628	154.5
646.833	147.5
647.038	145.5
647.243	148.5
647.447	144.5
647.652	145.5
647.857	154.5
648.062	157.5
648.266	156.5
648.471	157.5
648.676	149.5
648.88	153.5
649.085	144.5
649.289	156.5
649.494	151.5
649.698	167.5
649.903	152.5
650.107	165.5
650.312	151.5
650.516	142.5
650.721	140.5
650.925	151.5
651.13	138.5
651.334	150.5
651.539	168.5
651.743	144.5
651.947	156.5
652.152	137.5
652.356	128.5
652.56	130.5
652.764	127.5
652.969	139.5
653.173	138.5
653.377	129.5
653.581	132.5
653.785	147.5
653.99	138.5
654.194	130.5
654.398	127.5
654.602	140.5
654.806	131.5
655.01	141.5
655.214	123.5
655.418	132.5
655.622	120.5
655.826	124.5
656.03	143.5
656.234	136.5
656.438	128.5
656.642	125.5
656.846	106.5
657.049	130.5
657.253	124.5
657.457	125.5
657.661	126.5
657.865	122.5
658.068	104.5
658.272	114.5
658.476	98.5
658.68	108.5
658.883	117.5
659.087	104.5
659.291	115.5
659.494	104.5
659.698	110.5
659.901	87.5
660.105	95.5
660.309	84.5
660.512	100.5
660.716	101.5
660.919	93.5
661.123	81.5
661.326	89.5
661.53	93.5
661.733	116.5
661.936	102.5
662.14	106.5
662.343	103.5
662.546	79.5
662.75	67.5
662.953	84.5
663.156	76.5
663.36	81.5
663.563	81.5
663.766	79.5
663.969	72.5
664.173	82.5
664.376	74.5
664.579	86.5
664.782	91.5
664.985	86.5
665.188	86.5
665.391	92.5
665.594	95.5
665.797	96.5
666	87.5
666.203	79.5
666.406	91.5
666.609	93.5
666.812	80.5
667.015	78.5
667.218	94.5
667.421	83.5
667.624	87.5
667.827	75.5
668.03	77.5
668.232	95.5
668.435	89.5
668.638	86.5
668.841	87.5
669.043	87.5
669.246	88.5
669.449	85.5
669.651	75.5
669.854	86.5
670.057	92.5
670.259	77.5
670.462	93.5
670.665	86.5
670.867	68.5
671.07	78.5
671.272	88.5
671.475	85.5
671.677	78.5
671.88	90.5
672.082	86.5
672.284	91.5
672.487	89.5
672.689	74.5
672.892	85.5
