Data from 1964.PennyLincolnUp.Lamp.En5.5.200Scan.071719.P1._HRD10591_14-06-06-909.txt Node
Date: Thu Jul 18 14:06:06 EDT 2019
User: cochatt
Spectrometer: HR+D1059
Trigger mode: 1
Integration Time (sec): 1.000000E-1
Scans to average: 1
Electric dark correction enabled: true
Nonlinearity correction enabled: false
Boxcar width: 0
XAxis mode: Wavelengths
Number of Pixels in Spectrum: 2048
>>>>>Begin Spectral Data<<<<<
223.165	-13.56
223.4	-13.56
223.635	-13.56
223.869	-13.56
224.104	-19.56
224.338	-14.56
224.573	-21.56
224.808	-1.56
225.042	-6.56
225.277	4.44
225.511	1.44
225.746	-6.56
225.98	-0.56
226.215	-0.56
226.449	29.44
226.683	24.44
226.918	11.44
227.152	27.44
227.387	34.44
227.621	39.44
227.856	42.44
228.09	41.44
228.324	40.44
228.559	33.44
228.793	61.44
229.027	87.44
229.262	94.44
229.496	111.44
229.73	117.44
229.964	137.44
230.199	123.44
230.433	116.44
230.667	107.44
230.901	118.44
231.136	106.44
231.37	115.44
231.604	105.44
231.838	117.44
232.072	104.44
232.306	115.44
232.541	125.44
232.775	123.44
233.009	110.44
233.243	110.44
233.477	113.44
233.711	109.44
233.945	128.44
234.179	129.44
234.413	122.44
234.647	104.44
234.881	119.44
235.115	106.44
235.349	121.44
235.583	126.44
235.817	123.44
236.051	129.44
236.285	110.44
236.519	115.44
236.753	129.44
236.987	144.44
237.221	161.44
237.455	184.44
237.689	180.44
237.922	129.44
238.156	124.44
238.39	115.44
238.624	120.44
238.858	126.44
239.091	113.44
239.325	115.44
239.559	125.44
239.793	139.44
240.027	147.44
240.26	148.44
240.494	146.44
240.728	149.44
240.961	162.44
241.195	127.44
241.429	130.44
241.662	137.44
241.896	137.44
242.13	149.44
242.363	131.44
242.597	140.44
242.83	140.44
243.064	127.44
243.298	128.44
243.531	141.44
243.765	142.44
243.998	144.44
244.232	138.44
244.465	131.44
244.699	152.44
244.932	135.44
245.166	165.44
245.399	137.44
245.633	154.44
245.866	163.44
246.099	161.44
246.333	149.44
246.566	156.44
246.8	165.44
247.033	151.44
247.266	159.44
247.5	186.44
247.733	166.44
247.966	164.44
248.2	157.44
248.433	191.44
248.666	163.44
248.899	185.44
249.133	187.44
249.366	205.44
249.599	210.44
249.832	197.44
250.066	200.44
250.299	189.44
250.532	203.44
250.765	217.44
250.998	206.44
251.231	199.44
251.465	211.44
251.698	207.44
251.931	194.44
252.164	201.44
252.397	203.44
252.63	202.44
252.863	205.44
253.096	211.44
253.329	213.44
253.562	223.44
253.795	223.44
254.028	202.44
254.261	228.44
254.494	234.44
254.727	255.44
254.96	293.44
255.193	277.44
255.426	235.44
255.659	226.44
255.892	217.44
256.124	235.44
256.357	255.44
256.59	241.44
256.823	214.44
257.056	220.44
257.289	210.44
257.521	205.44
257.754	215.44
257.987	211.44
258.22	210.44
258.452	217.44
258.685	205.44
258.918	225.44
259.151	222.44
259.383	240.44
259.616	249.44
259.849	233.44
260.081	242.44
260.314	264.44
260.547	260.44
260.779	264.44
261.012	254.44
261.244	235.44
261.477	234.44
261.71	247.44
261.942	228.44
262.175	246.44
262.407	247.44
262.64	232.44
262.872	224.44
263.105	230.44
263.337	219.44
263.57	217.44
263.802	228.44
264.035	223.44
264.267	237.44
264.499	235.44
264.732	237.44
264.964	213.44
265.197	221.44
265.429	213.44
265.661	236.44
265.894	235.44
266.126	226.44
266.358	231.44
266.591	236.44
266.823	262.44
267.055	233.44
267.287	235.44
267.52	242.44
267.752	236.44
267.984	243.44
268.216	256.44
268.448	245.44
268.681	237.44
268.913	267.44
269.145	269.44
269.377	282.44
269.609	279.44
269.841	281.44
270.073	277.44
270.306	322.44
270.538	335.44
270.77	318.44
271.002	335.44
271.234	297.44
271.466	311.44
271.698	324.44
271.93	321.44
272.162	317.44
272.394	333.44
272.626	325.44
272.858	303.44
273.09	302.44
273.322	294.44
273.553	290.44
273.785	296.44
274.017	267.44
274.249	274.44
274.481	275.44
274.713	289.44
274.945	293.44
275.176	283.44
275.408	292.44
275.64	286.44
275.872	299.44
276.104	289.44
276.335	284.44
276.567	282.44
276.799	295.44
277.031	332.44
277.262	322.44
277.494	329.44
277.726	331.44
277.957	309.44
278.189	295.44
278.421	298.44
278.652	296.44
278.884	274.44
279.115	311.44
279.347	285.44
279.579	285.44
279.81	297.44
280.042	313.44
280.273	305.44
280.505	290.44
280.736	298.44
280.968	290.44
281.199	295.44
281.431	300.44
281.662	294.44
281.894	290.44
282.125	310.44
282.356	328.44
282.588	328.44
282.819	336.44
283.051	305.44
283.282	281.44
283.513	312.44
283.745	296.44
283.976	299.44
284.207	301.44
284.439	327.44
284.67	313.44
284.901	329.44
285.132	318.44
285.364	314.44
285.595	298.44
285.826	313.44
286.057	305.44
286.288	314.44
286.52	332.44
286.751	323.44
286.982	332.44
287.213	332.44
287.444	311.44
287.675	339.44
287.906	344.44
288.138	324.44
288.369	335.44
288.6	320.44
288.831	309.44
289.062	324.44
289.293	326.44
289.524	335.44
289.755	311.44
289.986	328.44
290.217	327.44
290.448	319.44
290.679	324.44
290.91	330.44
291.141	325.44
291.371	334.44
291.602	321.44
291.833	328.44
292.064	327.44
292.295	332.44
292.526	343.44
292.757	334.44
292.987	321.44
293.218	320.44
293.449	352.44
293.68	324.44
293.91	342.44
294.141	324.44
294.372	337.44
294.603	336.44
294.833	349.44
295.064	331.44
295.295	340.44
295.525	333.44
295.756	340.44
295.987	353.44
296.217	347.44
296.448	367.44
296.679	364.44
296.909	354.44
297.14	331.44
297.37	343.44
297.601	330.44
297.831	336.44
298.062	342.44
298.292	362.44
298.523	361.44
298.753	349.44
298.984	354.44
299.214	362.44
299.445	359.44
299.675	349.44
299.905	345.44
300.136	337.44
300.366	354.44
300.597	344.44
300.827	353.44
301.057	354.44
301.288	363.44
301.518	364.44
301.748	349.44
301.979	382.44
302.209	376.44
302.439	362.44
302.669	357.44
302.9	352.44
303.13	358.44
303.36	359.44
303.59	365.44
303.82	370.44
304.051	363.44
304.281	367.44
304.511	360.44
304.741	356.44
304.971	381.44
305.201	354.44
305.431	364.44
305.661	369.44
305.891	375.44
306.121	370.44
306.352	367.44
306.582	371.44
306.812	365.44
307.042	357.44
307.272	361.44
307.502	372.44
307.731	398.44
307.961	363.44
308.191	356.44
308.421	373.44
308.651	365.44
308.881	370.44
309.111	371.44
309.341	379.44
309.571	374.44
309.8	391.44
310.03	390.44
310.26	402.44
310.49	390.44
310.72	406.44
310.949	429.44
311.179	416.44
311.409	406.44
311.639	415.44
311.868	393.44
312.098	396.44
312.328	416.44
312.557	437.44
312.787	414.44
313.017	420.44
313.246	419.44
313.476	411.44
313.706	401.44
313.935	413.44
314.165	435.44
314.394	418.44
314.624	436.44
314.853	432.44
315.083	418.44
315.312	411.44
315.542	398.44
315.771	422.44
316.001	415.44
316.23	392.44
316.46	421.44
316.689	413.44
316.919	420.44
317.148	435.44
317.377	417.44
317.607	413.44
317.836	397.44
318.065	421.44
318.295	431.44
318.524	429.44
318.753	403.44
318.983	405.44
319.212	403.44
319.441	420.44
319.67	417.44
319.9	421.44
320.129	426.44
320.358	425.44
320.587	425.44
320.816	403.44
321.046	413.44
321.275	412.44
321.504	412.44
321.733	419.44
321.962	447.44
322.191	438.44
322.42	437.44
322.649	457.44
322.878	449.44
323.108	454.44
323.337	469.44
323.566	501.44
323.795	533.44
324.024	527.44
324.253	653.44
324.482	894.44
324.71	1296.44
324.939	1765.44
325.168	1500.44
325.397	787.44
325.626	592.44
325.855	513.44
326.084	519.44
326.313	502.44
326.542	501.44
326.77	535.44
326.999	615.44
327.228	793.44
327.457	1169.44
327.686	1327.44
327.914	928.44
328.143	632.44
328.372	601.44
328.6	563.44
328.829	526.44
329.058	581.44
329.287	564.44
329.515	543.44
329.744	496.44
329.972	511.44
330.201	528.44
330.43	594.44
330.658	596.44
330.887	586.44
331.115	575.44
331.344	529.44
331.572	522.44
331.801	489.44
332.03	521.44
332.258	504.44
332.486	516.44
332.715	486.44
332.943	511.44
333.172	509.44
333.4	522.44
333.629	518.44
333.857	499.44
334.085	505.44
334.314	539.44
334.542	572.44
334.771	591.44
334.999	556.44
335.227	528.44
335.455	494.44
335.684	492.44
335.912	480.44
336.14	488.44
336.369	490.44
336.597	499.44
336.825	494.44
337.053	488.44
337.281	465.44
337.51	466.44
337.738	488.44
337.966	467.44
338.194	456.44
338.422	460.44
338.65	486.44
338.878	475.44
339.106	470.44
339.334	473.44
339.562	463.44
339.79	466.44
340.018	445.44
340.246	458.44
340.474	471.44
340.702	481.44
340.93	451.44
341.158	461.44
341.386	463.44
341.614	463.44
341.842	469.44
342.07	460.44
342.298	449.44
342.526	437.44
342.754	427.44
342.981	430.44
343.209	445.44
343.437	465.44
343.665	469.44
343.893	472.44
344.12	505.44
344.348	487.44
344.576	462.44
344.804	439.44
345.031	467.44
345.259	470.44
345.487	463.44
345.714	459.44
345.942	445.44
346.17	441.44
346.397	442.44
346.625	428.44
346.853	420.44
347.08	416.44
347.308	437.44
347.535	446.44
347.763	441.44
347.99	448.44
348.218	441.44
348.445	439.44
348.673	437.44
348.9	433.44
349.128	425.44
349.355	423.44
349.583	433.44
349.81	416.44
350.037	429.44
350.265	408.44
350.492	403.44
350.72	405.44
350.947	435.44
351.174	427.44
351.402	445.44
351.629	426.44
351.856	416.44
352.083	455.44
352.311	455.44
352.538	436.44
352.765	439.44
352.992	405.44
353.22	423.44
353.447	431.44
353.674	422.44
353.901	389.44
354.128	422.44
354.355	425.44
354.583	423.44
354.81	424.44
355.037	412.44
355.264	401.44
355.491	405.44
355.718	406.44
355.945	404.44
356.172	414.44
356.399	391.44
356.626	425.44
356.853	388.44
357.08	412.44
357.307	399.44
357.534	407.44
357.761	386.44
357.988	415.44
358.215	393.44
358.441	404.44
358.668	405.44
358.895	422.44
359.122	393.44
359.349	407.44
359.576	398.44
359.802	430.44
360.029	467.44
360.256	444.44
360.483	455.44
360.709	435.44
360.936	441.44
361.163	412.44
361.39	411.44
361.616	419.44
361.843	410.44
362.07	413.44
362.296	419.44
362.523	417.44
362.749	418.44
362.976	413.44
363.203	408.44
363.429	393.44
363.656	414.44
363.882	411.44
364.109	394.44
364.335	403.44
364.562	381.44
364.788	427.44
365.015	398.44
365.241	409.44
365.468	396.44
365.694	407.44
365.92	378.44
366.147	398.44
366.373	409.44
366.599	384.44
366.826	399.44
367.052	402.44
367.278	395.44
367.505	399.44
367.731	391.44
367.957	396.44
368.184	428.44
368.41	394.44
368.636	411.44
368.862	407.44
369.089	401.44
369.315	385.44
369.541	397.44
369.767	395.44
369.993	398.44
370.219	403.44
370.445	411.44
370.672	396.44
370.898	402.44
371.124	413.44
371.35	410.44
371.576	408.44
371.802	395.44
372.028	393.44
372.254	409.44
372.48	411.44
372.706	411.44
372.932	410.44
373.158	400.44
373.384	398.44
373.61	411.44
373.835	393.44
374.061	398.44
374.287	395.44
374.513	405.44
374.739	439.44
374.965	433.44
375.191	419.44
375.416	410.44
375.642	419.44
375.868	404.44
376.094	395.44
376.319	395.44
376.545	397.44
376.771	390.44
376.997	381.44
377.222	405.44
377.448	389.44
377.674	388.44
377.899	406.44
378.125	393.44
378.35	407.44
378.576	387.44
378.802	408.44
379.027	417.44
379.253	422.44
379.478	393.44
379.704	381.44
379.929	409.44
380.155	396.44
380.38	385.44
380.606	391.44
380.831	403.44
381.057	399.44
381.282	404.44
381.507	400.44
381.733	397.44
381.958	389.44
382.184	396.44
382.409	409.44
382.634	414.44
382.86	394.44
383.085	398.44
383.31	382.44
383.535	412.44
383.761	408.44
383.986	419.44
384.211	413.44
384.436	410.44
384.662	428.44
384.887	433.44
385.112	413.44
385.337	437.44
385.562	426.44
385.787	426.44
386.013	444.44
386.238	419.44
386.463	421.44
386.688	418.44
386.913	430.44
387.138	419.44
387.363	453.44
387.588	436.44
387.813	451.44
388.038	444.44
388.263	419.44
388.488	441.44
388.713	437.44
388.938	436.44
389.163	437.44
389.387	442.44
389.612	444.44
389.837	417.44
390.062	406.44
390.287	429.44
390.512	433.44
390.736	424.44
390.961	433.44
391.186	427.44
391.411	429.44
391.636	455.44
391.86	441.44
392.085	459.44
392.31	463.44
392.534	433.44
392.759	425.44
392.984	434.44
393.208	428.44
393.433	423.44
393.658	428.44
393.882	446.44
394.107	449.44
394.331	453.44
394.556	451.44
394.78	455.44
395.005	443.44
395.229	453.44
395.454	454.44
395.678	471.44
395.903	465.44
396.127	475.44
396.352	467.44
396.576	450.44
396.801	450.44
397.025	462.44
397.249	465.44
397.474	461.44
397.698	441.44
397.922	471.44
398.147	501.44
398.371	487.44
398.595	511.44
398.82	488.44
399.044	483.44
399.268	515.44
399.492	557.44
399.717	581.44
399.941	619.44
400.165	612.44
400.389	611.44
400.613	565.44
400.837	517.44
401.062	506.44
401.286	501.44
401.51	487.44
401.734	494.44
401.958	490.44
402.182	494.44
402.406	503.44
402.63	498.44
402.854	487.44
403.078	503.44
403.302	501.44
403.526	523.44
403.75	517.44
403.974	515.44
404.198	522.44
404.422	532.44
404.645	525.44
404.869	535.44
405.093	544.44
405.317	553.44
405.541	599.44
405.765	555.44
405.988	525.44
406.212	524.44
406.436	564.44
406.66	547.44
406.883	547.44
407.107	590.44
407.331	595.44
407.555	667.44
407.778	637.44
408.002	590.44
408.226	562.44
408.449	567.44
408.673	554.44
408.896	554.44
409.12	594.44
409.344	567.44
409.567	524.44
409.791	517.44
410.014	499.44
410.238	476.44
410.461	531.44
410.685	523.44
410.908	530.44
411.132	536.44
411.355	568.44
411.578	543.44
411.802	499.44
412.025	478.44
412.249	521.44
412.472	551.44
412.695	551.44
412.919	556.44
413.142	514.44
413.365	516.44
413.589	499.44
413.812	477.44
414.035	487.44
414.258	482.44
414.482	484.44
414.705	473.44
414.928	470.44
415.151	470.44
415.374	479.44
415.597	471.44
415.821	465.44
416.044	460.44
416.267	461.44
416.49	447.44
416.713	448.44
416.936	475.44
417.159	462.44
417.382	459.44
417.605	466.44
417.828	491.44
418.051	463.44
418.274	512.44
418.497	481.44
418.72	477.44
418.943	466.44
419.166	488.44
419.389	510.44
419.611	514.44
419.834	468.44
420.057	497.44
420.28	495.44
420.503	486.44
420.726	489.44
420.948	477.44
421.171	517.44
421.394	566.44
421.617	498.44
421.839	479.44
422.062	493.44
422.285	494.44
422.507	556.44
422.73	587.44
422.953	584.44
423.175	517.44
423.398	503.44
423.621	498.44
423.843	513.44
424.066	534.44
424.288	513.44
424.511	539.44
424.733	559.44
424.956	644.44
425.178	612.44
425.401	611.44
425.623	610.44
425.846	535.44
426.068	503.44
426.291	483.44
426.513	493.44
426.735	521.44
426.958	550.44
427.18	609.44
427.402	701.44
427.625	766.44
427.847	675.44
428.069	586.44
428.292	548.44
428.514	514.44
428.736	489.44
428.958	471.44
429.181	465.44
429.403	453.44
429.625	471.44
429.847	501.44
430.069	546.44
430.292	551.44
430.514	482.44
430.736	457.44
430.958	459.44
431.18	448.44
431.402	448.44
431.624	455.44
431.846	421.44
432.068	433.44
432.29	445.44
432.512	459.44
432.734	454.44
432.956	436.44
433.178	439.44
433.4	458.44
433.622	437.44
433.844	462.44
434.066	439.44
434.287	441.44
434.509	461.44
434.731	474.44
434.953	479.44
435.175	492.44
435.397	497.44
435.618	503.44
435.84	535.44
436.062	596.44
436.284	646.44
436.505	526.44
436.727	517.44
436.949	478.44
437.17	462.44
437.392	465.44
437.614	467.44
437.835	471.44
438.057	551.44
438.278	641.44
438.5	634.44
438.721	700.44
438.943	692.44
439.165	551.44
439.386	501.44
439.608	519.44
439.829	488.44
440.05	533.44
440.272	554.44
440.493	509.44
440.715	473.44
440.936	462.44
441.158	462.44
441.379	457.44
441.6	490.44
441.822	497.44
442.043	514.44
442.264	581.44
442.486	619.44
442.707	534.44
442.928	509.44
443.149	499.44
443.371	540.44
443.592	574.44
443.813	637.44
444.034	675.44
444.255	554.44
444.476	521.44
444.698	519.44
444.919	512.44
445.14	647.44
445.361	586.44
445.582	549.44
445.803	587.44
446.024	646.44
446.245	636.44
446.466	605.44
446.687	529.44
446.908	474.44
447.129	478.44
447.35	462.44
447.571	489.44
447.792	460.44
448.013	471.44
448.234	461.44
448.455	513.44
448.675	603.44
448.896	675.44
449.117	586.44
449.338	557.44
449.559	665.44
449.779	718.44
450	600.44
450.221	525.44
450.442	453.44
450.662	426.44
450.883	437.44
451.104	435.44
451.324	430.44
451.545	435.44
451.766	409.44
451.986	398.44
452.207	411.44
452.428	417.44
452.648	406.44
452.869	386.44
453.089	396.44
453.31	419.44
453.53	417.44
453.751	403.44
453.971	415.44
454.192	434.44
454.412	415.44
454.633	389.44
454.853	411.44
455.073	410.44
455.294	428.44
455.514	476.44
455.734	469.44
455.955	419.44
456.175	396.44
456.395	384.44
456.616	373.44
456.836	398.44
457.056	386.44
457.276	369.44
457.497	387.44
457.717	394.44
457.937	397.44
458.157	382.44
458.377	406.44
458.598	419.44
458.818	452.44
459.038	518.44
459.258	543.44
459.478	477.44
459.698	441.44
459.918	434.44
460.138	442.44
460.358	462.44
460.578	459.44
460.798	466.44
461.018	463.44
461.238	464.44
461.458	456.44
461.678	436.44
461.898	456.44
462.118	451.44
462.338	477.44
462.558	468.44
462.777	480.44
462.997	504.44
463.217	494.44
463.437	521.44
463.657	492.44
463.876	500.44
464.096	488.44
464.316	492.44
464.536	510.44
464.755	467.44
464.975	497.44
465.195	507.44
465.414	510.44
465.634	498.44
465.854	456.44
466.073	461.44
466.293	433.44
466.512	419.44
466.732	396.44
466.951	414.44
467.171	417.44
467.391	415.44
467.61	426.44
467.829	419.44
468.049	421.44
468.268	406.44
468.488	405.44
468.707	382.44
468.927	405.44
469.146	411.44
469.365	424.44
469.585	391.44
469.804	434.44
470.023	454.44
470.243	433.44
470.462	439.44
470.681	429.44
470.901	437.44
471.12	447.44
471.339	410.44
471.558	431.44
471.777	398.44
471.997	395.44
472.216	418.44
472.435	453.44
472.654	439.44
472.873	436.44
473.092	424.44
473.311	408.44
473.53	412.44
473.749	418.44
473.968	443.44
474.187	519.44
474.406	567.44
474.625	478.44
474.844	444.44
475.063	416.44
475.282	411.44
475.501	419.44
475.72	411.44
475.939	423.44
476.158	439.44
476.377	449.44
476.596	441.44
476.814	446.44
477.033	459.44
477.252	443.44
477.471	460.44
477.69	453.44
477.908	457.44
478.127	465.44
478.346	475.44
478.564	451.44
478.783	478.44
479.002	478.44
479.22	486.44
479.439	492.44
479.658	490.44
479.876	497.44
480.095	505.44
480.313	540.44
480.532	520.44
480.751	507.44
480.969	509.44
481.188	569.44
481.406	579.44
481.624	528.44
481.843	516.44
482.061	509.44
482.28	487.44
482.498	492.44
482.717	497.44
482.935	486.44
483.153	491.44
483.372	484.44
483.59	474.44
483.808	484.44
484.027	494.44
484.245	490.44
484.463	494.44
484.681	527.44
484.9	500.44
485.118	502.44
485.336	491.44
485.554	492.44
485.772	521.44
485.99	481.44
486.209	491.44
486.427	507.44
486.645	510.44
486.863	527.44
487.081	514.44
487.299	515.44
487.517	542.44
487.735	512.44
487.953	515.44
488.171	531.44
488.389	510.44
488.607	499.44
488.825	519.44
489.043	509.44
489.261	516.44
489.479	521.44
489.696	490.44
489.914	507.44
490.132	528.44
490.35	535.44
490.568	543.44
490.786	569.44
491.003	535.44
491.221	555.44
491.439	563.44
491.657	569.44
491.874	586.44
492.092	593.44
492.31	558.44
492.527	587.44
492.745	575.44
492.963	591.44
493.18	610.44
493.398	588.44
493.615	613.44
493.833	616.44
494.05	609.44
494.268	592.44
494.485	593.44
494.703	597.44
494.92	594.44
495.138	598.44
495.355	609.44
495.573	625.44
495.79	618.44
496.008	622.44
496.225	613.44
496.442	588.44
496.66	611.44
496.877	625.44
497.094	625.44
497.312	637.44
497.529	646.44
497.746	637.44
497.963	639.44
498.181	672.44
498.398	645.44
498.615	682.44
498.832	710.44
499.049	715.44
499.267	747.44
499.484	788.44
499.701	823.44
499.918	838.44
500.135	894.44
500.352	922.44
500.569	938.44
500.786	933.44
501.003	895.44
501.22	895.44
501.437	846.44
501.654	843.44
501.871	810.44
502.088	785.44
502.305	743.44
502.522	712.44
502.739	702.44
502.956	675.44
503.172	637.44
503.389	631.44
503.606	611.44
503.823	620.44
504.04	601.44
504.256	644.44
504.473	602.44
504.69	629.44
504.907	622.44
505.123	619.44
505.34	601.44
505.557	596.44
505.773	557.44
505.99	563.44
506.207	578.44
506.423	567.44
506.64	555.44
506.856	559.44
507.073	570.44
507.289	546.44
507.506	548.44
507.722	573.44
507.939	587.44
508.155	559.44
508.372	543.44
508.588	541.44
508.805	536.44
509.021	537.44
509.238	522.44
509.454	545.44
509.67	561.44
509.887	526.44
510.103	528.44
510.319	556.44
510.536	577.44
510.752	828.44
510.968	671.44
511.184	536.44
511.401	510.44
511.617	517.44
511.833	513.44
512.049	502.44
512.265	505.44
512.481	511.44
512.698	507.44
512.914	509.44
513.13	505.44
513.346	497.44
513.562	517.44
513.778	523.44
513.994	508.44
514.21	513.44
514.426	532.44
514.642	510.44
514.858	544.44
515.074	579.44
515.29	653.44
515.506	817.44
515.721	712.44
515.937	557.44
516.153	541.44
516.369	535.44
516.585	543.44
516.801	537.44
517.016	518.44
517.232	526.44
517.448	538.44
517.664	536.44
517.879	550.44
518.095	561.44
518.311	554.44
518.527	539.44
518.742	539.44
518.958	515.44
519.173	503.44
519.389	518.44
519.605	499.44
519.82	514.44
520.036	511.44
520.251	534.44
520.467	545.44
520.682	526.44
520.898	520.44
521.113	539.44
521.329	567.44
521.544	592.44
521.76	693.44
521.975	1003.44
522.19	927.44
522.406	631.44
522.621	525.44
522.836	494.44
523.052	472.44
523.267	456.44
523.482	455.44
523.698	458.44
523.913	454.44
524.128	453.44
524.343	450.44
524.559	420.44
524.774	437.44
524.989	425.44
525.204	467.44
525.419	437.44
525.634	435.44
525.849	441.44
526.064	421.44
526.28	429.44
526.495	423.44
526.71	422.44
526.925	419.44
527.14	399.44
527.355	438.44
527.57	437.44
527.785	419.44
527.999	425.44
528.214	421.44
528.429	420.44
528.644	433.44
528.859	420.44
529.074	424.44
529.289	430.44
529.503	472.44
529.718	475.44
529.933	441.44
530.148	429.44
530.363	420.44
530.577	430.44
530.792	410.44
531.007	423.44
531.221	394.44
531.436	432.44
531.651	401.44
531.865	396.44
532.08	415.44
532.295	415.44
532.509	399.44
532.724	399.44
532.938	384.44
533.153	408.44
533.367	393.44
533.582	411.44
533.796	413.44
534.011	407.44
534.225	412.44
534.44	382.44
534.654	394.44
534.868	388.44
535.083	404.44
535.297	418.44
535.511	414.44
535.726	402.44
535.94	413.44
536.154	426.44
536.369	401.44
536.583	392.44
536.797	391.44
537.011	403.44
537.225	385.44
537.44	394.44
537.654	389.44
537.868	392.44
538.082	387.44
538.296	406.44
538.51	411.44
538.724	403.44
538.938	372.44
539.153	381.44
539.367	399.44
539.581	401.44
539.795	385.44
540.009	384.44
540.222	393.44
540.436	387.44
540.65	387.44
540.864	379.44
541.078	402.44
541.292	399.44
541.506	385.44
541.72	393.44
541.934	394.44
542.147	395.44
542.361	383.44
542.575	393.44
542.789	397.44
543.002	376.44
543.216	386.44
543.43	379.44
543.644	401.44
543.857	392.44
544.071	379.44
544.285	380.44
544.498	393.44
544.712	396.44
544.925	387.44
545.139	385.44
545.352	378.44
545.566	388.44
545.779	385.44
545.993	386.44
546.206	390.44
546.42	389.44
546.633	360.44
546.847	387.44
547.06	385.44
547.274	364.44
547.487	375.44
547.7	385.44
547.914	383.44
548.127	386.44
548.34	381.44
548.554	373.44
548.767	380.44
548.98	376.44
549.193	360.44
549.407	383.44
549.62	380.44
549.833	381.44
550.046	378.44
550.259	373.44
550.473	393.44
550.686	366.44
550.899	394.44
551.112	364.44
551.325	360.44
551.538	382.44
551.751	372.44
551.964	388.44
552.177	385.44
552.39	371.44
552.603	385.44
552.816	355.44
553.029	352.44
553.242	385.44
553.455	384.44
553.667	406.44
553.88	367.44
554.093	390.44
554.306	394.44
554.519	369.44
554.732	379.44
554.944	380.44
555.157	367.44
555.37	356.44
555.583	340.44
555.795	380.44
556.008	352.44
556.221	347.44
556.433	332.44
556.646	339.44
556.859	349.44
557.071	345.44
557.284	347.44
557.496	339.44
557.709	338.44
557.921	330.44
558.134	345.44
558.346	331.44
558.559	346.44
558.771	333.44
558.984	336.44
559.196	335.44
559.409	340.44
559.621	334.44
559.833	336.44
560.046	306.44
560.258	330.44
560.47	317.44
560.683	332.44
560.895	336.44
561.107	322.44
561.32	331.44
561.532	324.44
561.744	335.44
561.956	320.44
562.168	309.44
562.381	334.44
562.593	310.44
562.805	332.44
563.017	323.44
563.229	341.44
563.441	327.44
563.653	333.44
563.865	363.44
564.077	336.44
564.289	330.44
564.501	348.44
564.713	356.44
564.925	354.44
565.137	354.44
565.349	357.44
565.561	362.44
565.773	381.44
565.985	379.44
566.197	381.44
566.408	398.44
566.62	407.44
566.832	420.44
567.044	437.44
567.255	454.44
567.467	421.44
567.679	443.44
567.891	435.44
568.102	431.44
568.314	444.44
568.526	399.44
568.737	404.44
568.949	383.44
569.161	377.44
569.372	375.44
569.584	364.44
569.795	349.44
570.007	350.44
570.218	358.44
570.43	337.44
570.641	334.44
570.853	334.44
571.064	319.44
571.276	317.44
571.487	314.44
571.698	311.44
571.91	309.44
572.121	323.44
572.333	299.44
572.544	311.44
572.755	294.44
572.966	292.44
573.178	296.44
573.389	322.44
573.6	300.44
573.811	289.44
574.023	293.44
574.234	270.44
574.445	285.44
574.656	298.44
574.867	285.44
575.078	285.44
575.289	281.44
575.501	287.44
575.712	281.44
575.923	284.44
576.134	293.44
576.345	271.44
576.556	282.44
576.767	285.44
576.978	277.44
577.188	281.44
577.399	274.44
577.61	271.44
577.821	275.44
578.032	257.44
578.243	280.44
578.454	385.44
578.665	325.44
578.875	308.44
579.086	264.44
579.297	268.44
579.508	255.44
579.718	271.44
579.929	266.44
580.14	251.44
580.35	262.44
580.561	289.44
580.772	261.44
580.982	229.44
581.193	267.44
581.403	260.44
581.614	267.44
581.825	259.44
582.035	252.44
582.246	257.44
582.456	262.44
582.667	262.44
582.877	262.44
583.087	252.44
583.298	247.44
583.508	247.44
583.719	273.44
583.929	260.44
584.139	265.44
584.35	249.44
584.56	265.44
584.77	265.44
584.981	267.44
585.191	258.44
585.401	260.44
585.611	261.44
585.821	248.44
586.032	249.44
586.242	265.44
586.452	263.44
586.662	255.44
586.872	251.44
587.082	253.44
587.292	247.44
587.502	267.44
587.713	265.44
587.923	252.44
588.133	259.44
588.343	254.44
588.553	257.44
588.762	265.44
588.972	264.44
589.182	258.44
589.392	261.44
589.602	242.44
589.812	249.44
590.022	265.44
590.232	255.44
590.441	256.44
590.651	247.44
590.861	265.44
591.071	256.44
591.281	263.44
591.49	238.44
591.7	261.44
591.91	260.44
592.119	237.44
592.329	267.44
592.539	262.44
592.748	273.44
592.958	279.44
593.167	274.44
593.377	278.44
593.587	273.44
593.796	281.44
594.006	263.44
594.215	279.44
594.424	291.44
594.634	287.44
594.843	270.44
595.053	273.44
595.262	253.44
595.472	275.44
595.681	250.44
595.89	251.44
596.1	249.44
596.309	238.44
596.518	232.44
596.727	252.44
596.937	243.44
597.146	241.44
597.355	238.44
597.564	229.44
597.774	237.44
597.983	218.44
598.192	231.44
598.401	235.44
598.61	251.44
598.819	237.44
599.028	215.44
599.237	218.44
599.446	222.44
599.655	226.44
599.864	228.44
600.073	233.44
600.282	214.44
600.491	230.44
600.7	225.44
600.909	241.44
601.118	234.44
601.327	209.44
601.536	219.44
601.745	225.44
601.953	224.44
602.162	227.44
602.371	219.44
602.58	213.44
602.789	223.44
602.997	203.44
603.206	227.44
603.415	213.44
603.623	220.44
603.832	209.44
604.041	205.44
604.249	219.44
604.458	204.44
604.666	222.44
604.875	222.44
605.084	217.44
605.292	217.44
605.501	202.44
605.709	209.44
605.918	206.44
606.126	219.44
606.334	199.44
606.543	213.44
606.751	223.44
606.96	222.44
607.168	210.44
607.376	207.44
607.585	211.44
607.793	213.44
608.001	215.44
608.21	216.44
608.418	214.44
608.626	208.44
608.834	189.44
609.043	210.44
609.251	225.44
609.459	207.44
609.667	209.44
609.875	216.44
610.083	215.44
610.291	196.44
610.499	205.44
610.707	207.44
610.916	220.44
611.124	202.44
611.332	198.44
611.54	210.44
611.748	222.44
611.955	212.44
612.163	222.44
612.371	210.44
612.579	221.44
612.787	193.44
612.995	204.44
613.203	211.44
613.411	203.44
613.618	201.44
613.826	197.44
614.034	207.44
614.242	209.44
614.449	196.44
614.657	198.44
614.865	198.44
615.072	201.44
615.28	187.44
615.488	201.44
615.695	212.44
615.903	196.44
616.111	207.44
616.318	202.44
616.526	226.44
616.733	186.44
616.941	197.44
617.148	213.44
617.356	205.44
617.563	204.44
617.771	209.44
617.978	209.44
618.185	201.44
618.393	205.44
618.6	204.44
618.807	204.44
619.015	201.44
619.222	198.44
619.429	208.44
619.637	215.44
619.844	205.44
620.051	202.44
620.258	187.44
620.466	183.44
620.673	196.44
620.88	198.44
621.087	177.44
621.294	196.44
621.501	200.44
621.708	190.44
621.915	195.44
622.122	211.44
622.329	179.44
622.536	201.44
622.743	181.44
622.95	178.44
623.157	184.44
623.364	192.44
623.571	202.44
623.778	192.44
623.985	211.44
624.192	186.44
624.399	198.44
624.606	179.44
624.812	173.44
625.019	181.44
625.226	175.44
625.433	199.44
625.639	167.44
625.846	182.44
626.053	177.44
626.259	185.44
626.466	188.44
626.673	195.44
626.879	194.44
627.086	186.44
627.293	182.44
627.499	177.44
627.706	174.44
627.912	179.44
628.119	173.44
628.325	177.44
628.532	180.44
628.738	183.44
628.945	193.44
629.151	177.44
629.357	185.44
629.564	178.44
629.77	169.44
629.976	153.44
630.183	157.44
630.389	165.44
630.595	164.44
630.802	155.44
631.008	167.44
631.214	163.44
631.42	174.44
631.627	154.44
631.833	160.44
632.039	172.44
632.245	165.44
632.451	177.44
632.657	162.44
632.863	165.44
633.069	175.44
633.275	170.44
633.481	147.44
633.688	157.44
633.893	171.44
634.099	167.44
634.305	172.44
634.511	169.44
634.717	156.44
634.923	149.44
635.129	153.44
635.335	144.44
635.541	157.44
635.747	170.44
635.952	139.44
636.158	181.44
636.364	172.44
636.57	179.44
636.775	180.44
636.981	151.44
637.187	156.44
637.392	170.44
637.598	173.44
637.804	144.44
638.009	163.44
638.215	155.44
638.421	168.44
638.626	145.44
638.832	145.44
639.037	167.44
639.243	149.44
639.448	157.44
639.654	166.44
639.859	154.44
640.065	158.44
640.27	157.44
640.475	149.44
640.681	150.44
640.886	154.44
641.091	171.44
641.297	161.44
641.502	156.44
641.707	137.44
641.913	165.44
642.118	167.44
642.323	144.44
642.528	165.44
642.733	165.44
642.939	150.44
643.144	167.44
643.349	147.44
643.554	165.44
643.759	154.44
643.964	143.44
644.169	154.44
644.374	148.44
644.579	166.44
644.784	164.44
644.989	152.44
645.194	143.44
645.399	149.44
645.604	150.44
645.809	133.44
646.014	141.44
646.219	142.44
646.423	150.44
646.628	134.44
646.833	153.44
647.038	161.44
647.243	166.44
647.447	155.44
647.652	154.44
647.857	156.44
648.062	140.44
648.266	145.44
648.471	161.44
648.676	155.44
648.88	141.44
649.085	149.44
649.289	149.44
649.494	161.44
649.698	168.44
649.903	154.44
650.107	157.44
650.312	140.44
650.516	177.44
650.721	135.44
650.925	147.44
651.13	137.44
651.334	135.44
651.539	137.44
651.743	135.44
651.947	149.44
652.152	138.44
652.356	133.44
652.56	137.44
652.764	152.44
652.969	126.44
653.173	136.44
653.377	124.44
653.581	136.44
653.785	140.44
653.99	134.44
654.194	125.44
654.398	131.44
654.602	124.44
654.806	129.44
655.01	127.44
655.214	130.44
655.418	125.44
655.622	128.44
655.826	134.44
656.03	134.44
656.234	123.44
656.438	135.44
656.642	144.44
656.846	135.44
657.049	124.44
657.253	123.44
657.457	109.44
657.661	105.44
657.865	118.44
658.068	103.44
658.272	110.44
658.476	99.44
658.68	97.44
658.883	106.44
659.087	99.44
659.291	95.44
659.494	109.44
659.698	100.44
659.901	84.44
660.105	103.44
660.309	97.44
660.512	97.44
660.716	96.44
660.919	91.44
661.123	91.44
661.326	87.44
661.53	82.44
661.733	84.44
661.936	101.44
662.14	98.44
662.343	79.44
662.546	90.44
662.75	86.44
662.953	91.44
663.156	88.44
663.36	84.44
663.563	80.44
663.766	88.44
663.969	86.44
664.173	99.44
664.376	77.44
664.579	82.44
664.782	74.44
664.985	92.44
665.188	79.44
665.391	85.44
665.594	88.44
665.797	89.44
666	87.44
666.203	86.44
666.406	73.44
666.609	89.44
666.812	85.44
667.015	84.44
667.218	80.44
667.421	77.44
667.624	72.44
667.827	84.44
668.03	95.44
668.232	86.44
668.435	86.44
668.638	86.44
668.841	80.44
669.043	71.44
669.246	90.44
669.449	79.44
669.651	85.44
669.854	79.44
670.057	92.44
670.259	87.44
670.462	77.44
670.665	79.44
670.867	77.44
671.07	89.44
671.272	92.44
671.475	79.44
671.677	93.44
671.88	91.44
672.082	79.44
672.284	88.44
672.487	69.44
672.689	79.44
672.892	80.44
