Data from 1964.PennyLincolnUp.Lamp.En5.5.200Scan.071719.P1._HRD10591_14-05-22-909.txt Node
Date: Thu Jul 18 14:05:22 EDT 2019
User: cochatt
Spectrometer: HR+D1059
Trigger mode: 1
Integration Time (sec): 1.000000E-1
Scans to average: 1
Electric dark correction enabled: true
Nonlinearity correction enabled: false
Boxcar width: 0
XAxis mode: Wavelengths
Number of Pixels in Spectrum: 2048
>>>>>Begin Spectral Data<<<<<
223.165	-11.44
223.4	-11.44
223.635	-11.44
223.869	-20.44
224.104	-2.44
224.338	-10.44
224.573	-10.44
224.808	-7.44
225.042	-2.44
225.277	-11.44
225.511	-0.44
225.746	0.56
225.98	14.56
226.215	1.56
226.449	4.56
226.683	10.56
226.918	20.56
227.152	24.56
227.387	33.56
227.621	37.56
227.856	32.56
228.09	56.56
228.324	44.56
228.559	59.56
228.793	57.56
229.027	89.56
229.262	91.56
229.496	107.56
229.73	127.56
229.964	128.56
230.199	123.56
230.433	108.56
230.667	97.56
230.901	102.56
231.136	104.56
231.37	113.56
231.604	110.56
231.838	92.56
232.072	109.56
232.306	122.56
232.541	109.56
232.775	121.56
233.009	111.56
233.243	127.56
233.477	105.56
233.711	107.56
233.945	119.56
234.179	114.56
234.413	122.56
234.647	116.56
234.881	116.56
235.115	114.56
235.349	104.56
235.583	122.56
235.817	117.56
236.051	115.56
236.285	122.56
236.519	123.56
236.753	139.56
236.987	124.56
237.221	155.56
237.455	191.56
237.689	160.56
237.922	130.56
238.156	115.56
238.39	134.56
238.624	112.56
238.858	120.56
239.091	120.56
239.325	137.56
239.559	121.56
239.793	134.56
240.027	130.56
240.26	116.56
240.494	150.56
240.728	145.56
240.961	145.56
241.195	146.56
241.429	134.56
241.662	130.56
241.896	134.56
242.13	124.56
242.363	117.56
242.597	150.56
242.83	140.56
243.064	129.56
243.298	121.56
243.531	121.56
243.765	130.56
243.998	129.56
244.232	132.56
244.465	151.56
244.699	147.56
244.932	141.56
245.166	141.56
245.399	156.56
245.633	137.56
245.866	163.56
246.099	149.56
246.333	152.56
246.566	132.56
246.8	148.56
247.033	160.56
247.266	151.56
247.5	163.56
247.733	174.56
247.966	182.56
248.2	165.56
248.433	174.56
248.666	178.56
248.899	186.56
249.133	185.56
249.366	207.56
249.599	191.56
249.832	182.56
250.066	180.56
250.299	177.56
250.532	182.56
250.765	186.56
250.998	184.56
251.231	212.56
251.465	210.56
251.698	177.56
251.931	194.56
252.164	196.56
252.397	198.56
252.63	193.56
252.863	210.56
253.096	202.56
253.329	203.56
253.562	209.56
253.795	212.56
254.028	209.56
254.261	225.56
254.494	221.56
254.727	242.56
254.96	258.56
255.193	250.56
255.426	246.56
255.659	220.56
255.892	200.56
256.124	218.56
256.357	238.56
256.59	228.56
256.823	210.56
257.056	198.56
257.289	217.56
257.521	214.56
257.754	209.56
257.987	188.56
258.22	194.56
258.452	208.56
258.685	220.56
258.918	218.56
259.151	203.56
259.383	220.56
259.616	221.56
259.849	225.56
260.081	220.56
260.314	242.56
260.547	234.56
260.779	246.56
261.012	240.56
261.244	224.56
261.477	233.56
261.71	228.56
261.942	221.56
262.175	234.56
262.407	215.56
262.64	227.56
262.872	222.56
263.105	229.56
263.337	248.56
263.57	220.56
263.802	229.56
264.035	227.56
264.267	226.56
264.499	220.56
264.732	220.56
264.964	218.56
265.197	226.56
265.429	228.56
265.661	213.56
265.894	220.56
266.126	234.56
266.358	238.56
266.591	231.56
266.823	227.56
267.055	245.56
267.287	214.56
267.52	245.56
267.752	245.56
267.984	231.56
268.216	242.56
268.448	252.56
268.681	252.56
268.913	248.56
269.145	276.56
269.377	296.56
269.609	283.56
269.841	267.56
270.073	259.56
270.306	304.56
270.538	304.56
270.77	331.56
271.002	313.56
271.234	297.56
271.466	292.56
271.698	304.56
271.93	306.56
272.162	312.56
272.394	326.56
272.626	302.56
272.858	294.56
273.09	278.56
273.322	278.56
273.553	272.56
273.785	283.56
274.017	282.56
274.249	274.56
274.481	286.56
274.713	276.56
274.945	284.56
275.176	279.56
275.408	271.56
275.64	281.56
275.872	289.56
276.104	274.56
276.335	277.56
276.567	259.56
276.799	264.56
277.031	303.56
277.262	321.56
277.494	299.56
277.726	324.56
277.957	304.56
278.189	285.56
278.421	284.56
278.652	282.56
278.884	285.56
279.115	288.56
279.347	297.56
279.579	290.56
279.81	286.56
280.042	301.56
280.273	281.56
280.505	281.56
280.736	286.56
280.968	277.56
281.199	305.56
281.431	295.56
281.662	310.56
281.894	288.56
282.125	288.56
282.356	307.56
282.588	328.56
282.819	323.56
283.051	292.56
283.282	293.56
283.513	297.56
283.745	288.56
283.976	299.56
284.207	297.56
284.439	310.56
284.67	308.56
284.901	304.56
285.132	311.56
285.364	305.56
285.595	320.56
285.826	304.56
286.057	313.56
286.288	298.56
286.52	317.56
286.751	308.56
286.982	304.56
287.213	315.56
287.444	314.56
287.675	294.56
287.906	320.56
288.138	324.56
288.369	332.56
288.6	328.56
288.831	331.56
289.062	329.56
289.293	321.56
289.524	324.56
289.755	312.56
289.986	326.56
290.217	306.56
290.448	324.56
290.679	296.56
290.91	312.56
291.141	315.56
291.371	322.56
291.602	322.56
291.833	329.56
292.064	312.56
292.295	309.56
292.526	317.56
292.757	309.56
292.987	320.56
293.218	312.56
293.449	323.56
293.68	308.56
293.91	297.56
294.141	324.56
294.372	321.56
294.603	325.56
294.833	318.56
295.064	319.56
295.295	329.56
295.525	321.56
295.756	322.56
295.987	332.56
296.217	335.56
296.448	343.56
296.679	334.56
296.909	320.56
297.14	313.56
297.37	308.56
297.601	332.56
297.831	342.56
298.062	323.56
298.292	328.56
298.523	322.56
298.753	338.56
298.984	338.56
299.214	330.56
299.445	316.56
299.675	345.56
299.905	332.56
300.136	333.56
300.366	348.56
300.597	350.56
300.827	348.56
301.057	340.56
301.288	350.56
301.518	342.56
301.748	342.56
301.979	350.56
302.209	348.56
302.439	362.56
302.669	356.56
302.9	371.56
303.13	360.56
303.36	353.56
303.59	356.56
303.82	362.56
304.051	371.56
304.281	360.56
304.511	340.56
304.741	360.56
304.971	350.56
305.201	344.56
305.431	362.56
305.661	364.56
305.891	361.56
306.121	351.56
306.352	367.56
306.582	372.56
306.812	353.56
307.042	351.56
307.272	366.56
307.502	343.56
307.731	376.56
307.961	361.56
308.191	365.56
308.421	364.56
308.651	343.56
308.881	370.56
309.111	376.56
309.341	380.56
309.571	364.56
309.8	366.56
310.03	386.56
310.26	384.56
310.49	374.56
310.72	378.56
310.949	397.56
311.179	402.56
311.409	394.56
311.639	385.56
311.868	395.56
312.098	386.56
312.328	387.56
312.557	422.56
312.787	417.56
313.017	409.56
313.246	399.56
313.476	404.56
313.706	393.56
313.935	408.56
314.165	423.56
314.394	416.56
314.624	413.56
314.853	393.56
315.083	384.56
315.312	394.56
315.542	384.56
315.771	393.56
316.001	394.56
316.23	403.56
316.46	402.56
316.689	423.56
316.919	402.56
317.148	387.56
317.377	406.56
317.607	404.56
317.836	408.56
318.065	401.56
318.295	395.56
318.524	419.56
318.753	412.56
318.983	402.56
319.212	396.56
319.441	404.56
319.67	403.56
319.9	413.56
320.129	385.56
320.358	381.56
320.587	394.56
320.816	410.56
321.046	410.56
321.275	404.56
321.504	412.56
321.733	424.56
321.962	397.56
322.191	405.56
322.42	417.56
322.649	435.56
322.878	446.56
323.108	420.56
323.337	444.56
323.566	472.56
323.795	478.56
324.024	502.56
324.253	568.56
324.482	780.56
324.71	1119.56
324.939	1546.56
325.168	1308.56
325.397	730.56
325.626	566.56
325.855	492.56
326.084	466.56
326.313	469.56
326.542	494.56
326.77	530.56
326.999	568.56
327.228	754.56
327.457	1013.56
327.686	1149.56
327.914	806.56
328.143	587.56
328.372	565.56
328.6	520.56
328.829	509.56
329.058	505.56
329.287	514.56
329.515	524.56
329.744	494.56
329.972	479.56
330.201	490.56
330.43	543.56
330.658	529.56
330.887	550.56
331.115	513.56
331.344	476.56
331.572	486.56
331.801	468.56
332.03	474.56
332.258	498.56
332.486	475.56
332.715	474.56
332.943	482.56
333.172	481.56
333.4	464.56
333.629	489.56
333.857	514.56
334.085	520.56
334.314	536.56
334.542	554.56
334.771	546.56
334.999	524.56
335.227	485.56
335.455	499.56
335.684	506.56
335.912	459.56
336.14	466.56
336.369	472.56
336.597	460.56
336.825	469.56
337.053	470.56
337.281	468.56
337.51	469.56
337.738	484.56
337.966	473.56
338.194	460.56
338.422	450.56
338.65	452.56
338.878	441.56
339.106	444.56
339.334	456.56
339.562	430.56
339.79	445.56
340.018	445.56
340.246	445.56
340.474	437.56
340.702	437.56
340.93	435.56
341.158	438.56
341.386	432.56
341.614	438.56
341.842	439.56
342.07	429.56
342.298	410.56
342.526	404.56
342.754	417.56
342.981	404.56
343.209	446.56
343.437	442.56
343.665	426.56
343.893	461.56
344.12	484.56
344.348	456.56
344.576	460.56
344.804	449.56
345.031	464.56
345.259	461.56
345.487	431.56
345.714	445.56
345.942	449.56
346.17	437.56
346.397	421.56
346.625	404.56
346.853	413.56
347.08	429.56
347.308	439.56
347.535	404.56
347.763	408.56
347.99	427.56
348.218	425.56
348.445	413.56
348.673	386.56
348.9	410.56
349.128	425.56
349.355	407.56
349.583	404.56
349.81	408.56
350.037	419.56
350.265	398.56
350.492	398.56
350.72	385.56
350.947	420.56
351.174	412.56
351.402	432.56
351.629	428.56
351.856	406.56
352.083	424.56
352.311	403.56
352.538	405.56
352.765	424.56
352.992	441.56
353.22	424.56
353.447	387.56
353.674	398.56
353.901	402.56
354.128	404.56
354.355	392.56
354.583	399.56
354.81	406.56
355.037	403.56
355.264	401.56
355.491	387.56
355.718	392.56
355.945	383.56
356.172	394.56
356.399	377.56
356.626	378.56
356.853	383.56
357.08	396.56
357.307	388.56
357.534	384.56
357.761	394.56
357.988	404.56
358.215	392.56
358.441	382.56
358.668	398.56
358.895	404.56
359.122	404.56
359.349	406.56
359.576	407.56
359.802	416.56
360.029	429.56
360.256	428.56
360.483	408.56
360.709	419.56
360.936	403.56
361.163	400.56
361.39	404.56
361.616	406.56
361.843	394.56
362.07	426.56
362.296	412.56
362.523	394.56
362.749	397.56
362.976	390.56
363.203	397.56
363.429	386.56
363.656	395.56
363.882	379.56
364.109	390.56
364.335	392.56
364.562	404.56
364.788	359.56
365.015	376.56
365.241	392.56
365.468	399.56
365.694	390.56
365.92	384.56
366.147	380.56
366.373	386.56
366.599	384.56
366.826	402.56
367.052	394.56
367.278	398.56
367.505	388.56
367.731	399.56
367.957	376.56
368.184	398.56
368.41	389.56
368.636	391.56
368.862	389.56
369.089	397.56
369.315	399.56
369.541	401.56
369.767	381.56
369.993	391.56
370.219	404.56
370.445	396.56
370.672	411.56
370.898	404.56
371.124	402.56
371.35	382.56
371.576	364.56
371.802	378.56
372.028	397.56
372.254	406.56
372.48	396.56
372.706	398.56
372.932	396.56
373.158	401.56
373.384	396.56
373.61	395.56
373.835	386.56
374.061	394.56
374.287	408.56
374.513	407.56
374.739	420.56
374.965	411.56
375.191	391.56
375.416	388.56
375.642	399.56
375.868	402.56
376.094	383.56
376.319	388.56
376.545	397.56
376.771	391.56
376.997	398.56
377.222	381.56
377.448	388.56
377.674	402.56
377.899	387.56
378.125	400.56
378.35	373.56
378.576	388.56
378.802	376.56
379.027	358.56
379.253	399.56
379.478	395.56
379.704	410.56
379.929	376.56
380.155	377.56
380.38	364.56
380.606	376.56
380.831	382.56
381.057	376.56
381.282	369.56
381.507	374.56
381.733	394.56
381.958	385.56
382.184	392.56
382.409	376.56
382.634	402.56
382.86	396.56
383.085	392.56
383.31	401.56
383.535	387.56
383.761	390.56
383.986	389.56
384.211	402.56
384.436	410.56
384.662	416.56
384.887	420.56
385.112	414.56
385.337	403.56
385.562	412.56
385.787	420.56
386.013	425.56
386.238	416.56
386.463	422.56
386.688	418.56
386.913	419.56
387.138	402.56
387.363	416.56
387.588	398.56
387.813	394.56
388.038	409.56
388.263	419.56
388.488	410.56
388.713	426.56
388.938	425.56
389.163	420.56
389.387	407.56
389.612	425.56
389.837	434.56
390.062	434.56
390.287	392.56
390.512	425.56
390.736	397.56
390.961	430.56
391.186	414.56
391.411	423.56
391.636	432.56
391.86	448.56
392.085	427.56
392.31	428.56
392.534	435.56
392.759	424.56
392.984	413.56
393.208	410.56
393.433	430.56
393.658	420.56
393.882	415.56
394.107	415.56
394.331	430.56
394.556	429.56
394.78	438.56
395.005	430.56
395.229	418.56
395.454	450.56
395.678	442.56
395.903	424.56
396.127	454.56
396.352	462.56
396.576	450.56
396.801	437.56
397.025	429.56
397.249	442.56
397.474	457.56
397.698	457.56
397.922	452.56
398.147	453.56
398.371	455.56
398.595	461.56
398.82	472.56
399.044	488.56
399.268	521.56
399.492	550.56
399.717	562.56
399.941	573.56
400.165	598.56
400.389	585.56
400.613	539.56
400.837	459.56
401.062	484.56
401.286	484.56
401.51	478.56
401.734	466.56
401.958	483.56
402.182	493.56
402.406	494.56
402.63	489.56
402.854	472.56
403.078	449.56
403.302	498.56
403.526	503.56
403.75	487.56
403.974	491.56
404.198	491.56
404.422	514.56
404.645	520.56
404.869	506.56
405.093	534.56
405.317	553.56
405.541	553.56
405.765	550.56
405.988	497.56
406.212	536.56
406.436	524.56
406.66	532.56
406.883	521.56
407.107	529.56
407.331	545.56
407.555	627.56
407.778	628.56
408.002	562.56
408.226	542.56
408.449	527.56
408.673	518.56
408.896	526.56
409.12	573.56
409.344	546.56
409.567	517.56
409.791	513.56
410.014	480.56
410.238	494.56
410.461	494.56
410.685	483.56
410.908	519.56
411.132	506.56
411.355	553.56
411.578	512.56
411.802	491.56
412.025	485.56
412.249	487.56
412.472	504.56
412.695	529.56
412.919	524.56
413.142	505.56
413.365	464.56
413.589	465.56
413.812	475.56
414.035	470.56
414.258	469.56
414.482	457.56
414.705	450.56
414.928	460.56
415.151	457.56
415.374	456.56
415.597	448.56
415.821	455.56
416.044	440.56
416.267	443.56
416.49	466.56
416.713	448.56
416.936	441.56
417.159	437.56
417.382	469.56
417.605	449.56
417.828	455.56
418.051	452.56
418.274	454.56
418.497	462.56
418.72	452.56
418.943	448.56
419.166	478.56
419.389	471.56
419.611	509.56
419.834	489.56
420.057	466.56
420.28	460.56
420.503	476.56
420.726	469.56
420.948	483.56
421.171	512.56
421.394	516.56
421.617	488.56
421.839	491.56
422.062	451.56
422.285	462.56
422.507	527.56
422.73	565.56
422.953	553.56
423.175	512.56
423.398	471.56
423.621	497.56
423.843	504.56
424.066	472.56
424.288	505.56
424.511	504.56
424.733	536.56
424.956	593.56
425.178	583.56
425.401	569.56
425.623	592.56
425.846	518.56
426.068	495.56
426.291	482.56
426.513	482.56
426.735	497.56
426.958	509.56
427.18	583.56
427.402	659.56
427.625	745.56
427.847	619.56
428.069	566.56
428.292	518.56
428.514	478.56
428.736	457.56
428.958	459.56
429.181	443.56
429.403	422.56
429.625	458.56
429.847	465.56
430.069	523.56
430.292	526.56
430.514	449.56
430.736	442.56
430.958	445.56
431.18	429.56
431.402	440.56
431.624	447.56
431.846	443.56
432.068	427.56
432.29	426.56
432.512	452.56
432.734	420.56
432.956	432.56
433.178	419.56
433.4	442.56
433.622	425.56
433.844	419.56
434.066	418.56
434.287	437.56
434.509	460.56
434.731	452.56
434.953	442.56
435.175	448.56
435.397	458.56
435.618	462.56
435.84	492.56
436.062	554.56
436.284	615.56
436.505	508.56
436.727	481.56
436.949	430.56
437.17	456.56
437.392	433.56
437.614	443.56
437.835	448.56
438.057	541.56
438.278	581.56
438.5	618.56
438.721	624.56
438.943	622.56
439.165	524.56
439.386	487.56
439.608	486.56
439.829	481.56
440.05	493.56
440.272	516.56
440.493	482.56
440.715	462.56
440.936	471.56
441.158	473.56
441.379	432.56
441.6	480.56
441.822	477.56
442.043	509.56
442.264	560.56
442.486	584.56
442.707	501.56
442.928	482.56
443.149	492.56
443.371	532.56
443.592	535.56
443.813	587.56
444.034	638.56
444.255	564.56
444.476	520.56
444.698	480.56
444.919	488.56
445.14	579.56
445.361	530.56
445.582	501.56
445.803	564.56
446.024	612.56
446.245	646.56
446.466	556.56
446.687	504.56
446.908	471.56
447.129	440.56
447.35	440.56
447.571	442.56
447.792	437.56
448.013	435.56
448.234	448.56
448.455	481.56
448.675	561.56
448.896	641.56
449.117	536.56
449.338	538.56
449.559	610.56
449.779	690.56
450	540.56
450.221	476.56
450.442	443.56
450.662	423.56
450.883	432.56
451.104	436.56
451.324	422.56
451.545	408.56
451.766	408.56
451.986	390.56
452.207	398.56
452.428	397.56
452.648	403.56
452.869	386.56
453.089	384.56
453.31	393.56
453.53	407.56
453.751	376.56
453.971	400.56
454.192	389.56
454.412	392.56
454.633	379.56
454.853	394.56
455.073	391.56
455.294	411.56
455.514	471.56
455.734	433.56
455.955	389.56
456.175	371.56
456.395	380.56
456.616	385.56
456.836	375.56
457.056	370.56
457.276	357.56
457.497	358.56
457.717	376.56
457.937	392.56
458.157	390.56
458.377	384.56
458.598	410.56
458.818	421.56
459.038	501.56
459.258	489.56
459.478	432.56
459.698	451.56
459.918	422.56
460.138	406.56
460.358	430.56
460.578	427.56
460.798	442.56
461.018	440.56
461.238	445.56
461.458	460.56
461.678	426.56
461.898	457.56
462.118	433.56
462.338	456.56
462.558	458.56
462.777	455.56
462.997	489.56
463.217	481.56
463.437	499.56
463.657	465.56
463.876	466.56
464.096	492.56
464.316	481.56
464.536	464.56
464.755	484.56
464.975	458.56
465.195	473.56
465.414	514.56
465.634	474.56
465.854	458.56
466.073	437.56
466.293	396.56
466.512	397.56
466.732	389.56
466.951	428.56
467.171	381.56
467.391	412.56
467.61	407.56
467.829	408.56
468.049	410.56
468.268	414.56
468.488	389.56
468.707	388.56
468.927	387.56
469.146	405.56
469.365	400.56
469.585	402.56
469.804	408.56
470.023	438.56
470.243	424.56
470.462	417.56
470.681	435.56
470.901	412.56
471.12	418.56
471.339	399.56
471.558	413.56
471.777	409.56
471.997	405.56
472.216	412.56
472.435	415.56
472.654	426.56
472.873	409.56
473.092	411.56
473.311	411.56
473.53	417.56
473.749	414.56
473.968	442.56
474.187	510.56
474.406	526.56
474.625	453.56
474.844	434.56
475.063	406.56
475.282	426.56
475.501	413.56
475.72	404.56
475.939	400.56
476.158	418.56
476.377	426.56
476.596	397.56
476.814	411.56
477.033	423.56
477.252	422.56
477.471	408.56
477.69	436.56
477.908	444.56
478.127	450.56
478.346	468.56
478.564	468.56
478.783	467.56
479.002	465.56
479.22	476.56
479.439	484.56
479.658	478.56
479.876	482.56
480.095	479.56
480.313	524.56
480.532	522.56
480.751	486.56
480.969	513.56
481.188	542.56
481.406	552.56
481.624	504.56
481.843	469.56
482.061	480.56
482.28	473.56
482.498	468.56
482.717	467.56
482.935	461.56
483.153	479.56
483.372	450.56
483.59	432.56
483.808	460.56
484.027	459.56
484.245	482.56
484.463	470.56
484.681	482.56
484.9	475.56
485.118	458.56
485.336	502.56
485.554	490.56
485.772	478.56
485.99	468.56
486.209	473.56
486.427	501.56
486.645	504.56
486.863	516.56
487.081	488.56
487.299	507.56
487.517	508.56
487.735	475.56
487.953	500.56
488.171	509.56
488.389	504.56
488.607	496.56
488.825	492.56
489.043	502.56
489.261	510.56
489.479	494.56
489.696	496.56
489.914	501.56
490.132	514.56
490.35	492.56
490.568	511.56
490.786	522.56
491.003	553.56
491.221	552.56
491.439	549.56
491.657	547.56
491.874	566.56
492.092	551.56
492.31	555.56
492.527	550.56
492.745	557.56
492.963	569.56
493.18	569.56
493.398	572.56
493.615	571.56
493.833	543.56
494.05	580.56
494.268	568.56
494.485	569.56
494.703	589.56
494.92	580.56
495.138	546.56
495.355	566.56
495.573	570.56
495.79	573.56
496.008	580.56
496.225	575.56
496.442	573.56
496.66	590.56
496.877	579.56
497.094	575.56
497.312	584.56
497.529	597.56
497.746	614.56
497.963	617.56
498.181	641.56
498.398	644.56
498.615	662.56
498.832	710.56
499.049	691.56
499.267	724.56
499.484	761.56
499.701	780.56
499.918	809.56
500.135	856.56
500.352	892.56
500.569	909.56
500.786	918.56
501.003	877.56
501.22	856.56
501.437	816.56
501.654	772.56
501.871	760.56
502.088	718.56
502.305	694.56
502.522	668.56
502.739	666.56
502.956	632.56
503.172	628.56
503.389	645.56
503.606	617.56
503.823	607.56
504.04	582.56
504.256	580.56
504.473	594.56
504.69	603.56
504.907	603.56
505.123	571.56
505.34	562.56
505.557	572.56
505.773	570.56
505.99	563.56
506.207	552.56
506.423	562.56
506.64	536.56
506.856	539.56
507.073	527.56
507.289	520.56
507.506	526.56
507.722	525.56
507.939	544.56
508.155	518.56
508.372	521.56
508.588	512.56
508.805	499.56
509.021	513.56
509.238	524.56
509.454	524.56
509.67	535.56
509.887	524.56
510.103	521.56
510.319	495.56
510.536	549.56
510.752	736.56
510.968	622.56
511.184	506.56
511.401	496.56
511.617	484.56
511.833	493.56
512.049	478.56
512.265	468.56
512.481	496.56
512.698	489.56
512.914	472.56
513.13	460.56
513.346	468.56
513.562	461.56
513.778	488.56
513.994	477.56
514.21	494.56
514.426	477.56
514.642	513.56
514.858	514.56
515.074	550.56
515.29	608.56
515.506	749.56
515.721	678.56
515.937	538.56
516.153	527.56
516.369	512.56
516.585	508.56
516.801	490.56
517.016	522.56
517.232	513.56
517.448	507.56
517.664	523.56
517.879	524.56
518.095	524.56
518.311	517.56
518.527	502.56
518.742	492.56
518.958	488.56
519.173	488.56
519.389	500.56
519.605	492.56
519.82	479.56
520.036	522.56
520.251	487.56
520.467	510.56
520.682	483.56
520.898	505.56
521.113	503.56
521.329	515.56
521.544	542.56
521.76	655.56
521.975	909.56
522.19	849.56
522.406	593.56
522.621	485.56
522.836	460.56
523.052	473.56
523.267	459.56
523.482	436.56
523.698	440.56
523.913	439.56
524.128	429.56
524.343	436.56
524.559	434.56
524.774	443.56
524.989	412.56
525.204	414.56
525.419	418.56
525.634	430.56
525.849	415.56
526.064	423.56
526.28	440.56
526.495	418.56
526.71	415.56
526.925	381.56
527.14	407.56
527.355	393.56
527.57	402.56
527.785	409.56
527.999	393.56
528.214	397.56
528.429	409.56
528.644	395.56
528.859	389.56
529.074	399.56
529.289	438.56
529.503	443.56
529.718	421.56
529.933	409.56
530.148	406.56
530.363	408.56
530.577	391.56
530.792	400.56
531.007	411.56
531.221	390.56
531.436	403.56
531.651	398.56
531.865	385.56
532.08	386.56
532.295	405.56
532.509	386.56
532.724	403.56
532.938	395.56
533.153	397.56
533.367	401.56
533.582	392.56
533.796	399.56
534.011	394.56
534.225	396.56
534.44	378.56
534.654	382.56
534.868	396.56
535.083	380.56
535.297	384.56
535.511	379.56
535.726	400.56
535.94	410.56
536.154	389.56
536.369	399.56
536.583	377.56
536.797	385.56
537.011	378.56
537.225	355.56
537.44	362.56
537.654	376.56
537.868	362.56
538.082	376.56
538.296	390.56
538.51	370.56
538.724	371.56
538.938	372.56
539.153	375.56
539.367	365.56
539.581	388.56
539.795	371.56
540.009	397.56
540.222	361.56
540.436	376.56
540.65	368.56
540.864	382.56
541.078	375.56
541.292	376.56
541.506	360.56
541.72	367.56
541.934	352.56
542.147	363.56
542.361	390.56
542.575	348.56
542.789	376.56
543.002	373.56
543.216	379.56
543.43	365.56
543.644	386.56
543.857	373.56
544.071	382.56
544.285	382.56
544.498	378.56
544.712	346.56
544.925	348.56
545.139	375.56
545.352	372.56
545.566	361.56
545.779	353.56
545.993	372.56
546.206	384.56
546.42	367.56
546.633	375.56
546.847	371.56
547.06	376.56
547.274	346.56
547.487	370.56
547.7	366.56
547.914	361.56
548.127	367.56
548.34	373.56
548.554	361.56
548.767	336.56
548.98	366.56
549.193	354.56
549.407	357.56
549.62	357.56
549.833	365.56
550.046	377.56
550.259	368.56
550.473	357.56
550.686	371.56
550.899	356.56
551.112	352.56
551.325	352.56
551.538	365.56
551.751	352.56
551.964	343.56
552.177	366.56
552.39	371.56
552.603	358.56
552.816	375.56
553.029	352.56
553.242	363.56
553.455	380.56
553.667	382.56
553.88	379.56
554.093	359.56
554.306	395.56
554.519	385.56
554.732	355.56
554.944	361.56
555.157	348.56
555.37	341.56
555.583	337.56
555.795	350.56
556.008	339.56
556.221	352.56
556.433	329.56
556.646	350.56
556.859	351.56
557.071	319.56
557.284	334.56
557.496	330.56
557.709	316.56
557.921	329.56
558.134	335.56
558.346	336.56
558.559	329.56
558.771	322.56
558.984	322.56
559.196	316.56
559.409	321.56
559.621	320.56
559.833	313.56
560.046	333.56
560.258	307.56
560.47	322.56
560.683	319.56
560.895	326.56
561.107	345.56
561.32	329.56
561.532	333.56
561.744	318.56
561.956	332.56
562.168	317.56
562.381	332.56
562.593	321.56
562.805	331.56
563.017	325.56
563.229	321.56
563.441	320.56
563.653	310.56
563.865	323.56
564.077	315.56
564.289	352.56
564.501	340.56
564.713	343.56
564.925	320.56
565.137	356.56
565.349	351.56
565.561	370.56
565.773	355.56
565.985	380.56
566.197	374.56
566.408	393.56
566.62	409.56
566.832	414.56
567.044	416.56
567.255	415.56
567.467	410.56
567.679	427.56
567.891	427.56
568.102	425.56
568.314	414.56
568.526	403.56
568.737	382.56
568.949	395.56
569.161	370.56
569.372	342.56
569.584	338.56
569.795	339.56
570.007	348.56
570.218	347.56
570.43	349.56
570.641	317.56
570.853	323.56
571.064	330.56
571.276	317.56
571.487	303.56
571.698	306.56
571.91	333.56
572.121	316.56
572.333	303.56
572.544	299.56
572.755	307.56
572.966	285.56
573.178	292.56
573.389	292.56
573.6	272.56
573.811	285.56
574.023	274.56
574.234	273.56
574.445	270.56
574.656	303.56
574.867	282.56
575.078	284.56
575.289	286.56
575.501	295.56
575.712	259.56
575.923	272.56
576.134	289.56
576.345	266.56
576.556	278.56
576.767	268.56
576.978	275.56
577.188	249.56
577.399	269.56
577.61	253.56
577.821	266.56
578.032	278.56
578.243	289.56
578.454	356.56
578.665	301.56
578.875	269.56
579.086	265.56
579.297	262.56
579.508	253.56
579.718	265.56
579.929	258.56
580.14	257.56
580.35	260.56
580.561	265.56
580.772	259.56
580.982	258.56
581.193	249.56
581.403	257.56
581.614	269.56
581.825	259.56
582.035	236.56
582.246	246.56
582.456	250.56
582.667	246.56
582.877	257.56
583.087	269.56
583.298	261.56
583.508	247.56
583.719	251.56
583.929	278.56
584.139	249.56
584.35	263.56
584.56	247.56
584.77	246.56
584.981	256.56
585.191	258.56
585.401	259.56
585.611	242.56
585.821	254.56
586.032	254.56
586.242	244.56
586.452	253.56
586.662	256.56
586.872	224.56
587.082	238.56
587.292	233.56
587.502	242.56
587.713	226.56
587.923	259.56
588.133	256.56
588.343	227.56
588.553	247.56
588.762	247.56
588.972	228.56
589.182	251.56
589.392	258.56
589.602	238.56
589.812	244.56
590.022	236.56
590.232	242.56
590.441	256.56
590.651	237.56
590.861	250.56
591.071	246.56
591.281	246.56
591.49	237.56
591.7	236.56
591.91	273.56
592.119	238.56
592.329	262.56
592.539	258.56
592.748	255.56
592.958	260.56
593.167	280.56
593.377	263.56
593.587	290.56
593.796	276.56
594.006	266.56
594.215	266.56
594.424	276.56
594.634	257.56
594.843	249.56
595.053	255.56
595.262	248.56
595.472	239.56
595.681	256.56
595.89	251.56
596.1	226.56
596.309	242.56
596.518	213.56
596.727	235.56
596.937	244.56
597.146	246.56
597.355	243.56
597.564	223.56
597.774	251.56
597.983	215.56
598.192	211.56
598.401	224.56
598.61	225.56
598.819	242.56
599.028	212.56
599.237	216.56
599.446	236.56
599.655	243.56
599.864	210.56
600.073	206.56
600.282	210.56
600.491	220.56
600.7	218.56
600.909	203.56
601.118	224.56
601.327	205.56
601.536	224.56
601.745	212.56
601.953	229.56
602.162	216.56
602.371	217.56
602.58	198.56
602.789	201.56
602.997	221.56
603.206	206.56
603.415	226.56
603.623	195.56
603.832	224.56
604.041	214.56
604.249	204.56
604.458	202.56
604.666	200.56
604.875	224.56
605.084	206.56
605.292	220.56
605.501	197.56
605.709	200.56
605.918	190.56
606.126	212.56
606.334	214.56
606.543	192.56
606.751	212.56
606.96	210.56
607.168	219.56
607.376	212.56
607.585	198.56
607.793	199.56
608.001	219.56
608.21	205.56
608.418	205.56
608.626	199.56
608.834	214.56
609.043	224.56
609.251	202.56
609.459	189.56
609.667	203.56
609.875	201.56
610.083	192.56
610.291	198.56
610.499	202.56
610.707	207.56
610.916	198.56
611.124	204.56
611.332	208.56
611.54	212.56
611.748	207.56
611.955	200.56
612.163	191.56
612.371	213.56
612.579	192.56
612.787	206.56
612.995	189.56
613.203	193.56
613.411	179.56
613.618	210.56
613.826	218.56
614.034	196.56
614.242	196.56
614.449	187.56
614.657	194.56
614.865	199.56
615.072	204.56
615.28	194.56
615.488	198.56
615.695	204.56
615.903	198.56
616.111	196.56
616.318	205.56
616.526	195.56
616.733	200.56
616.941	190.56
617.148	192.56
617.356	216.56
617.563	212.56
617.771	187.56
617.978	196.56
618.185	199.56
618.393	195.56
618.6	190.56
618.807	192.56
619.015	205.56
619.222	197.56
619.429	187.56
619.637	193.56
619.844	186.56
620.051	192.56
620.258	187.56
620.466	187.56
620.673	186.56
620.88	171.56
621.087	189.56
621.294	185.56
621.501	184.56
621.708	191.56
621.915	199.56
622.122	182.56
622.329	180.56
622.536	204.56
622.743	184.56
622.95	187.56
623.157	202.56
623.364	189.56
623.571	191.56
623.778	187.56
623.985	187.56
624.192	174.56
624.399	196.56
624.606	192.56
624.812	193.56
625.019	167.56
625.226	169.56
625.433	190.56
625.639	181.56
625.846	193.56
626.053	184.56
626.259	171.56
626.466	180.56
626.673	171.56
626.879	182.56
627.086	180.56
627.293	174.56
627.499	173.56
627.706	176.56
627.912	168.56
628.119	171.56
628.325	182.56
628.532	182.56
628.738	183.56
628.945	168.56
629.151	173.56
629.357	184.56
629.564	173.56
629.77	168.56
629.976	158.56
630.183	173.56
630.389	171.56
630.595	172.56
630.802	179.56
631.008	163.56
631.214	187.56
631.42	168.56
631.627	188.56
631.833	171.56
632.039	183.56
632.245	174.56
632.451	178.56
632.657	166.56
632.863	167.56
633.069	159.56
633.275	166.56
633.481	164.56
633.688	156.56
633.893	169.56
634.099	162.56
634.305	166.56
634.511	167.56
634.717	151.56
634.923	154.56
635.129	170.56
635.335	164.56
635.541	151.56
635.747	176.56
635.952	156.56
636.158	162.56
636.364	169.56
636.57	161.56
636.775	168.56
636.981	156.56
637.187	156.56
637.392	160.56
637.598	164.56
637.804	145.56
638.009	151.56
638.215	144.56
638.421	155.56
638.626	165.56
638.832	164.56
639.037	147.56
639.243	142.56
639.448	141.56
639.654	164.56
639.859	146.56
640.065	152.56
640.27	156.56
640.475	141.56
640.681	150.56
640.886	154.56
641.091	145.56
641.297	165.56
641.502	152.56
641.707	140.56
641.913	147.56
642.118	161.56
642.323	147.56
642.528	158.56
642.733	146.56
642.939	151.56
643.144	158.56
643.349	136.56
643.554	144.56
643.759	140.56
643.964	142.56
644.169	155.56
644.374	153.56
644.579	133.56
644.784	148.56
644.989	154.56
645.194	142.56
645.399	146.56
645.604	138.56
645.809	141.56
646.014	134.56
646.219	137.56
646.423	140.56
646.628	140.56
646.833	141.56
647.038	136.56
647.243	136.56
647.447	166.56
647.652	153.56
647.857	155.56
648.062	156.56
648.266	162.56
648.471	140.56
648.676	151.56
648.88	147.56
649.085	124.56
649.289	145.56
649.494	150.56
649.698	157.56
649.903	157.56
650.107	146.56
650.312	145.56
650.516	147.56
650.721	133.56
650.925	135.56
651.13	129.56
651.334	143.56
651.539	125.56
651.743	123.56
651.947	127.56
652.152	143.56
652.356	123.56
652.56	129.56
652.764	135.56
652.969	128.56
653.173	133.56
653.377	125.56
653.581	130.56
653.785	126.56
653.99	120.56
654.194	120.56
654.398	130.56
654.602	126.56
654.806	123.56
655.01	128.56
655.214	114.56
655.418	136.56
655.622	133.56
655.826	139.56
656.03	127.56
656.234	146.56
656.438	122.56
656.642	112.56
656.846	132.56
657.049	117.56
657.253	129.56
657.457	112.56
657.661	118.56
657.865	99.56
658.068	105.56
658.272	107.56
658.476	109.56
658.68	105.56
658.883	106.56
659.087	111.56
659.291	98.56
659.494	98.56
659.698	83.56
659.901	92.56
660.105	94.56
660.309	93.56
660.512	105.56
660.716	87.56
660.919	90.56
661.123	113.56
661.326	93.56
661.53	82.56
661.733	81.56
661.936	89.56
662.14	81.56
662.343	85.56
662.546	93.56
662.75	84.56
662.953	75.56
663.156	89.56
663.36	83.56
663.563	89.56
663.766	73.56
663.969	91.56
664.173	91.56
664.376	81.56
664.579	80.56
664.782	89.56
664.985	74.56
665.188	77.56
665.391	98.56
665.594	77.56
665.797	87.56
666	90.56
666.203	84.56
666.406	91.56
666.609	88.56
666.812	74.56
667.015	85.56
667.218	89.56
667.421	91.56
667.624	74.56
667.827	82.56
668.03	90.56
668.232	82.56
668.435	82.56
668.638	69.56
668.841	94.56
669.043	79.56
669.246	74.56
669.449	90.56
669.651	72.56
669.854	84.56
670.057	90.56
670.259	93.56
670.462	81.56
670.665	89.56
670.867	86.56
671.07	75.56
671.272	73.56
671.475	98.56
671.677	82.56
671.88	82.56
672.082	77.56
672.284	77.56
672.487	84.56
672.689	70.56
672.892	76.56
