Data from 1964.PennyLincolnUp.Lamp.En5.5.200Scan.071719.P1._HRD10591_14-03-30-908.txt Node
Date: Thu Jul 18 14:03:30 EDT 2019
User: cochatt
Spectrometer: HR+D1059
Trigger mode: 1
Integration Time (sec): 1.000000E-1
Scans to average: 1
Electric dark correction enabled: true
Nonlinearity correction enabled: false
Boxcar width: 0
XAxis mode: Wavelengths
Number of Pixels in Spectrum: 2048
>>>>>Begin Spectral Data<<<<<
223.165	-1.25
223.4	-1.25
223.635	-1.25
223.869	-3.25
224.104	-16.25
224.338	-20.25
224.573	-25.25
224.808	-13.25
225.042	-1.25
225.277	1.75
225.511	-13.25
225.746	12.75
225.98	-5.25
226.215	6.75
226.449	11.75
226.683	25.75
226.918	13.75
227.152	26.75
227.387	41.75
227.621	33.75
227.856	49.75
228.09	47.75
228.324	49.75
228.559	55.75
228.793	71.75
229.027	97.75
229.262	96.75
229.496	105.75
229.73	105.75
229.964	126.75
230.199	132.75
230.433	121.75
230.667	105.75
230.901	109.75
231.136	102.75
231.37	107.75
231.604	120.75
231.838	100.75
232.072	112.75
232.306	110.75
232.541	110.75
232.775	117.75
233.009	119.75
233.243	121.75
233.477	118.75
233.711	108.75
233.945	108.75
234.179	118.75
234.413	108.75
234.647	108.75
234.881	98.75
235.115	124.75
235.349	105.75
235.583	111.75
235.817	106.75
236.051	123.75
236.285	114.75
236.519	109.75
236.753	102.75
236.987	124.75
237.221	149.75
237.455	165.75
237.689	134.75
237.922	114.75
238.156	113.75
238.39	125.75
238.624	107.75
238.858	117.75
239.091	109.75
239.325	113.75
239.559	123.75
239.793	127.75
240.027	125.75
240.26	123.75
240.494	129.75
240.728	117.75
240.961	131.75
241.195	140.75
241.429	123.75
241.662	127.75
241.896	133.75
242.13	125.75
242.363	131.75
242.597	131.75
242.83	132.75
243.064	131.75
243.298	126.75
243.531	129.75
243.765	134.75
243.998	133.75
244.232	126.75
244.465	132.75
244.699	148.75
244.932	140.75
245.166	147.75
245.399	133.75
245.633	142.75
245.866	140.75
246.099	141.75
246.333	143.75
246.566	143.75
246.8	146.75
247.033	138.75
247.266	154.75
247.5	156.75
247.733	139.75
247.966	151.75
248.2	151.75
248.433	152.75
248.666	155.75
248.899	158.75
249.133	181.75
249.366	159.75
249.599	181.75
249.832	162.75
250.066	169.75
250.299	176.75
250.532	182.75
250.765	200.75
250.998	202.75
251.231	207.75
251.465	180.75
251.698	187.75
251.931	177.75
252.164	179.75
252.397	167.75
252.63	188.75
252.863	206.75
253.096	203.75
253.329	198.75
253.562	210.75
253.795	204.75
254.028	191.75
254.261	202.75
254.494	193.75
254.727	227.75
254.96	235.75
255.193	223.75
255.426	225.75
255.659	203.75
255.892	190.75
256.124	201.75
256.357	204.75
256.59	202.75
256.823	192.75
257.056	211.75
257.289	187.75
257.521	182.75
257.754	203.75
257.987	202.75
258.22	205.75
258.452	206.75
258.685	206.75
258.918	210.75
259.151	195.75
259.383	216.75
259.616	207.75
259.849	193.75
260.081	212.75
260.314	221.75
260.547	205.75
260.779	225.75
261.012	211.75
261.244	209.75
261.477	197.75
261.71	213.75
261.942	214.75
262.175	214.75
262.407	216.75
262.64	194.75
262.872	213.75
263.105	198.75
263.337	198.75
263.57	203.75
263.802	209.75
264.035	204.75
264.267	220.75
264.499	203.75
264.732	216.75
264.964	210.75
265.197	197.75
265.429	220.75
265.661	219.75
265.894	224.75
266.126	202.75
266.358	201.75
266.591	206.75
266.823	216.75
267.055	213.75
267.287	241.75
267.52	224.75
267.752	217.75
267.984	212.75
268.216	219.75
268.448	232.75
268.681	238.75
268.913	231.75
269.145	231.75
269.377	226.75
269.609	232.75
269.841	249.75
270.073	233.75
270.306	260.75
270.538	278.75
270.77	270.75
271.002	261.75
271.234	268.75
271.466	271.75
271.698	290.75
271.93	250.75
272.162	259.75
272.394	292.75
272.626	263.75
272.858	265.75
273.09	268.75
273.322	274.75
273.553	250.75
273.785	250.75
274.017	245.75
274.249	261.75
274.481	232.75
274.713	247.75
274.945	265.75
275.176	243.75
275.408	254.75
275.64	263.75
275.872	267.75
276.104	244.75
276.335	261.75
276.567	260.75
276.799	264.75
277.031	283.75
277.262	281.75
277.494	283.75
277.726	283.75
277.957	291.75
278.189	267.75
278.421	248.75
278.652	244.75
278.884	272.75
279.115	276.75
279.347	250.75
279.579	273.75
279.81	280.75
280.042	265.75
280.273	251.75
280.505	275.75
280.736	262.75
280.968	255.75
281.199	270.75
281.431	248.75
281.662	251.75
281.894	289.75
282.125	281.75
282.356	296.75
282.588	283.75
282.819	280.75
283.051	281.75
283.282	272.75
283.513	270.75
283.745	269.75
283.976	278.75
284.207	279.75
284.439	299.75
284.67	281.75
284.901	284.75
285.132	284.75
285.364	293.75
285.595	303.75
285.826	298.75
286.057	291.75
286.288	279.75
286.52	277.75
286.751	283.75
286.982	283.75
287.213	276.75
287.444	305.75
287.675	290.75
287.906	313.75
288.138	300.75
288.369	302.75
288.6	298.75
288.831	306.75
289.062	312.75
289.293	313.75
289.524	297.75
289.755	292.75
289.986	292.75
290.217	300.75
290.448	284.75
290.679	294.75
290.91	296.75
291.141	313.75
291.371	306.75
291.602	291.75
291.833	281.75
292.064	299.75
292.295	291.75
292.526	299.75
292.757	296.75
292.987	307.75
293.218	309.75
293.449	298.75
293.68	330.75
293.91	296.75
294.141	297.75
294.372	284.75
294.603	274.75
294.833	293.75
295.064	294.75
295.295	315.75
295.525	295.75
295.756	306.75
295.987	299.75
296.217	307.75
296.448	307.75
296.679	299.75
296.909	313.75
297.14	319.75
297.37	302.75
297.601	301.75
297.831	306.75
298.062	307.75
298.292	310.75
298.523	297.75
298.753	309.75
298.984	318.75
299.214	313.75
299.445	314.75
299.675	319.75
299.905	305.75
300.136	334.75
300.366	319.75
300.597	309.75
300.827	325.75
301.057	322.75
301.288	333.75
301.518	333.75
301.748	322.75
301.979	341.75
302.209	327.75
302.439	331.75
302.669	359.75
302.9	337.75
303.13	360.75
303.36	338.75
303.59	341.75
303.82	340.75
304.051	327.75
304.281	348.75
304.511	338.75
304.741	332.75
304.971	315.75
305.201	310.75
305.431	338.75
305.661	341.75
305.891	328.75
306.121	339.75
306.352	337.75
306.582	327.75
306.812	331.75
307.042	347.75
307.272	341.75
307.502	330.75
307.731	317.75
307.961	342.75
308.191	341.75
308.421	344.75
308.651	347.75
308.881	345.75
309.111	337.75
309.341	355.75
309.571	351.75
309.8	347.75
310.03	373.75
310.26	327.75
310.49	353.75
310.72	373.75
310.949	357.75
311.179	369.75
311.409	355.75
311.639	358.75
311.868	366.75
312.098	390.75
312.328	361.75
312.557	363.75
312.787	361.75
313.017	357.75
313.246	371.75
313.476	387.75
313.706	375.75
313.935	372.75
314.165	357.75
314.394	382.75
314.624	381.75
314.853	369.75
315.083	374.75
315.312	365.75
315.542	354.75
315.771	350.75
316.001	350.75
316.23	371.75
316.46	371.75
316.689	356.75
316.919	373.75
317.148	363.75
317.377	382.75
317.607	391.75
317.836	369.75
318.065	375.75
318.295	363.75
318.524	374.75
318.753	361.75
318.983	353.75
319.212	373.75
319.441	356.75
319.67	359.75
319.9	361.75
320.129	375.75
320.358	386.75
320.587	381.75
320.816	385.75
321.046	380.75
321.275	386.75
321.504	375.75
321.733	370.75
321.962	389.75
322.191	402.75
322.42	391.75
322.649	383.75
322.878	399.75
323.108	405.75
323.337	394.75
323.566	417.75
323.795	428.75
324.024	453.75
324.253	498.75
324.482	659.75
324.71	960.75
324.939	1295.75
325.168	1110.75
325.397	604.75
325.626	470.75
325.855	450.75
326.084	440.75
326.313	430.75
326.542	433.75
326.77	443.75
326.999	499.75
327.228	655.75
327.457	855.75
327.686	982.75
327.914	689.75
328.143	501.75
328.372	463.75
328.6	482.75
328.829	432.75
329.058	476.75
329.287	471.75
329.515	444.75
329.744	435.75
329.972	448.75
330.201	449.75
330.43	460.75
330.658	468.75
330.887	467.75
331.115	456.75
331.344	437.75
331.572	441.75
331.801	418.75
332.03	440.75
332.258	430.75
332.486	424.75
332.715	410.75
332.943	438.75
333.172	423.75
333.4	451.75
333.629	458.75
333.857	463.75
334.085	469.75
334.314	461.75
334.542	477.75
334.771	501.75
334.999	457.75
335.227	455.75
335.455	453.75
335.684	451.75
335.912	428.75
336.14	449.75
336.369	434.75
336.597	443.75
336.825	439.75
337.053	456.75
337.281	441.75
337.51	430.75
337.738	435.75
337.966	424.75
338.194	428.75
338.422	417.75
338.65	426.75
338.878	412.75
339.106	423.75
339.334	449.75
339.562	400.75
339.79	416.75
340.018	386.75
340.246	421.75
340.474	429.75
340.702	408.75
340.93	397.75
341.158	409.75
341.386	406.75
341.614	414.75
341.842	399.75
342.07	407.75
342.298	394.75
342.526	404.75
342.754	401.75
342.981	413.75
343.209	398.75
343.437	411.75
343.665	436.75
343.893	448.75
344.12	454.75
344.348	438.75
344.576	430.75
344.804	423.75
345.031	433.75
345.259	420.75
345.487	395.75
345.714	396.75
345.942	403.75
346.17	403.75
346.397	417.75
346.625	389.75
346.853	385.75
347.08	378.75
347.308	391.75
347.535	394.75
347.763	396.75
347.99	392.75
348.218	398.75
348.445	383.75
348.673	373.75
348.9	373.75
349.128	402.75
349.355	381.75
349.583	371.75
349.81	381.75
350.037	381.75
350.265	386.75
350.492	372.75
350.72	384.75
350.947	387.75
351.174	380.75
351.402	399.75
351.629	374.75
351.856	390.75
352.083	383.75
352.311	392.75
352.538	378.75
352.765	390.75
352.992	365.75
353.22	381.75
353.447	381.75
353.674	387.75
353.901	359.75
354.128	366.75
354.355	377.75
354.583	361.75
354.81	365.75
355.037	377.75
355.264	364.75
355.491	372.75
355.718	374.75
355.945	364.75
356.172	364.75
356.399	359.75
356.626	358.75
356.853	375.75
357.08	366.75
357.307	389.75
357.534	371.75
357.761	362.75
357.988	372.75
358.215	357.75
358.441	374.75
358.668	365.75
358.895	374.75
359.122	372.75
359.349	369.75
359.576	385.75
359.802	385.75
360.029	381.75
360.256	387.75
360.483	397.75
360.709	385.75
360.936	378.75
361.163	386.75
361.39	389.75
361.616	385.75
361.843	395.75
362.07	381.75
362.296	379.75
362.523	361.75
362.749	364.75
362.976	359.75
363.203	365.75
363.429	369.75
363.656	373.75
363.882	370.75
364.109	359.75
364.335	377.75
364.562	349.75
364.788	358.75
365.015	365.75
365.241	366.75
365.468	361.75
365.694	375.75
365.92	374.75
366.147	362.75
366.373	343.75
366.599	358.75
366.826	364.75
367.052	370.75
367.278	356.75
367.505	346.75
367.731	370.75
367.957	372.75
368.184	363.75
368.41	383.75
368.636	403.75
368.862	388.75
369.089	375.75
369.315	364.75
369.541	381.75
369.767	381.75
369.993	379.75
370.219	359.75
370.445	376.75
370.672	361.75
370.898	370.75
371.124	363.75
371.35	369.75
371.576	372.75
371.802	364.75
372.028	347.75
372.254	378.75
372.48	362.75
372.706	383.75
372.932	380.75
373.158	366.75
373.384	362.75
373.61	359.75
373.835	374.75
374.061	375.75
374.287	372.75
374.513	363.75
374.739	366.75
374.965	374.75
375.191	381.75
375.416	370.75
375.642	382.75
375.868	368.75
376.094	379.75
376.319	350.75
376.545	360.75
376.771	347.75
376.997	365.75
377.222	375.75
377.448	375.75
377.674	358.75
377.899	355.75
378.125	365.75
378.35	366.75
378.576	371.75
378.802	360.75
379.027	355.75
379.253	344.75
379.478	361.75
379.704	363.75
379.929	344.75
380.155	348.75
380.38	365.75
380.606	374.75
380.831	361.75
381.057	365.75
381.282	374.75
381.507	372.75
381.733	361.75
381.958	361.75
382.184	378.75
382.409	363.75
382.634	379.75
382.86	363.75
383.085	383.75
383.31	383.75
383.535	380.75
383.761	385.75
383.986	384.75
384.211	374.75
384.436	361.75
384.662	397.75
384.887	400.75
385.112	369.75
385.337	406.75
385.562	395.75
385.787	395.75
386.013	398.75
386.238	386.75
386.463	424.75
386.688	409.75
386.913	388.75
387.138	409.75
387.363	391.75
387.588	398.75
387.813	398.75
388.038	391.75
388.263	420.75
388.488	409.75
388.713	404.75
388.938	399.75
389.163	389.75
389.387	380.75
389.612	382.75
389.837	398.75
390.062	397.75
390.287	399.75
390.512	387.75
390.736	391.75
390.961	394.75
391.186	381.75
391.411	404.75
391.636	401.75
391.86	428.75
392.085	420.75
392.31	435.75
392.534	411.75
392.759	402.75
392.984	414.75
393.208	414.75
393.433	430.75
393.658	443.75
393.882	413.75
394.107	392.75
394.331	395.75
394.556	395.75
394.78	409.75
395.005	410.75
395.229	397.75
395.454	406.75
395.678	418.75
395.903	403.75
396.127	422.75
396.352	409.75
396.576	396.75
396.801	429.75
397.025	421.75
397.249	428.75
397.474	392.75
397.698	426.75
397.922	411.75
398.147	431.75
398.371	439.75
398.595	433.75
398.82	435.75
399.044	447.75
399.268	481.75
399.492	499.75
399.717	553.75
399.941	571.75
400.165	553.75
400.389	560.75
400.613	519.75
400.837	487.75
401.062	459.75
401.286	467.75
401.51	451.75
401.734	440.75
401.958	457.75
402.182	446.75
402.406	479.75
402.63	445.75
402.854	458.75
403.078	456.75
403.302	477.75
403.526	485.75
403.75	471.75
403.974	467.75
404.198	454.75
404.422	466.75
404.645	487.75
404.869	461.75
405.093	474.75
405.317	537.75
405.541	550.75
405.765	475.75
405.988	473.75
406.212	477.75
406.436	493.75
406.66	501.75
406.883	487.75
407.107	524.75
407.331	564.75
407.555	574.75
407.778	570.75
408.002	550.75
408.226	499.75
408.449	521.75
408.673	477.75
408.896	518.75
409.12	536.75
409.344	487.75
409.567	467.75
409.791	466.75
410.014	467.75
410.238	455.75
410.461	486.75
410.685	467.75
410.908	463.75
411.132	489.75
411.355	521.75
411.578	491.75
411.802	455.75
412.025	436.75
412.249	457.75
412.472	481.75
412.695	489.75
412.919	487.75
413.142	481.75
413.365	450.75
413.589	462.75
413.812	450.75
414.035	459.75
414.258	431.75
414.482	425.75
414.705	410.75
414.928	426.75
415.151	447.75
415.374	417.75
415.597	434.75
415.821	415.75
416.044	421.75
416.267	427.75
416.49	435.75
416.713	415.75
416.936	422.75
417.159	405.75
417.382	420.75
417.605	405.75
417.828	423.75
418.051	438.75
418.274	440.75
418.497	434.75
418.72	424.75
418.943	415.75
419.166	437.75
419.389	446.75
419.611	447.75
419.834	457.75
420.057	442.75
420.28	437.75
420.503	438.75
420.726	450.75
420.948	436.75
421.171	463.75
421.394	488.75
421.617	433.75
421.839	414.75
422.062	449.75
422.285	439.75
422.507	475.75
422.73	536.75
422.953	505.75
423.175	461.75
423.398	442.75
423.621	462.75
423.843	464.75
424.066	454.75
424.288	455.75
424.511	483.75
424.733	522.75
424.956	549.75
425.178	517.75
425.401	491.75
425.623	533.75
425.846	492.75
426.068	451.75
426.291	469.75
426.513	439.75
426.735	426.75
426.958	472.75
427.18	555.75
427.402	608.75
427.625	646.75
427.847	539.75
428.069	517.75
428.292	446.75
428.514	435.75
428.736	422.75
428.958	418.75
429.181	408.75
429.403	411.75
429.625	425.75
429.847	428.75
430.069	473.75
430.292	468.75
430.514	419.75
430.736	414.75
430.958	411.75
431.18	397.75
431.402	398.75
431.624	406.75
431.846	379.75
432.068	383.75
432.29	425.75
432.512	395.75
432.734	413.75
432.956	397.75
433.178	403.75
433.4	406.75
433.622	415.75
433.844	408.75
434.066	411.75
434.287	397.75
434.509	412.75
434.731	423.75
434.953	417.75
435.175	445.75
435.397	434.75
435.618	452.75
435.84	464.75
436.062	518.75
436.284	558.75
436.505	479.75
436.727	451.75
436.949	422.75
437.17	405.75
437.392	420.75
437.614	416.75
437.835	424.75
438.057	498.75
438.278	552.75
438.5	558.75
438.721	613.75
438.943	585.75
439.165	467.75
439.386	455.75
439.608	437.75
439.829	427.75
440.05	449.75
440.272	463.75
440.493	451.75
440.715	422.75
440.936	415.75
441.158	419.75
441.379	417.75
441.6	426.75
441.822	441.75
442.043	468.75
442.264	492.75
442.486	530.75
442.707	485.75
442.928	460.75
443.149	460.75
443.371	463.75
443.592	469.75
443.813	541.75
444.034	595.75
444.255	498.75
444.476	490.75
444.698	460.75
444.919	453.75
445.14	558.75
445.361	527.75
445.582	467.75
445.803	499.75
446.024	555.75
446.245	565.75
446.466	507.75
446.687	445.75
446.908	430.75
447.129	428.75
447.35	414.75
447.571	412.75
447.792	399.75
448.013	413.75
448.234	422.75
448.455	435.75
448.675	514.75
448.896	590.75
449.117	506.75
449.338	485.75
449.559	562.75
449.779	625.75
450	485.75
450.221	420.75
450.442	395.75
450.662	380.75
450.883	389.75
451.104	395.75
451.324	387.75
451.545	382.75
451.766	380.75
451.986	369.75
452.207	365.75
452.428	356.75
452.648	364.75
452.869	341.75
453.089	370.75
453.31	381.75
453.53	355.75
453.751	348.75
453.971	341.75
454.192	356.75
454.412	367.75
454.633	366.75
454.853	374.75
455.073	344.75
455.294	372.75
455.514	406.75
455.734	396.75
455.955	338.75
456.175	366.75
456.395	358.75
456.616	347.75
456.836	350.75
457.056	342.75
457.276	353.75
457.497	375.75
457.717	356.75
457.937	357.75
458.157	362.75
458.377	362.75
458.598	371.75
458.818	400.75
459.038	430.75
459.258	481.75
459.478	385.75
459.698	401.75
459.918	412.75
460.138	399.75
460.358	413.75
460.578	412.75
460.798	393.75
461.018	429.75
461.238	412.75
461.458	423.75
461.678	422.75
461.898	418.75
462.118	396.75
462.338	457.75
462.558	437.75
462.777	435.75
462.997	455.75
463.217	487.75
463.437	473.75
463.657	469.75
463.876	473.75
464.096	471.75
464.316	447.75
464.536	458.75
464.755	451.75
464.975	404.75
465.195	448.75
465.414	473.75
465.634	432.75
465.854	402.75
466.073	398.75
466.293	406.75
466.512	393.75
466.732	376.75
466.951	369.75
467.171	388.75
467.391	377.75
467.61	377.75
467.829	378.75
468.049	373.75
468.268	378.75
468.488	373.75
468.707	367.75
468.927	375.75
469.146	365.75
469.365	403.75
469.585	379.75
469.804	374.75
470.023	387.75
470.243	373.75
470.462	377.75
470.681	385.75
470.901	394.75
471.12	388.75
471.339	393.75
471.558	378.75
471.777	375.75
471.997	379.75
472.216	401.75
472.435	392.75
472.654	384.75
472.873	388.75
473.092	381.75
473.311	378.75
473.53	381.75
473.749	400.75
473.968	414.75
474.187	473.75
474.406	457.75
474.625	413.75
474.844	387.75
475.063	384.75
475.282	383.75
475.501	385.75
475.72	381.75
475.939	390.75
476.158	369.75
476.377	365.75
476.596	379.75
476.814	382.75
477.033	404.75
477.252	403.75
477.471	418.75
477.69	377.75
477.908	406.75
478.127	410.75
478.346	399.75
478.564	437.75
478.783	435.75
479.002	430.75
479.22	451.75
479.439	451.75
479.658	458.75
479.876	464.75
480.095	461.75
480.313	470.75
480.532	476.75
480.751	457.75
480.969	463.75
481.188	510.75
481.406	476.75
481.624	468.75
481.843	434.75
482.061	439.75
482.28	421.75
482.498	439.75
482.717	445.75
482.935	431.75
483.153	415.75
483.372	427.75
483.59	426.75
483.808	430.75
484.027	433.75
484.245	439.75
484.463	451.75
484.681	458.75
484.9	425.75
485.118	465.75
485.336	450.75
485.554	457.75
485.772	440.75
485.99	444.75
486.209	462.75
486.427	478.75
486.645	461.75
486.863	471.75
487.081	469.75
487.299	458.75
487.517	447.75
487.735	460.75
487.953	476.75
488.171	469.75
488.389	448.75
488.607	459.75
488.825	463.75
489.043	466.75
489.261	477.75
489.479	464.75
489.696	473.75
489.914	492.75
490.132	472.75
490.35	486.75
490.568	460.75
490.786	496.75
491.003	479.75
491.221	494.75
491.439	478.75
491.657	511.75
491.874	524.75
492.092	518.75
492.31	515.75
492.527	505.75
492.745	499.75
492.963	512.75
493.18	522.75
493.398	513.75
493.615	517.75
493.833	514.75
494.05	522.75
494.268	533.75
494.485	529.75
494.703	530.75
494.92	527.75
495.138	524.75
495.355	529.75
495.573	523.75
495.79	542.75
496.008	533.75
496.225	535.75
496.442	533.75
496.66	516.75
496.877	537.75
497.094	542.75
497.312	548.75
497.529	547.75
497.746	582.75
497.963	583.75
498.181	589.75
498.398	590.75
498.615	620.75
498.832	627.75
499.049	628.75
499.267	678.75
499.484	693.75
499.701	728.75
499.918	757.75
500.135	787.75
500.352	809.75
500.569	855.75
500.786	878.75
501.003	837.75
501.22	820.75
501.437	772.75
501.654	733.75
501.871	699.75
502.088	689.75
502.305	655.75
502.522	638.75
502.739	614.75
502.956	590.75
503.172	597.75
503.389	554.75
503.606	561.75
503.823	585.75
504.04	554.75
504.256	549.75
504.473	547.75
504.69	556.75
504.907	567.75
505.123	535.75
505.34	527.75
505.557	509.75
505.773	526.75
505.99	523.75
506.207	490.75
506.423	511.75
506.64	505.75
506.856	497.75
507.073	475.75
507.289	483.75
507.506	498.75
507.722	484.75
507.939	468.75
508.155	459.75
508.372	463.75
508.588	476.75
508.805	469.75
509.021	450.75
509.238	477.75
509.454	494.75
509.67	452.75
509.887	462.75
510.103	445.75
510.319	471.75
510.536	503.75
510.752	628.75
510.968	545.75
511.184	459.75
511.401	431.75
511.617	421.75
511.833	454.75
512.049	453.75
512.265	446.75
512.481	439.75
512.698	450.75
512.914	448.75
513.13	460.75
513.346	439.75
513.562	434.75
513.778	447.75
513.994	448.75
514.21	425.75
514.426	446.75
514.642	475.75
514.858	453.75
515.074	477.75
515.29	513.75
515.506	620.75
515.721	561.75
515.937	503.75
516.153	480.75
516.369	475.75
516.585	478.75
516.801	453.75
517.016	493.75
517.232	478.75
517.448	501.75
517.664	488.75
517.879	489.75
518.095	505.75
518.311	489.75
518.527	454.75
518.742	471.75
518.958	472.75
519.173	440.75
519.389	438.75
519.605	459.75
519.82	438.75
520.036	436.75
520.251	450.75
520.467	463.75
520.682	459.75
520.898	442.75
521.113	427.75
521.329	462.75
521.544	471.75
521.76	528.75
521.975	732.75
522.19	710.75
522.406	522.75
522.621	453.75
522.836	433.75
523.052	424.75
523.267	402.75
523.482	414.75
523.698	413.75
523.913	399.75
524.128	407.75
524.343	389.75
524.559	399.75
524.774	379.75
524.989	396.75
525.204	397.75
525.419	388.75
525.634	383.75
525.849	378.75
526.064	407.75
526.28	382.75
526.495	371.75
526.71	386.75
526.925	370.75
527.14	389.75
527.355	374.75
527.57	365.75
527.785	381.75
527.999	382.75
528.214	376.75
528.429	379.75
528.644	380.75
528.859	393.75
529.074	386.75
529.289	397.75
529.503	419.75
529.718	392.75
529.933	387.75
530.148	380.75
530.363	378.75
530.577	395.75
530.792	366.75
531.007	365.75
531.221	384.75
531.436	369.75
531.651	411.75
531.865	385.75
532.08	371.75
532.295	375.75
532.509	374.75
532.724	367.75
532.938	387.75
533.153	364.75
533.367	385.75
533.582	365.75
533.796	351.75
534.011	388.75
534.225	350.75
534.44	376.75
534.654	385.75
534.868	372.75
535.083	357.75
535.297	362.75
535.511	372.75
535.726	377.75
535.94	367.75
536.154	370.75
536.369	355.75
536.583	344.75
536.797	369.75
537.011	362.75
537.225	357.75
537.44	345.75
537.654	358.75
537.868	338.75
538.082	366.75
538.296	364.75
538.51	347.75
538.724	350.75
538.938	335.75
539.153	341.75
539.367	347.75
539.581	335.75
539.795	357.75
540.009	343.75
540.222	360.75
540.436	373.75
540.65	361.75
540.864	360.75
541.078	344.75
541.292	353.75
541.506	362.75
541.72	347.75
541.934	346.75
542.147	358.75
542.361	351.75
542.575	353.75
542.789	346.75
543.002	345.75
543.216	357.75
543.43	381.75
543.644	339.75
543.857	323.75
544.071	343.75
544.285	369.75
544.498	344.75
544.712	359.75
544.925	378.75
545.139	343.75
545.352	354.75
545.566	338.75
545.779	336.75
545.993	347.75
546.206	364.75
546.42	360.75
546.633	361.75
546.847	350.75
547.06	343.75
547.274	331.75
547.487	334.75
547.7	349.75
547.914	347.75
548.127	340.75
548.34	329.75
548.554	342.75
548.767	333.75
548.98	350.75
549.193	340.75
549.407	358.75
549.62	356.75
549.833	359.75
550.046	331.75
550.259	355.75
550.473	358.75
550.686	361.75
550.899	348.75
551.112	334.75
551.325	331.75
551.538	329.75
551.751	335.75
551.964	333.75
552.177	355.75
552.39	352.75
552.603	333.75
552.816	359.75
553.029	366.75
553.242	360.75
553.455	369.75
553.667	359.75
553.88	377.75
554.093	364.75
554.306	372.75
554.519	369.75
554.732	338.75
554.944	330.75
555.157	334.75
555.37	345.75
555.583	325.75
555.795	339.75
556.008	323.75
556.221	319.75
556.433	334.75
556.646	329.75
556.859	332.75
557.071	334.75
557.284	306.75
557.496	307.75
557.709	320.75
557.921	309.75
558.134	300.75
558.346	298.75
558.559	289.75
558.771	301.75
558.984	324.75
559.196	295.75
559.409	301.75
559.621	309.75
559.833	317.75
560.046	329.75
560.258	287.75
560.47	294.75
560.683	296.75
560.895	313.75
561.107	309.75
561.32	300.75
561.532	320.75
561.744	312.75
561.956	305.75
562.168	310.75
562.381	329.75
562.593	305.75
562.805	322.75
563.017	319.75
563.229	319.75
563.441	318.75
563.653	315.75
563.865	310.75
564.077	302.75
564.289	318.75
564.501	324.75
564.713	313.75
564.925	316.75
565.137	325.75
565.349	351.75
565.561	332.75
565.773	345.75
565.985	347.75
566.197	374.75
566.408	365.75
566.62	395.75
566.832	395.75
567.044	375.75
567.255	409.75
567.467	412.75
567.679	430.75
567.891	426.75
568.102	413.75
568.314	393.75
568.526	402.75
568.737	378.75
568.949	381.75
569.161	349.75
569.372	326.75
569.584	333.75
569.795	330.75
570.007	324.75
570.218	327.75
570.43	331.75
570.641	318.75
570.853	318.75
571.064	323.75
571.276	334.75
571.487	300.75
571.698	311.75
571.91	307.75
572.121	253.75
572.333	293.75
572.544	290.75
572.755	279.75
572.966	284.75
573.178	284.75
573.389	271.75
573.6	271.75
573.811	275.75
574.023	268.75
574.234	253.75
574.445	266.75
574.656	286.75
574.867	269.75
575.078	267.75
575.289	282.75
575.501	268.75
575.712	280.75
575.923	265.75
576.134	262.75
576.345	261.75
576.556	261.75
576.767	259.75
576.978	268.75
577.188	271.75
577.399	267.75
577.61	265.75
577.821	253.75
578.032	266.75
578.243	269.75
578.454	319.75
578.665	282.75
578.875	269.75
579.086	263.75
579.297	255.75
579.508	254.75
579.718	265.75
579.929	267.75
580.14	260.75
580.35	228.75
580.561	254.75
580.772	254.75
580.982	246.75
581.193	248.75
581.403	248.75
581.614	244.75
581.825	234.75
582.035	261.75
582.246	243.75
582.456	258.75
582.667	236.75
582.877	236.75
583.087	232.75
583.298	227.75
583.508	230.75
583.719	252.75
583.929	259.75
584.139	257.75
584.35	233.75
584.56	247.75
584.77	263.75
584.981	244.75
585.191	242.75
585.401	263.75
585.611	247.75
585.821	263.75
586.032	244.75
586.242	250.75
586.452	238.75
586.662	244.75
586.872	231.75
587.082	244.75
587.292	247.75
587.502	238.75
587.713	233.75
587.923	230.75
588.133	239.75
588.343	227.75
588.553	243.75
588.762	241.75
588.972	246.75
589.182	292.75
589.392	293.75
589.602	242.75
589.812	268.75
590.022	262.75
590.232	241.75
590.441	238.75
590.651	255.75
590.861	230.75
591.071	245.75
591.281	254.75
591.49	258.75
591.7	231.75
591.91	250.75
592.119	252.75
592.329	244.75
592.539	226.75
592.748	268.75
592.958	262.75
593.167	272.75
593.377	253.75
593.587	265.75
593.796	267.75
594.006	270.75
594.215	249.75
594.424	252.75
594.634	252.75
594.843	253.75
595.053	253.75
595.262	242.75
595.472	259.75
595.681	249.75
595.89	249.75
596.1	218.75
596.309	243.75
596.518	227.75
596.727	226.75
596.937	226.75
597.146	223.75
597.355	209.75
597.564	227.75
597.774	221.75
597.983	216.75
598.192	219.75
598.401	214.75
598.61	233.75
598.819	221.75
599.028	222.75
599.237	231.75
599.446	218.75
599.655	223.75
599.864	210.75
600.073	218.75
600.282	213.75
600.491	214.75
600.7	206.75
600.909	206.75
601.118	210.75
601.327	197.75
601.536	214.75
601.745	214.75
601.953	227.75
602.162	222.75
602.371	226.75
602.58	207.75
602.789	187.75
602.997	211.75
603.206	214.75
603.415	211.75
603.623	213.75
603.832	213.75
604.041	191.75
604.249	196.75
604.458	191.75
604.666	195.75
604.875	183.75
605.084	203.75
605.292	196.75
605.501	187.75
605.709	231.75
605.918	196.75
606.126	203.75
606.334	206.75
606.543	198.75
606.751	198.75
606.96	202.75
607.168	207.75
607.376	204.75
607.585	206.75
607.793	203.75
608.001	193.75
608.21	199.75
608.418	228.75
608.626	222.75
608.834	187.75
609.043	203.75
609.251	195.75
609.459	205.75
609.667	205.75
609.875	198.75
610.083	204.75
610.291	204.75
610.499	186.75
610.707	196.75
610.916	190.75
611.124	206.75
611.332	201.75
611.54	206.75
611.748	185.75
611.955	209.75
612.163	208.75
612.371	203.75
612.579	197.75
612.787	191.75
612.995	193.75
613.203	188.75
613.411	185.75
613.618	202.75
613.826	181.75
614.034	205.75
614.242	190.75
614.449	196.75
614.657	193.75
614.865	219.75
615.072	191.75
615.28	197.75
615.488	203.75
615.695	187.75
615.903	200.75
616.111	197.75
616.318	204.75
616.526	192.75
616.733	197.75
616.941	182.75
617.148	206.75
617.356	200.75
617.563	177.75
617.771	175.75
617.978	200.75
618.185	191.75
618.393	192.75
618.6	198.75
618.807	182.75
619.015	188.75
619.222	193.75
619.429	190.75
619.637	199.75
619.844	198.75
620.051	180.75
620.258	189.75
620.466	185.75
620.673	181.75
620.88	177.75
621.087	160.75
621.294	195.75
621.501	181.75
621.708	166.75
621.915	198.75
622.122	179.75
622.329	185.75
622.536	181.75
622.743	167.75
622.95	190.75
623.157	179.75
623.364	185.75
623.571	182.75
623.778	189.75
623.985	193.75
624.192	192.75
624.399	181.75
624.606	183.75
624.812	182.75
625.019	164.75
625.226	179.75
625.433	168.75
625.639	177.75
625.846	176.75
626.053	183.75
626.259	173.75
626.466	181.75
626.673	192.75
626.879	179.75
627.086	170.75
627.293	178.75
627.499	174.75
627.706	187.75
627.912	177.75
628.119	170.75
628.325	165.75
628.532	172.75
628.738	163.75
628.945	156.75
629.151	164.75
629.357	162.75
629.564	164.75
629.77	168.75
629.976	176.75
630.183	179.75
630.389	174.75
630.595	165.75
630.802	165.75
631.008	163.75
631.214	187.75
631.42	174.75
631.627	172.75
631.833	169.75
632.039	166.75
632.245	191.75
632.451	162.75
632.657	154.75
632.863	157.75
633.069	165.75
633.275	160.75
633.481	161.75
633.688	156.75
633.893	179.75
634.099	165.75
634.305	148.75
634.511	144.75
634.717	158.75
634.923	161.75
635.129	161.75
635.335	162.75
635.541	146.75
635.747	167.75
635.952	156.75
636.158	148.75
636.364	165.75
636.57	157.75
636.775	149.75
636.981	158.75
637.187	148.75
637.392	151.75
637.598	158.75
637.804	155.75
638.009	156.75
638.215	140.75
638.421	147.75
638.626	145.75
638.832	149.75
639.037	158.75
639.243	142.75
639.448	154.75
639.654	161.75
639.859	158.75
640.065	147.75
640.27	158.75
640.475	151.75
640.681	161.75
640.886	141.75
641.091	144.75
641.297	155.75
641.502	163.75
641.707	155.75
641.913	153.75
642.118	154.75
642.323	144.75
642.528	149.75
642.733	148.75
642.939	129.75
643.144	122.75
643.349	142.75
643.554	159.75
643.759	133.75
643.964	156.75
644.169	157.75
644.374	142.75
644.579	154.75
644.784	135.75
644.989	147.75
645.194	156.75
645.399	150.75
645.604	153.75
645.809	153.75
646.014	140.75
646.219	138.75
646.423	145.75
646.628	140.75
646.833	154.75
647.038	151.75
647.243	136.75
647.447	149.75
647.652	161.75
647.857	144.75
648.062	141.75
648.266	150.75
648.471	151.75
648.676	147.75
648.88	166.75
649.085	157.75
649.289	152.75
649.494	144.75
649.698	149.75
649.903	162.75
650.107	162.75
650.312	142.75
650.516	135.75
650.721	151.75
650.925	149.75
651.13	136.75
651.334	150.75
651.539	143.75
651.743	129.75
651.947	132.75
652.152	135.75
652.356	127.75
652.56	137.75
652.764	135.75
652.969	133.75
653.173	141.75
653.377	135.75
653.581	126.75
653.785	135.75
653.99	131.75
654.194	110.75
654.398	125.75
654.602	124.75
654.806	124.75
655.01	134.75
655.214	117.75
655.418	150.75
655.622	133.75
655.826	134.75
656.03	137.75
656.234	148.75
656.438	135.75
656.642	139.75
656.846	136.75
657.049	137.75
657.253	121.75
657.457	126.75
657.661	115.75
657.865	122.75
658.068	107.75
658.272	102.75
658.476	107.75
658.68	119.75
658.883	105.75
659.087	106.75
659.291	106.75
659.494	98.75
659.698	108.75
659.901	92.75
660.105	93.75
660.309	88.75
660.512	86.75
660.716	94.75
660.919	89.75
661.123	92.75
661.326	90.75
661.53	88.75
661.733	76.75
661.936	86.75
662.14	92.75
662.343	84.75
662.546	71.75
662.75	95.75
662.953	91.75
663.156	85.75
663.36	94.75
663.563	63.75
663.766	75.75
663.969	73.75
664.173	85.75
664.376	75.75
664.579	101.75
664.782	100.75
664.985	82.75
665.188	80.75
665.391	74.75
665.594	54.75
665.797	84.75
666	65.75
666.203	87.75
666.406	71.75
666.609	90.75
666.812	86.75
667.015	90.75
667.218	92.75
667.421	85.75
667.624	61.75
667.827	75.75
668.03	80.75
668.232	82.75
668.435	85.75
668.638	92.75
668.841	86.75
669.043	73.75
669.246	86.75
669.449	79.75
669.651	75.75
669.854	81.75
670.057	77.75
670.259	77.75
670.462	68.75
670.665	77.75
670.867	88.75
671.07	87.75
671.272	66.75
671.475	85.75
671.677	74.75
671.88	68.75
672.082	77.75
672.284	84.75
672.487	85.75
672.689	89.75
672.892	75.75
