Data from 1964.PennyLincolnUp.Lamp.En5.5.200Scan.071719.P1._HRD10591_14-04-05-908.txt Node
Date: Thu Jul 18 14:04:05 EDT 2019
User: cochatt
Spectrometer: HR+D1059
Trigger mode: 1
Integration Time (sec): 1.000000E-1
Scans to average: 1
Electric dark correction enabled: true
Nonlinearity correction enabled: false
Boxcar width: 0
XAxis mode: Wavelengths
Number of Pixels in Spectrum: 2048
>>>>>Begin Spectral Data<<<<<
223.165	-17.56
223.4	-17.56
223.635	-17.56
223.869	-10.56
224.104	-23.56
224.338	-16.56
224.573	-6.56
224.808	-9.56
225.042	-1.56
225.277	-7.56
225.511	-19.56
225.746	-2.56
225.98	-10.56
226.215	28.44
226.449	17.44
226.683	26.44
226.918	24.44
227.152	29.44
227.387	36.44
227.621	32.44
227.856	42.44
228.09	53.44
228.324	52.44
228.559	55.44
228.793	75.44
229.027	92.44
229.262	105.44
229.496	108.44
229.73	104.44
229.964	128.44
230.199	112.44
230.433	105.44
230.667	108.44
230.901	111.44
231.136	101.44
231.37	126.44
231.604	111.44
231.838	104.44
232.072	103.44
232.306	103.44
232.541	113.44
232.775	126.44
233.009	112.44
233.243	117.44
233.477	120.44
233.711	115.44
233.945	121.44
234.179	111.44
234.413	112.44
234.647	115.44
234.881	108.44
235.115	125.44
235.349	131.44
235.583	119.44
235.817	118.44
236.051	109.44
236.285	123.44
236.519	100.44
236.753	127.44
236.987	123.44
237.221	144.44
237.455	188.44
237.689	149.44
237.922	120.44
238.156	115.44
238.39	126.44
238.624	123.44
238.858	122.44
239.091	122.44
239.325	128.44
239.559	135.44
239.793	115.44
240.027	127.44
240.26	126.44
240.494	139.44
240.728	136.44
240.961	138.44
241.195	137.44
241.429	141.44
241.662	129.44
241.896	130.44
242.13	129.44
242.363	126.44
242.597	131.44
242.83	126.44
243.064	139.44
243.298	136.44
243.531	145.44
243.765	133.44
243.998	142.44
244.232	136.44
244.465	133.44
244.699	144.44
244.932	134.44
245.166	135.44
245.399	144.44
245.633	143.44
245.866	144.44
246.099	155.44
246.333	134.44
246.566	145.44
246.8	168.44
247.033	165.44
247.266	147.44
247.5	154.44
247.733	159.44
247.966	170.44
248.2	160.44
248.433	144.44
248.666	154.44
248.899	170.44
249.133	169.44
249.366	187.44
249.599	175.44
249.832	198.44
250.066	184.44
250.299	176.44
250.532	200.44
250.765	203.44
250.998	195.44
251.231	204.44
251.465	189.44
251.698	189.44
251.931	179.44
252.164	184.44
252.397	176.44
252.63	191.44
252.863	197.44
253.096	195.44
253.329	215.44
253.562	205.44
253.795	194.44
254.028	198.44
254.261	194.44
254.494	213.44
254.727	222.44
254.96	249.44
255.193	221.44
255.426	217.44
255.659	201.44
255.892	227.44
256.124	225.44
256.357	234.44
256.59	227.44
256.823	213.44
257.056	205.44
257.289	221.44
257.521	192.44
257.754	192.44
257.987	196.44
258.22	199.44
258.452	213.44
258.685	206.44
258.918	193.44
259.151	209.44
259.383	207.44
259.616	204.44
259.849	220.44
260.081	222.44
260.314	234.44
260.547	234.44
260.779	232.44
261.012	232.44
261.244	248.44
261.477	236.44
261.71	203.44
261.942	213.44
262.175	212.44
262.407	213.44
262.64	215.44
262.872	198.44
263.105	208.44
263.337	234.44
263.57	221.44
263.802	205.44
264.035	206.44
264.267	229.44
264.499	213.44
264.732	225.44
264.964	202.44
265.197	212.44
265.429	212.44
265.661	206.44
265.894	207.44
266.126	220.44
266.358	232.44
266.591	229.44
266.823	228.44
267.055	224.44
267.287	236.44
267.52	229.44
267.752	219.44
267.984	244.44
268.216	235.44
268.448	236.44
268.681	246.44
268.913	259.44
269.145	254.44
269.377	266.44
269.609	265.44
269.841	267.44
270.073	288.44
270.306	293.44
270.538	291.44
270.77	281.44
271.002	277.44
271.234	297.44
271.466	297.44
271.698	291.44
271.93	291.44
272.162	300.44
272.394	309.44
272.626	275.44
272.858	269.44
273.09	276.44
273.322	275.44
273.553	278.44
273.785	264.44
274.017	261.44
274.249	267.44
274.481	280.44
274.713	255.44
274.945	269.44
275.176	264.44
275.408	265.44
275.64	271.44
275.872	260.44
276.104	265.44
276.335	267.44
276.567	270.44
276.799	276.44
277.031	294.44
277.262	309.44
277.494	302.44
277.726	280.44
277.957	277.44
278.189	284.44
278.421	270.44
278.652	265.44
278.884	290.44
279.115	290.44
279.347	266.44
279.579	273.44
279.81	283.44
280.042	281.44
280.273	280.44
280.505	297.44
280.736	282.44
280.968	278.44
281.199	300.44
281.431	297.44
281.662	283.44
281.894	279.44
282.125	288.44
282.356	299.44
282.588	279.44
282.819	294.44
283.051	282.44
283.282	288.44
283.513	295.44
283.745	307.44
283.976	305.44
284.207	288.44
284.439	291.44
284.67	293.44
284.901	297.44
285.132	291.44
285.364	287.44
285.595	295.44
285.826	289.44
286.057	301.44
286.288	312.44
286.52	302.44
286.751	303.44
286.982	293.44
287.213	290.44
287.444	305.44
287.675	319.44
287.906	295.44
288.138	307.44
288.369	311.44
288.6	306.44
288.831	297.44
289.062	292.44
289.293	300.44
289.524	317.44
289.755	324.44
289.986	309.44
290.217	322.44
290.448	301.44
290.679	294.44
290.91	295.44
291.141	285.44
291.371	298.44
291.602	312.44
291.833	321.44
292.064	327.44
292.295	308.44
292.526	299.44
292.757	289.44
292.987	312.44
293.218	320.44
293.449	317.44
293.68	312.44
293.91	314.44
294.141	304.44
294.372	316.44
294.603	293.44
294.833	313.44
295.064	307.44
295.295	313.44
295.525	321.44
295.756	314.44
295.987	312.44
296.217	326.44
296.448	324.44
296.679	337.44
296.909	309.44
297.14	309.44
297.37	331.44
297.601	318.44
297.831	327.44
298.062	329.44
298.292	327.44
298.523	313.44
298.753	328.44
298.984	310.44
299.214	324.44
299.445	340.44
299.675	334.44
299.905	323.44
300.136	331.44
300.366	323.44
300.597	324.44
300.827	323.44
301.057	332.44
301.288	346.44
301.518	335.44
301.748	343.44
301.979	342.44
302.209	347.44
302.439	364.44
302.669	341.44
302.9	323.44
303.13	353.44
303.36	336.44
303.59	350.44
303.82	340.44
304.051	359.44
304.281	337.44
304.511	343.44
304.741	337.44
304.971	326.44
305.201	349.44
305.431	341.44
305.661	353.44
305.891	347.44
306.121	342.44
306.352	347.44
306.582	352.44
306.812	337.44
307.042	349.44
307.272	338.44
307.502	354.44
307.731	347.44
307.961	348.44
308.191	351.44
308.421	355.44
308.651	359.44
308.881	335.44
309.111	345.44
309.341	349.44
309.571	349.44
309.8	352.44
310.03	368.44
310.26	378.44
310.49	369.44
310.72	387.44
310.949	379.44
311.179	371.44
311.409	377.44
311.639	364.44
311.868	401.44
312.098	375.44
312.328	395.44
312.557	396.44
312.787	374.44
313.017	400.44
313.246	382.44
313.476	367.44
313.706	366.44
313.935	384.44
314.165	397.44
314.394	385.44
314.624	395.44
314.853	378.44
315.083	383.44
315.312	386.44
315.542	387.44
315.771	376.44
316.001	375.44
316.23	388.44
316.46	377.44
316.689	399.44
316.919	363.44
317.148	366.44
317.377	375.44
317.607	373.44
317.836	375.44
318.065	387.44
318.295	389.44
318.524	390.44
318.753	389.44
318.983	382.44
319.212	384.44
319.441	385.44
319.67	384.44
319.9	386.44
320.129	412.44
320.358	377.44
320.587	391.44
320.816	389.44
321.046	382.44
321.275	380.44
321.504	389.44
321.733	391.44
321.962	396.44
322.191	406.44
322.42	391.44
322.649	400.44
322.878	413.44
323.108	401.44
323.337	443.44
323.566	446.44
323.795	450.44
324.024	478.44
324.253	540.44
324.482	695.44
324.71	1030.44
324.939	1369.44
325.168	1185.44
325.397	636.44
325.626	506.44
325.855	453.44
326.084	451.44
326.313	455.44
326.542	461.44
326.77	472.44
326.999	522.44
327.228	664.44
327.457	925.44
327.686	1052.44
327.914	719.44
328.143	543.44
328.372	485.44
328.6	468.44
328.829	478.44
329.058	479.44
329.287	478.44
329.515	465.44
329.744	457.44
329.972	468.44
330.201	480.44
330.43	472.44
330.658	506.44
330.887	498.44
331.115	495.44
331.344	480.44
331.572	471.44
331.801	451.44
332.03	452.44
332.258	451.44
332.486	453.44
332.715	454.44
332.943	453.44
333.172	461.44
333.4	445.44
333.629	477.44
333.857	485.44
334.085	475.44
334.314	518.44
334.542	501.44
334.771	499.44
334.999	486.44
335.227	480.44
335.455	451.44
335.684	458.44
335.912	433.44
336.14	449.44
336.369	446.44
336.597	475.44
336.825	444.44
337.053	412.44
337.281	446.44
337.51	429.44
337.738	448.44
337.966	447.44
338.194	457.44
338.422	436.44
338.65	436.44
338.878	425.44
339.106	419.44
339.334	422.44
339.562	412.44
339.79	422.44
340.018	419.44
340.246	423.44
340.474	416.44
340.702	426.44
340.93	424.44
341.158	414.44
341.386	420.44
341.614	425.44
341.842	417.44
342.07	415.44
342.298	399.44
342.526	409.44
342.754	423.44
342.981	416.44
343.209	427.44
343.437	440.44
343.665	441.44
343.893	463.44
344.12	469.44
344.348	446.44
344.576	419.44
344.804	420.44
345.031	437.44
345.259	435.44
345.487	421.44
345.714	406.44
345.942	421.44
346.17	402.44
346.397	407.44
346.625	410.44
346.853	399.44
347.08	399.44
347.308	398.44
347.535	411.44
347.763	383.44
347.99	400.44
348.218	395.44
348.445	409.44
348.673	382.44
348.9	402.44
349.128	405.44
349.355	405.44
349.583	390.44
349.81	385.44
350.037	375.44
350.265	365.44
350.492	394.44
350.72	393.44
350.947	383.44
351.174	390.44
351.402	401.44
351.629	387.44
351.856	392.44
352.083	410.44
352.311	406.44
352.538	399.44
352.765	368.44
352.992	391.44
353.22	398.44
353.447	374.44
353.674	384.44
353.901	388.44
354.128	373.44
354.355	380.44
354.583	413.44
354.81	395.44
355.037	397.44
355.264	390.44
355.491	373.44
355.718	361.44
355.945	379.44
356.172	364.44
356.399	377.44
356.626	379.44
356.853	394.44
357.08	379.44
357.307	385.44
357.534	388.44
357.761	382.44
357.988	376.44
358.215	380.44
358.441	378.44
358.668	360.44
358.895	376.44
359.122	371.44
359.349	375.44
359.576	387.44
359.802	375.44
360.029	408.44
360.256	409.44
360.483	393.44
360.709	405.44
360.936	389.44
361.163	380.44
361.39	402.44
361.616	399.44
361.843	385.44
362.07	384.44
362.296	391.44
362.523	373.44
362.749	383.44
362.976	381.44
363.203	372.44
363.429	375.44
363.656	369.44
363.882	365.44
364.109	384.44
364.335	387.44
364.562	363.44
364.788	386.44
365.015	372.44
365.241	365.44
365.468	367.44
365.694	362.44
365.92	377.44
366.147	371.44
366.373	389.44
366.599	379.44
366.826	391.44
367.052	384.44
367.278	367.44
367.505	366.44
367.731	375.44
367.957	359.44
368.184	387.44
368.41	359.44
368.636	379.44
368.862	396.44
369.089	391.44
369.315	371.44
369.541	378.44
369.767	387.44
369.993	356.44
370.219	364.44
370.445	388.44
370.672	398.44
370.898	369.44
371.124	360.44
371.35	374.44
371.576	379.44
371.802	393.44
372.028	371.44
372.254	358.44
372.48	375.44
372.706	381.44
372.932	398.44
373.158	394.44
373.384	379.44
373.61	381.44
373.835	388.44
374.061	387.44
374.287	396.44
374.513	401.44
374.739	384.44
374.965	417.44
375.191	386.44
375.416	392.44
375.642	416.44
375.868	396.44
376.094	385.44
376.319	389.44
376.545	377.44
376.771	371.44
376.997	389.44
377.222	376.44
377.448	377.44
377.674	374.44
377.899	367.44
378.125	348.44
378.35	390.44
378.576	371.44
378.802	358.44
379.027	370.44
379.253	375.44
379.478	359.44
379.704	381.44
379.929	377.44
380.155	374.44
380.38	382.44
380.606	371.44
380.831	385.44
381.057	379.44
381.282	366.44
381.507	391.44
381.733	390.44
381.958	391.44
382.184	373.44
382.409	356.44
382.634	363.44
382.86	371.44
383.085	368.44
383.31	393.44
383.535	389.44
383.761	388.44
383.986	388.44
384.211	398.44
384.436	378.44
384.662	404.44
384.887	389.44
385.112	400.44
385.337	387.44
385.562	393.44
385.787	416.44
386.013	427.44
386.238	418.44
386.463	413.44
386.688	415.44
386.913	401.44
387.138	400.44
387.363	396.44
387.588	393.44
387.813	395.44
388.038	423.44
388.263	392.44
388.488	422.44
388.713	422.44
388.938	422.44
389.163	405.44
389.387	400.44
389.612	405.44
389.837	415.44
390.062	397.44
390.287	398.44
390.512	395.44
390.736	406.44
390.961	408.44
391.186	406.44
391.411	420.44
391.636	407.44
391.86	439.44
392.085	435.44
392.31	429.44
392.534	417.44
392.759	421.44
392.984	407.44
393.208	408.44
393.433	413.44
393.658	414.44
393.882	413.44
394.107	392.44
394.331	406.44
394.556	407.44
394.78	423.44
395.005	416.44
395.229	415.44
395.454	424.44
395.678	407.44
395.903	419.44
396.127	440.44
396.352	423.44
396.576	431.44
396.801	420.44
397.025	423.44
397.249	420.44
397.474	411.44
397.698	427.44
397.922	446.44
398.147	451.44
398.371	452.44
398.595	434.44
398.82	448.44
399.044	463.44
399.268	508.44
399.492	517.44
399.717	544.44
399.941	576.44
400.165	587.44
400.389	571.44
400.613	521.44
400.837	494.44
401.062	483.44
401.286	477.44
401.51	464.44
401.734	465.44
401.958	483.44
402.182	468.44
402.406	472.44
402.63	485.44
402.854	469.44
403.078	479.44
403.302	487.44
403.526	495.44
403.75	484.44
403.974	484.44
404.198	478.44
404.422	490.44
404.645	494.44
404.869	485.44
405.093	488.44
405.317	533.44
405.541	567.44
405.765	497.44
405.988	482.44
406.212	501.44
406.436	527.44
406.66	510.44
406.883	507.44
407.107	508.44
407.331	551.44
407.555	573.44
407.778	596.44
408.002	548.44
408.226	522.44
408.449	488.44
408.673	525.44
408.896	495.44
409.12	567.44
409.344	530.44
409.567	486.44
409.791	501.44
410.014	469.44
410.238	460.44
410.461	487.44
410.685	492.44
410.908	492.44
411.132	482.44
411.355	516.44
411.578	495.44
411.802	483.44
412.025	452.44
412.249	465.44
412.472	483.44
412.695	499.44
412.919	502.44
413.142	473.44
413.365	457.44
413.589	460.44
413.812	462.44
414.035	453.44
414.258	447.44
414.482	442.44
414.705	442.44
414.928	428.44
415.151	435.44
415.374	454.44
415.597	457.44
415.821	440.44
416.044	442.44
416.267	433.44
416.49	426.44
416.713	444.44
416.936	441.44
417.159	451.44
417.382	445.44
417.605	437.44
417.828	466.44
418.051	441.44
418.274	440.44
418.497	448.44
418.72	417.44
418.943	428.44
419.166	444.44
419.389	467.44
419.611	464.44
419.834	468.44
420.057	464.44
420.28	475.44
420.503	476.44
420.726	464.44
420.948	486.44
421.171	459.44
421.394	531.44
421.617	449.44
421.839	439.44
422.062	442.44
422.285	471.44
422.507	487.44
422.73	555.44
422.953	497.44
423.175	475.44
423.398	476.44
423.621	454.44
423.843	457.44
424.066	494.44
424.288	459.44
424.511	481.44
424.733	504.44
424.956	557.44
425.178	533.44
425.401	525.44
425.623	554.44
425.846	489.44
426.068	446.44
426.291	448.44
426.513	470.44
426.735	472.44
426.958	495.44
427.18	559.44
427.402	644.44
427.625	669.44
427.847	573.44
428.069	521.44
428.292	502.44
428.514	470.44
428.736	431.44
428.958	444.44
429.181	437.44
429.403	450.44
429.625	440.44
429.847	468.44
430.069	492.44
430.292	480.44
430.514	429.44
430.736	439.44
430.958	421.44
431.18	395.44
431.402	405.44
431.624	408.44
431.846	426.44
432.068	413.44
432.29	400.44
432.512	393.44
432.734	417.44
432.956	428.44
433.178	413.44
433.4	412.44
433.622	420.44
433.844	408.44
434.066	420.44
434.287	408.44
434.509	422.44
434.731	439.44
434.953	454.44
435.175	453.44
435.397	460.44
435.618	456.44
435.84	478.44
436.062	529.44
436.284	594.44
436.505	502.44
436.727	459.44
436.949	425.44
437.17	402.44
437.392	412.44
437.614	425.44
437.835	451.44
438.057	503.44
438.278	559.44
438.5	564.44
438.721	620.44
438.943	591.44
439.165	496.44
439.386	450.44
439.608	440.44
439.829	443.44
440.05	459.44
440.272	476.44
440.493	489.44
440.715	441.44
440.936	440.44
441.158	416.44
441.379	420.44
441.6	443.44
441.822	451.44
442.043	472.44
442.264	549.44
442.486	551.44
442.707	485.44
442.928	459.44
443.149	454.44
443.371	476.44
443.592	492.44
443.813	573.44
444.034	605.44
444.255	521.44
444.476	489.44
444.698	476.44
444.919	461.44
445.14	588.44
445.361	510.44
445.582	478.44
445.803	529.44
446.024	589.44
446.245	582.44
446.466	531.44
446.687	487.44
446.908	442.44
447.129	445.44
447.35	420.44
447.571	420.44
447.792	405.44
448.013	422.44
448.234	441.44
448.455	440.44
448.675	532.44
448.896	597.44
449.117	536.44
449.338	515.44
449.559	578.44
449.779	633.44
450	518.44
450.221	453.44
450.442	421.44
450.662	394.44
450.883	400.44
451.104	402.44
451.324	392.44
451.545	387.44
451.766	393.44
451.986	380.44
452.207	389.44
452.428	356.44
452.648	377.44
452.869	383.44
453.089	373.44
453.31	395.44
453.53	387.44
453.751	389.44
453.971	368.44
454.192	381.44
454.412	357.44
454.633	386.44
454.853	360.44
455.073	347.44
455.294	379.44
455.514	447.44
455.734	413.44
455.955	392.44
456.175	374.44
456.395	352.44
456.616	368.44
456.836	360.44
457.056	371.44
457.276	361.44
457.497	348.44
457.717	356.44
457.937	361.44
458.157	358.44
458.377	383.44
458.598	384.44
458.818	401.44
459.038	426.44
459.258	468.44
459.478	425.44
459.698	410.44
459.918	408.44
460.138	411.44
460.358	417.44
460.578	430.44
460.798	414.44
461.018	430.44
461.238	414.44
461.458	416.44
461.678	435.44
461.898	433.44
462.118	459.44
462.338	439.44
462.558	447.44
462.777	464.44
462.997	477.44
463.217	471.44
463.437	462.44
463.657	457.44
463.876	451.44
464.096	460.44
464.316	433.44
464.536	449.44
464.755	456.44
464.975	441.44
465.195	447.44
465.414	468.44
465.634	425.44
465.854	393.44
466.073	400.44
466.293	414.44
466.512	400.44
466.732	389.44
466.951	382.44
467.171	394.44
467.391	388.44
467.61	396.44
467.829	406.44
468.049	391.44
468.268	387.44
468.488	378.44
468.707	374.44
468.927	389.44
469.146	383.44
469.365	394.44
469.585	384.44
469.804	390.44
470.023	388.44
470.243	401.44
470.462	409.44
470.681	395.44
470.901	413.44
471.12	396.44
471.339	397.44
471.558	380.44
471.777	407.44
471.997	385.44
472.216	397.44
472.435	404.44
472.654	397.44
472.873	377.44
473.092	406.44
473.311	396.44
473.53	391.44
473.749	401.44
473.968	413.44
474.187	493.44
474.406	473.44
474.625	413.44
474.844	408.44
475.063	386.44
475.282	399.44
475.501	412.44
475.72	387.44
475.939	391.44
476.158	385.44
476.377	406.44
476.596	389.44
476.814	401.44
477.033	412.44
477.252	399.44
477.471	414.44
477.69	437.44
477.908	421.44
478.127	438.44
478.346	427.44
478.564	440.44
478.783	445.44
479.002	463.44
479.22	453.44
479.439	473.44
479.658	487.44
479.876	480.44
480.095	481.44
480.313	505.44
480.532	487.44
480.751	495.44
480.969	490.44
481.188	514.44
481.406	499.44
481.624	490.44
481.843	461.44
482.061	471.44
482.28	459.44
482.498	449.44
482.717	440.44
482.935	459.44
483.153	437.44
483.372	440.44
483.59	457.44
483.808	447.44
484.027	432.44
484.245	464.44
484.463	455.44
484.681	452.44
484.9	459.44
485.118	463.44
485.336	467.44
485.554	461.44
485.772	440.44
485.99	453.44
486.209	488.44
486.427	501.44
486.645	495.44
486.863	493.44
487.081	503.44
487.299	492.44
487.517	477.44
487.735	471.44
487.953	487.44
488.171	488.44
488.389	489.44
488.607	464.44
488.825	473.44
489.043	480.44
489.261	478.44
489.479	489.44
489.696	459.44
489.914	496.44
490.132	496.44
490.35	487.44
490.568	493.44
490.786	518.44
491.003	519.44
491.221	536.44
491.439	530.44
491.657	526.44
491.874	529.44
492.092	523.44
492.31	529.44
492.527	530.44
492.745	541.44
492.963	547.44
493.18	534.44
493.398	541.44
493.615	547.44
493.833	547.44
494.05	573.44
494.268	549.44
494.485	539.44
494.703	549.44
494.92	549.44
495.138	552.44
495.355	579.44
495.573	553.44
495.79	549.44
496.008	553.44
496.225	538.44
496.442	553.44
496.66	549.44
496.877	574.44
497.094	557.44
497.312	588.44
497.529	567.44
497.746	587.44
497.963	600.44
498.181	597.44
498.398	621.44
498.615	650.44
498.832	624.44
499.049	666.44
499.267	688.44
499.484	719.44
499.701	743.44
499.918	788.44
500.135	810.44
500.352	842.44
500.569	883.44
500.786	880.44
501.003	852.44
501.22	823.44
501.437	785.44
501.654	787.44
501.871	742.44
502.088	725.44
502.305	654.44
502.522	638.44
502.739	641.44
502.956	614.44
503.172	620.44
503.389	604.44
503.606	588.44
503.823	589.44
504.04	569.44
504.256	566.44
504.473	593.44
504.69	577.44
504.907	572.44
505.123	559.44
505.34	534.44
505.557	538.44
505.773	530.44
505.99	519.44
506.207	523.44
506.423	531.44
506.64	509.44
506.856	513.44
507.073	510.44
507.289	513.44
507.506	506.44
507.722	500.44
507.939	502.44
508.155	488.44
508.372	489.44
508.588	475.44
508.805	486.44
509.021	479.44
509.238	489.44
509.454	497.44
509.67	501.44
509.887	495.44
510.103	492.44
510.319	485.44
510.536	523.44
510.752	711.44
510.968	580.44
511.184	479.44
511.401	460.44
511.617	479.44
511.833	459.44
512.049	462.44
512.265	458.44
512.481	475.44
512.698	454.44
512.914	448.44
513.13	473.44
513.346	436.44
513.562	464.44
513.778	473.44
513.994	456.44
514.21	468.44
514.426	457.44
514.642	482.44
514.858	502.44
515.074	529.44
515.29	558.44
515.506	681.44
515.721	620.44
515.937	540.44
516.153	494.44
516.369	468.44
516.585	482.44
516.801	477.44
517.016	479.44
517.232	493.44
517.448	484.44
517.664	511.44
517.879	479.44
518.095	503.44
518.311	494.44
518.527	475.44
518.742	494.44
518.958	458.44
519.173	492.44
519.389	463.44
519.605	471.44
519.82	456.44
520.036	480.44
520.251	480.44
520.467	463.44
520.682	471.44
520.898	461.44
521.113	461.44
521.329	488.44
521.544	513.44
521.76	590.44
521.975	803.44
522.19	782.44
522.406	547.44
522.621	473.44
522.836	438.44
523.052	414.44
523.267	438.44
523.482	412.44
523.698	433.44
523.913	399.44
524.128	402.44
524.343	422.44
524.559	418.44
524.774	401.44
524.989	413.44
525.204	414.44
525.419	400.44
525.634	400.44
525.849	413.44
526.064	380.44
526.28	380.44
526.495	392.44
526.71	390.44
526.925	405.44
527.14	390.44
527.355	409.44
527.57	391.44
527.785	392.44
527.999	407.44
528.214	381.44
528.429	391.44
528.644	394.44
528.859	391.44
529.074	400.44
529.289	379.44
529.503	417.44
529.718	426.44
529.933	408.44
530.148	399.44
530.363	383.44
530.577	374.44
530.792	376.44
531.007	372.44
531.221	408.44
531.436	389.44
531.651	375.44
531.865	391.44
532.08	389.44
532.295	394.44
532.509	364.44
532.724	384.44
532.938	385.44
533.153	376.44
533.367	381.44
533.582	377.44
533.796	390.44
534.011	401.44
534.225	388.44
534.44	387.44
534.654	381.44
534.868	361.44
535.083	371.44
535.297	375.44
535.511	357.44
535.726	383.44
535.94	389.44
536.154	360.44
536.369	368.44
536.583	367.44
536.797	355.44
537.011	371.44
537.225	353.44
537.44	368.44
537.654	375.44
537.868	369.44
538.082	365.44
538.296	352.44
538.51	363.44
538.724	374.44
538.938	373.44
539.153	368.44
539.367	367.44
539.581	368.44
539.795	368.44
540.009	355.44
540.222	368.44
540.436	352.44
540.65	388.44
540.864	378.44
541.078	373.44
541.292	364.44
541.506	365.44
541.72	365.44
541.934	355.44
542.147	357.44
542.361	368.44
542.575	337.44
542.789	356.44
543.002	360.44
543.216	350.44
543.43	361.44
543.644	375.44
543.857	345.44
544.071	360.44
544.285	374.44
544.498	362.44
544.712	365.44
544.925	362.44
545.139	356.44
545.352	347.44
545.566	366.44
545.779	365.44
545.993	340.44
546.206	349.44
546.42	374.44
546.633	349.44
546.847	353.44
547.06	360.44
547.274	360.44
547.487	366.44
547.7	337.44
547.914	349.44
548.127	365.44
548.34	332.44
548.554	359.44
548.767	350.44
548.98	362.44
549.193	356.44
549.407	359.44
549.62	363.44
549.833	352.44
550.046	366.44
550.259	351.44
550.473	363.44
550.686	344.44
550.899	346.44
551.112	348.44
551.325	328.44
551.538	347.44
551.751	368.44
551.964	336.44
552.177	362.44
552.39	366.44
552.603	361.44
552.816	378.44
553.029	349.44
553.242	359.44
553.455	355.44
553.667	348.44
553.88	372.44
554.093	365.44
554.306	365.44
554.519	377.44
554.732	374.44
554.944	349.44
555.157	346.44
555.37	345.44
555.583	354.44
555.795	329.44
556.008	327.44
556.221	307.44
556.433	344.44
556.646	329.44
556.859	315.44
557.071	316.44
557.284	318.44
557.496	310.44
557.709	316.44
557.921	322.44
558.134	323.44
558.346	329.44
558.559	319.44
558.771	343.44
558.984	321.44
559.196	308.44
559.409	320.44
559.621	321.44
559.833	308.44
560.046	309.44
560.258	311.44
560.47	318.44
560.683	315.44
560.895	316.44
561.107	311.44
561.32	324.44
561.532	318.44
561.744	335.44
561.956	336.44
562.168	310.44
562.381	302.44
562.593	309.44
562.805	321.44
563.017	334.44
563.229	315.44
563.441	341.44
563.653	314.44
563.865	318.44
564.077	301.44
564.289	327.44
564.501	339.44
564.713	326.44
564.925	323.44
565.137	338.44
565.349	351.44
565.561	344.44
565.773	334.44
565.985	343.44
566.197	359.44
566.408	399.44
566.62	389.44
566.832	411.44
567.044	396.44
567.255	408.44
567.467	397.44
567.679	420.44
567.891	449.44
568.102	435.44
568.314	428.44
568.526	400.44
568.737	376.44
568.949	361.44
569.161	328.44
569.372	329.44
569.584	329.44
569.795	336.44
570.007	325.44
570.218	337.44
570.43	326.44
570.641	309.44
570.853	308.44
571.064	302.44
571.276	317.44
571.487	299.44
571.698	297.44
571.91	311.44
572.121	295.44
572.333	298.44
572.544	284.44
572.755	288.44
572.966	265.44
573.178	295.44
573.389	299.44
573.6	272.44
573.811	289.44
574.023	267.44
574.234	268.44
574.445	262.44
574.656	268.44
574.867	270.44
575.078	282.44
575.289	278.44
575.501	275.44
575.712	269.44
575.923	278.44
576.134	255.44
576.345	283.44
576.556	269.44
576.767	272.44
576.978	262.44
577.188	264.44
577.399	265.44
577.61	255.44
577.821	248.44
578.032	252.44
578.243	290.44
578.454	352.44
578.665	296.44
578.875	249.44
579.086	267.44
579.297	267.44
579.508	236.44
579.718	255.44
579.929	249.44
580.14	229.44
580.35	254.44
580.561	272.44
580.772	256.44
580.982	258.44
581.193	253.44
581.403	252.44
581.614	249.44
581.825	256.44
582.035	243.44
582.246	232.44
582.456	252.44
582.667	250.44
582.877	261.44
583.087	234.44
583.298	251.44
583.508	248.44
583.719	237.44
583.929	248.44
584.139	256.44
584.35	236.44
584.56	244.44
584.77	231.44
584.981	244.44
585.191	234.44
585.401	220.44
585.611	245.44
585.821	267.44
586.032	232.44
586.242	261.44
586.452	234.44
586.662	247.44
586.872	243.44
587.082	233.44
587.292	230.44
587.502	249.44
587.713	248.44
587.923	243.44
588.133	230.44
588.343	237.44
588.553	228.44
588.762	245.44
588.972	242.44
589.182	265.44
589.392	279.44
589.602	247.44
589.812	257.44
590.022	240.44
590.232	244.44
590.441	257.44
590.651	248.44
590.861	232.44
591.071	251.44
591.281	244.44
591.49	243.44
591.7	261.44
591.91	244.44
592.119	257.44
592.329	264.44
592.539	253.44
592.748	263.44
592.958	251.44
593.167	260.44
593.377	251.44
593.587	271.44
593.796	273.44
594.006	268.44
594.215	262.44
594.424	272.44
594.634	271.44
594.843	262.44
595.053	255.44
595.262	262.44
595.472	263.44
595.681	251.44
595.89	237.44
596.1	246.44
596.309	236.44
596.518	227.44
596.727	222.44
596.937	249.44
597.146	234.44
597.355	239.44
597.564	216.44
597.774	223.44
597.983	240.44
598.192	232.44
598.401	227.44
598.61	226.44
598.819	222.44
599.028	231.44
599.237	228.44
599.446	232.44
599.655	223.44
599.864	228.44
600.073	209.44
600.282	230.44
600.491	203.44
600.7	218.44
600.909	214.44
601.118	208.44
601.327	218.44
601.536	224.44
601.745	222.44
601.953	209.44
602.162	201.44
602.371	221.44
602.58	209.44
602.789	209.44
602.997	204.44
603.206	212.44
603.415	215.44
603.623	210.44
603.832	211.44
604.041	199.44
604.249	195.44
604.458	190.44
604.666	202.44
604.875	205.44
605.084	204.44
605.292	198.44
605.501	209.44
605.709	205.44
605.918	181.44
606.126	203.44
606.334	213.44
606.543	216.44
606.751	213.44
606.96	193.44
607.168	197.44
607.376	194.44
607.585	206.44
607.793	219.44
608.001	200.44
608.21	217.44
608.418	206.44
608.626	189.44
608.834	207.44
609.043	208.44
609.251	201.44
609.459	199.44
609.667	207.44
609.875	187.44
610.083	199.44
610.291	197.44
610.499	210.44
610.707	189.44
610.916	211.44
611.124	212.44
611.332	214.44
611.54	208.44
611.748	188.44
611.955	205.44
612.163	204.44
612.371	185.44
612.579	206.44
612.787	182.44
612.995	189.44
613.203	208.44
613.411	202.44
613.618	196.44
613.826	203.44
614.034	189.44
614.242	197.44
614.449	190.44
614.657	211.44
614.865	190.44
615.072	203.44
615.28	199.44
615.488	179.44
615.695	188.44
615.903	203.44
616.111	189.44
616.318	203.44
616.526	191.44
616.733	201.44
616.941	211.44
617.148	195.44
617.356	204.44
617.563	203.44
617.771	199.44
617.978	171.44
618.185	202.44
618.393	195.44
618.6	196.44
618.807	188.44
619.015	210.44
619.222	174.44
619.429	183.44
619.637	183.44
619.844	197.44
620.051	183.44
620.258	183.44
620.466	205.44
620.673	183.44
620.88	196.44
621.087	179.44
621.294	208.44
621.501	179.44
621.708	186.44
621.915	170.44
622.122	189.44
622.329	191.44
622.536	183.44
622.743	184.44
622.95	166.44
623.157	174.44
623.364	189.44
623.571	183.44
623.778	177.44
623.985	193.44
624.192	190.44
624.399	170.44
624.606	179.44
624.812	183.44
625.019	163.44
625.226	183.44
625.433	184.44
625.639	168.44
625.846	168.44
626.053	168.44
626.259	173.44
626.466	180.44
626.673	171.44
626.879	173.44
627.086	166.44
627.293	175.44
627.499	171.44
627.706	176.44
627.912	175.44
628.119	180.44
628.325	171.44
628.532	167.44
628.738	160.44
628.945	168.44
629.151	163.44
629.357	170.44
629.564	187.44
629.77	170.44
629.976	168.44
630.183	182.44
630.389	172.44
630.595	168.44
630.802	165.44
631.008	167.44
631.214	164.44
631.42	166.44
631.627	163.44
631.833	168.44
632.039	173.44
632.245	154.44
632.451	157.44
632.657	157.44
632.863	152.44
633.069	161.44
633.275	170.44
633.481	156.44
633.688	159.44
633.893	163.44
634.099	151.44
634.305	156.44
634.511	156.44
634.717	159.44
634.923	160.44
635.129	171.44
635.335	169.44
635.541	162.44
635.747	153.44
635.952	155.44
636.158	153.44
636.364	171.44
636.57	153.44
636.775	138.44
636.981	154.44
637.187	160.44
637.392	151.44
637.598	148.44
637.804	167.44
638.009	157.44
638.215	162.44
638.421	143.44
638.626	147.44
638.832	142.44
639.037	158.44
639.243	153.44
639.448	156.44
639.654	159.44
639.859	161.44
640.065	166.44
640.27	151.44
640.475	146.44
640.681	150.44
640.886	168.44
641.091	158.44
641.297	152.44
641.502	149.44
641.707	163.44
641.913	157.44
642.118	150.44
642.323	141.44
642.528	150.44
642.733	149.44
642.939	144.44
643.144	135.44
643.349	142.44
643.554	157.44
643.759	133.44
643.964	148.44
644.169	155.44
644.374	150.44
644.579	121.44
644.784	142.44
644.989	149.44
645.194	151.44
645.399	165.44
645.604	129.44
645.809	144.44
646.014	165.44
646.219	150.44
646.423	150.44
646.628	149.44
646.833	146.44
647.038	155.44
647.243	167.44
647.447	159.44
647.652	160.44
647.857	152.44
648.062	156.44
648.266	149.44
648.471	152.44
648.676	152.44
648.88	148.44
649.085	146.44
649.289	145.44
649.494	165.44
649.698	163.44
649.903	165.44
650.107	151.44
650.312	143.44
650.516	136.44
650.721	147.44
650.925	121.44
651.13	144.44
651.334	136.44
651.539	120.44
651.743	134.44
651.947	145.44
652.152	136.44
652.356	131.44
652.56	138.44
652.764	131.44
652.969	133.44
653.173	143.44
653.377	126.44
653.581	125.44
653.785	135.44
653.99	114.44
654.194	129.44
654.398	133.44
654.602	139.44
654.806	133.44
655.01	135.44
655.214	123.44
655.418	133.44
655.622	121.44
655.826	107.44
656.03	118.44
656.234	137.44
656.438	136.44
656.642	130.44
656.846	116.44
657.049	127.44
657.253	126.44
657.457	106.44
657.661	111.44
657.865	113.44
658.068	117.44
658.272	113.44
658.476	101.44
658.68	93.44
658.883	103.44
659.087	102.44
659.291	111.44
659.494	98.44
659.698	104.44
659.901	97.44
660.105	105.44
660.309	95.44
660.512	108.44
660.716	83.44
660.919	96.44
661.123	102.44
661.326	78.44
661.53	95.44
661.733	93.44
661.936	96.44
662.14	99.44
662.343	95.44
662.546	85.44
662.75	89.44
662.953	86.44
663.156	76.44
663.36	104.44
663.563	77.44
663.766	84.44
663.969	91.44
664.173	88.44
664.376	92.44
664.579	80.44
664.782	89.44
664.985	76.44
665.188	96.44
665.391	88.44
665.594	93.44
665.797	92.44
666	85.44
666.203	99.44
666.406	79.44
666.609	81.44
666.812	87.44
667.015	91.44
667.218	92.44
667.421	75.44
667.624	100.44
667.827	94.44
668.03	79.44
668.232	104.44
668.435	85.44
668.638	88.44
668.841	81.44
669.043	82.44
669.246	75.44
669.449	80.44
669.651	87.44
669.854	80.44
670.057	79.44
670.259	94.44
670.462	87.44
670.665	99.44
670.867	82.44
671.07	82.44
671.272	86.44
671.475	84.44
671.677	76.44
671.88	84.44
672.082	88.44
672.284	102.44
672.487	87.44
672.689	82.44
672.892	80.44
