Data from 1964.PennyLincolnUp.Lamp.En5.5.200Scan.071719.P1._HRD10591_14-06-05-909.txt Node
Date: Thu Jul 18 14:06:05 EDT 2019
User: cochatt
Spectrometer: HR+D1059
Trigger mode: 1
Integration Time (sec): 1.000000E-1
Scans to average: 1
Electric dark correction enabled: true
Nonlinearity correction enabled: false
Boxcar width: 0
XAxis mode: Wavelengths
Number of Pixels in Spectrum: 2048
>>>>>Begin Spectral Data<<<<<
223.165	-20.69
223.4	-20.69
223.635	-20.69
223.869	-16.69
224.104	-11.69
224.338	-15.69
224.573	-12.69
224.808	-2.69
225.042	-4.69
225.277	-11.69
225.511	-7.69
225.746	7.31
225.98	6.31
226.215	3.31
226.449	14.31
226.683	24.31
226.918	21.31
227.152	27.31
227.387	31.31
227.621	44.31
227.856	48.31
228.09	46.31
228.324	51.31
228.559	62.31
228.793	83.31
229.027	90.31
229.262	96.31
229.496	98.31
229.73	103.31
229.964	128.31
230.199	119.31
230.433	122.31
230.667	100.31
230.901	101.31
231.136	101.31
231.37	105.31
231.604	120.31
231.838	112.31
232.072	114.31
232.306	121.31
232.541	115.31
232.775	107.31
233.009	114.31
233.243	114.31
233.477	119.31
233.711	104.31
233.945	106.31
234.179	114.31
234.413	115.31
234.647	117.31
234.881	103.31
235.115	120.31
235.349	124.31
235.583	115.31
235.817	134.31
236.051	122.31
236.285	108.31
236.519	104.31
236.753	130.31
236.987	128.31
237.221	162.31
237.455	195.31
237.689	171.31
237.922	137.31
238.156	117.31
238.39	126.31
238.624	126.31
238.858	117.31
239.091	122.31
239.325	121.31
239.559	145.31
239.793	143.31
240.027	126.31
240.26	143.31
240.494	158.31
240.728	140.31
240.961	142.31
241.195	130.31
241.429	138.31
241.662	129.31
241.896	141.31
242.13	133.31
242.363	141.31
242.597	135.31
242.83	148.31
243.064	124.31
243.298	130.31
243.531	140.31
243.765	152.31
243.998	130.31
244.232	133.31
244.465	153.31
244.699	155.31
244.932	138.31
245.166	159.31
245.399	148.31
245.633	150.31
245.866	146.31
246.099	137.31
246.333	162.31
246.566	168.31
246.8	160.31
247.033	162.31
247.266	169.31
247.5	162.31
247.733	180.31
247.966	165.31
248.2	166.31
248.433	186.31
248.666	174.31
248.899	186.31
249.133	205.31
249.366	193.31
249.599	198.31
249.832	180.31
250.066	187.31
250.299	199.31
250.532	198.31
250.765	213.31
250.998	211.31
251.231	226.31
251.465	228.31
251.698	182.31
251.931	198.31
252.164	211.31
252.397	195.31
252.63	202.31
252.863	216.31
253.096	223.31
253.329	215.31
253.562	220.31
253.795	230.31
254.028	223.31
254.261	213.31
254.494	241.31
254.727	258.31
254.96	269.31
255.193	278.31
255.426	236.31
255.659	230.31
255.892	251.31
256.124	233.31
256.357	238.31
256.59	242.31
256.823	220.31
257.056	233.31
257.289	214.31
257.521	207.31
257.754	219.31
257.987	224.31
258.22	223.31
258.452	243.31
258.685	227.31
258.918	214.31
259.151	220.31
259.383	214.31
259.616	220.31
259.849	225.31
260.081	246.31
260.314	260.31
260.547	261.31
260.779	236.31
261.012	236.31
261.244	246.31
261.477	230.31
261.71	241.31
261.942	245.31
262.175	233.31
262.407	225.31
262.64	223.31
262.872	231.31
263.105	218.31
263.337	231.31
263.57	222.31
263.802	225.31
264.035	228.31
264.267	225.31
264.499	244.31
264.732	217.31
264.964	220.31
265.197	200.31
265.429	218.31
265.661	215.31
265.894	241.31
266.126	222.31
266.358	226.31
266.591	225.31
266.823	227.31
267.055	255.31
267.287	225.31
267.52	245.31
267.752	236.31
267.984	237.31
268.216	262.31
268.448	249.31
268.681	259.31
268.913	252.31
269.145	276.31
269.377	294.31
269.609	270.31
269.841	291.31
270.073	280.31
270.306	290.31
270.538	328.31
270.77	324.31
271.002	310.31
271.234	298.31
271.466	296.31
271.698	321.31
271.93	308.31
272.162	337.31
272.394	323.31
272.626	299.31
272.858	293.31
273.09	319.31
273.322	286.31
273.553	270.31
273.785	287.31
274.017	288.31
274.249	286.31
274.481	295.31
274.713	260.31
274.945	292.31
275.176	269.31
275.408	280.31
275.64	288.31
275.872	284.31
276.104	300.31
276.335	305.31
276.567	305.31
276.799	318.31
277.031	317.31
277.262	358.31
277.494	328.31
277.726	316.31
277.957	327.31
278.189	289.31
278.421	291.31
278.652	306.31
278.884	302.31
279.115	297.31
279.347	293.31
279.579	288.31
279.81	294.31
280.042	304.31
280.273	304.31
280.505	305.31
280.736	294.31
280.968	286.31
281.199	305.31
281.431	301.31
281.662	308.31
281.894	306.31
282.125	314.31
282.356	307.31
282.588	327.31
282.819	331.31
283.051	307.31
283.282	292.31
283.513	306.31
283.745	320.31
283.976	315.31
284.207	320.31
284.439	307.31
284.67	316.31
284.901	325.31
285.132	307.31
285.364	301.31
285.595	308.31
285.826	289.31
286.057	312.31
286.288	312.31
286.52	329.31
286.751	315.31
286.982	309.31
287.213	313.31
287.444	305.31
287.675	322.31
287.906	339.31
288.138	333.31
288.369	333.31
288.6	334.31
288.831	327.31
289.062	317.31
289.293	341.31
289.524	313.31
289.755	321.31
289.986	314.31
290.217	308.31
290.448	325.31
290.679	308.31
290.91	335.31
291.141	334.31
291.371	308.31
291.602	318.31
291.833	313.31
292.064	325.31
292.295	320.31
292.526	337.31
292.757	321.31
292.987	330.31
293.218	304.31
293.449	341.31
293.68	323.31
293.91	316.31
294.141	321.31
294.372	326.31
294.603	332.31
294.833	341.31
295.064	336.31
295.295	319.31
295.525	339.31
295.756	331.31
295.987	328.31
296.217	351.31
296.448	343.31
296.679	352.31
296.909	339.31
297.14	326.31
297.37	337.31
297.601	347.31
297.831	322.31
298.062	342.31
298.292	342.31
298.523	346.31
298.753	352.31
298.984	340.31
299.214	355.31
299.445	332.31
299.675	350.31
299.905	363.31
300.136	346.31
300.366	354.31
300.597	345.31
300.827	333.31
301.057	349.31
301.288	364.31
301.518	365.31
301.748	388.31
301.979	380.31
302.209	371.31
302.439	374.31
302.669	354.31
302.9	366.31
303.13	370.31
303.36	353.31
303.59	372.31
303.82	356.31
304.051	370.31
304.281	368.31
304.511	376.31
304.741	363.31
304.971	364.31
305.201	370.31
305.431	363.31
305.661	373.31
305.891	349.31
306.121	360.31
306.352	363.31
306.582	365.31
306.812	364.31
307.042	365.31
307.272	367.31
307.502	363.31
307.731	363.31
307.961	372.31
308.191	376.31
308.421	382.31
308.651	385.31
308.881	363.31
309.111	390.31
309.341	380.31
309.571	397.31
309.8	399.31
310.03	388.31
310.26	391.31
310.49	401.31
310.72	402.31
310.949	404.31
311.179	397.31
311.409	409.31
311.639	400.31
311.868	407.31
312.098	394.31
312.328	407.31
312.557	387.31
312.787	414.31
313.017	412.31
313.246	415.31
313.476	411.31
313.706	411.31
313.935	425.31
314.165	407.31
314.394	427.31
314.624	424.31
314.853	400.31
315.083	418.31
315.312	434.31
315.542	410.31
315.771	402.31
316.001	385.31
316.23	406.31
316.46	414.31
316.689	389.31
316.919	424.31
317.148	417.31
317.377	428.31
317.607	429.31
317.836	407.31
318.065	396.31
318.295	399.31
318.524	410.31
318.753	403.31
318.983	422.31
319.212	404.31
319.441	418.31
319.67	420.31
319.9	426.31
320.129	412.31
320.358	414.31
320.587	428.31
320.816	399.31
321.046	424.31
321.275	419.31
321.504	453.31
321.733	424.31
321.962	424.31
322.191	428.31
322.42	426.31
322.649	468.31
322.878	484.31
323.108	457.31
323.337	475.31
323.566	478.31
323.795	513.31
324.024	552.31
324.253	624.31
324.482	885.31
324.71	1251.31
324.939	1759.31
325.168	1476.31
325.397	792.31
325.626	592.31
325.855	536.31
326.084	489.31
326.313	488.31
326.542	520.31
326.77	539.31
326.999	596.31
327.228	776.31
327.457	1141.31
327.686	1303.31
327.914	892.31
328.143	633.31
328.372	576.31
328.6	562.31
328.829	530.31
329.058	560.31
329.287	555.31
329.515	547.31
329.744	510.31
329.972	518.31
330.201	547.31
330.43	557.31
330.658	538.31
330.887	598.31
331.115	552.31
331.344	510.31
331.572	516.31
331.801	525.31
332.03	520.31
332.258	514.31
332.486	493.31
332.715	484.31
332.943	497.31
333.172	502.31
333.4	497.31
333.629	510.31
333.857	521.31
334.085	547.31
334.314	556.31
334.542	558.31
334.771	569.31
334.999	524.31
335.227	512.31
335.455	485.31
335.684	502.31
335.912	496.31
336.14	493.31
336.369	493.31
336.597	469.31
336.825	486.31
337.053	498.31
337.281	492.31
337.51	484.31
337.738	465.31
337.966	457.31
338.194	466.31
338.422	485.31
338.65	463.31
338.878	462.31
339.106	467.31
339.334	460.31
339.562	452.31
339.79	453.31
340.018	469.31
340.246	462.31
340.474	438.31
340.702	463.31
340.93	457.31
341.158	457.31
341.386	464.31
341.614	456.31
341.842	444.31
342.07	445.31
342.298	466.31
342.526	451.31
342.754	434.31
342.981	447.31
343.209	445.31
343.437	455.31
343.665	472.31
343.893	459.31
344.12	455.31
344.348	491.31
344.576	467.31
344.804	464.31
345.031	469.31
345.259	480.31
345.487	461.31
345.714	448.31
345.942	453.31
346.17	438.31
346.397	457.31
346.625	429.31
346.853	432.31
347.08	432.31
347.308	429.31
347.535	437.31
347.763	420.31
347.99	449.31
348.218	432.31
348.445	447.31
348.673	429.31
348.9	430.31
349.128	425.31
349.355	425.31
349.583	433.31
349.81	413.31
350.037	404.31
350.265	406.31
350.492	430.31
350.72	403.31
350.947	422.31
351.174	432.31
351.402	429.31
351.629	429.31
351.856	412.31
352.083	422.31
352.311	423.31
352.538	442.31
352.765	442.31
352.992	421.31
353.22	392.31
353.447	428.31
353.674	428.31
353.901	434.31
354.128	405.31
354.355	400.31
354.583	397.31
354.81	412.31
355.037	402.31
355.264	410.31
355.491	405.31
355.718	406.31
355.945	408.31
356.172	395.31
356.399	404.31
356.626	388.31
356.853	402.31
357.08	396.31
357.307	396.31
357.534	399.31
357.761	396.31
357.988	416.31
358.215	388.31
358.441	403.31
358.668	414.31
358.895	406.31
359.122	398.31
359.349	416.31
359.576	406.31
359.802	432.31
360.029	452.31
360.256	450.31
360.483	413.31
360.709	419.31
360.936	421.31
361.163	395.31
361.39	422.31
361.616	435.31
361.843	408.31
362.07	400.31
362.296	409.31
362.523	384.31
362.749	416.31
362.976	419.31
363.203	405.31
363.429	402.31
363.656	382.31
363.882	412.31
364.109	395.31
364.335	394.31
364.562	398.31
364.788	379.31
365.015	399.31
365.241	409.31
365.468	395.31
365.694	412.31
365.92	408.31
366.147	377.31
366.373	402.31
366.599	381.31
366.826	382.31
367.052	403.31
367.278	387.31
367.505	385.31
367.731	387.31
367.957	392.31
368.184	406.31
368.41	404.31
368.636	399.31
368.862	405.31
369.089	415.31
369.315	410.31
369.541	408.31
369.767	396.31
369.993	384.31
370.219	382.31
370.445	413.31
370.672	410.31
370.898	395.31
371.124	417.31
371.35	401.31
371.576	395.31
371.802	413.31
372.028	404.31
372.254	405.31
372.48	397.31
372.706	408.31
372.932	396.31
373.158	376.31
373.384	421.31
373.61	417.31
373.835	399.31
374.061	385.31
374.287	403.31
374.513	398.31
374.739	395.31
374.965	422.31
375.191	410.31
375.416	412.31
375.642	402.31
375.868	397.31
376.094	412.31
376.319	388.31
376.545	379.31
376.771	376.31
376.997	392.31
377.222	378.31
377.448	394.31
377.674	397.31
377.899	366.31
378.125	372.31
378.35	390.31
378.576	421.31
378.802	368.31
379.027	387.31
379.253	393.31
379.478	386.31
379.704	395.31
379.929	387.31
380.155	378.31
380.38	406.31
380.606	409.31
380.831	397.31
381.057	377.31
381.282	388.31
381.507	388.31
381.733	394.31
381.958	387.31
382.184	386.31
382.409	398.31
382.634	406.31
382.86	396.31
383.085	376.31
383.31	434.31
383.535	408.31
383.761	419.31
383.986	426.31
384.211	405.31
384.436	397.31
384.662	420.31
384.887	420.31
385.112	417.31
385.337	425.31
385.562	428.31
385.787	437.31
386.013	434.31
386.238	452.31
386.463	417.31
386.688	442.31
386.913	430.31
387.138	418.31
387.363	428.31
387.588	452.31
387.813	420.31
388.038	414.31
388.263	446.31
388.488	412.31
388.713	452.31
388.938	432.31
389.163	422.31
389.387	431.31
389.612	428.31
389.837	417.31
390.062	428.31
390.287	414.31
390.512	417.31
390.736	426.31
390.961	399.31
391.186	442.31
391.411	436.31
391.636	439.31
391.86	427.31
392.085	434.31
392.31	440.31
392.534	428.31
392.759	457.31
392.984	425.31
393.208	421.31
393.433	429.31
393.658	411.31
393.882	442.31
394.107	432.31
394.331	421.31
394.556	426.31
394.78	423.31
395.005	459.31
395.229	444.31
395.454	452.31
395.678	444.31
395.903	434.31
396.127	447.31
396.352	474.31
396.576	457.31
396.801	452.31
397.025	454.31
397.249	452.31
397.474	458.31
397.698	444.31
397.922	462.31
398.147	490.31
398.371	480.31
398.595	478.31
398.82	481.31
399.044	494.31
399.268	509.31
399.492	566.31
399.717	577.31
399.941	610.31
400.165	605.31
400.389	608.31
400.613	545.31
400.837	501.31
401.062	488.31
401.286	491.31
401.51	477.31
401.734	500.31
401.958	487.31
402.182	488.31
402.406	500.31
402.63	506.31
402.854	512.31
403.078	481.31
403.302	485.31
403.526	532.31
403.75	516.31
403.974	501.31
404.198	510.31
404.422	502.31
404.645	516.31
404.869	506.31
405.093	534.31
405.317	574.31
405.541	598.31
405.765	542.31
405.988	531.31
406.212	527.31
406.436	540.31
406.66	536.31
406.883	526.31
407.107	549.31
407.331	592.31
407.555	642.31
407.778	629.31
408.002	581.31
408.226	544.31
408.449	560.31
408.673	557.31
408.896	568.31
409.12	584.31
409.344	584.31
409.567	522.31
409.791	521.31
410.014	493.31
410.238	500.31
410.461	488.31
410.685	494.31
410.908	517.31
411.132	544.31
411.355	548.31
411.578	534.31
411.802	485.31
412.025	489.31
412.249	504.31
412.472	558.31
412.695	559.31
412.919	558.31
413.142	487.31
413.365	482.31
413.589	480.31
413.812	446.31
414.035	480.31
414.258	483.31
414.482	468.31
414.705	486.31
414.928	473.31
415.151	458.31
415.374	457.31
415.597	478.31
415.821	479.31
416.044	471.31
416.267	484.31
416.49	458.31
416.713	465.31
416.936	468.31
417.159	468.31
417.382	465.31
417.605	460.31
417.828	469.31
418.051	489.31
418.274	476.31
418.497	466.31
418.72	460.31
418.943	465.31
419.166	462.31
419.389	489.31
419.611	498.31
419.834	482.31
420.057	497.31
420.28	486.31
420.503	475.31
420.726	487.31
420.948	499.31
421.171	526.31
421.394	552.31
421.617	502.31
421.839	491.31
422.062	494.31
422.285	458.31
422.507	530.31
422.73	608.31
422.953	574.31
423.175	503.31
423.398	490.31
423.621	516.31
423.843	506.31
424.066	495.31
424.288	514.31
424.511	516.31
424.733	584.31
424.956	615.31
425.178	584.31
425.401	597.31
425.623	615.31
425.846	536.31
426.068	504.31
426.291	487.31
426.513	480.31
426.735	495.31
426.958	544.31
427.18	597.31
427.402	691.31
427.625	770.31
427.847	656.31
428.069	580.31
428.292	525.31
428.514	490.31
428.736	474.31
428.958	490.31
429.181	439.31
429.403	453.31
429.625	461.31
429.847	504.31
430.069	535.31
430.292	535.31
430.514	485.31
430.736	450.31
430.958	472.31
431.18	466.31
431.402	448.31
431.624	434.31
431.846	415.31
432.068	425.31
432.29	444.31
432.512	436.31
432.734	445.31
432.956	461.31
433.178	469.31
433.4	440.31
433.622	416.31
433.844	434.31
434.066	432.31
434.287	456.31
434.509	448.31
434.731	485.31
434.953	474.31
435.175	484.31
435.397	512.31
435.618	487.31
435.84	505.31
436.062	608.31
436.284	676.31
436.505	514.31
436.727	512.31
436.949	460.31
437.17	452.31
437.392	433.31
437.614	472.31
437.835	474.31
438.057	553.31
438.278	623.31
438.5	630.31
438.721	700.31
438.943	666.31
439.165	538.31
439.386	498.31
439.608	506.31
439.829	486.31
440.05	516.31
440.272	539.31
440.493	510.31
440.715	480.31
440.936	469.31
441.158	477.31
441.379	465.31
441.6	470.31
441.822	498.31
442.043	531.31
442.264	606.31
442.486	622.31
442.707	539.31
442.928	501.31
443.149	510.31
443.371	521.31
443.592	570.31
443.813	618.31
444.034	671.31
444.255	603.31
444.476	523.31
444.698	526.31
444.919	526.31
445.14	627.31
445.361	566.31
445.582	534.31
445.803	572.31
446.024	645.31
446.245	658.31
446.466	593.31
446.687	525.31
446.908	485.31
447.129	458.31
447.35	441.31
447.571	454.31
447.792	450.31
448.013	450.31
448.234	471.31
448.455	514.31
448.675	586.31
448.896	678.31
449.117	571.31
449.338	554.31
449.559	635.31
449.779	708.31
450	551.31
450.221	476.31
450.442	462.31
450.662	451.31
450.883	447.31
451.104	447.31
451.324	445.31
451.545	420.31
451.766	414.31
451.986	409.31
452.207	398.31
452.428	392.31
452.648	403.31
452.869	397.31
453.089	424.31
453.31	423.31
453.53	425.31
453.751	408.31
453.971	426.31
454.192	391.31
454.412	408.31
454.633	402.31
454.853	371.31
455.073	392.31
455.294	422.31
455.514	475.31
455.734	452.31
455.955	413.31
456.175	389.31
456.395	390.31
456.616	397.31
456.836	378.31
457.056	387.31
457.276	398.31
457.497	389.31
457.717	379.31
457.937	387.31
458.157	390.31
458.377	372.31
458.598	414.31
458.818	438.31
459.038	506.31
459.258	512.31
459.478	474.31
459.698	438.31
459.918	412.31
460.138	422.31
460.358	444.31
460.578	436.31
460.798	438.31
461.018	481.31
461.238	464.31
461.458	440.31
461.678	441.31
461.898	434.31
462.118	461.31
462.338	470.31
462.558	473.31
462.777	478.31
462.997	479.31
463.217	500.31
463.437	510.31
463.657	482.31
463.876	498.31
464.096	503.31
464.316	480.31
464.536	490.31
464.755	469.31
464.975	493.31
465.195	476.31
465.414	510.31
465.634	452.31
465.854	442.31
466.073	404.31
466.293	429.31
466.512	428.31
466.732	409.31
466.951	417.31
467.171	412.31
467.391	412.31
467.61	416.31
467.829	438.31
468.049	439.31
468.268	420.31
468.488	418.31
468.707	396.31
468.927	408.31
469.146	411.31
469.365	420.31
469.585	401.31
469.804	404.31
470.023	430.31
470.243	425.31
470.462	423.31
470.681	434.31
470.901	434.31
471.12	426.31
471.339	406.31
471.558	413.31
471.777	414.31
471.997	418.31
472.216	410.31
472.435	442.31
472.654	412.31
472.873	419.31
473.092	422.31
473.311	431.31
473.53	422.31
473.749	434.31
473.968	452.31
474.187	545.31
474.406	554.31
474.625	482.31
474.844	420.31
475.063	428.31
475.282	428.31
475.501	411.31
475.72	432.31
475.939	440.31
476.158	431.31
476.377	417.31
476.596	441.31
476.814	426.31
477.033	416.31
477.252	437.31
477.471	430.31
477.69	440.31
477.908	438.31
478.127	450.31
478.346	464.31
478.564	478.31
478.783	468.31
479.002	470.31
479.22	489.31
479.439	498.31
479.658	500.31
479.876	487.31
480.095	498.31
480.313	542.31
480.532	500.31
480.751	508.31
480.969	524.31
481.188	556.31
481.406	573.31
481.624	535.31
481.843	504.31
482.061	496.31
482.28	504.31
482.498	489.31
482.717	484.31
482.935	497.31
483.153	478.31
483.372	477.31
483.59	481.31
483.808	490.31
484.027	477.31
484.245	479.31
484.463	475.31
484.681	512.31
484.9	498.31
485.118	482.31
485.336	486.31
485.554	501.31
485.772	504.31
485.99	499.31
486.209	496.31
486.427	507.31
486.645	513.31
486.863	512.31
487.081	528.31
487.299	489.31
487.517	523.31
487.735	536.31
487.953	507.31
488.171	521.31
488.389	504.31
488.607	510.31
488.825	518.31
489.043	497.31
489.261	498.31
489.479	521.31
489.696	515.31
489.914	510.31
490.132	535.31
490.35	541.31
490.568	564.31
490.786	525.31
491.003	562.31
491.221	547.31
491.439	559.31
491.657	586.31
491.874	570.31
492.092	564.31
492.31	588.31
492.527	593.31
492.745	593.31
492.963	585.31
493.18	586.31
493.398	601.31
493.615	594.31
493.833	590.31
494.05	613.31
494.268	593.31
494.485	590.31
494.703	594.31
494.92	587.31
495.138	589.31
495.355	597.31
495.573	597.31
495.79	581.31
496.008	609.31
496.225	597.31
496.442	605.31
496.66	627.31
496.877	574.31
497.094	597.31
497.312	614.31
497.529	619.31
497.746	620.31
497.963	643.31
498.181	680.31
498.398	661.31
498.615	699.31
498.832	689.31
499.049	711.31
499.267	741.31
499.484	767.31
499.701	764.31
499.918	832.31
500.135	867.31
500.352	921.31
500.569	914.31
500.786	946.31
501.003	919.31
501.22	874.31
501.437	826.31
501.654	828.31
501.871	799.31
502.088	738.31
502.305	718.31
502.522	700.31
502.739	678.31
502.956	647.31
503.172	643.31
503.389	654.31
503.606	628.31
503.823	626.31
504.04	616.31
504.256	610.31
504.473	625.31
504.69	604.31
504.907	597.31
505.123	601.31
505.34	600.31
505.557	604.31
505.773	571.31
505.99	595.31
506.207	583.31
506.423	571.31
506.64	558.31
506.856	572.31
507.073	560.31
507.289	557.31
507.506	565.31
507.722	539.31
507.939	553.31
508.155	560.31
508.372	543.31
508.588	538.31
508.805	525.31
509.021	526.31
509.238	530.31
509.454	548.31
509.67	549.31
509.887	508.31
510.103	503.31
510.319	522.31
510.536	595.31
510.752	820.31
510.968	679.31
511.184	522.31
511.401	500.31
511.617	531.31
511.833	528.31
512.049	513.31
512.265	518.31
512.481	487.31
512.698	491.31
512.914	516.31
513.13	498.31
513.346	502.31
513.562	495.31
513.778	505.31
513.994	488.31
514.21	515.31
514.426	521.31
514.642	539.31
514.858	538.31
515.074	584.31
515.29	638.31
515.506	777.31
515.721	696.31
515.937	560.31
516.153	549.31
516.369	518.31
516.585	514.31
516.801	514.31
517.016	534.31
517.232	535.31
517.448	548.31
517.664	545.31
517.879	534.31
518.095	532.31
518.311	534.31
518.527	532.31
518.742	533.31
518.958	533.31
519.173	520.31
519.389	498.31
519.605	513.31
519.82	491.31
520.036	509.31
520.251	493.31
520.467	527.31
520.682	510.31
520.898	508.31
521.113	532.31
521.329	565.31
521.544	580.31
521.76	692.31
521.975	999.31
522.19	924.31
522.406	612.31
522.621	516.31
522.836	488.31
523.052	457.31
523.267	461.31
523.482	477.31
523.698	465.31
523.913	450.31
524.128	442.31
524.343	457.31
524.559	445.31
524.774	433.31
524.989	439.31
525.204	452.31
525.419	438.31
525.634	442.31
525.849	427.31
526.064	435.31
526.28	429.31
526.495	407.31
526.71	405.31
526.925	412.31
527.14	401.31
527.355	402.31
527.57	434.31
527.785	399.31
527.999	406.31
528.214	397.31
528.429	437.31
528.644	428.31
528.859	422.31
529.074	431.31
529.289	433.31
529.503	476.31
529.718	444.31
529.933	436.31
530.148	412.31
530.363	432.31
530.577	409.31
530.792	410.31
531.007	413.31
531.221	405.31
531.436	399.31
531.651	413.31
531.865	411.31
532.08	389.31
532.295	394.31
532.509	415.31
532.724	410.31
532.938	414.31
533.153	397.31
533.367	410.31
533.582	394.31
533.796	391.31
534.011	404.31
534.225	396.31
534.44	386.31
534.654	378.31
534.868	402.31
535.083	390.31
535.297	407.31
535.511	394.31
535.726	403.31
535.94	408.31
536.154	399.31
536.369	388.31
536.583	391.31
536.797	389.31
537.011	390.31
537.225	372.31
537.44	410.31
537.654	390.31
537.868	404.31
538.082	384.31
538.296	375.31
538.51	395.31
538.724	399.31
538.938	382.31
539.153	372.31
539.367	386.31
539.581	387.31
539.795	376.31
540.009	383.31
540.222	381.31
540.436	395.31
540.65	373.31
540.864	385.31
541.078	388.31
541.292	393.31
541.506	376.31
541.72	400.31
541.934	387.31
542.147	404.31
542.361	385.31
542.575	371.31
542.789	383.31
543.002	382.31
543.216	385.31
543.43	384.31
543.644	388.31
543.857	402.31
544.071	380.31
544.285	392.31
544.498	376.31
544.712	380.31
544.925	374.31
545.139	372.31
545.352	383.31
545.566	376.31
545.779	380.31
545.993	386.31
546.206	381.31
546.42	388.31
546.633	377.31
546.847	370.31
547.06	366.31
547.274	368.31
547.487	380.31
547.7	384.31
547.914	380.31
548.127	375.31
548.34	368.31
548.554	380.31
548.767	395.31
548.98	378.31
549.193	374.31
549.407	374.31
549.62	373.31
549.833	372.31
550.046	363.31
550.259	393.31
550.473	369.31
550.686	372.31
550.899	384.31
551.112	370.31
551.325	358.31
551.538	369.31
551.751	360.31
551.964	361.31
552.177	357.31
552.39	360.31
552.603	368.31
552.816	372.31
553.029	361.31
553.242	386.31
553.455	374.31
553.667	390.31
553.88	387.31
554.093	385.31
554.306	362.31
554.519	382.31
554.732	348.31
554.944	368.31
555.157	376.31
555.37	364.31
555.583	365.31
555.795	347.31
556.008	360.31
556.221	337.31
556.433	347.31
556.646	328.31
556.859	327.31
557.071	347.31
557.284	358.31
557.496	338.31
557.709	317.31
557.921	312.31
558.134	328.31
558.346	321.31
558.559	326.31
558.771	332.31
558.984	332.31
559.196	320.31
559.409	342.31
559.621	330.31
559.833	338.31
560.046	327.31
560.258	309.31
560.47	323.31
560.683	332.31
560.895	317.31
561.107	329.31
561.32	316.31
561.532	328.31
561.744	338.31
561.956	345.31
562.168	327.31
562.381	326.31
562.593	330.31
562.805	337.31
563.017	313.31
563.229	341.31
563.441	328.31
563.653	320.31
563.865	318.31
564.077	342.31
564.289	323.31
564.501	348.31
564.713	321.31
564.925	362.31
565.137	359.31
565.349	365.31
565.561	355.31
565.773	364.31
565.985	362.31
566.197	387.31
566.408	389.31
566.62	402.31
566.832	418.31
567.044	416.31
567.255	436.31
567.467	430.31
567.679	412.31
567.891	450.31
568.102	452.31
568.314	429.31
568.526	409.31
568.737	406.31
568.949	372.31
569.161	377.31
569.372	357.31
569.584	330.31
569.795	350.31
570.007	344.31
570.218	368.31
570.43	334.31
570.641	325.31
570.853	328.31
571.064	326.31
571.276	331.31
571.487	316.31
571.698	323.31
571.91	296.31
572.121	292.31
572.333	294.31
572.544	286.31
572.755	314.31
572.966	290.31
573.178	292.31
573.389	288.31
573.6	292.31
573.811	278.31
574.023	282.31
574.234	309.31
574.445	288.31
574.656	270.31
574.867	275.31
575.078	277.31
575.289	274.31
575.501	290.31
575.712	282.31
575.923	278.31
576.134	291.31
576.345	301.31
576.556	284.31
576.767	278.31
576.978	275.31
577.188	293.31
577.399	275.31
577.61	293.31
577.821	257.31
578.032	280.31
578.243	290.31
578.454	368.31
578.665	322.31
578.875	266.31
579.086	261.31
579.297	267.31
579.508	273.31
579.718	264.31
579.929	258.31
580.14	266.31
580.35	270.31
580.561	270.31
580.772	258.31
580.982	271.31
581.193	279.31
581.403	253.31
581.614	246.31
581.825	270.31
582.035	260.31
582.246	246.31
582.456	260.31
582.667	262.31
582.877	267.31
583.087	257.31
583.298	247.31
583.508	242.31
583.719	263.31
583.929	241.31
584.139	248.31
584.35	264.31
584.56	244.31
584.77	272.31
584.981	264.31
585.191	268.31
585.401	274.31
585.611	244.31
585.821	258.31
586.032	245.31
586.242	257.31
586.452	249.31
586.662	254.31
586.872	254.31
587.082	254.31
587.292	249.31
587.502	264.31
587.713	241.31
587.923	237.31
588.133	263.31
588.343	243.31
588.553	249.31
588.762	244.31
588.972	250.31
589.182	250.31
589.392	251.31
589.602	245.31
589.812	234.31
590.022	252.31
590.232	250.31
590.441	264.31
590.651	252.31
590.861	267.31
591.071	241.31
591.281	248.31
591.49	260.31
591.7	256.31
591.91	267.31
592.119	270.31
592.329	250.31
592.539	265.31
592.748	273.31
592.958	269.31
593.167	256.31
593.377	262.31
593.587	268.31
593.796	280.31
594.006	281.31
594.215	260.31
594.424	276.31
594.634	275.31
594.843	262.31
595.053	254.31
595.262	253.31
595.472	238.31
595.681	227.31
595.89	242.31
596.1	241.31
596.309	237.31
596.518	250.31
596.727	230.31
596.937	234.31
597.146	241.31
597.355	256.31
597.564	226.31
597.774	240.31
597.983	228.31
598.192	237.31
598.401	229.31
598.61	235.31
598.819	231.31
599.028	224.31
599.237	210.31
599.446	230.31
599.655	219.31
599.864	233.31
600.073	231.31
600.282	221.31
600.491	229.31
600.7	234.31
600.909	215.31
601.118	216.31
601.327	219.31
601.536	226.31
601.745	220.31
601.953	218.31
602.162	219.31
602.371	210.31
602.58	211.31
602.789	216.31
602.997	208.31
603.206	222.31
603.415	225.31
603.623	206.31
603.832	217.31
604.041	215.31
604.249	227.31
604.458	229.31
604.666	219.31
604.875	226.31
605.084	196.31
605.292	186.31
605.501	216.31
605.709	216.31
605.918	191.31
606.126	213.31
606.334	199.31
606.543	214.31
606.751	220.31
606.96	215.31
607.168	216.31
607.376	211.31
607.585	203.31
607.793	187.31
608.001	191.31
608.21	196.31
608.418	216.31
608.626	214.31
608.834	211.31
609.043	201.31
609.251	196.31
609.459	202.31
609.667	211.31
609.875	199.31
610.083	209.31
610.291	192.31
610.499	206.31
610.707	203.31
610.916	203.31
611.124	204.31
611.332	207.31
611.54	220.31
611.748	190.31
611.955	213.31
612.163	212.31
612.371	189.31
612.579	204.31
612.787	208.31
612.995	196.31
613.203	211.31
613.411	217.31
613.618	201.31
613.826	188.31
614.034	196.31
614.242	214.31
614.449	194.31
614.657	188.31
614.865	196.31
615.072	197.31
615.28	197.31
615.488	200.31
615.695	193.31
615.903	218.31
616.111	210.31
616.318	219.31
616.526	208.31
616.733	211.31
616.941	188.31
617.148	206.31
617.356	196.31
617.563	194.31
617.771	193.31
617.978	215.31
618.185	181.31
618.393	185.31
618.6	195.31
618.807	205.31
619.015	183.31
619.222	186.31
619.429	190.31
619.637	189.31
619.844	193.31
620.051	194.31
620.258	187.31
620.466	189.31
620.673	188.31
620.88	190.31
621.087	184.31
621.294	172.31
621.501	202.31
621.708	194.31
621.915	196.31
622.122	181.31
622.329	186.31
622.536	206.31
622.743	198.31
622.95	186.31
623.157	193.31
623.364	209.31
623.571	190.31
623.778	212.31
623.985	183.31
624.192	169.31
624.399	197.31
624.606	182.31
624.812	183.31
625.019	162.31
625.226	184.31
625.433	181.31
625.639	176.31
625.846	188.31
626.053	177.31
626.259	174.31
626.466	170.31
626.673	178.31
626.879	168.31
627.086	160.31
627.293	181.31
627.499	189.31
627.706	183.31
627.912	181.31
628.119	166.31
628.325	155.31
628.532	178.31
628.738	167.31
628.945	168.31
629.151	182.31
629.357	195.31
629.564	181.31
629.77	162.31
629.976	176.31
630.183	180.31
630.389	169.31
630.595	162.31
630.802	152.31
631.008	158.31
631.214	173.31
631.42	164.31
631.627	171.31
631.833	180.31
632.039	158.31
632.245	173.31
632.451	156.31
632.657	149.31
632.863	174.31
633.069	163.31
633.275	169.31
633.481	162.31
633.688	176.31
633.893	174.31
634.099	152.31
634.305	169.31
634.511	154.31
634.717	165.31
634.923	169.31
635.129	172.31
635.335	156.31
635.541	147.31
635.747	173.31
635.952	161.31
636.158	141.31
636.364	160.31
636.57	176.31
636.775	168.31
636.981	165.31
637.187	162.31
637.392	169.31
637.598	158.31
637.804	143.31
638.009	158.31
638.215	151.31
638.421	140.31
638.626	166.31
638.832	146.31
639.037	155.31
639.243	149.31
639.448	147.31
639.654	158.31
639.859	157.31
640.065	151.31
640.27	168.31
640.475	167.31
640.681	166.31
640.886	162.31
641.091	151.31
641.297	154.31
641.502	140.31
641.707	155.31
641.913	156.31
642.118	147.31
642.323	141.31
642.528	154.31
642.733	147.31
642.939	161.31
643.144	148.31
643.349	139.31
643.554	153.31
643.759	140.31
643.964	150.31
644.169	140.31
644.374	155.31
644.579	140.31
644.784	145.31
644.989	155.31
645.194	140.31
645.399	154.31
645.604	141.31
645.809	156.31
646.014	146.31
646.219	148.31
646.423	138.31
646.628	124.31
646.833	144.31
647.038	151.31
647.243	148.31
647.447	148.31
647.652	141.31
647.857	150.31
648.062	157.31
648.266	146.31
648.471	154.31
648.676	154.31
648.88	144.31
649.085	152.31
649.289	154.31
649.494	158.31
649.698	162.31
649.903	182.31
650.107	139.31
650.312	161.31
650.516	150.31
650.721	129.31
650.925	136.31
651.13	136.31
651.334	128.31
651.539	133.31
651.743	146.31
651.947	132.31
652.152	155.31
652.356	133.31
652.56	125.31
652.764	130.31
652.969	143.31
653.173	134.31
653.377	138.31
653.581	135.31
653.785	141.31
653.99	134.31
654.194	123.31
654.398	124.31
654.602	141.31
654.806	104.31
655.01	128.31
655.214	132.31
655.418	132.31
655.622	129.31
655.826	132.31
656.03	128.31
656.234	140.31
656.438	134.31
656.642	128.31
656.846	128.31
657.049	133.31
657.253	116.31
657.457	117.31
657.661	104.31
657.865	118.31
658.068	125.31
658.272	105.31
658.476	97.31
658.68	93.31
658.883	83.31
659.087	84.31
659.291	87.31
659.494	92.31
659.698	90.31
659.901	97.31
660.105	99.31
660.309	86.31
660.512	91.31
660.716	87.31
660.919	81.31
661.123	90.31
661.326	87.31
661.53	104.31
661.733	77.31
661.936	100.31
662.14	94.31
662.343	77.31
662.546	85.31
662.75	91.31
662.953	83.31
663.156	92.31
663.36	86.31
663.563	76.31
663.766	86.31
663.969	84.31
664.173	80.31
664.376	90.31
664.579	69.31
664.782	84.31
664.985	99.31
665.188	77.31
665.391	75.31
665.594	94.31
665.797	61.31
666	77.31
666.203	78.31
666.406	73.31
666.609	78.31
666.812	67.31
667.015	86.31
667.218	83.31
667.421	79.31
667.624	82.31
667.827	77.31
668.03	75.31
668.232	72.31
668.435	83.31
668.638	80.31
668.841	82.31
669.043	86.31
669.246	72.31
669.449	78.31
669.651	74.31
669.854	77.31
670.057	72.31
670.259	86.31
670.462	86.31
670.665	69.31
670.867	74.31
671.07	78.31
671.272	84.31
671.475	83.31
671.677	83.31
671.88	88.31
672.082	76.31
672.284	73.31
672.487	95.31
672.689	78.31
672.892	76.31
