Data from 1965.PennyLincolnUp.Lamp.En5.5.200Scan.071719.P1._HRD10591_14-09-11-911.txt Node
Date: Thu Jul 18 14:09:11 EDT 2019
User: cochatt
Spectrometer: HR+D1059
Trigger mode: 1
Integration Time (sec): 1.000000E-1
Scans to average: 1
Electric dark correction enabled: true
Nonlinearity correction enabled: false
Boxcar width: 0
XAxis mode: Wavelengths
Number of Pixels in Spectrum: 2048
>>>>>Begin Spectral Data<<<<<
223.165	-30
223.4	-30
223.635	-30
223.869	2
224.104	-8
224.338	-6
224.573	-24
224.808	-12
225.042	-7
225.277	-12
225.511	2
225.746	-9
225.98	4
226.215	8
226.449	16
226.683	33
226.918	22
227.152	21
227.387	40
227.621	34
227.856	47
228.09	45
228.324	42
228.559	62
228.793	62
229.027	97
229.262	95
229.496	103
229.73	121
229.964	162
230.199	125
230.433	108
230.667	106
230.901	98
231.136	104
231.37	109
231.604	104
231.838	112
232.072	108
232.306	112
232.541	119
232.775	104
233.009	116
233.243	124
233.477	98
233.711	93
233.945	124
234.179	109
234.413	103
234.647	107
234.881	111
235.115	110
235.349	108
235.583	101
235.817	108
236.051	123
236.285	120
236.519	116
236.753	120
236.987	132
237.221	162
237.455	211
237.689	164
237.922	146
238.156	125
238.39	136
238.624	125
238.858	119
239.091	108
239.325	118
239.559	114
239.793	127
240.027	127
240.26	136
240.494	152
240.728	145
240.961	142
241.195	131
241.429	123
241.662	137
241.896	111
242.13	130
242.363	119
242.597	127
242.83	130
243.064	124
243.298	134
243.531	116
243.765	114
243.998	134
244.232	133
244.465	117
244.699	124
244.932	124
245.166	120
245.399	131
245.633	134
245.866	140
246.099	129
246.333	136
246.566	138
246.8	125
247.033	133
247.266	153
247.5	144
247.733	166
247.966	146
248.2	153
248.433	148
248.666	165
248.899	166
249.133	185
249.366	186
249.599	177
249.832	164
250.066	158
250.299	167
250.532	171
250.765	170
250.998	205
251.231	201
251.465	202
251.698	192
251.931	178
252.164	180
252.397	194
252.63	182
252.863	199
253.096	185
253.329	196
253.562	213
253.795	203
254.028	203
254.261	191
254.494	209
254.727	235
254.96	249
255.193	240
255.426	214
255.659	207
255.892	198
256.124	198
256.357	228
256.59	210
256.823	196
257.056	203
257.289	198
257.521	194
257.754	188
257.987	193
258.22	195
258.452	176
258.685	187
258.918	187
259.151	178
259.383	195
259.616	196
259.849	213
260.081	205
260.314	212
260.547	224
260.779	203
261.012	205
261.244	200
261.477	197
261.71	191
261.942	207
262.175	227
262.407	191
262.64	194
262.872	191
263.105	183
263.337	198
263.57	189
263.802	195
264.035	199
264.267	179
264.499	184
264.732	179
264.964	179
265.197	184
265.429	199
265.661	196
265.894	187
266.126	194
266.358	204
266.591	194
266.823	191
267.055	190
267.287	193
267.52	184
267.752	196
267.984	208
268.216	203
268.448	199
268.681	209
268.913	207
269.145	233
269.377	245
269.609	241
269.841	234
270.073	227
270.306	252
270.538	264
270.77	279
271.002	278
271.234	285
271.466	259
271.698	258
271.93	291
272.162	271
272.394	286
272.626	270
272.858	261
273.09	234
273.322	242
273.553	247
273.785	257
274.017	231
274.249	229
274.481	236
274.713	224
274.945	243
275.176	226
275.408	244
275.64	244
275.872	234
276.104	233
276.335	224
276.567	229
276.799	270
277.031	282
277.262	285
277.494	279
277.726	258
277.957	263
278.189	246
278.421	258
278.652	237
278.884	237
279.115	235
279.347	236
279.579	218
279.81	220
280.042	241
280.273	229
280.505	229
280.736	249
280.968	244
281.199	235
281.431	208
281.662	227
281.894	220
282.125	254
282.356	270
282.588	270
282.819	300
283.051	259
283.282	240
283.513	242
283.745	239
283.976	237
284.207	247
284.439	247
284.67	238
284.901	255
285.132	253
285.364	260
285.595	246
285.826	231
286.057	237
286.288	226
286.52	236
286.751	240
286.982	250
287.213	235
287.444	231
287.675	252
287.906	247
288.138	250
288.369	259
288.6	276
288.831	269
289.062	274
289.293	245
289.524	252
289.755	246
289.986	251
290.217	248
290.448	243
290.679	255
290.91	244
291.141	243
291.371	250
291.602	241
291.833	251
292.064	240
292.295	242
292.526	232
292.757	249
292.987	250
293.218	232
293.449	269
293.68	254
293.91	237
294.141	239
294.372	258
294.603	238
294.833	265
295.064	266
295.295	263
295.525	260
295.756	260
295.987	268
296.217	274
296.448	292
296.679	252
296.909	263
297.14	262
297.37	254
297.601	270
297.831	259
298.062	267
298.292	252
298.523	257
298.753	276
298.984	262
299.214	274
299.445	267
299.675	269
299.905	279
300.136	271
300.366	278
300.597	262
300.827	287
301.057	258
301.288	286
301.518	271
301.748	271
301.979	287
302.209	280
302.439	258
302.669	283
302.9	285
303.13	300
303.36	290
303.59	283
303.82	275
304.051	302
304.281	279
304.511	290
304.741	290
304.971	290
305.201	259
305.431	291
305.661	276
305.891	277
306.121	288
306.352	290
306.582	294
306.812	285
307.042	294
307.272	295
307.502	278
307.731	285
307.961	283
308.191	303
308.421	297
308.651	304
308.881	309
309.111	304
309.341	290
309.571	315
309.8	301
310.03	330
310.26	332
310.49	312
310.72	359
310.949	359
311.179	356
311.409	347
311.639	354
311.868	350
312.098	342
312.328	343
312.557	352
312.787	363
313.017	354
313.246	340
313.476	344
313.706	332
313.935	345
314.165	349
314.394	344
314.624	351
314.853	353
315.083	330
315.312	327
315.542	322
315.771	333
316.001	317
316.23	337
316.46	313
316.689	309
316.919	318
317.148	333
317.377	347
317.607	344
317.836	343
318.065	327
318.295	344
318.524	333
318.753	342
318.983	330
319.212	340
319.441	357
319.67	351
319.9	340
320.129	342
320.358	343
320.587	333
320.816	356
321.046	367
321.275	365
321.504	371
321.733	348
321.962	377
322.191	388
322.42	398
322.649	397
322.878	418
323.108	438
323.337	445
323.566	459
323.795	522
324.024	571
324.253	680
324.482	1010
324.71	1522
324.939	2075
325.168	1716
325.397	932
325.626	629
325.855	514
326.084	477
326.313	449
326.542	455
326.77	534
326.999	628
327.228	878
327.457	1325
327.686	1544
327.914	1044
328.143	675
328.372	587
328.6	570
328.829	523
329.058	536
329.287	541
329.515	519
329.744	467
329.972	476
330.201	493
330.43	542
330.658	570
330.887	572
331.115	568
331.344	475
331.572	447
331.801	442
332.03	453
332.258	401
332.486	389
332.715	402
332.943	400
333.172	411
333.4	395
333.629	409
333.857	424
334.085	440
334.314	434
334.542	462
334.771	463
334.999	462
335.227	424
335.455	399
335.684	421
335.912	381
336.14	391
336.369	400
336.597	405
336.825	404
337.053	398
337.281	389
337.51	367
337.738	375
337.966	398
338.194	378
338.422	395
338.65	373
338.878	380
339.106	383
339.334	375
339.562	385
339.79	382
340.018	377
340.246	382
340.474	389
340.702	372
340.93	380
341.158	382
341.386	386
341.614	395
341.842	374
342.07	372
342.298	363
342.526	388
342.754	362
342.981	374
343.209	359
343.437	349
343.665	368
343.893	387
344.12	376
344.348	358
344.576	380
344.804	378
345.031	389
345.259	398
345.487	386
345.714	382
345.942	359
346.17	375
346.397	370
346.625	365
346.853	366
347.08	376
347.308	372
347.535	364
347.763	384
347.99	380
348.218	398
348.445	386
348.673	385
348.9	383
349.128	362
349.355	354
349.583	355
349.81	349
350.037	370
350.265	362
350.492	356
350.72	355
350.947	349
351.174	361
351.402	386
351.629	380
351.856	353
352.083	362
352.311	379
352.538	381
352.765	397
352.992	389
353.22	378
353.447	364
353.674	361
353.901	356
354.128	334
354.355	350
354.583	331
354.81	350
355.037	355
355.264	347
355.491	346
355.718	329
355.945	345
356.172	339
356.399	347
356.626	338
356.853	345
357.08	356
357.307	332
357.534	339
357.761	330
357.988	336
358.215	330
358.441	316
358.668	351
358.895	351
359.122	356
359.349	348
359.576	370
359.802	399
360.029	416
360.256	414
360.483	395
360.709	395
360.936	381
361.163	376
361.39	357
361.616	372
361.843	370
362.07	373
362.296	370
362.523	363
362.749	364
362.976	361
363.203	376
363.429	343
363.656	364
363.882	336
364.109	348
364.335	334
364.562	356
364.788	356
365.015	365
365.241	326
365.468	368
365.694	364
365.92	354
366.147	334
366.373	341
366.599	348
366.826	350
367.052	338
367.278	359
367.505	358
367.731	355
367.957	347
368.184	356
368.41	356
368.636	358
368.862	365
369.089	365
369.315	339
369.541	328
369.767	331
369.993	329
370.219	350
370.445	342
370.672	330
370.898	359
371.124	340
371.35	318
371.576	319
371.802	348
372.028	334
372.254	345
372.48	322
372.706	353
372.932	327
373.158	334
373.384	332
373.61	350
373.835	333
374.061	344
374.287	345
374.513	352
374.739	334
374.965	372
375.191	342
375.416	337
375.642	348
375.868	349
376.094	327
376.319	344
376.545	332
376.771	350
376.997	355
377.222	330
377.448	342
377.674	348
377.899	330
378.125	341
378.35	342
378.576	349
378.802	339
379.027	326
379.253	330
379.478	336
379.704	335
379.929	320
380.155	344
380.38	345
380.606	351
380.831	336
381.057	338
381.282	348
381.507	338
381.733	340
381.958	331
382.184	351
382.409	342
382.634	336
382.86	347
383.085	338
383.31	339
383.535	344
383.761	346
383.986	355
384.211	340
384.436	334
384.662	356
384.887	355
385.112	366
385.337	366
385.562	351
385.787	359
386.013	371
386.238	364
386.463	373
386.688	354
386.913	354
387.138	347
387.363	359
387.588	380
387.813	380
388.038	341
388.263	372
388.488	356
388.713	378
388.938	378
389.163	370
389.387	366
389.612	368
389.837	354
390.062	375
390.287	364
390.512	354
390.736	350
390.961	355
391.186	374
391.411	357
391.636	347
391.86	366
392.085	372
392.31	377
392.534	367
392.759	378
392.984	378
393.208	374
393.433	378
393.658	350
393.882	383
394.107	374
394.331	376
394.556	362
394.78	378
395.005	365
395.229	365
395.454	380
395.678	374
395.903	373
396.127	392
396.352	400
396.576	371
396.801	382
397.025	379
397.249	379
397.474	383
397.698	387
397.922	407
398.147	391
398.371	437
398.595	409
398.82	413
399.044	408
399.268	414
399.492	438
399.717	439
399.941	444
400.165	520
400.389	484
400.613	456
400.837	459
401.062	434
401.286	423
401.51	418
401.734	426
401.958	407
402.182	420
402.406	428
402.63	431
402.854	430
403.078	437
403.302	442
403.526	424
403.75	416
403.974	416
404.198	425
404.422	436
404.645	429
404.869	436
405.093	452
405.317	490
405.541	510
405.765	460
405.988	464
406.212	457
406.436	498
406.66	490
406.883	472
407.107	480
407.331	491
407.555	554
407.778	556
408.002	525
408.226	452
408.449	465
408.673	460
408.896	480
409.12	499
409.344	494
409.567	438
409.791	450
410.014	437
410.238	439
410.461	426
410.685	455
410.908	445
411.132	468
411.355	483
411.578	473
411.802	440
412.025	419
412.249	434
412.472	435
412.695	480
412.919	467
413.142	438
413.365	416
413.589	430
413.812	416
414.035	414
414.258	435
414.482	441
414.705	396
414.928	404
415.151	410
415.374	407
415.597	403
415.821	412
416.044	409
416.267	396
416.49	395
416.713	403
416.936	411
417.159	394
417.382	409
417.605	404
417.828	417
418.051	421
418.274	434
418.497	397
418.72	421
418.943	393
419.166	417
419.389	443
419.611	418
419.834	428
420.057	435
420.28	422
420.503	414
420.726	414
420.948	448
421.171	475
421.394	504
421.617	437
421.839	432
422.062	424
422.285	428
422.507	488
422.73	544
422.953	518
423.175	479
423.398	452
423.621	434
423.843	463
424.066	450
424.288	461
424.511	478
424.733	521
424.956	566
425.178	555
425.401	546
425.623	572
425.846	508
426.068	467
426.291	469
426.513	468
426.735	446
426.958	498
427.18	576
427.402	684
427.625	738
427.847	689
428.069	569
428.292	491
428.514	476
428.736	438
428.958	435
429.181	429
429.403	434
429.625	455
429.847	479
430.069	532
430.292	512
430.514	460
430.736	439
430.958	443
431.18	428
431.402	412
431.624	398
431.846	395
432.068	411
432.29	419
432.512	411
432.734	400
432.956	426
433.178	415
433.4	426
433.622	406
433.844	423
434.066	398
434.287	400
434.509	400
434.731	419
434.953	420
435.175	444
435.397	476
435.618	466
435.84	519
436.062	616
436.284	614
436.505	543
436.727	498
436.949	461
437.17	447
437.392	428
437.614	437
437.835	495
438.057	572
438.278	635
438.5	660
438.721	690
438.943	653
439.165	531
439.386	476
439.608	486
439.829	479
440.05	514
440.272	533
440.493	528
440.715	450
440.936	436
441.158	451
441.379	448
441.6	451
441.822	454
442.043	505
442.264	569
442.486	597
442.707	507
442.928	493
443.149	498
443.371	506
443.592	547
443.813	630
444.034	655
444.255	556
444.476	486
444.698	477
444.919	452
445.14	562
445.361	518
445.582	513
445.803	583
446.024	667
446.245	642
446.466	590
446.687	518
446.908	486
447.129	440
447.35	453
447.571	420
447.792	438
448.013	445
448.234	447
448.455	496
448.675	602
448.896	678
449.117	583
449.338	578
449.559	633
449.779	688
450	571
450.221	472
450.442	453
450.662	435
450.883	442
451.104	451
451.324	446
451.545	427
451.766	407
451.986	399
452.207	401
452.428	416
452.648	388
452.869	399
453.089	398
453.31	435
453.53	392
453.751	401
453.971	411
454.192	431
454.412	419
454.633	406
454.853	408
455.073	416
455.294	421
455.514	468
455.734	471
455.955	404
456.175	378
456.395	364
456.616	362
456.836	391
457.056	380
457.276	353
457.497	349
457.717	370
457.937	376
458.157	378
458.377	376
458.598	390
458.818	469
459.038	562
459.258	552
459.478	453
459.698	416
459.918	408
460.138	426
460.358	420
460.578	413
460.798	414
461.018	410
461.238	398
461.458	393
461.678	404
461.898	421
462.118	417
462.338	418
462.558	417
462.777	415
462.997	412
463.217	426
463.437	440
463.657	428
463.876	442
464.096	436
464.316	421
464.536	446
464.755	444
464.975	459
465.195	519
465.414	564
465.634	495
465.854	432
466.073	408
466.293	424
466.512	404
466.732	405
466.951	414
467.171	400
467.391	400
467.61	415
467.829	436
468.049	417
468.268	408
468.488	378
468.707	395
468.927	403
469.146	391
469.365	395
469.585	397
469.804	398
470.023	421
470.243	406
470.462	414
470.681	442
470.901	427
471.12	392
471.339	408
471.558	408
471.777	422
471.997	398
472.216	421
472.435	457
472.654	457
472.873	420
473.092	416
473.311	401
473.53	393
473.749	400
473.968	454
474.187	539
474.406	562
474.625	476
474.844	434
475.063	415
475.282	417
475.501	413
475.72	439
475.939	429
476.158	422
476.377	418
476.596	414
476.814	427
477.033	424
477.252	448
477.471	436
477.69	413
477.908	424
478.127	451
478.346	456
478.564	442
478.783	443
479.002	474
479.22	452
479.439	447
479.658	478
479.876	493
480.095	499
480.313	522
480.532	507
480.751	492
480.969	518
481.188	593
481.406	642
481.624	553
481.843	504
482.061	464
482.28	513
482.498	478
482.717	489
482.935	510
483.153	501
483.372	487
483.59	481
483.808	470
484.027	474
484.245	481
484.463	479
484.681	483
484.9	473
485.118	480
485.336	491
485.554	492
485.772	483
485.99	485
486.209	495
486.427	518
486.645	518
486.863	519
487.081	518
487.299	511
487.517	515
487.735	490
487.953	515
488.171	510
488.389	518
488.607	517
488.825	515
489.043	519
489.261	537
489.479	530
489.696	524
489.914	507
490.132	518
490.35	514
490.568	528
490.786	554
491.003	552
491.221	554
491.439	557
491.657	564
491.874	587
492.092	590
492.31	568
492.527	590
492.745	593
492.963	611
493.18	604
493.398	619
493.615	583
493.833	590
494.05	597
494.268	596
494.485	583
494.703	607
494.92	599
495.138	637
495.355	613
495.573	624
495.79	630
496.008	595
496.225	591
496.442	597
496.66	607
496.877	576
497.094	615
497.312	599
497.529	631
497.746	607
497.963	640
498.181	646
498.398	649
498.615	659
498.832	668
499.049	668
499.267	665
499.484	686
499.701	736
499.918	719
500.135	746
500.352	757
500.569	762
500.786	789
501.003	785
501.22	741
501.437	759
501.654	743
501.871	746
502.088	724
502.305	686
502.522	681
502.739	666
502.956	638
503.172	647
503.389	651
503.606	646
503.823	627
504.04	622
504.256	638
504.473	632
504.69	601
504.907	606
505.123	580
505.34	602
505.557	611
505.773	598
505.99	574
506.207	568
506.423	582
506.64	589
506.856	564
507.073	593
507.289	560
507.506	571
507.722	605
507.939	597
508.155	569
508.372	572
508.588	543
508.805	588
509.021	582
509.238	581
509.454	567
509.67	578
509.887	579
510.103	565
510.319	575
510.536	678
510.752	1204
510.968	940
511.184	599
511.401	572
511.617	548
511.833	552
512.049	551
512.265	536
512.481	536
512.698	512
512.914	534
513.13	554
513.346	551
513.562	532
513.778	539
513.994	564
514.21	552
514.426	590
514.642	627
514.858	662
515.074	703
515.29	847
515.506	1340
515.721	1069
515.937	698
516.153	618
516.369	599
516.585	553
516.801	551
517.016	578
517.232	545
517.448	537
517.664	559
517.879	560
518.095	543
518.311	531
518.527	527
518.742	529
518.958	534
519.173	559
519.389	526
519.605	539
519.82	531
520.036	569
520.251	578
520.467	623
520.682	597
520.898	602
521.113	648
521.329	699
521.544	783
521.76	1006
521.975	1807
522.19	1744
522.406	902
522.621	659
522.836	579
523.052	550
523.267	506
523.482	504
523.698	524
523.913	506
524.128	511
524.343	515
524.559	477
524.774	476
524.989	478
525.204	464
525.419	468
525.634	455
525.849	455
526.064	472
526.28	454
526.495	422
526.71	457
526.925	429
527.14	458
527.355	441
527.57	427
527.785	444
527.999	421
528.214	439
528.429	415
528.644	443
528.859	436
529.074	436
529.289	449
529.503	565
529.718	536
529.933	456
530.148	457
530.363	446
530.577	446
530.792	431
531.007	415
531.221	437
531.436	415
531.651	427
531.865	425
532.08	422
532.295	440
532.509	430
532.724	409
532.938	418
533.153	425
533.367	424
533.582	396
533.796	399
534.011	421
534.225	391
534.44	401
534.654	396
534.868	407
535.083	402
535.297	402
535.511	413
535.726	430
535.94	424
536.154	403
536.369	415
536.583	410
536.797	406
537.011	375
537.225	405
537.44	383
537.654	424
537.868	405
538.082	395
538.296	412
538.51	412
538.724	383
538.938	416
539.153	405
539.367	406
539.581	399
539.795	390
540.009	407
540.222	407
540.436	403
540.65	389
540.864	388
541.078	408
541.292	398
541.506	386
541.72	394
541.934	384
542.147	389
542.361	406
542.575	400
542.789	391
543.002	374
543.216	394
543.43	410
543.644	382
543.857	398
544.071	374
544.285	396
544.498	413
544.712	375
544.925	397
545.139	364
545.352	378
545.566	375
545.779	390
545.993	391
546.206	374
546.42	381
546.633	378
546.847	348
547.06	375
547.274	380
547.487	371
547.7	371
547.914	391
548.127	376
548.34	379
548.554	387
548.767	360
548.98	355
549.193	365
549.407	381
549.62	372
549.833	356
550.046	351
550.259	363
550.473	348
550.686	369
550.899	378
551.112	365
551.325	350
551.538	374
551.751	360
551.964	359
552.177	362
552.39	376
552.603	357
552.816	365
553.029	366
553.242	350
553.455	379
553.667	384
553.88	389
554.093	398
554.306	371
554.519	382
554.732	373
554.944	364
555.157	382
555.37	360
555.583	339
555.795	356
556.008	340
556.221	349
556.433	340
556.646	340
556.859	352
557.071	332
557.284	339
557.496	330
557.709	322
557.921	337
558.134	325
558.346	333
558.559	318
558.771	335
558.984	333
559.196	346
559.409	320
559.621	340
559.833	341
560.046	338
560.258	329
560.47	330
560.683	357
560.895	326
561.107	351
561.32	335
561.532	320
561.744	335
561.956	320
562.168	336
562.381	351
562.593	319
562.805	337
563.017	331
563.229	342
563.441	311
563.653	343
563.865	318
564.077	329
564.289	341
564.501	330
564.713	345
564.925	315
565.137	350
565.349	357
565.561	347
565.773	358
565.985	354
566.197	366
566.408	348
566.62	359
566.832	367
567.044	377
567.255	370
567.467	371
567.679	392
567.891	392
568.102	379
568.314	389
568.526	378
568.737	386
568.949	354
569.161	340
569.372	348
569.584	333
569.795	312
570.007	315
570.218	388
570.43	367
570.641	322
570.853	322
571.064	311
571.276	320
571.487	326
571.698	322
571.91	324
572.121	312
572.333	315
572.544	314
572.755	302
572.966	314
573.178	301
573.389	294
573.6	293
573.811	272
574.023	287
574.234	304
574.445	299
574.656	295
574.867	280
575.078	292
575.289	267
575.501	274
575.712	270
575.923	283
576.134	282
576.345	278
576.556	286
576.767	282
576.978	284
577.188	287
577.399	293
577.61	277
577.821	272
578.032	290
578.243	329
578.454	576
578.665	394
578.875	295
579.086	272
579.297	282
579.508	276
579.718	253
579.929	274
580.14	267
580.35	264
580.561	269
580.772	260
580.982	260
581.193	264
581.403	263
581.614	275
581.825	262
582.035	248
582.246	268
582.456	269
582.667	272
582.877	247
583.087	267
583.298	239
583.508	247
583.719	258
583.929	247
584.139	262
584.35	249
584.56	267
584.77	279
584.981	275
585.191	238
585.401	258
585.611	250
585.821	247
586.032	256
586.242	235
586.452	239
586.662	250
586.872	255
587.082	255
587.292	234
587.502	247
587.713	246
587.923	249
588.133	249
588.343	238
588.553	253
588.762	233
588.972	272
589.182	296
589.392	283
589.602	260
589.812	273
590.022	287
590.232	251
590.441	231
590.651	260
590.861	240
591.071	247
591.281	246
591.49	263
591.7	255
591.91	251
592.119	257
592.329	231
592.539	267
592.748	255
592.958	262
593.167	255
593.377	242
593.587	271
593.796	258
594.006	266
594.215	245
594.424	260
594.634	245
594.843	250
595.053	252
595.262	240
595.472	240
595.681	242
595.89	240
596.1	236
596.309	250
596.518	229
596.727	240
596.937	250
597.146	231
597.355	232
597.564	248
597.774	210
597.983	233
598.192	235
598.401	228
598.61	246
598.819	214
599.028	226
599.237	212
599.446	221
599.655	229
599.864	220
600.073	208
600.282	229
600.491	232
600.7	228
600.909	219
601.118	217
601.327	227
601.536	220
601.745	218
601.953	215
602.162	214
602.371	228
602.58	217
602.789	225
602.997	223
603.206	208
603.415	224
603.623	216
603.832	200
604.041	227
604.249	213
604.458	207
604.666	203
604.875	216
605.084	214
605.292	213
605.501	204
605.709	204
605.918	203
606.126	209
606.334	191
606.543	226
606.751	207
606.96	197
607.168	192
607.376	210
607.585	206
607.793	211
608.001	203
608.21	204
608.418	212
608.626	199
608.834	206
609.043	202
609.251	217
609.459	206
609.667	198
609.875	224
610.083	213
610.291	201
610.499	203
610.707	198
610.916	198
611.124	210
611.332	209
611.54	214
611.748	202
611.955	210
612.163	182
612.371	190
612.579	205
612.787	195
612.995	204
613.203	197
613.411	230
613.618	200
613.826	195
614.034	219
614.242	201
614.449	215
614.657	185
614.865	195
615.072	198
615.28	218
615.488	205
615.695	196
615.903	198
616.111	207
616.318	200
616.526	200
616.733	220
616.941	199
617.148	216
617.356	189
617.563	199
617.771	212
617.978	202
618.185	196
618.393	200
618.6	207
618.807	198
619.015	219
619.222	204
619.429	202
619.637	196
619.844	201
620.051	197
620.258	205
620.466	184
620.673	192
620.88	189
621.087	190
621.294	198
621.501	193
621.708	180
621.915	192
622.122	201
622.329	181
622.536	196
622.743	182
622.95	180
623.157	187
623.364	172
623.571	180
623.778	184
623.985	192
624.192	180
624.399	198
624.606	187
624.812	194
625.019	194
625.226	183
625.433	181
625.639	202
625.846	186
626.053	185
626.259	204
626.466	179
626.673	186
626.879	178
627.086	190
627.293	178
627.499	170
627.706	195
627.912	179
628.119	175
628.325	172
628.532	172
628.738	172
628.945	172
629.151	169
629.357	175
629.564	176
629.77	182
629.976	184
630.183	172
630.389	162
630.595	165
630.802	174
631.008	174
631.214	156
631.42	185
631.627	168
631.833	162
632.039	167
632.245	166
632.451	153
632.657	179
632.863	180
633.069	158
633.275	162
633.481	160
633.688	166
633.893	169
634.099	160
634.305	158
634.511	143
634.717	168
634.923	152
635.129	158
635.335	167
635.541	171
635.747	186
635.952	160
636.158	149
636.364	170
636.57	158
636.775	180
636.981	174
637.187	165
637.392	164
637.598	171
637.804	152
638.009	154
638.215	147
638.421	162
638.626	164
638.832	151
639.037	141
639.243	159
639.448	164
639.654	155
639.859	168
640.065	148
640.27	163
640.475	155
640.681	151
640.886	139
641.091	142
641.297	140
641.502	148
641.707	134
641.913	150
642.118	162
642.323	148
642.528	153
642.733	149
642.939	162
643.144	157
643.349	154
643.554	148
643.759	147
643.964	150
644.169	155
644.374	148
644.579	161
644.784	161
644.989	153
645.194	169
645.399	149
645.604	156
645.809	148
646.014	135
646.219	147
646.423	137
646.628	138
646.833	134
647.038	142
647.243	147
647.447	151
647.652	150
647.857	159
648.062	156
648.266	159
648.471	159
648.676	170
648.88	156
649.085	148
649.289	142
649.494	158
649.698	168
649.903	162
650.107	168
650.312	156
650.516	142
650.721	132
650.925	141
651.13	151
651.334	146
651.539	132
651.743	132
651.947	139
652.152	125
652.356	119
652.56	138
652.764	127
652.969	132
653.173	128
653.377	140
653.581	123
653.785	133
653.99	128
654.194	146
654.398	132
654.602	130
654.806	126
655.01	126
655.214	118
655.418	132
655.622	138
655.826	140
656.03	134
656.234	145
656.438	129
656.642	136
656.846	128
657.049	115
657.253	125
657.457	116
657.661	110
657.865	110
658.068	99
658.272	111
658.476	111
658.68	108
658.883	100
659.087	108
659.291	107
659.494	98
659.698	102
659.901	101
660.105	87
660.309	97
660.512	96
660.716	94
660.919	82
661.123	92
661.326	90
661.53	93
661.733	91
661.936	81
662.14	77
662.343	91
662.546	107
662.75	100
662.953	97
663.156	91
663.36	85
663.563	89
663.766	88
663.969	90
664.173	93
664.376	82
664.579	90
664.782	79
664.985	95
665.188	88
665.391	87
665.594	87
665.797	74
666	82
666.203	86
666.406	84
666.609	79
666.812	87
667.015	75
667.218	89
667.421	78
667.624	76
667.827	92
668.03	80
668.232	74
668.435	91
668.638	105
668.841	104
669.043	79
669.246	86
669.449	75
669.651	78
669.854	84
670.057	78
670.259	76
670.462	85
670.665	83
670.867	83
671.07	89
671.272	87
671.475	78
671.677	90
671.88	78
672.082	94
672.284	100
672.487	89
672.689	86
672.892	87
