Data from 1965.PennyLincolnUp.Lamp.En5.5.200Scan.071719.P1._HRD10591_14-08-48-911.txt Node
Date: Thu Jul 18 14:08:48 EDT 2019
User: cochatt
Spectrometer: HR+D1059
Trigger mode: 1
Integration Time (sec): 1.000000E-1
Scans to average: 1
Electric dark correction enabled: true
Nonlinearity correction enabled: false
Boxcar width: 0
XAxis mode: Wavelengths
Number of Pixels in Spectrum: 2048
>>>>>Begin Spectral Data<<<<<
223.165	-11.06
223.4	-11.06
223.635	-11.06
223.869	-15.06
224.104	-17.06
224.338	-25.06
224.573	-18.06
224.808	-18.06
225.042	3.94
225.277	-9.06
225.511	11.94
225.746	-7.06
225.98	-3.06
226.215	10.94
226.449	9.94
226.683	27.94
226.918	29.94
227.152	28.94
227.387	29.94
227.621	26.94
227.856	47.94
228.09	43.94
228.324	39.94
228.559	56.94
228.793	70.94
229.027	93.94
229.262	101.94
229.496	98.94
229.73	125.94
229.964	134.94
230.199	132.94
230.433	96.94
230.667	104.94
230.901	112.94
231.136	99.94
231.37	108.94
231.604	107.94
231.838	125.94
232.072	98.94
232.306	94.94
232.541	95.94
232.775	104.94
233.009	97.94
233.243	94.94
233.477	91.94
233.711	89.94
233.945	111.94
234.179	119.94
234.413	113.94
234.647	116.94
234.881	99.94
235.115	104.94
235.349	109.94
235.583	99.94
235.817	113.94
236.051	118.94
236.285	111.94
236.519	103.94
236.753	123.94
236.987	122.94
237.221	156.94
237.455	209.94
237.689	159.94
237.922	148.94
238.156	128.94
238.39	122.94
238.624	114.94
238.858	90.94
239.091	119.94
239.325	105.94
239.559	116.94
239.793	138.94
240.027	120.94
240.26	136.94
240.494	147.94
240.728	123.94
240.961	140.94
241.195	127.94
241.429	138.94
241.662	117.94
241.896	116.94
242.13	116.94
242.363	122.94
242.597	114.94
242.83	118.94
243.064	113.94
243.298	138.94
243.531	118.94
243.765	132.94
243.998	129.94
244.232	132.94
244.465	133.94
244.699	126.94
244.932	115.94
245.166	133.94
245.399	131.94
245.633	123.94
245.866	140.94
246.099	138.94
246.333	142.94
246.566	122.94
246.8	147.94
247.033	134.94
247.266	142.94
247.5	149.94
247.733	142.94
247.966	162.94
248.2	160.94
248.433	157.94
248.666	151.94
248.899	165.94
249.133	179.94
249.366	174.94
249.599	187.94
249.832	162.94
250.066	165.94
250.299	176.94
250.532	158.94
250.765	185.94
250.998	198.94
251.231	204.94
251.465	171.94
251.698	188.94
251.931	172.94
252.164	173.94
252.397	159.94
252.63	191.94
252.863	171.94
253.096	183.94
253.329	195.94
253.562	193.94
253.795	199.94
254.028	182.94
254.261	195.94
254.494	204.94
254.727	209.94
254.96	229.94
255.193	232.94
255.426	210.94
255.659	203.94
255.892	216.94
256.124	206.94
256.357	182.94
256.59	197.94
256.823	186.94
257.056	189.94
257.289	189.94
257.521	194.94
257.754	184.94
257.987	182.94
258.22	178.94
258.452	158.94
258.685	170.94
258.918	178.94
259.151	188.94
259.383	190.94
259.616	188.94
259.849	189.94
260.081	199.94
260.314	217.94
260.547	213.94
260.779	213.94
261.012	206.94
261.244	208.94
261.477	204.94
261.71	202.94
261.942	207.94
262.175	211.94
262.407	206.94
262.64	185.94
262.872	207.94
263.105	200.94
263.337	175.94
263.57	197.94
263.802	186.94
264.035	185.94
264.267	186.94
264.499	192.94
264.732	187.94
264.964	179.94
265.197	185.94
265.429	179.94
265.661	190.94
265.894	185.94
266.126	202.94
266.358	175.94
266.591	187.94
266.823	196.94
267.055	183.94
267.287	196.94
267.52	192.94
267.752	191.94
267.984	186.94
268.216	202.94
268.448	217.94
268.681	196.94
268.913	207.94
269.145	231.94
269.377	232.94
269.609	235.94
269.841	220.94
270.073	216.94
270.306	239.94
270.538	266.94
270.77	266.94
271.002	272.94
271.234	261.94
271.466	247.94
271.698	263.94
271.93	248.94
272.162	256.94
272.394	282.94
272.626	263.94
272.858	249.94
273.09	255.94
273.322	241.94
273.553	225.94
273.785	230.94
274.017	219.94
274.249	232.94
274.481	232.94
274.713	227.94
274.945	233.94
275.176	240.94
275.408	221.94
275.64	219.94
275.872	220.94
276.104	230.94
276.335	228.94
276.567	230.94
276.799	261.94
277.031	272.94
277.262	277.94
277.494	275.94
277.726	249.94
277.957	251.94
278.189	260.94
278.421	224.94
278.652	227.94
278.884	218.94
279.115	242.94
279.347	232.94
279.579	228.94
279.81	228.94
280.042	229.94
280.273	234.94
280.505	228.94
280.736	221.94
280.968	235.94
281.199	213.94
281.431	217.94
281.662	238.94
281.894	223.94
282.125	230.94
282.356	238.94
282.588	256.94
282.819	259.94
283.051	240.94
283.282	244.94
283.513	226.94
283.745	219.94
283.976	250.94
284.207	245.94
284.439	234.94
284.67	242.94
284.901	242.94
285.132	227.94
285.364	234.94
285.595	227.94
285.826	213.94
286.057	233.94
286.288	232.94
286.52	226.94
286.751	239.94
286.982	233.94
287.213	238.94
287.444	241.94
287.675	234.94
287.906	253.94
288.138	263.94
288.369	243.94
288.6	256.94
288.831	246.94
289.062	250.94
289.293	247.94
289.524	255.94
289.755	265.94
289.986	244.94
290.217	237.94
290.448	239.94
290.679	251.94
290.91	250.94
291.141	234.94
291.371	248.94
291.602	247.94
291.833	250.94
292.064	251.94
292.295	251.94
292.526	237.94
292.757	240.94
292.987	247.94
293.218	244.94
293.449	234.94
293.68	252.94
293.91	256.94
294.141	244.94
294.372	250.94
294.603	265.94
294.833	265.94
295.064	234.94
295.295	211.94
295.525	242.94
295.756	236.94
295.987	248.94
296.217	274.94
296.448	289.94
296.679	260.94
296.909	260.94
297.14	264.94
297.37	250.94
297.601	262.94
297.831	237.94
298.062	244.94
298.292	242.94
298.523	261.94
298.753	258.94
298.984	238.94
299.214	242.94
299.445	250.94
299.675	268.94
299.905	267.94
300.136	265.94
300.366	263.94
300.597	274.94
300.827	266.94
301.057	263.94
301.288	283.94
301.518	258.94
301.748	247.94
301.979	272.94
302.209	271.94
302.439	268.94
302.669	272.94
302.9	288.94
303.13	266.94
303.36	282.94
303.59	284.94
303.82	285.94
304.051	297.94
304.281	275.94
304.511	284.94
304.741	265.94
304.971	277.94
305.201	280.94
305.431	279.94
305.661	276.94
305.891	274.94
306.121	281.94
306.352	283.94
306.582	295.94
306.812	284.94
307.042	282.94
307.272	294.94
307.502	289.94
307.731	276.94
307.961	290.94
308.191	262.94
308.421	270.94
308.651	279.94
308.881	267.94
309.111	284.94
309.341	295.94
309.571	296.94
309.8	317.94
310.03	323.94
310.26	333.94
310.49	334.94
310.72	342.94
310.949	342.94
311.179	345.94
311.409	324.94
311.639	317.94
311.868	320.94
312.098	336.94
312.328	326.94
312.557	360.94
312.787	345.94
313.017	346.94
313.246	339.94
313.476	306.94
313.706	313.94
313.935	334.94
314.165	339.94
314.394	351.94
314.624	367.94
314.853	343.94
315.083	325.94
315.312	328.94
315.542	325.94
315.771	317.94
316.001	310.94
316.23	308.94
316.46	329.94
316.689	335.94
316.919	340.94
317.148	347.94
317.377	334.94
317.607	336.94
317.836	341.94
318.065	337.94
318.295	316.94
318.524	329.94
318.753	311.94
318.983	336.94
319.212	304.94
319.441	330.94
319.67	327.94
319.9	333.94
320.129	328.94
320.358	336.94
320.587	328.94
320.816	355.94
321.046	349.94
321.275	342.94
321.504	352.94
321.733	361.94
321.962	349.94
322.191	359.94
322.42	365.94
322.649	381.94
322.878	388.94
323.108	411.94
323.337	434.94
323.566	446.94
323.795	474.94
324.024	526.94
324.253	621.94
324.482	957.94
324.71	1468.94
324.939	1952.94
325.168	1614.94
325.397	862.94
325.626	611.94
325.855	515.94
326.084	452.94
326.313	467.94
326.542	449.94
326.77	479.94
326.999	597.94
327.228	833.94
327.457	1237.94
327.686	1467.94
327.914	972.94
328.143	655.94
328.372	580.94
328.6	525.94
328.829	507.94
329.058	505.94
329.287	517.94
329.515	500.94
329.744	450.94
329.972	450.94
330.201	460.94
330.43	518.94
330.658	527.94
330.887	555.94
331.115	536.94
331.344	469.94
331.572	441.94
331.801	457.94
332.03	435.94
332.258	400.94
332.486	380.94
332.715	386.94
332.943	380.94
333.172	387.94
333.4	375.94
333.629	413.94
333.857	403.94
334.085	398.94
334.314	411.94
334.542	457.94
334.771	494.94
334.999	418.94
335.227	398.94
335.455	391.94
335.684	392.94
335.912	403.94
336.14	379.94
336.369	375.94
336.597	384.94
336.825	384.94
337.053	390.94
337.281	363.94
337.51	368.94
337.738	375.94
337.966	364.94
338.194	362.94
338.422	363.94
338.65	378.94
338.878	368.94
339.106	361.94
339.334	358.94
339.562	351.94
339.79	355.94
340.018	347.94
340.246	367.94
340.474	377.94
340.702	380.94
340.93	354.94
341.158	372.94
341.386	362.94
341.614	365.94
341.842	365.94
342.07	367.94
342.298	359.94
342.526	326.94
342.754	332.94
342.981	347.94
343.209	365.94
343.437	352.94
343.665	359.94
343.893	365.94
344.12	381.94
344.348	380.94
344.576	363.94
344.804	376.94
345.031	382.94
345.259	377.94
345.487	380.94
345.714	386.94
345.942	354.94
346.17	356.94
346.397	347.94
346.625	363.94
346.853	349.94
347.08	370.94
347.308	362.94
347.535	370.94
347.763	374.94
347.99	378.94
348.218	377.94
348.445	386.94
348.673	366.94
348.9	353.94
349.128	346.94
349.355	336.94
349.583	331.94
349.81	349.94
350.037	351.94
350.265	339.94
350.492	342.94
350.72	335.94
350.947	361.94
351.174	374.94
351.402	380.94
351.629	347.94
351.856	364.94
352.083	377.94
352.311	370.94
352.538	380.94
352.765	391.94
352.992	381.94
353.22	377.94
353.447	362.94
353.674	360.94
353.901	362.94
354.128	332.94
354.355	337.94
354.583	330.94
354.81	345.94
355.037	331.94
355.264	342.94
355.491	333.94
355.718	323.94
355.945	324.94
356.172	304.94
356.399	331.94
356.626	325.94
356.853	345.94
357.08	332.94
357.307	322.94
357.534	339.94
357.761	328.94
357.988	323.94
358.215	335.94
358.441	338.94
358.668	322.94
358.895	324.94
359.122	344.94
359.349	336.94
359.576	350.94
359.802	388.94
360.029	417.94
360.256	412.94
360.483	411.94
360.709	354.94
360.936	363.94
361.163	364.94
361.39	357.94
361.616	370.94
361.843	359.94
362.07	360.94
362.296	380.94
362.523	356.94
362.749	342.94
362.976	328.94
363.203	351.94
363.429	346.94
363.656	358.94
363.882	352.94
364.109	346.94
364.335	338.94
364.562	344.94
364.788	335.94
365.015	322.94
365.241	327.94
365.468	340.94
365.694	345.94
365.92	355.94
366.147	344.94
366.373	334.94
366.599	335.94
366.826	354.94
367.052	330.94
367.278	323.94
367.505	334.94
367.731	369.94
367.957	329.94
368.184	344.94
368.41	335.94
368.636	353.94
368.862	361.94
369.089	346.94
369.315	320.94
369.541	325.94
369.767	347.94
369.993	330.94
370.219	333.94
370.445	340.94
370.672	331.94
370.898	332.94
371.124	327.94
371.35	334.94
371.576	334.94
371.802	336.94
372.028	343.94
372.254	331.94
372.48	326.94
372.706	325.94
372.932	308.94
373.158	320.94
373.384	325.94
373.61	342.94
373.835	339.94
374.061	324.94
374.287	314.94
374.513	322.94
374.739	327.94
374.965	349.94
375.191	329.94
375.416	341.94
375.642	351.94
375.868	340.94
376.094	350.94
376.319	310.94
376.545	347.94
376.771	329.94
376.997	329.94
377.222	331.94
377.448	354.94
377.674	338.94
377.899	328.94
378.125	336.94
378.35	321.94
378.576	327.94
378.802	325.94
379.027	320.94
379.253	342.94
379.478	331.94
379.704	361.94
379.929	340.94
380.155	320.94
380.38	343.94
380.606	331.94
380.831	326.94
381.057	344.94
381.282	348.94
381.507	326.94
381.733	336.94
381.958	343.94
382.184	352.94
382.409	359.94
382.634	355.94
382.86	328.94
383.085	344.94
383.31	346.94
383.535	340.94
383.761	336.94
383.986	346.94
384.211	344.94
384.436	344.94
384.662	343.94
384.887	356.94
385.112	354.94
385.337	333.94
385.562	346.94
385.787	349.94
386.013	371.94
386.238	358.94
386.463	351.94
386.688	343.94
386.913	376.94
387.138	361.94
387.363	352.94
387.588	358.94
387.813	370.94
388.038	362.94
388.263	366.94
388.488	354.94
388.713	339.94
388.938	364.94
389.163	370.94
389.387	354.94
389.612	351.94
389.837	343.94
390.062	352.94
390.287	347.94
390.512	346.94
390.736	362.94
390.961	359.94
391.186	373.94
391.411	354.94
391.636	378.94
391.86	365.94
392.085	354.94
392.31	364.94
392.534	366.94
392.759	335.94
392.984	359.94
393.208	357.94
393.433	349.94
393.658	370.94
393.882	340.94
394.107	362.94
394.331	363.94
394.556	351.94
394.78	365.94
395.005	376.94
395.229	386.94
395.454	363.94
395.678	361.94
395.903	375.94
396.127	396.94
396.352	389.94
396.576	384.94
396.801	387.94
397.025	365.94
397.249	374.94
397.474	363.94
397.698	374.94
397.922	394.94
398.147	380.94
398.371	400.94
398.595	414.94
398.82	392.94
399.044	395.94
399.268	410.94
399.492	419.94
399.717	433.94
399.941	468.94
400.165	485.94
400.389	493.94
400.613	469.94
400.837	437.94
401.062	426.94
401.286	410.94
401.51	410.94
401.734	405.94
401.958	398.94
402.182	407.94
402.406	422.94
402.63	400.94
402.854	407.94
403.078	414.94
403.302	419.94
403.526	418.94
403.75	430.94
403.974	421.94
404.198	420.94
404.422	445.94
404.645	426.94
404.869	443.94
405.093	450.94
405.317	481.94
405.541	500.94
405.765	470.94
405.988	444.94
406.212	473.94
406.436	489.94
406.66	474.94
406.883	478.94
407.107	488.94
407.331	523.94
407.555	529.94
407.778	540.94
408.002	491.94
408.226	463.94
408.449	466.94
408.673	454.94
408.896	480.94
409.12	516.94
409.344	482.94
409.567	436.94
409.791	450.94
410.014	423.94
410.238	429.94
410.461	423.94
410.685	430.94
410.908	459.94
411.132	459.94
411.355	488.94
411.578	456.94
411.802	439.94
412.025	438.94
412.249	428.94
412.472	442.94
412.695	462.94
412.919	462.94
413.142	454.94
413.365	430.94
413.589	420.94
413.812	407.94
414.035	398.94
414.258	384.94
414.482	416.94
414.705	411.94
414.928	398.94
415.151	401.94
415.374	400.94
415.597	382.94
415.821	383.94
416.044	404.94
416.267	404.94
416.49	387.94
416.713	376.94
416.936	404.94
417.159	389.94
417.382	392.94
417.605	396.94
417.828	405.94
418.051	422.94
418.274	412.94
418.497	396.94
418.72	395.94
418.943	396.94
419.166	406.94
419.389	426.94
419.611	422.94
419.834	423.94
420.057	413.94
420.28	419.94
420.503	419.94
420.726	430.94
420.948	443.94
421.171	454.94
421.394	516.94
421.617	426.94
421.839	419.94
422.062	400.94
422.285	445.94
422.507	466.94
422.73	528.94
422.953	524.94
423.175	455.94
423.398	419.94
423.621	460.94
423.843	448.94
424.066	426.94
424.288	440.94
424.511	475.94
424.733	488.94
424.956	570.94
425.178	548.94
425.401	550.94
425.623	551.94
425.846	482.94
426.068	463.94
426.291	452.94
426.513	451.94
426.735	481.94
426.958	509.94
427.18	547.94
427.402	670.94
427.625	738.94
427.847	641.94
428.069	596.94
428.292	514.94
428.514	469.94
428.736	436.94
428.958	421.94
429.181	430.94
429.403	423.94
429.625	446.94
429.847	454.94
430.069	524.94
430.292	512.94
430.514	446.94
430.736	428.94
430.958	418.94
431.18	424.94
431.402	398.94
431.624	376.94
431.846	400.94
432.068	386.94
432.29	389.94
432.512	394.94
432.734	415.94
432.956	400.94
433.178	421.94
433.4	398.94
433.622	383.94
433.844	388.94
434.066	414.94
434.287	404.94
434.509	392.94
434.731	415.94
434.953	404.94
435.175	416.94
435.397	445.94
435.618	458.94
435.84	503.94
436.062	548.94
436.284	621.94
436.505	528.94
436.727	477.94
436.949	410.94
437.17	418.94
437.392	427.94
437.614	433.94
437.835	466.94
438.057	543.94
438.278	619.94
438.5	611.94
438.721	680.94
438.943	637.94
439.165	496.94
439.386	477.94
439.608	458.94
439.829	489.94
440.05	488.94
440.272	536.94
440.493	482.94
440.715	463.94
440.936	454.94
441.158	412.94
441.379	422.94
441.6	432.94
441.822	460.94
442.043	493.94
442.264	573.94
442.486	604.94
442.707	514.94
442.928	503.94
443.149	486.94
443.371	480.94
443.592	521.94
443.813	582.94
444.034	615.94
444.255	526.94
444.476	480.94
444.698	461.94
444.919	463.94
445.14	552.94
445.361	509.94
445.582	490.94
445.803	544.94
446.024	630.94
446.245	657.94
446.466	576.94
446.687	482.94
446.908	451.94
447.129	415.94
447.35	439.94
447.571	434.94
447.792	423.94
448.013	439.94
448.234	451.94
448.455	484.94
448.675	588.94
448.896	660.94
449.117	562.94
449.338	538.94
449.559	635.94
449.779	678.94
450	548.94
450.221	478.94
450.442	444.94
450.662	424.94
450.883	426.94
451.104	454.94
451.324	452.94
451.545	431.94
451.766	395.94
451.986	389.94
452.207	390.94
452.428	382.94
452.648	387.94
452.869	386.94
453.089	393.94
453.31	403.94
453.53	394.94
453.751	383.94
453.971	386.94
454.192	398.94
454.412	390.94
454.633	380.94
454.853	396.94
455.073	368.94
455.294	402.94
455.514	468.94
455.734	444.94
455.955	400.94
456.175	371.94
456.395	361.94
456.616	349.94
456.836	367.94
457.056	365.94
457.276	376.94
457.497	370.94
457.717	358.94
457.937	370.94
458.157	367.94
458.377	364.94
458.598	415.94
458.818	458.94
459.038	512.94
459.258	516.94
459.478	431.94
459.698	420.94
459.918	394.94
460.138	390.94
460.358	412.94
460.578	395.94
460.798	405.94
461.018	426.94
461.238	378.94
461.458	370.94
461.678	399.94
461.898	391.94
462.118	399.94
462.338	401.94
462.558	428.94
462.777	410.94
462.997	418.94
463.217	444.94
463.437	442.94
463.657	426.94
463.876	402.94
464.096	431.94
464.316	431.94
464.536	435.94
464.755	423.94
464.975	452.94
465.195	477.94
465.414	574.94
465.634	501.94
465.854	438.94
466.073	432.94
466.293	406.94
466.512	403.94
466.732	388.94
466.951	401.94
467.171	375.94
467.391	405.94
467.61	422.94
467.829	418.94
468.049	426.94
468.268	391.94
468.488	408.94
468.707	366.94
468.927	383.94
469.146	372.94
469.365	388.94
469.585	388.94
469.804	374.94
470.023	374.94
470.243	399.94
470.462	408.94
470.681	422.94
470.901	415.94
471.12	394.94
471.339	394.94
471.558	422.94
471.777	426.94
471.997	408.94
472.216	408.94
472.435	431.94
472.654	426.94
472.873	423.94
473.092	392.94
473.311	384.94
473.53	392.94
473.749	408.94
473.968	458.94
474.187	548.94
474.406	530.94
474.625	421.94
474.844	404.94
475.063	405.94
475.282	429.94
475.501	421.94
475.72	405.94
475.939	396.94
476.158	399.94
476.377	413.94
476.596	403.94
476.814	408.94
477.033	410.94
477.252	429.94
477.471	416.94
477.69	413.94
477.908	428.94
478.127	434.94
478.346	427.94
478.564	441.94
478.783	443.94
479.002	468.94
479.22	462.94
479.439	458.94
479.658	487.94
479.876	471.94
480.095	482.94
480.313	495.94
480.532	471.94
480.751	467.94
480.969	491.94
481.188	560.94
481.406	587.94
481.624	534.94
481.843	480.94
482.061	468.94
482.28	478.94
482.498	480.94
482.717	471.94
482.935	462.94
483.153	470.94
483.372	455.94
483.59	454.94
483.808	468.94
484.027	459.94
484.245	489.94
484.463	447.94
484.681	489.94
484.9	463.94
485.118	469.94
485.336	497.94
485.554	491.94
485.772	450.94
485.99	467.94
486.209	483.94
486.427	467.94
486.645	499.94
486.863	504.94
487.081	487.94
487.299	503.94
487.517	496.94
487.735	522.94
487.953	482.94
488.171	505.94
488.389	488.94
488.607	510.94
488.825	514.94
489.043	502.94
489.261	524.94
489.479	502.94
489.696	503.94
489.914	497.94
490.132	529.94
490.35	516.94
490.568	538.94
490.786	522.94
491.003	548.94
491.221	579.94
491.439	559.94
491.657	542.94
491.874	564.94
492.092	544.94
492.31	589.94
492.527	570.94
492.745	567.94
492.963	557.94
493.18	574.94
493.398	605.94
493.615	584.94
493.833	601.94
494.05	600.94
494.268	590.94
494.485	588.94
494.703	581.94
494.92	596.94
495.138	583.94
495.355	588.94
495.573	610.94
495.79	586.94
496.008	601.94
496.225	596.94
496.442	585.94
496.66	580.94
496.877	587.94
497.094	593.94
497.312	608.94
497.529	638.94
497.746	630.94
497.963	637.94
498.181	640.94
498.398	656.94
498.615	632.94
498.832	673.94
499.049	675.94
499.267	656.94
499.484	668.94
499.701	683.94
499.918	729.94
500.135	745.94
500.352	725.94
500.569	755.94
500.786	774.94
501.003	747.94
501.22	756.94
501.437	745.94
501.654	726.94
501.871	741.94
502.088	703.94
502.305	673.94
502.522	653.94
502.739	634.94
502.956	651.94
503.172	620.94
503.389	643.94
503.606	629.94
503.823	623.94
504.04	618.94
504.256	595.94
504.473	594.94
504.69	585.94
504.907	572.94
505.123	597.94
505.34	565.94
505.557	574.94
505.773	575.94
505.99	575.94
506.207	541.94
506.423	588.94
506.64	592.94
506.856	573.94
507.073	560.94
507.289	555.94
507.506	558.94
507.722	582.94
507.939	612.94
508.155	579.94
508.372	561.94
508.588	538.94
508.805	536.94
509.021	548.94
509.238	565.94
509.454	559.94
509.67	510.94
509.887	544.94
510.103	544.94
510.319	575.94
510.536	650.94
510.752	1148.94
510.968	929.94
511.184	570.94
511.401	537.94
511.617	528.94
511.833	520.94
512.049	512.94
512.265	520.94
512.481	532.94
512.698	512.94
512.914	515.94
513.13	536.94
513.346	522.94
513.562	532.94
513.778	511.94
513.994	529.94
514.21	560.94
514.426	583.94
514.642	623.94
514.858	632.94
515.074	684.94
515.29	866.94
515.506	1266.94
515.721	1055.94
515.937	686.94
516.153	616.94
516.369	575.94
516.585	540.94
516.801	541.94
517.016	535.94
517.232	518.94
517.448	524.94
517.664	548.94
517.879	535.94
518.095	539.94
518.311	534.94
518.527	500.94
518.742	523.94
518.958	530.94
519.173	522.94
519.389	542.94
519.605	527.94
519.82	530.94
520.036	551.94
520.251	555.94
520.467	607.94
520.682	585.94
520.898	603.94
521.113	619.94
521.329	685.94
521.544	762.94
521.76	1000.94
521.975	1709.94
522.19	1670.94
522.406	882.94
522.621	654.94
522.836	586.94
523.052	517.94
523.267	506.94
523.482	502.94
523.698	489.94
523.913	499.94
524.128	495.94
524.343	504.94
524.559	471.94
524.774	460.94
524.989	463.94
525.204	470.94
525.419	471.94
525.634	461.94
525.849	435.94
526.064	456.94
526.28	456.94
526.495	424.94
526.71	439.94
526.925	442.94
527.14	419.94
527.355	422.94
527.57	431.94
527.785	447.94
527.999	420.94
528.214	423.94
528.429	410.94
528.644	427.94
528.859	429.94
529.074	414.94
529.289	448.94
529.503	540.94
529.718	516.94
529.933	460.94
530.148	449.94
530.363	419.94
530.577	410.94
530.792	422.94
531.007	420.94
531.221	446.94
531.436	412.94
531.651	424.94
531.865	401.94
532.08	412.94
532.295	410.94
532.509	403.94
532.724	386.94
532.938	403.94
533.153	393.94
533.367	396.94
533.582	406.94
533.796	416.94
534.011	399.94
534.225	409.94
534.44	396.94
534.654	390.94
534.868	411.94
535.083	394.94
535.297	388.94
535.511	385.94
535.726	394.94
535.94	409.94
536.154	407.94
536.369	394.94
536.583	382.94
536.797	397.94
537.011	396.94
537.225	390.94
537.44	382.94
537.654	407.94
537.868	398.94
538.082	381.94
538.296	390.94
538.51	394.94
538.724	389.94
538.938	384.94
539.153	398.94
539.367	399.94
539.581	393.94
539.795	393.94
540.009	407.94
540.222	402.94
540.436	389.94
540.65	392.94
540.864	391.94
541.078	397.94
541.292	390.94
541.506	399.94
541.72	402.94
541.934	371.94
542.147	358.94
542.361	359.94
542.575	382.94
542.789	361.94
543.002	378.94
543.216	395.94
543.43	404.94
543.644	398.94
543.857	386.94
544.071	367.94
544.285	392.94
544.498	370.94
544.712	376.94
544.925	380.94
545.139	382.94
545.352	374.94
545.566	377.94
545.779	367.94
545.993	376.94
546.206	374.94
546.42	382.94
546.633	363.94
546.847	373.94
547.06	366.94
547.274	368.94
547.487	378.94
547.7	372.94
547.914	363.94
548.127	374.94
548.34	361.94
548.554	349.94
548.767	365.94
548.98	356.94
549.193	365.94
549.407	370.94
549.62	364.94
549.833	365.94
550.046	371.94
550.259	342.94
550.473	342.94
550.686	374.94
550.899	374.94
551.112	343.94
551.325	357.94
551.538	345.94
551.751	347.94
551.964	331.94
552.177	324.94
552.39	372.94
552.603	330.94
552.816	333.94
553.029	360.94
553.242	366.94
553.455	359.94
553.667	370.94
553.88	366.94
554.093	371.94
554.306	356.94
554.519	359.94
554.732	361.94
554.944	372.94
555.157	351.94
555.37	359.94
555.583	348.94
555.795	350.94
556.008	334.94
556.221	327.94
556.433	331.94
556.646	336.94
556.859	349.94
557.071	342.94
557.284	315.94
557.496	316.94
557.709	339.94
557.921	337.94
558.134	344.94
558.346	332.94
558.559	312.94
558.771	304.94
558.984	318.94
559.196	330.94
559.409	327.94
559.621	323.94
559.833	322.94
560.046	332.94
560.258	323.94
560.47	322.94
560.683	335.94
560.895	316.94
561.107	310.94
561.32	298.94
561.532	315.94
561.744	325.94
561.956	315.94
562.168	320.94
562.381	326.94
562.593	342.94
562.805	311.94
563.017	339.94
563.229	324.94
563.441	332.94
563.653	328.94
563.865	334.94
564.077	340.94
564.289	332.94
564.501	332.94
564.713	341.94
564.925	325.94
565.137	337.94
565.349	357.94
565.561	346.94
565.773	353.94
565.985	346.94
566.197	351.94
566.408	367.94
566.62	367.94
566.832	359.94
567.044	335.94
567.255	373.94
567.467	389.94
567.679	377.94
567.891	365.94
568.102	367.94
568.314	383.94
568.526	375.94
568.737	363.94
568.949	344.94
569.161	342.94
569.372	352.94
569.584	329.94
569.795	342.94
570.007	341.94
570.218	382.94
570.43	347.94
570.641	337.94
570.853	315.94
571.064	317.94
571.276	317.94
571.487	284.94
571.698	308.94
571.91	298.94
572.121	289.94
572.333	306.94
572.544	284.94
572.755	305.94
572.966	283.94
573.178	292.94
573.389	265.94
573.6	248.94
573.811	286.94
574.023	267.94
574.234	279.94
574.445	284.94
574.656	271.94
574.867	271.94
575.078	286.94
575.289	291.94
575.501	281.94
575.712	289.94
575.923	273.94
576.134	283.94
576.345	282.94
576.556	293.94
576.767	288.94
576.978	274.94
577.188	283.94
577.399	275.94
577.61	263.94
577.821	268.94
578.032	286.94
578.243	306.94
578.454	552.94
578.665	394.94
578.875	293.94
579.086	280.94
579.297	282.94
579.508	287.94
579.718	249.94
579.929	269.94
580.14	257.94
580.35	271.94
580.561	266.94
580.772	261.94
580.982	266.94
581.193	268.94
581.403	239.94
581.614	252.94
581.825	235.94
582.035	258.94
582.246	269.94
582.456	264.94
582.667	254.94
582.877	283.94
583.087	265.94
583.298	256.94
583.508	255.94
583.719	253.94
583.929	267.94
584.139	263.94
584.35	247.94
584.56	262.94
584.77	258.94
584.981	258.94
585.191	259.94
585.401	246.94
585.611	256.94
585.821	238.94
586.032	262.94
586.242	259.94
586.452	248.94
586.662	246.94
586.872	226.94
587.082	246.94
587.292	248.94
587.502	249.94
587.713	249.94
587.923	231.94
588.133	235.94
588.343	233.94
588.553	263.94
588.762	252.94
588.972	245.94
589.182	308.94
589.392	297.94
589.602	260.94
589.812	296.94
590.022	273.94
590.232	242.94
590.441	234.94
590.651	258.94
590.861	253.94
591.071	249.94
591.281	246.94
591.49	248.94
591.7	246.94
591.91	244.94
592.119	248.94
592.329	239.94
592.539	244.94
592.748	249.94
592.958	258.94
593.167	259.94
593.377	246.94
593.587	264.94
593.796	269.94
594.006	262.94
594.215	249.94
594.424	242.94
594.634	238.94
594.843	242.94
595.053	239.94
595.262	229.94
595.472	252.94
595.681	239.94
595.89	236.94
596.1	237.94
596.309	230.94
596.518	230.94
596.727	230.94
596.937	208.94
597.146	233.94
597.355	221.94
597.564	216.94
597.774	235.94
597.983	222.94
598.192	216.94
598.401	227.94
598.61	213.94
598.819	221.94
599.028	223.94
599.237	216.94
599.446	210.94
599.655	219.94
599.864	229.94
600.073	217.94
600.282	229.94
600.491	224.94
600.7	214.94
600.909	213.94
601.118	222.94
601.327	210.94
601.536	220.94
601.745	216.94
601.953	214.94
602.162	194.94
602.371	210.94
602.58	212.94
602.789	217.94
602.997	228.94
603.206	211.94
603.415	225.94
603.623	200.94
603.832	206.94
604.041	194.94
604.249	201.94
604.458	201.94
604.666	184.94
604.875	211.94
605.084	221.94
605.292	217.94
605.501	208.94
605.709	218.94
605.918	225.94
606.126	228.94
606.334	203.94
606.543	217.94
606.751	199.94
606.96	208.94
607.168	209.94
607.376	215.94
607.585	198.94
607.793	208.94
608.001	219.94
608.21	207.94
608.418	196.94
608.626	208.94
608.834	216.94
609.043	197.94
609.251	198.94
609.459	205.94
609.667	200.94
609.875	207.94
610.083	202.94
610.291	196.94
610.499	200.94
610.707	202.94
610.916	194.94
611.124	204.94
611.332	201.94
611.54	195.94
611.748	207.94
611.955	216.94
612.163	224.94
612.371	207.94
612.579	203.94
612.787	195.94
612.995	208.94
613.203	205.94
613.411	193.94
613.618	196.94
613.826	208.94
614.034	196.94
614.242	207.94
614.449	209.94
614.657	205.94
614.865	182.94
615.072	194.94
615.28	202.94
615.488	189.94
615.695	216.94
615.903	203.94
616.111	185.94
616.318	195.94
616.526	201.94
616.733	194.94
616.941	206.94
617.148	188.94
617.356	203.94
617.563	217.94
617.771	202.94
617.978	178.94
618.185	199.94
618.393	200.94
618.6	203.94
618.807	199.94
619.015	185.94
619.222	204.94
619.429	202.94
619.637	190.94
619.844	204.94
620.051	192.94
620.258	184.94
620.466	188.94
620.673	193.94
620.88	188.94
621.087	179.94
621.294	195.94
621.501	181.94
621.708	184.94
621.915	205.94
622.122	180.94
622.329	180.94
622.536	184.94
622.743	173.94
622.95	188.94
623.157	190.94
623.364	191.94
623.571	191.94
623.778	180.94
623.985	197.94
624.192	180.94
624.399	184.94
624.606	184.94
624.812	174.94
625.019	172.94
625.226	169.94
625.433	169.94
625.639	175.94
625.846	183.94
626.053	181.94
626.259	179.94
626.466	181.94
626.673	173.94
626.879	162.94
627.086	187.94
627.293	178.94
627.499	182.94
627.706	179.94
627.912	172.94
628.119	167.94
628.325	171.94
628.532	177.94
628.738	173.94
628.945	166.94
629.151	182.94
629.357	169.94
629.564	168.94
629.77	162.94
629.976	185.94
630.183	163.94
630.389	164.94
630.595	163.94
630.802	173.94
631.008	173.94
631.214	174.94
631.42	174.94
631.627	170.94
631.833	163.94
632.039	173.94
632.245	180.94
632.451	157.94
632.657	155.94
632.863	170.94
633.069	176.94
633.275	185.94
633.481	168.94
633.688	148.94
633.893	162.94
634.099	155.94
634.305	144.94
634.511	133.94
634.717	171.94
634.923	157.94
635.129	152.94
635.335	156.94
635.541	149.94
635.747	154.94
635.952	166.94
636.158	152.94
636.364	175.94
636.57	163.94
636.775	172.94
636.981	161.94
637.187	157.94
637.392	143.94
637.598	144.94
637.804	150.94
638.009	158.94
638.215	173.94
638.421	138.94
638.626	161.94
638.832	162.94
639.037	159.94
639.243	154.94
639.448	163.94
639.654	159.94
639.859	157.94
640.065	156.94
640.27	166.94
640.475	160.94
640.681	157.94
640.886	156.94
641.091	159.94
641.297	159.94
641.502	115.94
641.707	159.94
641.913	142.94
642.118	168.94
642.323	157.94
642.528	156.94
642.733	136.94
642.939	153.94
643.144	148.94
643.349	149.94
643.554	154.94
643.759	141.94
643.964	148.94
644.169	154.94
644.374	159.94
644.579	158.94
644.784	155.94
644.989	163.94
645.194	151.94
645.399	141.94
645.604	138.94
645.809	152.94
646.014	158.94
646.219	141.94
646.423	146.94
646.628	144.94
646.833	154.94
647.038	136.94
647.243	145.94
647.447	140.94
647.652	156.94
647.857	138.94
648.062	140.94
648.266	152.94
648.471	158.94
648.676	149.94
648.88	152.94
649.085	141.94
649.289	148.94
649.494	167.94
649.698	149.94
649.903	166.94
650.107	148.94
650.312	152.94
650.516	150.94
650.721	147.94
650.925	122.94
651.13	143.94
651.334	133.94
651.539	120.94
651.743	139.94
651.947	140.94
652.152	140.94
652.356	149.94
652.56	125.94
652.764	134.94
652.969	134.94
653.173	125.94
653.377	136.94
653.581	119.94
653.785	127.94
653.99	122.94
654.194	126.94
654.398	120.94
654.602	127.94
654.806	137.94
655.01	138.94
655.214	130.94
655.418	125.94
655.622	112.94
655.826	137.94
656.03	135.94
656.234	125.94
656.438	128.94
656.642	127.94
656.846	125.94
657.049	126.94
657.253	134.94
657.457	130.94
657.661	109.94
657.865	105.94
658.068	98.94
658.272	108.94
658.476	102.94
658.68	102.94
658.883	109.94
659.087	98.94
659.291	106.94
659.494	92.94
659.698	78.94
659.901	102.94
660.105	102.94
660.309	109.94
660.512	94.94
660.716	94.94
660.919	101.94
661.123	106.94
661.326	101.94
661.53	89.94
661.733	93.94
661.936	88.94
662.14	97.94
662.343	83.94
662.546	82.94
662.75	81.94
662.953	88.94
663.156	92.94
663.36	82.94
663.563	68.94
663.766	91.94
663.969	77.94
664.173	73.94
664.376	90.94
664.579	82.94
664.782	85.94
664.985	87.94
665.188	67.94
665.391	85.94
665.594	82.94
665.797	75.94
666	84.94
666.203	78.94
666.406	72.94
666.609	87.94
666.812	82.94
667.015	73.94
667.218	80.94
667.421	79.94
667.624	86.94
667.827	71.94
668.03	78.94
668.232	82.94
668.435	81.94
668.638	85.94
668.841	93.94
669.043	89.94
669.246	86.94
669.449	86.94
669.651	77.94
669.854	78.94
670.057	78.94
670.259	68.94
670.462	82.94
670.665	65.94
670.867	79.94
671.07	76.94
671.272	68.94
671.475	80.94
671.677	76.94
671.88	82.94
672.082	85.94
672.284	85.94
672.487	80.94
672.689	81.94
672.892	79.94
