Data from 1965.PennyLincolnUp.Lamp.En5.5.200Scan.071719.P1._HRD10591_14-08-57-911.txt Node
Date: Thu Jul 18 14:08:57 EDT 2019
User: cochatt
Spectrometer: HR+D1059
Trigger mode: 1
Integration Time (sec): 1.000000E-1
Scans to average: 1
Electric dark correction enabled: true
Nonlinearity correction enabled: false
Boxcar width: 0
XAxis mode: Wavelengths
Number of Pixels in Spectrum: 2048
>>>>>Begin Spectral Data<<<<<
223.165	-8.5
223.4	-8.5
223.635	-8.5
223.869	-17.5
224.104	-20.5
224.338	-16.5
224.573	-20.5
224.808	-12.5
225.042	-11.5
225.277	-20.5
225.511	1.5
225.746	13.5
225.98	22.5
226.215	17.5
226.449	12.5
226.683	21.5
226.918	15.5
227.152	23.5
227.387	18.5
227.621	37.5
227.856	39.5
228.09	53.5
228.324	45.5
228.559	52.5
228.793	53.5
229.027	80.5
229.262	91.5
229.496	111.5
229.73	119.5
229.964	140.5
230.199	109.5
230.433	106.5
230.667	118.5
230.901	135.5
231.136	116.5
231.37	109.5
231.604	99.5
231.838	97.5
232.072	103.5
232.306	110.5
232.541	114.5
232.775	115.5
233.009	108.5
233.243	115.5
233.477	107.5
233.711	102.5
233.945	99.5
234.179	114.5
234.413	124.5
234.647	116.5
234.881	116.5
235.115	103.5
235.349	104.5
235.583	99.5
235.817	98.5
236.051	122.5
236.285	108.5
236.519	123.5
236.753	105.5
236.987	135.5
237.221	184.5
237.455	201.5
237.689	185.5
237.922	133.5
238.156	125.5
238.39	122.5
238.624	129.5
238.858	122.5
239.091	115.5
239.325	106.5
239.559	121.5
239.793	119.5
240.027	124.5
240.26	128.5
240.494	131.5
240.728	139.5
240.961	138.5
241.195	143.5
241.429	118.5
241.662	114.5
241.896	119.5
242.13	130.5
242.363	127.5
242.597	121.5
242.83	122.5
243.064	129.5
243.298	125.5
243.531	126.5
243.765	121.5
243.998	126.5
244.232	124.5
244.465	142.5
244.699	128.5
244.932	126.5
245.166	129.5
245.399	124.5
245.633	141.5
245.866	137.5
246.099	133.5
246.333	138.5
246.566	126.5
246.8	135.5
247.033	144.5
247.266	159.5
247.5	147.5
247.733	140.5
247.966	164.5
248.2	169.5
248.433	143.5
248.666	157.5
248.899	157.5
249.133	172.5
249.366	186.5
249.599	170.5
249.832	146.5
250.066	161.5
250.299	170.5
250.532	163.5
250.765	181.5
250.998	203.5
251.231	229.5
251.465	188.5
251.698	185.5
251.931	156.5
252.164	181.5
252.397	174.5
252.63	167.5
252.863	190.5
253.096	194.5
253.329	217.5
253.562	205.5
253.795	197.5
254.028	187.5
254.261	188.5
254.494	205.5
254.727	222.5
254.96	252.5
255.193	243.5
255.426	243.5
255.659	212.5
255.892	208.5
256.124	195.5
256.357	211.5
256.59	198.5
256.823	194.5
257.056	183.5
257.289	185.5
257.521	177.5
257.754	168.5
257.987	181.5
258.22	164.5
258.452	181.5
258.685	173.5
258.918	195.5
259.151	180.5
259.383	187.5
259.616	187.5
259.849	192.5
260.081	207.5
260.314	222.5
260.547	222.5
260.779	219.5
261.012	196.5
261.244	211.5
261.477	189.5
261.71	191.5
261.942	220.5
262.175	222.5
262.407	206.5
262.64	202.5
262.872	191.5
263.105	195.5
263.337	198.5
263.57	185.5
263.802	192.5
264.035	183.5
264.267	190.5
264.499	190.5
264.732	194.5
264.964	188.5
265.197	194.5
265.429	192.5
265.661	181.5
265.894	187.5
266.126	169.5
266.358	191.5
266.591	185.5
266.823	204.5
267.055	205.5
267.287	195.5
267.52	195.5
267.752	199.5
267.984	199.5
268.216	198.5
268.448	202.5
268.681	215.5
268.913	231.5
269.145	220.5
269.377	252.5
269.609	232.5
269.841	246.5
270.073	231.5
270.306	246.5
270.538	279.5
270.77	281.5
271.002	259.5
271.234	251.5
271.466	254.5
271.698	274.5
271.93	272.5
272.162	245.5
272.394	285.5
272.626	280.5
272.858	244.5
273.09	257.5
273.322	235.5
273.553	241.5
273.785	246.5
274.017	237.5
274.249	236.5
274.481	241.5
274.713	231.5
274.945	234.5
275.176	249.5
275.408	235.5
275.64	227.5
275.872	202.5
276.104	241.5
276.335	230.5
276.567	236.5
276.799	225.5
277.031	266.5
277.262	289.5
277.494	277.5
277.726	268.5
277.957	262.5
278.189	264.5
278.421	251.5
278.652	241.5
278.884	240.5
279.115	222.5
279.347	244.5
279.579	223.5
279.81	247.5
280.042	228.5
280.273	230.5
280.505	225.5
280.736	232.5
280.968	235.5
281.199	215.5
281.431	217.5
281.662	230.5
281.894	222.5
282.125	217.5
282.356	247.5
282.588	259.5
282.819	270.5
283.051	248.5
283.282	236.5
283.513	252.5
283.745	251.5
283.976	216.5
284.207	255.5
284.439	246.5
284.67	237.5
284.901	241.5
285.132	236.5
285.364	230.5
285.595	237.5
285.826	224.5
286.057	260.5
286.288	238.5
286.52	245.5
286.751	225.5
286.982	252.5
287.213	234.5
287.444	230.5
287.675	259.5
287.906	265.5
288.138	257.5
288.369	283.5
288.6	263.5
288.831	241.5
289.062	251.5
289.293	246.5
289.524	246.5
289.755	250.5
289.986	244.5
290.217	255.5
290.448	250.5
290.679	248.5
290.91	257.5
291.141	238.5
291.371	229.5
291.602	264.5
291.833	252.5
292.064	226.5
292.295	257.5
292.526	252.5
292.757	246.5
292.987	230.5
293.218	257.5
293.449	250.5
293.68	259.5
293.91	255.5
294.141	244.5
294.372	249.5
294.603	262.5
294.833	239.5
295.064	243.5
295.295	250.5
295.525	259.5
295.756	249.5
295.987	252.5
296.217	286.5
296.448	284.5
296.679	271.5
296.909	259.5
297.14	244.5
297.37	276.5
297.601	256.5
297.831	267.5
298.062	279.5
298.292	255.5
298.523	241.5
298.753	243.5
298.984	245.5
299.214	246.5
299.445	268.5
299.675	270.5
299.905	274.5
300.136	281.5
300.366	261.5
300.597	270.5
300.827	263.5
301.057	278.5
301.288	299.5
301.518	283.5
301.748	282.5
301.979	279.5
302.209	269.5
302.439	279.5
302.669	266.5
302.9	279.5
303.13	278.5
303.36	272.5
303.59	283.5
303.82	286.5
304.051	304.5
304.281	285.5
304.511	272.5
304.741	276.5
304.971	261.5
305.201	289.5
305.431	271.5
305.661	295.5
305.891	288.5
306.121	281.5
306.352	271.5
306.582	291.5
306.812	278.5
307.042	275.5
307.272	270.5
307.502	290.5
307.731	291.5
307.961	267.5
308.191	300.5
308.421	299.5
308.651	283.5
308.881	292.5
309.111	285.5
309.341	296.5
309.571	300.5
309.8	309.5
310.03	323.5
310.26	333.5
310.49	317.5
310.72	334.5
310.949	342.5
311.179	357.5
311.409	345.5
311.639	328.5
311.868	326.5
312.098	329.5
312.328	349.5
312.557	353.5
312.787	359.5
313.017	351.5
313.246	334.5
313.476	328.5
313.706	338.5
313.935	337.5
314.165	342.5
314.394	349.5
314.624	330.5
314.853	330.5
315.083	336.5
315.312	344.5
315.542	314.5
315.771	329.5
316.001	318.5
316.23	313.5
316.46	322.5
316.689	316.5
316.919	319.5
317.148	331.5
317.377	340.5
317.607	334.5
317.836	317.5
318.065	332.5
318.295	335.5
318.524	299.5
318.753	323.5
318.983	334.5
319.212	339.5
319.441	340.5
319.67	328.5
319.9	325.5
320.129	323.5
320.358	323.5
320.587	327.5
320.816	350.5
321.046	371.5
321.275	374.5
321.504	364.5
321.733	360.5
321.962	360.5
322.191	363.5
322.42	375.5
322.649	391.5
322.878	394.5
323.108	420.5
323.337	445.5
323.566	481.5
323.795	470.5
324.024	547.5
324.253	677.5
324.482	974.5
324.71	1490.5
324.939	2069.5
325.168	1650.5
325.397	885.5
325.626	595.5
325.855	498.5
326.084	468.5
326.313	460.5
326.542	460.5
326.77	532.5
326.999	630.5
327.228	851.5
327.457	1286.5
327.686	1496.5
327.914	997.5
328.143	685.5
328.372	601.5
328.6	542.5
328.829	525.5
329.058	515.5
329.287	534.5
329.515	509.5
329.744	430.5
329.972	459.5
330.201	493.5
330.43	529.5
330.658	542.5
330.887	573.5
331.115	533.5
331.344	473.5
331.572	439.5
331.801	440.5
332.03	438.5
332.258	381.5
332.486	401.5
332.715	388.5
332.943	385.5
333.172	389.5
333.4	408.5
333.629	414.5
333.857	410.5
334.085	430.5
334.314	445.5
334.542	482.5
334.771	486.5
334.999	423.5
335.227	420.5
335.455	399.5
335.684	391.5
335.912	374.5
336.14	379.5
336.369	372.5
336.597	379.5
336.825	384.5
337.053	385.5
337.281	367.5
337.51	379.5
337.738	371.5
337.966	385.5
338.194	389.5
338.422	384.5
338.65	380.5
338.878	378.5
339.106	370.5
339.334	365.5
339.562	382.5
339.79	368.5
340.018	360.5
340.246	373.5
340.474	355.5
340.702	380.5
340.93	376.5
341.158	370.5
341.386	359.5
341.614	370.5
341.842	385.5
342.07	389.5
342.298	357.5
342.526	362.5
342.754	350.5
342.981	340.5
343.209	349.5
343.437	355.5
343.665	356.5
343.893	344.5
344.12	372.5
344.348	374.5
344.576	347.5
344.804	371.5
345.031	373.5
345.259	393.5
345.487	388.5
345.714	373.5
345.942	369.5
346.17	359.5
346.397	353.5
346.625	361.5
346.853	371.5
347.08	351.5
347.308	370.5
347.535	384.5
347.763	393.5
347.99	397.5
348.218	390.5
348.445	382.5
348.673	379.5
348.9	351.5
349.128	351.5
349.355	342.5
349.583	348.5
349.81	357.5
350.037	343.5
350.265	353.5
350.492	346.5
350.72	357.5
350.947	333.5
351.174	360.5
351.402	382.5
351.629	350.5
351.856	356.5
352.083	383.5
352.311	385.5
352.538	404.5
352.765	369.5
352.992	350.5
353.22	363.5
353.447	366.5
353.674	364.5
353.901	362.5
354.128	342.5
354.355	345.5
354.583	333.5
354.81	350.5
355.037	355.5
355.264	339.5
355.491	323.5
355.718	309.5
355.945	338.5
356.172	331.5
356.399	326.5
356.626	323.5
356.853	310.5
357.08	323.5
357.307	339.5
357.534	325.5
357.761	339.5
357.988	332.5
358.215	316.5
358.441	329.5
358.668	341.5
358.895	338.5
359.122	344.5
359.349	356.5
359.576	355.5
359.802	383.5
360.029	407.5
360.256	436.5
360.483	397.5
360.709	371.5
360.936	382.5
361.163	359.5
361.39	363.5
361.616	355.5
361.843	371.5
362.07	360.5
362.296	359.5
362.523	355.5
362.749	372.5
362.976	381.5
363.203	360.5
363.429	346.5
363.656	343.5
363.882	358.5
364.109	342.5
364.335	338.5
364.562	351.5
364.788	334.5
365.015	338.5
365.241	339.5
365.468	350.5
365.694	343.5
365.92	346.5
366.147	346.5
366.373	362.5
366.599	335.5
366.826	326.5
367.052	348.5
367.278	349.5
367.505	323.5
367.731	357.5
367.957	341.5
368.184	349.5
368.41	350.5
368.636	335.5
368.862	345.5
369.089	350.5
369.315	345.5
369.541	342.5
369.767	347.5
369.993	338.5
370.219	347.5
370.445	360.5
370.672	335.5
370.898	335.5
371.124	339.5
371.35	344.5
371.576	327.5
371.802	337.5
372.028	341.5
372.254	333.5
372.48	322.5
372.706	337.5
372.932	341.5
373.158	334.5
373.384	347.5
373.61	325.5
373.835	349.5
374.061	333.5
374.287	336.5
374.513	355.5
374.739	337.5
374.965	321.5
375.191	350.5
375.416	318.5
375.642	339.5
375.868	324.5
376.094	335.5
376.319	340.5
376.545	335.5
376.771	330.5
376.997	324.5
377.222	334.5
377.448	324.5
377.674	323.5
377.899	326.5
378.125	309.5
378.35	338.5
378.576	333.5
378.802	337.5
379.027	327.5
379.253	327.5
379.478	343.5
379.704	341.5
379.929	341.5
380.155	332.5
380.38	309.5
380.606	326.5
380.831	335.5
381.057	332.5
381.282	334.5
381.507	326.5
381.733	351.5
381.958	335.5
382.184	347.5
382.409	348.5
382.634	358.5
382.86	340.5
383.085	334.5
383.31	362.5
383.535	330.5
383.761	312.5
383.986	349.5
384.211	339.5
384.436	355.5
384.662	359.5
384.887	329.5
385.112	349.5
385.337	341.5
385.562	355.5
385.787	335.5
386.013	350.5
386.238	363.5
386.463	371.5
386.688	363.5
386.913	358.5
387.138	353.5
387.363	347.5
387.588	346.5
387.813	361.5
388.038	353.5
388.263	367.5
388.488	349.5
388.713	359.5
388.938	368.5
389.163	363.5
389.387	353.5
389.612	358.5
389.837	362.5
390.062	353.5
390.287	360.5
390.512	351.5
390.736	349.5
390.961	347.5
391.186	347.5
391.411	369.5
391.636	385.5
391.86	364.5
392.085	355.5
392.31	349.5
392.534	347.5
392.759	359.5
392.984	365.5
393.208	365.5
393.433	358.5
393.658	371.5
393.882	346.5
394.107	361.5
394.331	376.5
394.556	366.5
394.78	355.5
395.005	357.5
395.229	347.5
395.454	355.5
395.678	364.5
395.903	376.5
396.127	377.5
396.352	397.5
396.576	381.5
396.801	359.5
397.025	366.5
397.249	356.5
397.474	374.5
397.698	372.5
397.922	399.5
398.147	399.5
398.371	417.5
398.595	391.5
398.82	407.5
399.044	435.5
399.268	402.5
399.492	438.5
399.717	455.5
399.941	463.5
400.165	486.5
400.389	502.5
400.613	483.5
400.837	413.5
401.062	425.5
401.286	424.5
401.51	402.5
401.734	422.5
401.958	394.5
402.182	412.5
402.406	409.5
402.63	412.5
402.854	415.5
403.078	434.5
403.302	413.5
403.526	412.5
403.75	434.5
403.974	419.5
404.198	411.5
404.422	419.5
404.645	421.5
404.869	439.5
405.093	461.5
405.317	483.5
405.541	503.5
405.765	475.5
405.988	450.5
406.212	454.5
406.436	465.5
406.66	488.5
406.883	483.5
407.107	470.5
407.331	504.5
407.555	577.5
407.778	558.5
408.002	487.5
408.226	464.5
408.449	466.5
408.673	492.5
408.896	492.5
409.12	519.5
409.344	477.5
409.567	440.5
409.791	440.5
410.014	436.5
410.238	420.5
410.461	421.5
410.685	420.5
410.908	443.5
411.132	475.5
411.355	487.5
411.578	454.5
411.802	451.5
412.025	421.5
412.249	443.5
412.472	460.5
412.695	485.5
412.919	455.5
413.142	432.5
413.365	423.5
413.589	411.5
413.812	406.5
414.035	400.5
414.258	405.5
414.482	395.5
414.705	388.5
414.928	382.5
415.151	405.5
415.374	383.5
415.597	403.5
415.821	398.5
416.044	380.5
416.267	392.5
416.49	419.5
416.713	385.5
416.936	398.5
417.159	386.5
417.382	408.5
417.605	406.5
417.828	416.5
418.051	411.5
418.274	418.5
418.497	398.5
418.72	424.5
418.943	414.5
419.166	403.5
419.389	431.5
419.611	412.5
419.834	441.5
420.057	427.5
420.28	411.5
420.503	418.5
420.726	427.5
420.948	419.5
421.171	484.5
421.394	498.5
421.617	435.5
421.839	423.5
422.062	414.5
422.285	434.5
422.507	486.5
422.73	555.5
422.953	505.5
423.175	461.5
423.398	430.5
423.621	425.5
423.843	438.5
424.066	441.5
424.288	471.5
424.511	466.5
424.733	495.5
424.956	587.5
425.178	556.5
425.401	537.5
425.623	580.5
425.846	486.5
426.068	454.5
426.291	451.5
426.513	457.5
426.735	467.5
426.958	482.5
427.18	566.5
427.402	665.5
427.625	733.5
427.847	655.5
428.069	574.5
428.292	513.5
428.514	478.5
428.736	457.5
428.958	449.5
429.181	423.5
429.403	429.5
429.625	439.5
429.847	468.5
430.069	505.5
430.292	502.5
430.514	431.5
430.736	422.5
430.958	405.5
431.18	413.5
431.402	411.5
431.624	392.5
431.846	383.5
432.068	406.5
432.29	409.5
432.512	421.5
432.734	410.5
432.956	409.5
433.178	415.5
433.4	417.5
433.622	405.5
433.844	417.5
434.066	403.5
434.287	403.5
434.509	408.5
434.731	421.5
434.953	419.5
435.175	437.5
435.397	459.5
435.618	461.5
435.84	497.5
436.062	589.5
436.284	601.5
436.505	517.5
436.727	457.5
436.949	428.5
437.17	419.5
437.392	419.5
437.614	445.5
437.835	485.5
438.057	567.5
438.278	648.5
438.5	616.5
438.721	677.5
438.943	646.5
439.165	524.5
439.386	453.5
439.608	461.5
439.829	466.5
440.05	493.5
440.272	522.5
440.493	489.5
440.715	484.5
440.936	445.5
441.158	435.5
441.379	421.5
441.6	446.5
441.822	467.5
442.043	494.5
442.264	574.5
442.486	607.5
442.707	514.5
442.928	498.5
443.149	489.5
443.371	501.5
443.592	543.5
443.813	619.5
444.034	642.5
444.255	553.5
444.476	495.5
444.698	454.5
444.919	462.5
445.14	565.5
445.361	512.5
445.582	517.5
445.803	561.5
446.024	644.5
446.245	637.5
446.466	598.5
446.687	509.5
446.908	450.5
447.129	439.5
447.35	452.5
447.571	422.5
447.792	427.5
448.013	437.5
448.234	460.5
448.455	486.5
448.675	589.5
448.896	667.5
449.117	567.5
449.338	547.5
449.559	641.5
449.779	679.5
450	591.5
450.221	475.5
450.442	441.5
450.662	419.5
450.883	458.5
451.104	441.5
451.324	434.5
451.545	397.5
451.766	418.5
451.986	390.5
452.207	367.5
452.428	406.5
452.648	384.5
452.869	399.5
453.089	404.5
453.31	419.5
453.53	393.5
453.751	411.5
453.971	403.5
454.192	422.5
454.412	390.5
454.633	391.5
454.853	397.5
455.073	396.5
455.294	407.5
455.514	460.5
455.734	461.5
455.955	389.5
456.175	386.5
456.395	367.5
456.616	375.5
456.836	380.5
457.056	366.5
457.276	357.5
457.497	362.5
457.717	377.5
457.937	371.5
458.157	373.5
458.377	375.5
458.598	377.5
458.818	448.5
459.038	561.5
459.258	543.5
459.478	473.5
459.698	419.5
459.918	407.5
460.138	414.5
460.358	408.5
460.578	400.5
460.798	407.5
461.018	421.5
461.238	398.5
461.458	404.5
461.678	413.5
461.898	389.5
462.118	411.5
462.338	400.5
462.558	413.5
462.777	414.5
462.997	421.5
463.217	443.5
463.437	431.5
463.657	418.5
463.876	445.5
464.096	417.5
464.316	445.5
464.536	431.5
464.755	422.5
464.975	437.5
465.195	513.5
465.414	583.5
465.634	497.5
465.854	433.5
466.073	404.5
466.293	413.5
466.512	409.5
466.732	377.5
466.951	380.5
467.171	400.5
467.391	396.5
467.61	395.5
467.829	422.5
468.049	415.5
468.268	433.5
468.488	396.5
468.707	375.5
468.927	385.5
469.146	372.5
469.365	384.5
469.585	373.5
469.804	398.5
470.023	414.5
470.243	411.5
470.462	405.5
470.681	451.5
470.901	409.5
471.12	421.5
471.339	388.5
471.558	403.5
471.777	399.5
471.997	393.5
472.216	418.5
472.435	445.5
472.654	435.5
472.873	395.5
473.092	414.5
473.311	414.5
473.53	398.5
473.749	409.5
473.968	452.5
474.187	535.5
474.406	565.5
474.625	456.5
474.844	420.5
475.063	380.5
475.282	414.5
475.501	401.5
475.72	419.5
475.939	414.5
476.158	416.5
476.377	419.5
476.596	425.5
476.814	423.5
477.033	443.5
477.252	433.5
477.471	421.5
477.69	436.5
477.908	441.5
478.127	441.5
478.346	443.5
478.564	462.5
478.783	451.5
479.002	446.5
479.22	443.5
479.439	444.5
479.658	463.5
479.876	483.5
480.095	476.5
480.313	554.5
480.532	492.5
480.751	480.5
480.969	498.5
481.188	564.5
481.406	604.5
481.624	540.5
481.843	502.5
482.061	519.5
482.28	462.5
482.498	450.5
482.717	455.5
482.935	498.5
483.153	476.5
483.372	490.5
483.59	455.5
483.808	475.5
484.027	455.5
484.245	493.5
484.463	476.5
484.681	478.5
484.9	470.5
485.118	481.5
485.336	481.5
485.554	489.5
485.772	494.5
485.99	491.5
486.209	493.5
486.427	492.5
486.645	485.5
486.863	510.5
487.081	512.5
487.299	534.5
487.517	508.5
487.735	526.5
487.953	517.5
488.171	513.5
488.389	500.5
488.607	523.5
488.825	517.5
489.043	505.5
489.261	501.5
489.479	536.5
489.696	524.5
489.914	525.5
490.132	521.5
490.35	522.5
490.568	524.5
490.786	510.5
491.003	560.5
491.221	531.5
491.439	558.5
491.657	561.5
491.874	582.5
492.092	587.5
492.31	569.5
492.527	584.5
492.745	594.5
492.963	593.5
493.18	578.5
493.398	597.5
493.615	582.5
493.833	586.5
494.05	619.5
494.268	592.5
494.485	595.5
494.703	607.5
494.92	583.5
495.138	604.5
495.355	595.5
495.573	605.5
495.79	585.5
496.008	603.5
496.225	616.5
496.442	590.5
496.66	598.5
496.877	604.5
497.094	619.5
497.312	596.5
497.529	601.5
497.746	607.5
497.963	600.5
498.181	648.5
498.398	616.5
498.615	637.5
498.832	655.5
499.049	663.5
499.267	666.5
499.484	673.5
499.701	703.5
499.918	715.5
500.135	719.5
500.352	751.5
500.569	767.5
500.786	793.5
501.003	748.5
501.22	740.5
501.437	732.5
501.654	714.5
501.871	713.5
502.088	702.5
502.305	696.5
502.522	667.5
502.739	641.5
502.956	645.5
503.172	658.5
503.389	635.5
503.606	657.5
503.823	649.5
504.04	629.5
504.256	583.5
504.473	605.5
504.69	590.5
504.907	590.5
505.123	580.5
505.34	568.5
505.557	559.5
505.773	575.5
505.99	571.5
506.207	567.5
506.423	571.5
506.64	582.5
506.856	554.5
507.073	561.5
507.289	559.5
507.506	602.5
507.722	587.5
507.939	579.5
508.155	554.5
508.372	553.5
508.588	547.5
508.805	547.5
509.021	542.5
509.238	571.5
509.454	590.5
509.67	564.5
509.887	538.5
510.103	554.5
510.319	574.5
510.536	666.5
510.752	1199.5
510.968	927.5
511.184	612.5
511.401	561.5
511.617	556.5
511.833	529.5
512.049	549.5
512.265	521.5
512.481	526.5
512.698	527.5
512.914	537.5
513.13	519.5
513.346	533.5
513.562	524.5
513.778	519.5
513.994	571.5
514.21	570.5
514.426	573.5
514.642	639.5
514.858	642.5
515.074	684.5
515.29	839.5
515.506	1298.5
515.721	1056.5
515.937	666.5
516.153	617.5
516.369	596.5
516.585	565.5
516.801	548.5
517.016	565.5
517.232	572.5
517.448	543.5
517.664	556.5
517.879	541.5
518.095	541.5
518.311	548.5
518.527	524.5
518.742	554.5
518.958	543.5
519.173	528.5
519.389	539.5
519.605	535.5
519.82	547.5
520.036	548.5
520.251	603.5
520.467	623.5
520.682	617.5
520.898	604.5
521.113	630.5
521.329	663.5
521.544	777.5
521.76	997.5
521.975	1735.5
522.19	1671.5
522.406	882.5
522.621	638.5
522.836	591.5
523.052	528.5
523.267	531.5
523.482	516.5
523.698	508.5
523.913	497.5
524.128	482.5
524.343	461.5
524.559	462.5
524.774	468.5
524.989	468.5
525.204	458.5
525.419	460.5
525.634	469.5
525.849	435.5
526.064	442.5
526.28	443.5
526.495	451.5
526.71	450.5
526.925	437.5
527.14	431.5
527.355	433.5
527.57	435.5
527.785	452.5
527.999	422.5
528.214	437.5
528.429	441.5
528.644	449.5
528.859	440.5
529.074	433.5
529.289	461.5
529.503	532.5
529.718	523.5
529.933	483.5
530.148	478.5
530.363	451.5
530.577	451.5
530.792	429.5
531.007	413.5
531.221	414.5
531.436	427.5
531.651	436.5
531.865	408.5
532.08	398.5
532.295	428.5
532.509	424.5
532.724	424.5
532.938	433.5
533.153	413.5
533.367	391.5
533.582	383.5
533.796	409.5
534.011	403.5
534.225	414.5
534.44	391.5
534.654	404.5
534.868	421.5
535.083	395.5
535.297	427.5
535.511	410.5
535.726	437.5
535.94	404.5
536.154	409.5
536.369	403.5
536.583	413.5
536.797	407.5
537.011	396.5
537.225	383.5
537.44	394.5
537.654	393.5
537.868	392.5
538.082	405.5
538.296	380.5
538.51	395.5
538.724	400.5
538.938	400.5
539.153	406.5
539.367	418.5
539.581	404.5
539.795	418.5
540.009	405.5
540.222	391.5
540.436	386.5
540.65	395.5
540.864	382.5
541.078	401.5
541.292	390.5
541.506	377.5
541.72	385.5
541.934	382.5
542.147	393.5
542.361	389.5
542.575	393.5
542.789	395.5
543.002	376.5
543.216	385.5
543.43	392.5
543.644	410.5
543.857	400.5
544.071	375.5
544.285	395.5
544.498	392.5
544.712	381.5
544.925	387.5
545.139	380.5
545.352	376.5
545.566	372.5
545.779	385.5
545.993	375.5
546.206	362.5
546.42	393.5
546.633	369.5
546.847	374.5
547.06	372.5
547.274	365.5
547.487	374.5
547.7	367.5
547.914	361.5
548.127	350.5
548.34	367.5
548.554	377.5
548.767	358.5
548.98	373.5
549.193	347.5
549.407	353.5
549.62	362.5
549.833	382.5
550.046	365.5
550.259	364.5
550.473	353.5
550.686	381.5
550.899	380.5
551.112	355.5
551.325	358.5
551.538	353.5
551.751	360.5
551.964	351.5
552.177	376.5
552.39	371.5
552.603	379.5
552.816	378.5
553.029	347.5
553.242	360.5
553.455	385.5
553.667	353.5
553.88	402.5
554.093	377.5
554.306	372.5
554.519	359.5
554.732	357.5
554.944	353.5
555.157	357.5
555.37	336.5
555.583	333.5
555.795	347.5
556.008	342.5
556.221	357.5
556.433	351.5
556.646	333.5
556.859	343.5
557.071	318.5
557.284	327.5
557.496	331.5
557.709	347.5
557.921	311.5
558.134	326.5
558.346	326.5
558.559	311.5
558.771	310.5
558.984	323.5
559.196	322.5
559.409	327.5
559.621	314.5
559.833	315.5
560.046	319.5
560.258	335.5
560.47	307.5
560.683	316.5
560.895	319.5
561.107	325.5
561.32	319.5
561.532	330.5
561.744	326.5
561.956	322.5
562.168	326.5
562.381	335.5
562.593	354.5
562.805	306.5
563.017	323.5
563.229	334.5
563.441	322.5
563.653	341.5
563.865	323.5
564.077	330.5
564.289	321.5
564.501	322.5
564.713	358.5
564.925	359.5
565.137	342.5
565.349	377.5
565.561	361.5
565.773	350.5
565.985	354.5
566.197	369.5
566.408	355.5
566.62	381.5
566.832	374.5
567.044	359.5
567.255	366.5
567.467	369.5
567.679	362.5
567.891	379.5
568.102	385.5
568.314	374.5
568.526	359.5
568.737	363.5
568.949	337.5
569.161	326.5
569.372	332.5
569.584	332.5
569.795	342.5
570.007	341.5
570.218	371.5
570.43	377.5
570.641	334.5
570.853	320.5
571.064	342.5
571.276	307.5
571.487	311.5
571.698	322.5
571.91	308.5
572.121	298.5
572.333	310.5
572.544	313.5
572.755	306.5
572.966	288.5
573.178	298.5
573.389	300.5
573.6	299.5
573.811	286.5
574.023	279.5
574.234	296.5
574.445	292.5
574.656	279.5
574.867	269.5
575.078	263.5
575.289	280.5
575.501	279.5
575.712	276.5
575.923	268.5
576.134	252.5
576.345	271.5
576.556	284.5
576.767	269.5
576.978	272.5
577.188	283.5
577.399	266.5
577.61	270.5
577.821	274.5
578.032	273.5
578.243	326.5
578.454	572.5
578.665	410.5
578.875	292.5
579.086	286.5
579.297	267.5
579.508	263.5
579.718	263.5
579.929	257.5
580.14	262.5
580.35	247.5
580.561	261.5
580.772	258.5
580.982	263.5
581.193	250.5
581.403	261.5
581.614	275.5
581.825	267.5
582.035	242.5
582.246	265.5
582.456	251.5
582.667	247.5
582.877	281.5
583.087	249.5
583.298	245.5
583.508	238.5
583.719	229.5
583.929	274.5
584.139	252.5
584.35	250.5
584.56	255.5
584.77	266.5
584.981	251.5
585.191	252.5
585.401	249.5
585.611	258.5
585.821	265.5
586.032	247.5
586.242	244.5
586.452	249.5
586.662	258.5
586.872	256.5
587.082	245.5
587.292	266.5
587.502	247.5
587.713	251.5
587.923	265.5
588.133	249.5
588.343	245.5
588.553	255.5
588.762	235.5
588.972	245.5
589.182	316.5
589.392	313.5
589.602	260.5
589.812	279.5
590.022	264.5
590.232	241.5
590.441	235.5
590.651	238.5
590.861	249.5
591.071	261.5
591.281	257.5
591.49	235.5
591.7	257.5
591.91	235.5
592.119	221.5
592.329	244.5
592.539	246.5
592.748	262.5
592.958	262.5
593.167	255.5
593.377	245.5
593.587	259.5
593.796	255.5
594.006	249.5
594.215	260.5
594.424	240.5
594.634	264.5
594.843	235.5
595.053	252.5
595.262	239.5
595.472	225.5
595.681	250.5
595.89	245.5
596.1	238.5
596.309	226.5
596.518	232.5
596.727	250.5
596.937	232.5
597.146	248.5
597.355	213.5
597.564	228.5
597.774	233.5
597.983	230.5
598.192	231.5
598.401	219.5
598.61	233.5
598.819	231.5
599.028	218.5
599.237	228.5
599.446	231.5
599.655	222.5
599.864	218.5
600.073	239.5
600.282	211.5
600.491	228.5
600.7	230.5
600.909	236.5
601.118	209.5
601.327	220.5
601.536	222.5
601.745	206.5
601.953	225.5
602.162	208.5
602.371	211.5
602.58	217.5
602.789	195.5
602.997	197.5
603.206	201.5
603.415	222.5
603.623	206.5
603.832	215.5
604.041	213.5
604.249	199.5
604.458	224.5
604.666	195.5
604.875	220.5
605.084	208.5
605.292	201.5
605.501	206.5
605.709	218.5
605.918	204.5
606.126	199.5
606.334	210.5
606.543	207.5
606.751	219.5
606.96	207.5
607.168	206.5
607.376	199.5
607.585	188.5
607.793	211.5
608.001	214.5
608.21	196.5
608.418	215.5
608.626	213.5
608.834	230.5
609.043	199.5
609.251	219.5
609.459	192.5
609.667	208.5
609.875	198.5
610.083	206.5
610.291	202.5
610.499	204.5
610.707	204.5
610.916	201.5
611.124	217.5
611.332	207.5
611.54	215.5
611.748	222.5
611.955	197.5
612.163	213.5
612.371	205.5
612.579	207.5
612.787	194.5
612.995	202.5
613.203	191.5
613.411	185.5
613.618	204.5
613.826	205.5
614.034	198.5
614.242	186.5
614.449	196.5
614.657	194.5
614.865	189.5
615.072	182.5
615.28	213.5
615.488	213.5
615.695	209.5
615.903	204.5
616.111	199.5
616.318	201.5
616.526	187.5
616.733	205.5
616.941	189.5
617.148	204.5
617.356	183.5
617.563	200.5
617.771	200.5
617.978	196.5
618.185	187.5
618.393	183.5
618.6	197.5
618.807	205.5
619.015	205.5
619.222	185.5
619.429	198.5
619.637	186.5
619.844	174.5
620.051	197.5
620.258	188.5
620.466	201.5
620.673	179.5
620.88	180.5
621.087	196.5
621.294	194.5
621.501	181.5
621.708	170.5
621.915	190.5
622.122	192.5
622.329	183.5
622.536	184.5
622.743	198.5
622.95	198.5
623.157	166.5
623.364	179.5
623.571	182.5
623.778	188.5
623.985	179.5
624.192	183.5
624.399	193.5
624.606	191.5
624.812	171.5
625.019	190.5
625.226	179.5
625.433	191.5
625.639	173.5
625.846	190.5
626.053	187.5
626.259	190.5
626.466	180.5
626.673	183.5
626.879	180.5
627.086	179.5
627.293	166.5
627.499	169.5
627.706	167.5
627.912	183.5
628.119	174.5
628.325	168.5
628.532	170.5
628.738	163.5
628.945	172.5
629.151	165.5
629.357	173.5
629.564	165.5
629.77	163.5
629.976	165.5
630.183	171.5
630.389	165.5
630.595	169.5
630.802	174.5
631.008	170.5
631.214	166.5
631.42	151.5
631.627	184.5
631.833	172.5
632.039	165.5
632.245	154.5
632.451	179.5
632.657	187.5
632.863	155.5
633.069	157.5
633.275	159.5
633.481	167.5
633.688	169.5
633.893	169.5
634.099	158.5
634.305	147.5
634.511	175.5
634.717	154.5
634.923	163.5
635.129	169.5
635.335	165.5
635.541	160.5
635.747	166.5
635.952	150.5
636.158	154.5
636.364	165.5
636.57	158.5
636.775	152.5
636.981	173.5
637.187	167.5
637.392	161.5
637.598	165.5
637.804	164.5
638.009	139.5
638.215	155.5
638.421	155.5
638.626	144.5
638.832	156.5
639.037	158.5
639.243	167.5
639.448	141.5
639.654	147.5
639.859	142.5
640.065	149.5
640.27	156.5
640.475	143.5
640.681	149.5
640.886	141.5
641.091	158.5
641.297	157.5
641.502	150.5
641.707	150.5
641.913	142.5
642.118	148.5
642.323	133.5
642.528	151.5
642.733	155.5
642.939	157.5
643.144	137.5
643.349	161.5
643.554	155.5
643.759	134.5
643.964	146.5
644.169	148.5
644.374	149.5
644.579	154.5
644.784	137.5
644.989	143.5
645.194	153.5
645.399	148.5
645.604	152.5
645.809	148.5
646.014	142.5
646.219	150.5
646.423	152.5
646.628	161.5
646.833	155.5
647.038	161.5
647.243	154.5
647.447	150.5
647.652	158.5
647.857	144.5
648.062	144.5
648.266	124.5
648.471	153.5
648.676	165.5
648.88	158.5
649.085	145.5
649.289	148.5
649.494	158.5
649.698	140.5
649.903	170.5
650.107	152.5
650.312	159.5
650.516	145.5
650.721	165.5
650.925	139.5
651.13	129.5
651.334	124.5
651.539	131.5
651.743	124.5
651.947	133.5
652.152	141.5
652.356	141.5
652.56	135.5
652.764	133.5
652.969	123.5
653.173	139.5
653.377	125.5
653.581	123.5
653.785	136.5
653.99	124.5
654.194	120.5
654.398	137.5
654.602	129.5
654.806	126.5
655.01	124.5
655.214	136.5
655.418	129.5
655.622	126.5
655.826	139.5
656.03	133.5
656.234	139.5
656.438	138.5
656.642	126.5
656.846	118.5
657.049	119.5
657.253	114.5
657.457	129.5
657.661	125.5
657.865	111.5
658.068	119.5
658.272	103.5
658.476	102.5
658.68	107.5
658.883	111.5
659.087	96.5
659.291	113.5
659.494	92.5
659.698	87.5
659.901	96.5
660.105	83.5
660.309	95.5
660.512	89.5
660.716	93.5
660.919	98.5
661.123	89.5
661.326	94.5
661.53	96.5
661.733	95.5
661.936	94.5
662.14	85.5
662.343	87.5
662.546	85.5
662.75	78.5
662.953	86.5
663.156	81.5
663.36	82.5
663.563	88.5
663.766	84.5
663.969	85.5
664.173	88.5
664.376	89.5
664.579	69.5
664.782	85.5
664.985	85.5
665.188	71.5
665.391	81.5
665.594	86.5
665.797	82.5
666	70.5
666.203	79.5
666.406	89.5
666.609	90.5
666.812	94.5
667.015	85.5
667.218	94.5
667.421	67.5
667.624	83.5
667.827	83.5
668.03	75.5
668.232	67.5
668.435	68.5
668.638	66.5
668.841	78.5
669.043	85.5
669.246	75.5
669.449	86.5
669.651	87.5
669.854	92.5
670.057	90.5
670.259	81.5
670.462	78.5
670.665	87.5
670.867	94.5
671.07	78.5
671.272	84.5
671.475	88.5
671.677	81.5
671.88	75.5
672.082	85.5
672.284	83.5
672.487	76.5
672.689	69.5
672.892	88.5
