Data from 1965.PennyLincolnUp.Lamp.En5.5.200Scan.071719.P1._HRD10591_14-10-08-915.txt Node
Date: Thu Jul 18 14:10:08 EDT 2019
User: cochatt
Spectrometer: HR+D1059
Trigger mode: 1
Integration Time (sec): 1.000000E-1
Scans to average: 1
Electric dark correction enabled: true
Nonlinearity correction enabled: false
Boxcar width: 0
XAxis mode: Wavelengths
Number of Pixels in Spectrum: 2048
>>>>>Begin Spectral Data<<<<<
223.165	-15.38
223.4	-15.38
223.635	-15.38
223.869	-12.38
224.104	-13.38
224.338	-8.38
224.573	-12.38
224.808	-20.38
225.042	1.62
225.277	-9.38
225.511	-11.38
225.746	5.62
225.98	-8.38
226.215	3.62
226.449	30.62
226.683	21.62
226.918	24.62
227.152	23.62
227.387	44.62
227.621	34.62
227.856	33.62
228.09	46.62
228.324	38.62
228.559	55.62
228.793	65.62
229.027	90.62
229.262	106.62
229.496	101.62
229.73	127.62
229.964	166.62
230.199	121.62
230.433	127.62
230.667	96.62
230.901	111.62
231.136	103.62
231.37	106.62
231.604	122.62
231.838	100.62
232.072	98.62
232.306	103.62
232.541	103.62
232.775	110.62
233.009	105.62
233.243	124.62
233.477	107.62
233.711	107.62
233.945	95.62
234.179	110.62
234.413	106.62
234.647	105.62
234.881	117.62
235.115	130.62
235.349	129.62
235.583	129.62
235.817	117.62
236.051	118.62
236.285	128.62
236.519	116.62
236.753	113.62
236.987	139.62
237.221	180.62
237.455	228.62
237.689	175.62
237.922	135.62
238.156	122.62
238.39	114.62
238.624	114.62
238.858	116.62
239.091	111.62
239.325	107.62
239.559	124.62
239.793	108.62
240.027	131.62
240.26	125.62
240.494	141.62
240.728	130.62
240.961	134.62
241.195	138.62
241.429	124.62
241.662	127.62
241.896	121.62
242.13	126.62
242.363	135.62
242.597	132.62
242.83	130.62
243.064	131.62
243.298	123.62
243.531	130.62
243.765	126.62
243.998	133.62
244.232	141.62
244.465	130.62
244.699	135.62
244.932	141.62
245.166	136.62
245.399	133.62
245.633	121.62
245.866	123.62
246.099	138.62
246.333	157.62
246.566	141.62
246.8	129.62
247.033	132.62
247.266	150.62
247.5	146.62
247.733	156.62
247.966	141.62
248.2	152.62
248.433	155.62
248.666	160.62
248.899	172.62
249.133	174.62
249.366	198.62
249.599	180.62
249.832	161.62
250.066	165.62
250.299	180.62
250.532	199.62
250.765	195.62
250.998	202.62
251.231	190.62
251.465	184.62
251.698	176.62
251.931	191.62
252.164	165.62
252.397	178.62
252.63	175.62
252.863	178.62
253.096	194.62
253.329	205.62
253.562	199.62
253.795	195.62
254.028	201.62
254.261	222.62
254.494	210.62
254.727	224.62
254.96	263.62
255.193	232.62
255.426	223.62
255.659	208.62
255.892	212.62
256.124	216.62
256.357	219.62
256.59	211.62
256.823	208.62
257.056	200.62
257.289	195.62
257.521	173.62
257.754	175.62
257.987	183.62
258.22	217.62
258.452	183.62
258.685	191.62
258.918	176.62
259.151	190.62
259.383	200.62
259.616	214.62
259.849	203.62
260.081	208.62
260.314	251.62
260.547	240.62
260.779	233.62
261.012	217.62
261.244	195.62
261.477	212.62
261.71	222.62
261.942	204.62
262.175	217.62
262.407	212.62
262.64	191.62
262.872	214.62
263.105	196.62
263.337	201.62
263.57	190.62
263.802	193.62
264.035	175.62
264.267	167.62
264.499	182.62
264.732	186.62
264.964	196.62
265.197	191.62
265.429	190.62
265.661	200.62
265.894	182.62
266.126	181.62
266.358	195.62
266.591	197.62
266.823	196.62
267.055	200.62
267.287	206.62
267.52	216.62
267.752	205.62
267.984	200.62
268.216	213.62
268.448	226.62
268.681	218.62
268.913	221.62
269.145	250.62
269.377	228.62
269.609	252.62
269.841	245.62
270.073	249.62
270.306	280.62
270.538	271.62
270.77	284.62
271.002	271.62
271.234	264.62
271.466	263.62
271.698	267.62
271.93	302.62
272.162	300.62
272.394	300.62
272.626	285.62
272.858	261.62
273.09	246.62
273.322	265.62
273.553	231.62
273.785	264.62
274.017	221.62
274.249	231.62
274.481	246.62
274.713	256.62
274.945	260.62
275.176	237.62
275.408	222.62
275.64	239.62
275.872	247.62
276.104	239.62
276.335	237.62
276.567	254.62
276.799	267.62
277.031	273.62
277.262	291.62
277.494	298.62
277.726	262.62
277.957	275.62
278.189	272.62
278.421	255.62
278.652	272.62
278.884	236.62
279.115	226.62
279.347	259.62
279.579	247.62
279.81	241.62
280.042	231.62
280.273	232.62
280.505	230.62
280.736	238.62
280.968	242.62
281.199	258.62
281.431	239.62
281.662	226.62
281.894	235.62
282.125	246.62
282.356	261.62
282.588	270.62
282.819	275.62
283.051	228.62
283.282	231.62
283.513	238.62
283.745	248.62
283.976	254.62
284.207	254.62
284.439	253.62
284.67	230.62
284.901	262.62
285.132	246.62
285.364	237.62
285.595	265.62
285.826	251.62
286.057	260.62
286.288	260.62
286.52	275.62
286.751	257.62
286.982	261.62
287.213	248.62
287.444	245.62
287.675	254.62
287.906	251.62
288.138	274.62
288.369	293.62
288.6	276.62
288.831	258.62
289.062	260.62
289.293	259.62
289.524	262.62
289.755	256.62
289.986	264.62
290.217	256.62
290.448	247.62
290.679	251.62
290.91	254.62
291.141	239.62
291.371	264.62
291.602	255.62
291.833	252.62
292.064	263.62
292.295	258.62
292.526	266.62
292.757	242.62
292.987	257.62
293.218	262.62
293.449	263.62
293.68	256.62
293.91	249.62
294.141	258.62
294.372	242.62
294.603	260.62
294.833	262.62
295.064	263.62
295.295	253.62
295.525	255.62
295.756	288.62
295.987	274.62
296.217	284.62
296.448	291.62
296.679	266.62
296.909	281.62
297.14	262.62
297.37	273.62
297.601	246.62
297.831	282.62
298.062	269.62
298.292	272.62
298.523	268.62
298.753	264.62
298.984	260.62
299.214	276.62
299.445	272.62
299.675	282.62
299.905	309.62
300.136	276.62
300.366	296.62
300.597	273.62
300.827	269.62
301.057	286.62
301.288	292.62
301.518	298.62
301.748	292.62
301.979	280.62
302.209	311.62
302.439	294.62
302.669	292.62
302.9	282.62
303.13	280.62
303.36	300.62
303.59	284.62
303.82	302.62
304.051	294.62
304.281	295.62
304.511	295.62
304.741	279.62
304.971	288.62
305.201	286.62
305.431	271.62
305.661	278.62
305.891	295.62
306.121	283.62
306.352	322.62
306.582	288.62
306.812	310.62
307.042	285.62
307.272	291.62
307.502	301.62
307.731	311.62
307.961	284.62
308.191	288.62
308.421	288.62
308.651	294.62
308.881	293.62
309.111	318.62
309.341	330.62
309.571	300.62
309.8	335.62
310.03	339.62
310.26	341.62
310.49	348.62
310.72	343.62
310.949	355.62
311.179	357.62
311.409	348.62
311.639	356.62
311.868	354.62
312.098	359.62
312.328	353.62
312.557	352.62
312.787	384.62
313.017	380.62
313.246	344.62
313.476	329.62
313.706	340.62
313.935	344.62
314.165	376.62
314.394	358.62
314.624	358.62
314.853	360.62
315.083	357.62
315.312	348.62
315.542	313.62
315.771	344.62
316.001	332.62
316.23	333.62
316.46	320.62
316.689	331.62
316.919	328.62
317.148	339.62
317.377	354.62
317.607	349.62
317.836	360.62
318.065	337.62
318.295	338.62
318.524	331.62
318.753	335.62
318.983	338.62
319.212	348.62
319.441	359.62
319.67	357.62
319.9	345.62
320.129	344.62
320.358	354.62
320.587	350.62
320.816	370.62
321.046	373.62
321.275	379.62
321.504	378.62
321.733	363.62
321.962	379.62
322.191	380.62
322.42	391.62
322.649	426.62
322.878	427.62
323.108	429.62
323.337	454.62
323.566	501.62
323.795	511.62
324.024	564.62
324.253	706.62
324.482	1024.62
324.71	1588.62
324.939	2172.62
325.168	1804.62
325.397	962.62
325.626	634.62
325.855	527.62
326.084	494.62
326.313	463.62
326.542	494.62
326.77	522.62
326.999	648.62
327.228	905.62
327.457	1386.62
327.686	1567.62
327.914	1062.62
328.143	709.62
328.372	614.62
328.6	564.62
328.829	554.62
329.058	546.62
329.287	592.62
329.515	552.62
329.744	485.62
329.972	467.62
330.201	521.62
330.43	548.62
330.658	595.62
330.887	596.62
331.115	560.62
331.344	504.62
331.572	475.62
331.801	459.62
332.03	471.62
332.258	431.62
332.486	421.62
332.715	396.62
332.943	395.62
333.172	407.62
333.4	402.62
333.629	398.62
333.857	415.62
334.085	443.62
334.314	481.62
334.542	504.62
334.771	519.62
334.999	476.62
335.227	426.62
335.455	432.62
335.684	394.62
335.912	406.62
336.14	399.62
336.369	395.62
336.597	414.62
336.825	398.62
337.053	386.62
337.281	390.62
337.51	379.62
337.738	398.62
337.966	384.62
338.194	373.62
338.422	408.62
338.65	374.62
338.878	378.62
339.106	393.62
339.334	398.62
339.562	372.62
339.79	375.62
340.018	365.62
340.246	382.62
340.474	398.62
340.702	402.62
340.93	392.62
341.158	374.62
341.386	388.62
341.614	375.62
341.842	395.62
342.07	389.62
342.298	373.62
342.526	354.62
342.754	367.62
342.981	368.62
343.209	366.62
343.437	381.62
343.665	397.62
343.893	367.62
344.12	362.62
344.348	372.62
344.576	398.62
344.804	402.62
345.031	423.62
345.259	430.62
345.487	403.62
345.714	388.62
345.942	374.62
346.17	374.62
346.397	361.62
346.625	351.62
346.853	384.62
347.08	370.62
347.308	376.62
347.535	370.62
347.763	398.62
347.99	406.62
348.218	380.62
348.445	377.62
348.673	375.62
348.9	381.62
349.128	391.62
349.355	349.62
349.583	356.62
349.81	366.62
350.037	358.62
350.265	364.62
350.492	374.62
350.72	344.62
350.947	363.62
351.174	385.62
351.402	382.62
351.629	385.62
351.856	398.62
352.083	400.62
352.311	391.62
352.538	403.62
352.765	387.62
352.992	424.62
353.22	381.62
353.447	374.62
353.674	361.62
353.901	360.62
354.128	330.62
354.355	338.62
354.583	368.62
354.81	382.62
355.037	358.62
355.264	316.62
355.491	355.62
355.718	358.62
355.945	344.62
356.172	354.62
356.399	326.62
356.626	330.62
356.853	345.62
357.08	362.62
357.307	355.62
357.534	317.62
357.761	352.62
357.988	330.62
358.215	340.62
358.441	334.62
358.668	375.62
358.895	363.62
359.122	356.62
359.349	337.62
359.576	381.62
359.802	396.62
360.029	436.62
360.256	471.62
360.483	434.62
360.709	380.62
360.936	375.62
361.163	404.62
361.39	374.62
361.616	374.62
361.843	364.62
362.07	373.62
362.296	365.62
362.523	368.62
362.749	383.62
362.976	354.62
363.203	350.62
363.429	348.62
363.656	356.62
363.882	369.62
364.109	348.62
364.335	350.62
364.562	359.62
364.788	340.62
365.015	367.62
365.241	370.62
365.468	370.62
365.694	350.62
365.92	357.62
366.147	349.62
366.373	378.62
366.599	346.62
366.826	351.62
367.052	342.62
367.278	337.62
367.505	350.62
367.731	349.62
367.957	381.62
368.184	365.62
368.41	355.62
368.636	360.62
368.862	367.62
369.089	340.62
369.315	343.62
369.541	343.62
369.767	337.62
369.993	339.62
370.219	347.62
370.445	349.62
370.672	339.62
370.898	337.62
371.124	351.62
371.35	351.62
371.576	348.62
371.802	345.62
372.028	336.62
372.254	356.62
372.48	349.62
372.706	350.62
372.932	351.62
373.158	347.62
373.384	343.62
373.61	330.62
373.835	357.62
374.061	342.62
374.287	353.62
374.513	339.62
374.739	350.62
374.965	346.62
375.191	345.62
375.416	356.62
375.642	354.62
375.868	333.62
376.094	347.62
376.319	352.62
376.545	338.62
376.771	353.62
376.997	348.62
377.222	336.62
377.448	340.62
377.674	338.62
377.899	330.62
378.125	334.62
378.35	362.62
378.576	324.62
378.802	328.62
379.027	342.62
379.253	331.62
379.478	329.62
379.704	342.62
379.929	314.62
380.155	347.62
380.38	341.62
380.606	345.62
380.831	347.62
381.057	350.62
381.282	349.62
381.507	353.62
381.733	347.62
381.958	351.62
382.184	351.62
382.409	354.62
382.634	357.62
382.86	347.62
383.085	340.62
383.31	364.62
383.535	352.62
383.761	356.62
383.986	364.62
384.211	357.62
384.436	355.62
384.662	359.62
384.887	371.62
385.112	364.62
385.337	361.62
385.562	368.62
385.787	368.62
386.013	373.62
386.238	362.62
386.463	368.62
386.688	381.62
386.913	375.62
387.138	378.62
387.363	383.62
387.588	373.62
387.813	373.62
388.038	373.62
388.263	355.62
388.488	348.62
388.713	366.62
388.938	376.62
389.163	358.62
389.387	375.62
389.612	365.62
389.837	370.62
390.062	346.62
390.287	365.62
390.512	363.62
390.736	378.62
390.961	362.62
391.186	367.62
391.411	353.62
391.636	376.62
391.86	380.62
392.085	386.62
392.31	382.62
392.534	374.62
392.759	376.62
392.984	396.62
393.208	366.62
393.433	379.62
393.658	372.62
393.882	346.62
394.107	360.62
394.331	392.62
394.556	359.62
394.78	345.62
395.005	376.62
395.229	380.62
395.454	380.62
395.678	378.62
395.903	382.62
396.127	412.62
396.352	414.62
396.576	379.62
396.801	381.62
397.025	378.62
397.249	397.62
397.474	393.62
397.698	394.62
397.922	413.62
398.147	414.62
398.371	420.62
398.595	409.62
398.82	412.62
399.044	434.62
399.268	418.62
399.492	447.62
399.717	450.62
399.941	478.62
400.165	507.62
400.389	520.62
400.613	470.62
400.837	443.62
401.062	419.62
401.286	420.62
401.51	392.62
401.734	415.62
401.958	420.62
402.182	423.62
402.406	412.62
402.63	432.62
402.854	421.62
403.078	437.62
403.302	443.62
403.526	438.62
403.75	452.62
403.974	443.62
404.198	420.62
404.422	414.62
404.645	417.62
404.869	429.62
405.093	458.62
405.317	479.62
405.541	535.62
405.765	493.62
405.988	471.62
406.212	474.62
406.436	495.62
406.66	500.62
406.883	477.62
407.107	493.62
407.331	532.62
407.555	575.62
407.778	552.62
408.002	535.62
408.226	485.62
408.449	479.62
408.673	460.62
408.896	506.62
409.12	548.62
409.344	512.62
409.567	445.62
409.791	440.62
410.014	422.62
410.238	431.62
410.461	430.62
410.685	447.62
410.908	448.62
411.132	493.62
411.355	500.62
411.578	488.62
411.802	448.62
412.025	420.62
412.249	452.62
412.472	473.62
412.695	486.62
412.919	503.62
413.142	461.62
413.365	434.62
413.589	414.62
413.812	434.62
414.035	418.62
414.258	426.62
414.482	400.62
414.705	413.62
414.928	409.62
415.151	390.62
415.374	413.62
415.597	411.62
415.821	412.62
416.044	432.62
416.267	401.62
416.49	400.62
416.713	404.62
416.936	407.62
417.159	391.62
417.382	396.62
417.605	412.62
417.828	444.62
418.051	430.62
418.274	435.62
418.497	412.62
418.72	404.62
418.943	394.62
419.166	440.62
419.389	439.62
419.611	429.62
419.834	454.62
420.057	429.62
420.28	439.62
420.503	431.62
420.726	442.62
420.948	458.62
421.171	488.62
421.394	495.62
421.617	452.62
421.839	412.62
422.062	441.62
422.285	459.62
422.507	499.62
422.73	555.62
422.953	526.62
423.175	481.62
423.398	461.62
423.621	455.62
423.843	483.62
424.066	465.62
424.288	456.62
424.511	479.62
424.733	523.62
424.956	590.62
425.178	579.62
425.401	552.62
425.623	602.62
425.846	512.62
426.068	465.62
426.291	462.62
426.513	498.62
426.735	489.62
426.958	508.62
427.18	573.62
427.402	684.62
427.625	766.62
427.847	670.62
428.069	587.62
428.292	528.62
428.514	483.62
428.736	444.62
428.958	444.62
429.181	448.62
429.403	446.62
429.625	436.62
429.847	481.62
430.069	520.62
430.292	525.62
430.514	463.62
430.736	427.62
430.958	413.62
431.18	410.62
431.402	424.62
431.624	406.62
431.846	425.62
432.068	399.62
432.29	414.62
432.512	410.62
432.734	407.62
432.956	428.62
433.178	430.62
433.4	436.62
433.622	406.62
433.844	423.62
434.066	401.62
434.287	397.62
434.509	408.62
434.731	450.62
434.953	459.62
435.175	434.62
435.397	456.62
435.618	486.62
435.84	512.62
436.062	590.62
436.284	654.62
436.505	545.62
436.727	504.62
436.949	456.62
437.17	451.62
437.392	435.62
437.614	476.62
437.835	504.62
438.057	603.62
438.278	668.62
438.5	668.62
438.721	707.62
438.943	664.62
439.165	537.62
439.386	509.62
439.608	483.62
439.829	502.62
440.05	504.62
440.272	579.62
440.493	531.62
440.715	482.62
440.936	474.62
441.158	428.62
441.379	427.62
441.6	457.62
441.822	458.62
442.043	539.62
442.264	623.62
442.486	629.62
442.707	516.62
442.928	494.62
443.149	494.62
443.371	524.62
443.592	538.62
443.813	615.62
444.034	638.62
444.255	572.62
444.476	511.62
444.698	474.62
444.919	447.62
445.14	556.62
445.361	510.62
445.582	521.62
445.803	586.62
446.024	671.62
446.245	682.62
446.466	603.62
446.687	522.62
446.908	483.62
447.129	455.62
447.35	446.62
447.571	464.62
447.792	450.62
448.013	447.62
448.234	455.62
448.455	527.62
448.675	596.62
448.896	688.62
449.117	603.62
449.338	566.62
449.559	652.62
449.779	718.62
450	591.62
450.221	495.62
450.442	465.62
450.662	466.62
450.883	458.62
451.104	456.62
451.324	455.62
451.545	415.62
451.766	423.62
451.986	404.62
452.207	402.62
452.428	382.62
452.648	400.62
452.869	411.62
453.089	410.62
453.31	423.62
453.53	398.62
453.751	403.62
453.971	401.62
454.192	432.62
454.412	406.62
454.633	404.62
454.853	401.62
455.073	410.62
455.294	431.62
455.514	474.62
455.734	463.62
455.955	394.62
456.175	398.62
456.395	374.62
456.616	375.62
456.836	370.62
457.056	365.62
457.276	376.62
457.497	386.62
457.717	390.62
457.937	393.62
458.157	390.62
458.377	384.62
458.598	422.62
458.818	461.62
459.038	589.62
459.258	555.62
459.478	475.62
459.698	445.62
459.918	413.62
460.138	409.62
460.358	398.62
460.578	393.62
460.798	422.62
461.018	418.62
461.238	399.62
461.458	407.62
461.678	386.62
461.898	419.62
462.118	413.62
462.338	417.62
462.558	430.62
462.777	425.62
462.997	421.62
463.217	435.62
463.437	446.62
463.657	425.62
463.876	432.62
464.096	437.62
464.316	440.62
464.536	431.62
464.755	446.62
464.975	447.62
465.195	513.62
465.414	584.62
465.634	498.62
465.854	454.62
466.073	414.62
466.293	426.62
466.512	423.62
466.732	410.62
466.951	412.62
467.171	418.62
467.391	428.62
467.61	414.62
467.829	419.62
468.049	429.62
468.268	408.62
468.488	416.62
468.707	398.62
468.927	396.62
469.146	404.62
469.365	387.62
469.585	403.62
469.804	412.62
470.023	431.62
470.243	405.62
470.462	417.62
470.681	427.62
470.901	425.62
471.12	419.62
471.339	407.62
471.558	409.62
471.777	399.62
471.997	409.62
472.216	410.62
472.435	463.62
472.654	455.62
472.873	407.62
473.092	414.62
473.311	423.62
473.53	422.62
473.749	440.62
473.968	462.62
474.187	554.62
474.406	574.62
474.625	458.62
474.844	466.62
475.063	421.62
475.282	420.62
475.501	415.62
475.72	414.62
475.939	449.62
476.158	439.62
476.377	425.62
476.596	412.62
476.814	421.62
477.033	447.62
477.252	451.62
477.471	451.62
477.69	442.62
477.908	462.62
478.127	428.62
478.346	437.62
478.564	457.62
478.783	469.62
479.002	456.62
479.22	472.62
479.439	474.62
479.658	493.62
479.876	498.62
480.095	500.62
480.313	541.62
480.532	507.62
480.751	486.62
480.969	514.62
481.188	581.62
481.406	615.62
481.624	546.62
481.843	526.62
482.061	502.62
482.28	500.62
482.498	481.62
482.717	487.62
482.935	484.62
483.153	482.62
483.372	491.62
483.59	462.62
483.808	472.62
484.027	516.62
484.245	489.62
484.463	491.62
484.681	492.62
484.9	471.62
485.118	494.62
485.336	487.62
485.554	515.62
485.772	500.62
485.99	524.62
486.209	509.62
486.427	517.62
486.645	517.62
486.863	536.62
487.081	530.62
487.299	543.62
487.517	509.62
487.735	488.62
487.953	528.62
488.171	507.62
488.389	517.62
488.607	528.62
488.825	500.62
489.043	551.62
489.261	520.62
489.479	522.62
489.696	544.62
489.914	530.62
490.132	540.62
490.35	546.62
490.568	540.62
490.786	555.62
491.003	557.62
491.221	574.62
491.439	590.62
491.657	611.62
491.874	581.62
492.092	582.62
492.31	600.62
492.527	614.62
492.745	606.62
492.963	589.62
493.18	604.62
493.398	623.62
493.615	637.62
493.833	597.62
494.05	600.62
494.268	621.62
494.485	601.62
494.703	615.62
494.92	616.62
495.138	615.62
495.355	610.62
495.573	607.62
495.79	589.62
496.008	617.62
496.225	619.62
496.442	621.62
496.66	603.62
496.877	621.62
497.094	630.62
497.312	632.62
497.529	633.62
497.746	644.62
497.963	627.62
498.181	658.62
498.398	639.62
498.615	653.62
498.832	669.62
499.049	688.62
499.267	706.62
499.484	704.62
499.701	739.62
499.918	742.62
500.135	755.62
500.352	744.62
500.569	759.62
500.786	775.62
501.003	760.62
501.22	773.62
501.437	753.62
501.654	750.62
501.871	741.62
502.088	750.62
502.305	715.62
502.522	666.62
502.739	680.62
502.956	646.62
503.172	639.62
503.389	638.62
503.606	649.62
503.823	673.62
504.04	645.62
504.256	626.62
504.473	613.62
504.69	610.62
504.907	604.62
505.123	609.62
505.34	580.62
505.557	572.62
505.773	575.62
505.99	599.62
506.207	581.62
506.423	617.62
506.64	592.62
506.856	569.62
507.073	583.62
507.289	607.62
507.506	594.62
507.722	591.62
507.939	644.62
508.155	602.62
508.372	576.62
508.588	570.62
508.805	557.62
509.021	578.62
509.238	590.62
509.454	587.62
509.67	578.62
509.887	582.62
510.103	569.62
510.319	600.62
510.536	708.62
510.752	1229.62
510.968	966.62
511.184	619.62
511.401	576.62
511.617	545.62
511.833	551.62
512.049	546.62
512.265	551.62
512.481	542.62
512.698	561.62
512.914	549.62
513.13	552.62
513.346	536.62
513.562	572.62
513.778	533.62
513.994	552.62
514.21	559.62
514.426	602.62
514.642	648.62
514.858	684.62
515.074	731.62
515.29	893.62
515.506	1364.62
515.721	1096.62
515.937	692.62
516.153	608.62
516.369	591.62
516.585	552.62
516.801	552.62
517.016	564.62
517.232	590.62
517.448	547.62
517.664	546.62
517.879	551.62
518.095	547.62
518.311	543.62
518.527	548.62
518.742	542.62
518.958	539.62
519.173	546.62
519.389	552.62
519.605	556.62
519.82	560.62
520.036	545.62
520.251	586.62
520.467	622.62
520.682	596.62
520.898	628.62
521.113	650.62
521.329	685.62
521.544	786.62
521.76	1082.62
521.975	1820.62
522.19	1764.62
522.406	919.62
522.621	662.62
522.836	599.62
523.052	548.62
523.267	542.62
523.482	508.62
523.698	500.62
523.913	516.62
524.128	504.62
524.343	510.62
524.559	489.62
524.774	469.62
524.989	480.62
525.204	487.62
525.419	491.62
525.634	467.62
525.849	452.62
526.064	437.62
526.28	459.62
526.495	436.62
526.71	469.62
526.925	446.62
527.14	460.62
527.355	457.62
527.57	438.62
527.785	435.62
527.999	451.62
528.214	413.62
528.429	432.62
528.644	446.62
528.859	427.62
529.074	430.62
529.289	468.62
529.503	564.62
529.718	531.62
529.933	480.62
530.148	463.62
530.363	458.62
530.577	447.62
530.792	461.62
531.007	423.62
531.221	415.62
531.436	429.62
531.651	415.62
531.865	423.62
532.08	439.62
532.295	418.62
532.509	424.62
532.724	418.62
532.938	424.62
533.153	406.62
533.367	409.62
533.582	423.62
533.796	421.62
534.011	422.62
534.225	404.62
534.44	397.62
534.654	434.62
534.868	392.62
535.083	418.62
535.297	412.62
535.511	435.62
535.726	414.62
535.94	423.62
536.154	439.62
536.369	418.62
536.583	411.62
536.797	408.62
537.011	404.62
537.225	413.62
537.44	425.62
537.654	424.62
537.868	413.62
538.082	395.62
538.296	408.62
538.51	396.62
538.724	409.62
538.938	406.62
539.153	396.62
539.367	408.62
539.581	430.62
539.795	400.62
540.009	414.62
540.222	399.62
540.436	409.62
540.65	411.62
540.864	411.62
541.078	421.62
541.292	408.62
541.506	407.62
541.72	415.62
541.934	403.62
542.147	396.62
542.361	400.62
542.575	387.62
542.789	379.62
543.002	398.62
543.216	401.62
543.43	422.62
543.644	377.62
543.857	390.62
544.071	395.62
544.285	413.62
544.498	391.62
544.712	390.62
544.925	395.62
545.139	364.62
545.352	390.62
545.566	365.62
545.779	380.62
545.993	376.62
546.206	386.62
546.42	374.62
546.633	379.62
546.847	386.62
547.06	388.62
547.274	367.62
547.487	379.62
547.7	371.62
547.914	377.62
548.127	388.62
548.34	396.62
548.554	361.62
548.767	356.62
548.98	386.62
549.193	364.62
549.407	370.62
549.62	362.62
549.833	398.62
550.046	374.62
550.259	378.62
550.473	354.62
550.686	379.62
550.899	382.62
551.112	365.62
551.325	359.62
551.538	355.62
551.751	341.62
551.964	363.62
552.177	376.62
552.39	358.62
552.603	347.62
552.816	380.62
553.029	381.62
553.242	358.62
553.455	380.62
553.667	378.62
553.88	377.62
554.093	394.62
554.306	379.62
554.519	365.62
554.732	364.62
554.944	361.62
555.157	372.62
555.37	371.62
555.583	352.62
555.795	350.62
556.008	338.62
556.221	338.62
556.433	351.62
556.646	346.62
556.859	335.62
557.071	347.62
557.284	361.62
557.496	318.62
557.709	328.62
557.921	330.62
558.134	331.62
558.346	336.62
558.559	336.62
558.771	324.62
558.984	331.62
559.196	332.62
559.409	344.62
559.621	343.62
559.833	330.62
560.046	333.62
560.258	314.62
560.47	322.62
560.683	326.62
560.895	326.62
561.107	344.62
561.32	316.62
561.532	316.62
561.744	333.62
561.956	324.62
562.168	335.62
562.381	328.62
562.593	336.62
562.805	330.62
563.017	340.62
563.229	335.62
563.441	351.62
563.653	339.62
563.865	329.62
564.077	346.62
564.289	338.62
564.501	361.62
564.713	332.62
564.925	336.62
565.137	355.62
565.349	332.62
565.561	355.62
565.773	363.62
565.985	347.62
566.197	356.62
566.408	346.62
566.62	361.62
566.832	374.62
567.044	379.62
567.255	374.62
567.467	381.62
567.679	394.62
567.891	374.62
568.102	366.62
568.314	364.62
568.526	375.62
568.737	367.62
568.949	372.62
569.161	355.62
569.372	342.62
569.584	332.62
569.795	329.62
570.007	338.62
570.218	395.62
570.43	388.62
570.641	339.62
570.853	316.62
571.064	329.62
571.276	317.62
571.487	317.62
571.698	304.62
571.91	294.62
572.121	301.62
572.333	296.62
572.544	306.62
572.755	299.62
572.966	291.62
573.178	288.62
573.389	283.62
573.6	288.62
573.811	293.62
574.023	272.62
574.234	278.62
574.445	280.62
574.656	290.62
574.867	280.62
575.078	262.62
575.289	299.62
575.501	283.62
575.712	290.62
575.923	287.62
576.134	266.62
576.345	295.62
576.556	294.62
576.767	272.62
576.978	290.62
577.188	279.62
577.399	275.62
577.61	290.62
577.821	283.62
578.032	261.62
578.243	320.62
578.454	592.62
578.665	410.62
578.875	295.62
579.086	271.62
579.297	292.62
579.508	279.62
579.718	274.62
579.929	251.62
580.14	285.62
580.35	253.62
580.561	276.62
580.772	265.62
580.982	251.62
581.193	278.62
581.403	260.62
581.614	266.62
581.825	242.62
582.035	264.62
582.246	266.62
582.456	285.62
582.667	264.62
582.877	272.62
583.087	256.62
583.298	266.62
583.508	267.62
583.719	270.62
583.929	263.62
584.139	275.62
584.35	270.62
584.56	270.62
584.77	248.62
584.981	266.62
585.191	246.62
585.401	273.62
585.611	261.62
585.821	276.62
586.032	253.62
586.242	258.62
586.452	237.62
586.662	260.62
586.872	246.62
587.082	250.62
587.292	258.62
587.502	256.62
587.713	237.62
587.923	256.62
588.133	247.62
588.343	255.62
588.553	239.62
588.762	252.62
588.972	244.62
589.182	299.62
589.392	288.62
589.602	264.62
589.812	279.62
590.022	270.62
590.232	252.62
590.441	242.62
590.651	264.62
590.861	240.62
591.071	234.62
591.281	242.62
591.49	256.62
591.7	244.62
591.91	264.62
592.119	269.62
592.329	262.62
592.539	260.62
592.748	254.62
592.958	268.62
593.167	249.62
593.377	260.62
593.587	258.62
593.796	254.62
594.006	247.62
594.215	257.62
594.424	262.62
594.634	264.62
594.843	271.62
595.053	262.62
595.262	246.62
595.472	242.62
595.681	244.62
595.89	227.62
596.1	256.62
596.309	244.62
596.518	243.62
596.727	243.62
596.937	229.62
597.146	220.62
597.355	223.62
597.564	241.62
597.774	259.62
597.983	242.62
598.192	234.62
598.401	224.62
598.61	222.62
598.819	229.62
599.028	230.62
599.237	232.62
599.446	220.62
599.655	219.62
599.864	214.62
600.073	210.62
600.282	207.62
600.491	214.62
600.7	226.62
600.909	222.62
601.118	222.62
601.327	224.62
601.536	214.62
601.745	226.62
601.953	212.62
602.162	227.62
602.371	223.62
602.58	227.62
602.789	222.62
602.997	220.62
603.206	222.62
603.415	215.62
603.623	222.62
603.832	206.62
604.041	223.62
604.249	198.62
604.458	200.62
604.666	205.62
604.875	223.62
605.084	225.62
605.292	204.62
605.501	208.62
605.709	191.62
605.918	222.62
606.126	212.62
606.334	207.62
606.543	213.62
606.751	210.62
606.96	208.62
607.168	212.62
607.376	207.62
607.585	208.62
607.793	225.62
608.001	202.62
608.21	202.62
608.418	189.62
608.626	188.62
608.834	201.62
609.043	215.62
609.251	206.62
609.459	198.62
609.667	202.62
609.875	218.62
610.083	203.62
610.291	223.62
610.499	205.62
610.707	229.62
610.916	230.62
611.124	199.62
611.332	212.62
611.54	202.62
611.748	219.62
611.955	215.62
612.163	188.62
612.371	206.62
612.579	208.62
612.787	218.62
612.995	200.62
613.203	222.62
613.411	188.62
613.618	206.62
613.826	209.62
614.034	198.62
614.242	208.62
614.449	204.62
614.657	181.62
614.865	204.62
615.072	203.62
615.28	192.62
615.488	195.62
615.695	203.62
615.903	203.62
616.111	206.62
616.318	204.62
616.526	206.62
616.733	199.62
616.941	201.62
617.148	190.62
617.356	203.62
617.563	214.62
617.771	199.62
617.978	193.62
618.185	211.62
618.393	196.62
618.6	201.62
618.807	200.62
619.015	203.62
619.222	205.62
619.429	216.62
619.637	216.62
619.844	203.62
620.051	177.62
620.258	191.62
620.466	202.62
620.673	185.62
620.88	188.62
621.087	215.62
621.294	197.62
621.501	186.62
621.708	199.62
621.915	200.62
622.122	186.62
622.329	193.62
622.536	210.62
622.743	194.62
622.95	196.62
623.157	181.62
623.364	198.62
623.571	192.62
623.778	188.62
623.985	181.62
624.192	185.62
624.399	187.62
624.606	189.62
624.812	189.62
625.019	185.62
625.226	183.62
625.433	189.62
625.639	196.62
625.846	170.62
626.053	183.62
626.259	191.62
626.466	186.62
626.673	181.62
626.879	179.62
627.086	173.62
627.293	180.62
627.499	191.62
627.706	170.62
627.912	182.62
628.119	179.62
628.325	146.62
628.532	183.62
628.738	178.62
628.945	183.62
629.151	200.62
629.357	186.62
629.564	178.62
629.77	178.62
629.976	168.62
630.183	174.62
630.389	181.62
630.595	181.62
630.802	172.62
631.008	172.62
631.214	182.62
631.42	172.62
631.627	186.62
631.833	175.62
632.039	166.62
632.245	160.62
632.451	175.62
632.657	182.62
632.863	175.62
633.069	175.62
633.275	170.62
633.481	186.62
633.688	165.62
633.893	156.62
634.099	163.62
634.305	148.62
634.511	164.62
634.717	163.62
634.923	178.62
635.129	173.62
635.335	164.62
635.541	170.62
635.747	179.62
635.952	173.62
636.158	155.62
636.364	163.62
636.57	159.62
636.775	186.62
636.981	144.62
637.187	179.62
637.392	166.62
637.598	156.62
637.804	171.62
638.009	163.62
638.215	171.62
638.421	148.62
638.626	156.62
638.832	169.62
639.037	170.62
639.243	166.62
639.448	144.62
639.654	166.62
639.859	162.62
640.065	162.62
640.27	152.62
640.475	144.62
640.681	156.62
640.886	150.62
641.091	151.62
641.297	158.62
641.502	147.62
641.707	140.62
641.913	158.62
642.118	143.62
642.323	150.62
642.528	143.62
642.733	163.62
642.939	161.62
643.144	142.62
643.349	143.62
643.554	162.62
643.759	145.62
643.964	159.62
644.169	159.62
644.374	148.62
644.579	159.62
644.784	152.62
644.989	156.62
645.194	149.62
645.399	142.62
645.604	160.62
645.809	161.62
646.014	148.62
646.219	154.62
646.423	151.62
646.628	139.62
646.833	145.62
647.038	151.62
647.243	163.62
647.447	144.62
647.652	151.62
647.857	150.62
648.062	138.62
648.266	126.62
648.471	139.62
648.676	150.62
648.88	153.62
649.085	150.62
649.289	166.62
649.494	156.62
649.698	159.62
649.903	165.62
650.107	152.62
650.312	142.62
650.516	155.62
650.721	129.62
650.925	135.62
651.13	148.62
651.334	142.62
651.539	137.62
651.743	145.62
651.947	135.62
652.152	135.62
652.356	135.62
652.56	148.62
652.764	130.62
652.969	126.62
653.173	115.62
653.377	121.62
653.581	125.62
653.785	133.62
653.99	141.62
654.194	133.62
654.398	136.62
654.602	116.62
654.806	111.62
655.01	142.62
655.214	139.62
655.418	142.62
655.622	123.62
655.826	122.62
656.03	124.62
656.234	120.62
656.438	143.62
656.642	130.62
656.846	111.62
657.049	115.62
657.253	115.62
657.457	124.62
657.661	124.62
657.865	98.62
658.068	114.62
658.272	107.62
658.476	102.62
658.68	98.62
658.883	100.62
659.087	100.62
659.291	106.62
659.494	110.62
659.698	100.62
659.901	84.62
660.105	95.62
660.309	102.62
660.512	94.62
660.716	87.62
660.919	92.62
661.123	89.62
661.326	95.62
661.53	82.62
661.733	80.62
661.936	90.62
662.14	83.62
662.343	87.62
662.546	94.62
662.75	71.62
662.953	86.62
663.156	88.62
663.36	86.62
663.563	88.62
663.766	87.62
663.969	84.62
664.173	79.62
664.376	80.62
664.579	99.62
664.782	82.62
664.985	71.62
665.188	90.62
665.391	90.62
665.594	83.62
665.797	94.62
666	74.62
666.203	88.62
666.406	92.62
666.609	70.62
666.812	85.62
667.015	75.62
667.218	86.62
667.421	69.62
667.624	64.62
667.827	88.62
668.03	95.62
668.232	80.62
668.435	85.62
668.638	86.62
668.841	77.62
669.043	82.62
669.246	83.62
669.449	82.62
669.651	93.62
669.854	90.62
670.057	83.62
670.259	92.62
670.462	90.62
670.665	84.62
670.867	92.62
671.07	83.62
671.272	92.62
671.475	97.62
671.677	70.62
671.88	81.62
672.082	92.62
672.284	81.62
672.487	82.62
672.689	83.62
672.892	60.62
