Data from 1965.PennyLincolnUp.Lamp.En5.5.200Scan.071719.P1._HRD10591_14-08-54-911.txt Node
Date: Thu Jul 18 14:08:54 EDT 2019
User: cochatt
Spectrometer: HR+D1059
Trigger mode: 1
Integration Time (sec): 1.000000E-1
Scans to average: 1
Electric dark correction enabled: true
Nonlinearity correction enabled: false
Boxcar width: 0
XAxis mode: Wavelengths
Number of Pixels in Spectrum: 2048
>>>>>Begin Spectral Data<<<<<
223.165	-8.44
223.4	-8.44
223.635	-8.44
223.869	-16.44
224.104	-3.44
224.338	-0.44
224.573	-22.44
224.808	-14.44
225.042	-3.44
225.277	-15.44
225.511	-3.44
225.746	-4.44
225.98	2.56
226.215	8.56
226.449	21.56
226.683	20.56
226.918	15.56
227.152	23.56
227.387	33.56
227.621	26.56
227.856	42.56
228.09	55.56
228.324	48.56
228.559	59.56
228.793	77.56
229.027	98.56
229.262	104.56
229.496	96.56
229.73	121.56
229.964	134.56
230.199	116.56
230.433	102.56
230.667	118.56
230.901	114.56
231.136	90.56
231.37	94.56
231.604	111.56
231.838	100.56
232.072	103.56
232.306	114.56
232.541	123.56
232.775	105.56
233.009	109.56
233.243	99.56
233.477	105.56
233.711	102.56
233.945	101.56
234.179	97.56
234.413	118.56
234.647	112.56
234.881	92.56
235.115	107.56
235.349	96.56
235.583	109.56
235.817	98.56
236.051	123.56
236.285	123.56
236.519	116.56
236.753	115.56
236.987	144.56
237.221	178.56
237.455	210.56
237.689	170.56
237.922	128.56
238.156	110.56
238.39	123.56
238.624	102.56
238.858	100.56
239.091	109.56
239.325	106.56
239.559	122.56
239.793	118.56
240.027	119.56
240.26	123.56
240.494	124.56
240.728	133.56
240.961	136.56
241.195	137.56
241.429	121.56
241.662	124.56
241.896	126.56
242.13	115.56
242.363	121.56
242.597	125.56
242.83	131.56
243.064	128.56
243.298	124.56
243.531	126.56
243.765	125.56
243.998	124.56
244.232	128.56
244.465	122.56
244.699	122.56
244.932	123.56
245.166	126.56
245.399	129.56
245.633	133.56
245.866	147.56
246.099	132.56
246.333	132.56
246.566	141.56
246.8	138.56
247.033	147.56
247.266	154.56
247.5	140.56
247.733	161.56
247.966	164.56
248.2	152.56
248.433	146.56
248.666	170.56
248.899	163.56
249.133	170.56
249.366	193.56
249.599	168.56
249.832	165.56
250.066	144.56
250.299	164.56
250.532	181.56
250.765	179.56
250.998	182.56
251.231	198.56
251.465	172.56
251.698	177.56
251.931	183.56
252.164	173.56
252.397	189.56
252.63	199.56
252.863	179.56
253.096	196.56
253.329	198.56
253.562	200.56
253.795	178.56
254.028	202.56
254.261	199.56
254.494	203.56
254.727	217.56
254.96	262.56
255.193	224.56
255.426	220.56
255.659	215.56
255.892	210.56
256.124	209.56
256.357	203.56
256.59	219.56
256.823	201.56
257.056	188.56
257.289	197.56
257.521	178.56
257.754	184.56
257.987	198.56
258.22	191.56
258.452	189.56
258.685	187.56
258.918	178.56
259.151	197.56
259.383	201.56
259.616	199.56
259.849	212.56
260.081	204.56
260.314	216.56
260.547	218.56
260.779	209.56
261.012	205.56
261.244	185.56
261.477	218.56
261.71	209.56
261.942	203.56
262.175	212.56
262.407	202.56
262.64	180.56
262.872	185.56
263.105	198.56
263.337	188.56
263.57	196.56
263.802	184.56
264.035	188.56
264.267	183.56
264.499	187.56
264.732	188.56
264.964	191.56
265.197	198.56
265.429	184.56
265.661	200.56
265.894	206.56
266.126	169.56
266.358	184.56
266.591	196.56
266.823	203.56
267.055	183.56
267.287	201.56
267.52	195.56
267.752	190.56
267.984	212.56
268.216	207.56
268.448	214.56
268.681	222.56
268.913	224.56
269.145	244.56
269.377	236.56
269.609	228.56
269.841	243.56
270.073	244.56
270.306	249.56
270.538	273.56
270.77	274.56
271.002	278.56
271.234	253.56
271.466	260.56
271.698	248.56
271.93	286.56
272.162	277.56
272.394	275.56
272.626	267.56
272.858	234.56
273.09	248.56
273.322	238.56
273.553	232.56
273.785	235.56
274.017	224.56
274.249	245.56
274.481	253.56
274.713	231.56
274.945	228.56
275.176	217.56
275.408	233.56
275.64	242.56
275.872	221.56
276.104	235.56
276.335	236.56
276.567	222.56
276.799	268.56
277.031	274.56
277.262	279.56
277.494	278.56
277.726	269.56
277.957	263.56
278.189	252.56
278.421	246.56
278.652	238.56
278.884	253.56
279.115	246.56
279.347	232.56
279.579	242.56
279.81	232.56
280.042	235.56
280.273	250.56
280.505	242.56
280.736	232.56
280.968	228.56
281.199	241.56
281.431	248.56
281.662	234.56
281.894	250.56
282.125	251.56
282.356	250.56
282.588	264.56
282.819	275.56
283.051	247.56
283.282	233.56
283.513	231.56
283.745	229.56
283.976	244.56
284.207	252.56
284.439	232.56
284.67	234.56
284.901	228.56
285.132	237.56
285.364	227.56
285.595	227.56
285.826	225.56
286.057	227.56
286.288	228.56
286.52	259.56
286.751	228.56
286.982	240.56
287.213	240.56
287.444	233.56
287.675	232.56
287.906	266.56
288.138	244.56
288.369	248.56
288.6	268.56
288.831	244.56
289.062	235.56
289.293	251.56
289.524	235.56
289.755	257.56
289.986	256.56
290.217	256.56
290.448	255.56
290.679	241.56
290.91	244.56
291.141	260.56
291.371	237.56
291.602	252.56
291.833	254.56
292.064	248.56
292.295	242.56
292.526	230.56
292.757	235.56
292.987	261.56
293.218	256.56
293.449	248.56
293.68	242.56
293.91	252.56
294.141	256.56
294.372	261.56
294.603	262.56
294.833	262.56
295.064	262.56
295.295	256.56
295.525	241.56
295.756	263.56
295.987	254.56
296.217	290.56
296.448	281.56
296.679	260.56
296.909	273.56
297.14	264.56
297.37	266.56
297.601	252.56
297.831	251.56
298.062	246.56
298.292	272.56
298.523	256.56
298.753	269.56
298.984	270.56
299.214	284.56
299.445	273.56
299.675	273.56
299.905	281.56
300.136	286.56
300.366	270.56
300.597	278.56
300.827	274.56
301.057	268.56
301.288	281.56
301.518	277.56
301.748	276.56
301.979	282.56
302.209	276.56
302.439	282.56
302.669	284.56
302.9	290.56
303.13	298.56
303.36	281.56
303.59	281.56
303.82	301.56
304.051	282.56
304.281	284.56
304.511	269.56
304.741	278.56
304.971	273.56
305.201	287.56
305.431	290.56
305.661	283.56
305.891	276.56
306.121	299.56
306.352	287.56
306.582	308.56
306.812	284.56
307.042	265.56
307.272	288.56
307.502	314.56
307.731	298.56
307.961	306.56
308.191	288.56
308.421	288.56
308.651	301.56
308.881	290.56
309.111	307.56
309.341	289.56
309.571	301.56
309.8	310.56
310.03	317.56
310.26	329.56
310.49	326.56
310.72	354.56
310.949	346.56
311.179	366.56
311.409	350.56
311.639	319.56
311.868	337.56
312.098	326.56
312.328	354.56
312.557	343.56
312.787	372.56
313.017	356.56
313.246	343.56
313.476	339.56
313.706	352.56
313.935	358.56
314.165	349.56
314.394	354.56
314.624	350.56
314.853	341.56
315.083	355.56
315.312	332.56
315.542	349.56
315.771	337.56
316.001	312.56
316.23	325.56
316.46	329.56
316.689	355.56
316.919	324.56
317.148	339.56
317.377	338.56
317.607	362.56
317.836	320.56
318.065	334.56
318.295	331.56
318.524	342.56
318.753	321.56
318.983	327.56
319.212	337.56
319.441	353.56
319.67	354.56
319.9	348.56
320.129	324.56
320.358	333.56
320.587	327.56
320.816	355.56
321.046	345.56
321.275	354.56
321.504	359.56
321.733	373.56
321.962	365.56
322.191	366.56
322.42	388.56
322.649	398.56
322.878	410.56
323.108	418.56
323.337	425.56
323.566	443.56
323.795	500.56
324.024	554.56
324.253	670.56
324.482	984.56
324.71	1458.56
324.939	2041.56
325.168	1679.56
325.397	888.56
325.626	621.56
325.855	514.56
326.084	438.56
326.313	464.56
326.542	489.56
326.77	537.56
326.999	610.56
327.228	872.56
327.457	1286.56
327.686	1501.56
327.914	995.56
328.143	672.56
328.372	591.56
328.6	538.56
328.829	526.56
329.058	524.56
329.287	540.56
329.515	478.56
329.744	440.56
329.972	445.56
330.201	487.56
330.43	503.56
330.658	546.56
330.887	577.56
331.115	576.56
331.344	468.56
331.572	467.56
331.801	444.56
332.03	425.56
332.258	408.56
332.486	406.56
332.715	386.56
332.943	399.56
333.172	402.56
333.4	408.56
333.629	399.56
333.857	444.56
334.085	432.56
334.314	436.56
334.542	462.56
334.771	496.56
334.999	434.56
335.227	420.56
335.455	402.56
335.684	388.56
335.912	402.56
336.14	383.56
336.369	402.56
336.597	389.56
336.825	388.56
337.053	393.56
337.281	392.56
337.51	373.56
337.738	382.56
337.966	392.56
338.194	387.56
338.422	389.56
338.65	375.56
338.878	374.56
339.106	377.56
339.334	396.56
339.562	390.56
339.79	364.56
340.018	372.56
340.246	370.56
340.474	377.56
340.702	386.56
340.93	388.56
341.158	366.56
341.386	363.56
341.614	382.56
341.842	378.56
342.07	376.56
342.298	368.56
342.526	347.56
342.754	348.56
342.981	370.56
343.209	342.56
343.437	347.56
343.665	384.56
343.893	382.56
344.12	375.56
344.348	370.56
344.576	374.56
344.804	376.56
345.031	379.56
345.259	399.56
345.487	387.56
345.714	386.56
345.942	368.56
346.17	369.56
346.397	346.56
346.625	376.56
346.853	373.56
347.08	362.56
347.308	359.56
347.535	388.56
347.763	372.56
347.99	357.56
348.218	364.56
348.445	393.56
348.673	368.56
348.9	355.56
349.128	374.56
349.355	342.56
349.583	366.56
349.81	372.56
350.037	345.56
350.265	355.56
350.492	338.56
350.72	370.56
350.947	355.56
351.174	380.56
351.402	380.56
351.629	378.56
351.856	372.56
352.083	377.56
352.311	381.56
352.538	388.56
352.765	376.56
352.992	362.56
353.22	368.56
353.447	367.56
353.674	358.56
353.901	368.56
354.128	352.56
354.355	331.56
354.583	325.56
354.81	313.56
355.037	330.56
355.264	319.56
355.491	347.56
355.718	332.56
355.945	350.56
356.172	320.56
356.399	322.56
356.626	353.56
356.853	344.56
357.08	331.56
357.307	318.56
357.534	330.56
357.761	353.56
357.988	334.56
358.215	341.56
358.441	342.56
358.668	340.56
358.895	346.56
359.122	345.56
359.349	363.56
359.576	361.56
359.802	401.56
360.029	398.56
360.256	419.56
360.483	388.56
360.709	366.56
360.936	368.56
361.163	360.56
361.39	388.56
361.616	375.56
361.843	370.56
362.07	366.56
362.296	362.56
362.523	375.56
362.749	366.56
362.976	365.56
363.203	373.56
363.429	354.56
363.656	357.56
363.882	340.56
364.109	360.56
364.335	370.56
364.562	337.56
364.788	343.56
365.015	355.56
365.241	352.56
365.468	348.56
365.694	372.56
365.92	370.56
366.147	338.56
366.373	342.56
366.599	338.56
366.826	329.56
367.052	352.56
367.278	358.56
367.505	345.56
367.731	342.56
367.957	333.56
368.184	369.56
368.41	365.56
368.636	363.56
368.862	377.56
369.089	361.56
369.315	337.56
369.541	348.56
369.767	333.56
369.993	351.56
370.219	357.56
370.445	347.56
370.672	341.56
370.898	331.56
371.124	347.56
371.35	338.56
371.576	323.56
371.802	333.56
372.028	341.56
372.254	340.56
372.48	348.56
372.706	353.56
372.932	325.56
373.158	346.56
373.384	357.56
373.61	330.56
373.835	335.56
374.061	327.56
374.287	357.56
374.513	338.56
374.739	350.56
374.965	359.56
375.191	335.56
375.416	338.56
375.642	348.56
375.868	346.56
376.094	327.56
376.319	341.56
376.545	354.56
376.771	333.56
376.997	348.56
377.222	332.56
377.448	333.56
377.674	346.56
377.899	335.56
378.125	329.56
378.35	325.56
378.576	329.56
378.802	338.56
379.027	353.56
379.253	337.56
379.478	321.56
379.704	349.56
379.929	345.56
380.155	348.56
380.38	360.56
380.606	353.56
380.831	362.56
381.057	352.56
381.282	342.56
381.507	342.56
381.733	347.56
381.958	340.56
382.184	323.56
382.409	341.56
382.634	370.56
382.86	338.56
383.085	351.56
383.31	341.56
383.535	346.56
383.761	347.56
383.986	345.56
384.211	376.56
384.436	355.56
384.662	351.56
384.887	358.56
385.112	368.56
385.337	355.56
385.562	360.56
385.787	353.56
386.013	373.56
386.238	364.56
386.463	381.56
386.688	366.56
386.913	361.56
387.138	359.56
387.363	360.56
387.588	375.56
387.813	352.56
388.038	374.56
388.263	345.56
388.488	370.56
388.713	376.56
388.938	378.56
389.163	370.56
389.387	377.56
389.612	366.56
389.837	362.56
390.062	364.56
390.287	366.56
390.512	360.56
390.736	374.56
390.961	368.56
391.186	366.56
391.411	363.56
391.636	374.56
391.86	382.56
392.085	376.56
392.31	360.56
392.534	376.56
392.759	376.56
392.984	349.56
393.208	374.56
393.433	394.56
393.658	372.56
393.882	378.56
394.107	390.56
394.331	370.56
394.556	356.56
394.78	380.56
395.005	368.56
395.229	379.56
395.454	364.56
395.678	373.56
395.903	392.56
396.127	387.56
396.352	402.56
396.576	381.56
396.801	379.56
397.025	386.56
397.249	395.56
397.474	403.56
397.698	402.56
397.922	399.56
398.147	416.56
398.371	401.56
398.595	430.56
398.82	406.56
399.044	396.56
399.268	425.56
399.492	432.56
399.717	463.56
399.941	454.56
400.165	488.56
400.389	503.56
400.613	475.56
400.837	430.56
401.062	422.56
401.286	425.56
401.51	397.56
401.734	415.56
401.958	419.56
402.182	415.56
402.406	425.56
402.63	420.56
402.854	428.56
403.078	441.56
403.302	441.56
403.526	426.56
403.75	457.56
403.974	424.56
404.198	436.56
404.422	416.56
404.645	450.56
404.869	441.56
405.093	457.56
405.317	486.56
405.541	505.56
405.765	464.56
405.988	450.56
406.212	460.56
406.436	477.56
406.66	493.56
406.883	483.56
407.107	481.56
407.331	524.56
407.555	569.56
407.778	552.56
408.002	524.56
408.226	490.56
408.449	463.56
408.673	484.56
408.896	476.56
409.12	538.56
409.344	504.56
409.567	485.56
409.791	453.56
410.014	456.56
410.238	422.56
410.461	416.56
410.685	427.56
410.908	461.56
411.132	476.56
411.355	494.56
411.578	471.56
411.802	443.56
412.025	423.56
412.249	447.56
412.472	451.56
412.695	493.56
412.919	469.56
413.142	430.56
413.365	432.56
413.589	436.56
413.812	422.56
414.035	424.56
414.258	408.56
414.482	408.56
414.705	404.56
414.928	397.56
415.151	411.56
415.374	403.56
415.597	403.56
415.821	409.56
416.044	412.56
416.267	412.56
416.49	377.56
416.713	394.56
416.936	378.56
417.159	405.56
417.382	394.56
417.605	425.56
417.828	426.56
418.051	421.56
418.274	412.56
418.497	414.56
418.72	405.56
418.943	392.56
419.166	414.56
419.389	436.56
419.611	413.56
419.834	442.56
420.057	426.56
420.28	435.56
420.503	432.56
420.726	440.56
420.948	437.56
421.171	478.56
421.394	491.56
421.617	456.56
421.839	427.56
422.062	422.56
422.285	454.56
422.507	483.56
422.73	534.56
422.953	522.56
423.175	456.56
423.398	444.56
423.621	446.56
423.843	479.56
424.066	472.56
424.288	462.56
424.511	477.56
424.733	538.56
424.956	593.56
425.178	586.56
425.401	576.56
425.623	571.56
425.846	484.56
426.068	468.56
426.291	477.56
426.513	477.56
426.735	468.56
426.958	490.56
427.18	580.56
427.402	686.56
427.625	736.56
427.847	688.56
428.069	597.56
428.292	517.56
428.514	484.56
428.736	460.56
428.958	441.56
429.181	429.56
429.403	419.56
429.625	445.56
429.847	465.56
430.069	523.56
430.292	527.56
430.514	448.56
430.736	438.56
430.958	405.56
431.18	399.56
431.402	414.56
431.624	413.56
431.846	396.56
432.068	394.56
432.29	394.56
432.512	443.56
432.734	414.56
432.956	414.56
433.178	409.56
433.4	417.56
433.622	401.56
433.844	409.56
434.066	411.56
434.287	416.56
434.509	428.56
434.731	421.56
434.953	418.56
435.175	426.56
435.397	452.56
435.618	457.56
435.84	504.56
436.062	564.56
436.284	629.56
436.505	560.56
436.727	487.56
436.949	457.56
437.17	432.56
437.392	457.56
437.614	453.56
437.835	472.56
438.057	567.56
438.278	635.56
438.5	634.56
438.721	688.56
438.943	673.56
439.165	523.56
439.386	485.56
439.608	485.56
439.829	478.56
440.05	510.56
440.272	556.56
440.493	519.56
440.715	469.56
440.936	452.56
441.158	446.56
441.379	436.56
441.6	478.56
441.822	456.56
442.043	489.56
442.264	595.56
442.486	598.56
442.707	518.56
442.928	502.56
443.149	482.56
443.371	512.56
443.592	556.56
443.813	583.56
444.034	647.56
444.255	544.56
444.476	493.56
444.698	460.56
444.919	459.56
445.14	572.56
445.361	536.56
445.582	518.56
445.803	556.56
446.024	670.56
446.245	652.56
446.466	625.56
446.687	520.56
446.908	466.56
447.129	460.56
447.35	442.56
447.571	449.56
447.792	444.56
448.013	437.56
448.234	448.56
448.455	520.56
448.675	584.56
448.896	675.56
449.117	576.56
449.338	574.56
449.559	632.56
449.779	709.56
450	612.56
450.221	512.56
450.442	437.56
450.662	429.56
450.883	435.56
451.104	470.56
451.324	458.56
451.545	420.56
451.766	407.56
451.986	416.56
452.207	394.56
452.428	389.56
452.648	391.56
452.869	405.56
453.089	407.56
453.31	413.56
453.53	421.56
453.751	385.56
453.971	412.56
454.192	429.56
454.412	394.56
454.633	396.56
454.853	405.56
455.073	388.56
455.294	414.56
455.514	466.56
455.734	468.56
455.955	404.56
456.175	378.56
456.395	358.56
456.616	362.56
456.836	381.56
457.056	374.56
457.276	361.56
457.497	354.56
457.717	379.56
457.937	384.56
458.157	377.56
458.377	382.56
458.598	390.56
458.818	475.56
459.038	568.56
459.258	557.56
459.478	485.56
459.698	421.56
459.918	416.56
460.138	412.56
460.358	415.56
460.578	418.56
460.798	407.56
461.018	406.56
461.238	415.56
461.458	415.56
461.678	403.56
461.898	394.56
462.118	406.56
462.338	422.56
462.558	422.56
462.777	427.56
462.997	436.56
463.217	423.56
463.437	444.56
463.657	427.56
463.876	439.56
464.096	428.56
464.316	438.56
464.536	428.56
464.755	437.56
464.975	454.56
465.195	516.56
465.414	556.56
465.634	480.56
465.854	458.56
466.073	436.56
466.293	414.56
466.512	388.56
466.732	399.56
466.951	406.56
467.171	394.56
467.391	399.56
467.61	418.56
467.829	424.56
468.049	436.56
468.268	418.56
468.488	392.56
468.707	383.56
468.927	383.56
469.146	407.56
469.365	380.56
469.585	396.56
469.804	385.56
470.023	402.56
470.243	406.56
470.462	406.56
470.681	425.56
470.901	445.56
471.12	412.56
471.339	414.56
471.558	405.56
471.777	410.56
471.997	387.56
472.216	411.56
472.435	453.56
472.654	427.56
472.873	396.56
473.092	411.56
473.311	418.56
473.53	398.56
473.749	392.56
473.968	460.56
474.187	560.56
474.406	570.56
474.625	458.56
474.844	421.56
475.063	417.56
475.282	420.56
475.501	440.56
475.72	428.56
475.939	407.56
476.158	432.56
476.377	414.56
476.596	402.56
476.814	425.56
477.033	426.56
477.252	430.56
477.471	448.56
477.69	442.56
477.908	461.56
478.127	446.56
478.346	442.56
478.564	428.56
478.783	447.56
479.002	448.56
479.22	466.56
479.439	477.56
479.658	486.56
479.876	502.56
480.095	521.56
480.313	527.56
480.532	493.56
480.751	484.56
480.969	513.56
481.188	556.56
481.406	614.56
481.624	523.56
481.843	518.56
482.061	514.56
482.28	471.56
482.498	468.56
482.717	470.56
482.935	485.56
483.153	462.56
483.372	468.56
483.59	483.56
483.808	485.56
484.027	490.56
484.245	466.56
484.463	453.56
484.681	480.56
484.9	490.56
485.118	500.56
485.336	487.56
485.554	507.56
485.772	508.56
485.99	501.56
486.209	496.56
486.427	498.56
486.645	508.56
486.863	522.56
487.081	532.56
487.299	532.56
487.517	496.56
487.735	478.56
487.953	504.56
488.171	522.56
488.389	528.56
488.607	505.56
488.825	534.56
489.043	508.56
489.261	518.56
489.479	524.56
489.696	512.56
489.914	523.56
490.132	540.56
490.35	529.56
490.568	523.56
490.786	542.56
491.003	543.56
491.221	573.56
491.439	559.56
491.657	571.56
491.874	578.56
492.092	589.56
492.31	606.56
492.527	582.56
492.745	584.56
492.963	613.56
493.18	607.56
493.398	602.56
493.615	609.56
493.833	598.56
494.05	598.56
494.268	612.56
494.485	588.56
494.703	607.56
494.92	609.56
495.138	615.56
495.355	597.56
495.573	627.56
495.79	577.56
496.008	600.56
496.225	602.56
496.442	605.56
496.66	629.56
496.877	594.56
497.094	627.56
497.312	590.56
497.529	613.56
497.746	616.56
497.963	646.56
498.181	666.56
498.398	657.56
498.615	638.56
498.832	664.56
499.049	667.56
499.267	677.56
499.484	712.56
499.701	701.56
499.918	716.56
500.135	752.56
500.352	770.56
500.569	752.56
500.786	785.56
501.003	780.56
501.22	776.56
501.437	730.56
501.654	758.56
501.871	734.56
502.088	711.56
502.305	708.56
502.522	702.56
502.739	668.56
502.956	668.56
503.172	663.56
503.389	650.56
503.606	640.56
503.823	646.56
504.04	624.56
504.256	610.56
504.473	604.56
504.69	600.56
504.907	606.56
505.123	592.56
505.34	585.56
505.557	590.56
505.773	600.56
505.99	580.56
506.207	572.56
506.423	594.56
506.64	587.56
506.856	589.56
507.073	581.56
507.289	588.56
507.506	585.56
507.722	604.56
507.939	617.56
508.155	579.56
508.372	578.56
508.588	535.56
508.805	560.56
509.021	568.56
509.238	577.56
509.454	585.56
509.67	577.56
509.887	562.56
510.103	557.56
510.319	603.56
510.536	685.56
510.752	1180.56
510.968	930.56
511.184	598.56
511.401	549.56
511.617	549.56
511.833	543.56
512.049	530.56
512.265	546.56
512.481	544.56
512.698	541.56
512.914	546.56
513.13	547.56
513.346	557.56
513.562	562.56
513.778	562.56
513.994	581.56
514.21	561.56
514.426	602.56
514.642	653.56
514.858	664.56
515.074	701.56
515.29	849.56
515.506	1329.56
515.721	1053.56
515.937	692.56
516.153	602.56
516.369	585.56
516.585	565.56
516.801	573.56
517.016	542.56
517.232	555.56
517.448	539.56
517.664	555.56
517.879	549.56
518.095	537.56
518.311	546.56
518.527	548.56
518.742	530.56
518.958	525.56
519.173	540.56
519.389	544.56
519.605	555.56
519.82	548.56
520.036	547.56
520.251	580.56
520.467	626.56
520.682	596.56
520.898	603.56
521.113	651.56
521.329	683.56
521.544	780.56
521.76	1029.56
521.975	1739.56
522.19	1692.56
522.406	912.56
522.621	661.56
522.836	601.56
523.052	549.56
523.267	526.56
523.482	497.56
523.698	507.56
523.913	494.56
524.128	502.56
524.343	502.56
524.559	497.56
524.774	457.56
524.989	465.56
525.204	483.56
525.419	475.56
525.634	483.56
525.849	457.56
526.064	464.56
526.28	425.56
526.495	443.56
526.71	435.56
526.925	437.56
527.14	442.56
527.355	455.56
527.57	450.56
527.785	450.56
527.999	434.56
528.214	438.56
528.429	453.56
528.644	432.56
528.859	428.56
529.074	438.56
529.289	512.56
529.503	576.56
529.718	536.56
529.933	480.56
530.148	439.56
530.363	452.56
530.577	442.56
530.792	421.56
531.007	422.56
531.221	428.56
531.436	425.56
531.651	408.56
531.865	417.56
532.08	414.56
532.295	433.56
532.509	434.56
532.724	420.56
532.938	428.56
533.153	418.56
533.367	424.56
533.582	416.56
533.796	423.56
534.011	404.56
534.225	396.56
534.44	395.56
534.654	405.56
534.868	416.56
535.083	394.56
535.297	410.56
535.511	416.56
535.726	424.56
535.94	424.56
536.154	420.56
536.369	401.56
536.583	405.56
536.797	377.56
537.011	395.56
537.225	406.56
537.44	408.56
537.654	391.56
537.868	405.56
538.082	384.56
538.296	394.56
538.51	394.56
538.724	407.56
538.938	398.56
539.153	393.56
539.367	423.56
539.581	401.56
539.795	410.56
540.009	385.56
540.222	417.56
540.436	384.56
540.65	390.56
540.864	394.56
541.078	404.56
541.292	412.56
541.506	414.56
541.72	398.56
541.934	380.56
542.147	388.56
542.361	405.56
542.575	402.56
542.789	395.56
543.002	376.56
543.216	388.56
543.43	400.56
543.644	395.56
543.857	390.56
544.071	386.56
544.285	376.56
544.498	380.56
544.712	366.56
544.925	384.56
545.139	394.56
545.352	390.56
545.566	383.56
545.779	365.56
545.993	388.56
546.206	400.56
546.42	375.56
546.633	373.56
546.847	368.56
547.06	368.56
547.274	356.56
547.487	362.56
547.7	359.56
547.914	368.56
548.127	384.56
548.34	365.56
548.554	378.56
548.767	370.56
548.98	358.56
549.193	361.56
549.407	351.56
549.62	374.56
549.833	370.56
550.046	357.56
550.259	375.56
550.473	365.56
550.686	358.56
550.899	368.56
551.112	359.56
551.325	353.56
551.538	361.56
551.751	356.56
551.964	358.56
552.177	369.56
552.39	355.56
552.603	386.56
552.816	355.56
553.029	375.56
553.242	370.56
553.455	386.56
553.667	366.56
553.88	374.56
554.093	378.56
554.306	398.56
554.519	376.56
554.732	361.56
554.944	353.56
555.157	351.56
555.37	339.56
555.583	347.56
555.795	349.56
556.008	359.56
556.221	339.56
556.433	359.56
556.646	342.56
556.859	341.56
557.071	344.56
557.284	342.56
557.496	334.56
557.709	328.56
557.921	325.56
558.134	352.56
558.346	330.56
558.559	353.56
558.771	322.56
558.984	344.56
559.196	326.56
559.409	322.56
559.621	324.56
559.833	330.56
560.046	328.56
560.258	318.56
560.47	340.56
560.683	325.56
560.895	338.56
561.107	338.56
561.32	333.56
561.532	334.56
561.744	329.56
561.956	337.56
562.168	347.56
562.381	335.56
562.593	318.56
562.805	331.56
563.017	336.56
563.229	325.56
563.441	336.56
563.653	329.56
563.865	326.56
564.077	342.56
564.289	343.56
564.501	340.56
564.713	341.56
564.925	324.56
565.137	350.56
565.349	358.56
565.561	364.56
565.773	364.56
565.985	363.56
566.197	358.56
566.408	359.56
566.62	373.56
566.832	366.56
567.044	377.56
567.255	382.56
567.467	377.56
567.679	396.56
567.891	376.56
568.102	375.56
568.314	402.56
568.526	386.56
568.737	360.56
568.949	357.56
569.161	339.56
569.372	335.56
569.584	350.56
569.795	353.56
570.007	349.56
570.218	391.56
570.43	376.56
570.641	318.56
570.853	312.56
571.064	311.56
571.276	326.56
571.487	304.56
571.698	322.56
571.91	316.56
572.121	308.56
572.333	298.56
572.544	306.56
572.755	300.56
572.966	314.56
573.178	312.56
573.389	284.56
573.6	276.56
573.811	282.56
574.023	294.56
574.234	310.56
574.445	294.56
574.656	278.56
574.867	297.56
575.078	285.56
575.289	269.56
575.501	296.56
575.712	292.56
575.923	269.56
576.134	280.56
576.345	284.56
576.556	281.56
576.767	274.56
576.978	289.56
577.188	271.56
577.399	272.56
577.61	275.56
577.821	283.56
578.032	292.56
578.243	316.56
578.454	558.56
578.665	397.56
578.875	304.56
579.086	292.56
579.297	289.56
579.508	264.56
579.718	268.56
579.929	270.56
580.14	269.56
580.35	266.56
580.561	263.56
580.772	260.56
580.982	243.56
581.193	248.56
581.403	256.56
581.614	261.56
581.825	245.56
582.035	273.56
582.246	237.56
582.456	263.56
582.667	238.56
582.877	253.56
583.087	244.56
583.298	251.56
583.508	272.56
583.719	261.56
583.929	249.56
584.139	265.56
584.35	260.56
584.56	251.56
584.77	268.56
584.981	251.56
585.191	266.56
585.401	245.56
585.611	254.56
585.821	249.56
586.032	258.56
586.242	244.56
586.452	257.56
586.662	263.56
586.872	256.56
587.082	254.56
587.292	248.56
587.502	235.56
587.713	237.56
587.923	228.56
588.133	261.56
588.343	259.56
588.553	248.56
588.762	264.56
588.972	257.56
589.182	314.56
589.392	316.56
589.602	264.56
589.812	311.56
590.022	284.56
590.232	253.56
590.441	240.56
590.651	246.56
590.861	266.56
591.071	246.56
591.281	241.56
591.49	240.56
591.7	236.56
591.91	260.56
592.119	265.56
592.329	250.56
592.539	262.56
592.748	258.56
592.958	253.56
593.167	265.56
593.377	276.56
593.587	258.56
593.796	259.56
594.006	248.56
594.215	225.56
594.424	242.56
594.634	245.56
594.843	259.56
595.053	262.56
595.262	219.56
595.472	238.56
595.681	234.56
595.89	237.56
596.1	229.56
596.309	237.56
596.518	237.56
596.727	235.56
596.937	233.56
597.146	228.56
597.355	239.56
597.564	242.56
597.774	232.56
597.983	220.56
598.192	216.56
598.401	229.56
598.61	230.56
598.819	248.56
599.028	226.56
599.237	226.56
599.446	228.56
599.655	229.56
599.864	216.56
600.073	212.56
600.282	217.56
600.491	228.56
600.7	210.56
600.909	228.56
601.118	210.56
601.327	227.56
601.536	226.56
601.745	211.56
601.953	214.56
602.162	216.56
602.371	226.56
602.58	211.56
602.789	205.56
602.997	225.56
603.206	240.56
603.415	220.56
603.623	211.56
603.832	228.56
604.041	216.56
604.249	206.56
604.458	208.56
604.666	209.56
604.875	209.56
605.084	215.56
605.292	212.56
605.501	216.56
605.709	212.56
605.918	206.56
606.126	195.56
606.334	208.56
606.543	217.56
606.751	219.56
606.96	209.56
607.168	208.56
607.376	203.56
607.585	203.56
607.793	220.56
608.001	197.56
608.21	201.56
608.418	185.56
608.626	201.56
608.834	211.56
609.043	201.56
609.251	200.56
609.459	208.56
609.667	204.56
609.875	203.56
610.083	206.56
610.291	210.56
610.499	187.56
610.707	195.56
610.916	210.56
611.124	222.56
611.332	218.56
611.54	218.56
611.748	205.56
611.955	216.56
612.163	220.56
612.371	213.56
612.579	209.56
612.787	186.56
612.995	203.56
613.203	220.56
613.411	189.56
613.618	199.56
613.826	207.56
614.034	193.56
614.242	200.56
614.449	186.56
614.657	189.56
614.865	182.56
615.072	218.56
615.28	193.56
615.488	187.56
615.695	203.56
615.903	201.56
616.111	197.56
616.318	216.56
616.526	206.56
616.733	209.56
616.941	190.56
617.148	197.56
617.356	194.56
617.563	190.56
617.771	199.56
617.978	203.56
618.185	203.56
618.393	192.56
618.6	180.56
618.807	191.56
619.015	205.56
619.222	200.56
619.429	201.56
619.637	205.56
619.844	197.56
620.051	181.56
620.258	210.56
620.466	204.56
620.673	182.56
620.88	177.56
621.087	192.56
621.294	180.56
621.501	177.56
621.708	195.56
621.915	182.56
622.122	192.56
622.329	191.56
622.536	183.56
622.743	171.56
622.95	177.56
623.157	188.56
623.364	190.56
623.571	168.56
623.778	183.56
623.985	184.56
624.192	173.56
624.399	186.56
624.606	178.56
624.812	177.56
625.019	176.56
625.226	184.56
625.433	188.56
625.639	183.56
625.846	184.56
626.053	177.56
626.259	198.56
626.466	172.56
626.673	162.56
626.879	171.56
627.086	183.56
627.293	182.56
627.499	159.56
627.706	189.56
627.912	174.56
628.119	195.56
628.325	193.56
628.532	172.56
628.738	173.56
628.945	175.56
629.151	188.56
629.357	163.56
629.564	165.56
629.77	166.56
629.976	184.56
630.183	184.56
630.389	151.56
630.595	164.56
630.802	164.56
631.008	185.56
631.214	168.56
631.42	171.56
631.627	176.56
631.833	165.56
632.039	169.56
632.245	138.56
632.451	163.56
632.657	158.56
632.863	156.56
633.069	151.56
633.275	151.56
633.481	179.56
633.688	172.56
633.893	176.56
634.099	164.56
634.305	174.56
634.511	165.56
634.717	165.56
634.923	150.56
635.129	161.56
635.335	151.56
635.541	141.56
635.747	158.56
635.952	161.56
636.158	162.56
636.364	174.56
636.57	180.56
636.775	160.56
636.981	145.56
637.187	161.56
637.392	151.56
637.598	171.56
637.804	154.56
638.009	154.56
638.215	163.56
638.421	164.56
638.626	151.56
638.832	161.56
639.037	152.56
639.243	146.56
639.448	148.56
639.654	160.56
639.859	157.56
640.065	138.56
640.27	143.56
640.475	154.56
640.681	158.56
640.886	151.56
641.091	138.56
641.297	152.56
641.502	131.56
641.707	163.56
641.913	160.56
642.118	152.56
642.323	149.56
642.528	151.56
642.733	145.56
642.939	140.56
643.144	149.56
643.349	158.56
643.554	141.56
643.759	150.56
643.964	163.56
644.169	129.56
644.374	138.56
644.579	146.56
644.784	165.56
644.989	154.56
645.194	164.56
645.399	158.56
645.604	149.56
645.809	148.56
646.014	150.56
646.219	136.56
646.423	149.56
646.628	142.56
646.833	154.56
647.038	164.56
647.243	152.56
647.447	153.56
647.652	153.56
647.857	146.56
648.062	150.56
648.266	140.56
648.471	148.56
648.676	152.56
648.88	160.56
649.085	168.56
649.289	153.56
649.494	141.56
649.698	159.56
649.903	165.56
650.107	141.56
650.312	160.56
650.516	139.56
650.721	129.56
650.925	149.56
651.13	122.56
651.334	143.56
651.539	134.56
651.743	134.56
651.947	154.56
652.152	142.56
652.356	137.56
652.56	143.56
652.764	138.56
652.969	132.56
653.173	124.56
653.377	128.56
653.581	133.56
653.785	143.56
653.99	134.56
654.194	132.56
654.398	132.56
654.602	125.56
654.806	133.56
655.01	132.56
655.214	144.56
655.418	124.56
655.622	128.56
655.826	117.56
656.03	128.56
656.234	132.56
656.438	125.56
656.642	141.56
656.846	126.56
657.049	130.56
657.253	126.56
657.457	129.56
657.661	123.56
657.865	105.56
658.068	116.56
658.272	106.56
658.476	99.56
658.68	109.56
658.883	97.56
659.087	112.56
659.291	103.56
659.494	88.56
659.698	93.56
659.901	92.56
660.105	98.56
660.309	109.56
660.512	101.56
660.716	100.56
660.919	103.56
661.123	95.56
661.326	80.56
661.53	62.56
661.733	70.56
661.936	91.56
662.14	97.56
662.343	86.56
662.546	82.56
662.75	79.56
662.953	84.56
663.156	83.56
663.36	78.56
663.563	84.56
663.766	85.56
663.969	86.56
664.173	76.56
664.376	66.56
664.579	83.56
664.782	96.56
664.985	84.56
665.188	77.56
665.391	73.56
665.594	88.56
665.797	99.56
666	87.56
666.203	73.56
666.406	89.56
666.609	77.56
666.812	70.56
667.015	71.56
667.218	80.56
667.421	91.56
667.624	72.56
667.827	89.56
668.03	83.56
668.232	85.56
668.435	94.56
668.638	91.56
668.841	76.56
669.043	72.56
669.246	83.56
669.449	87.56
669.651	87.56
669.854	84.56
670.057	88.56
670.259	66.56
670.462	84.56
670.665	82.56
670.867	100.56
671.07	66.56
671.272	93.56
671.475	82.56
671.677	82.56
671.88	86.56
672.082	87.56
672.284	80.56
672.487	81.56
672.689	89.56
672.892	73.56
