Data from 1965.PennyLincolnUp.Lamp.En5.5.200Scan.071719.P1._HRD10591_14-08-07-911.txt Node
Date: Thu Jul 18 14:08:07 EDT 2019
User: cochatt
Spectrometer: HR+D1059
Trigger mode: 1
Integration Time (sec): 1.000000E-1
Scans to average: 1
Electric dark correction enabled: true
Nonlinearity correction enabled: false
Boxcar width: 0
XAxis mode: Wavelengths
Number of Pixels in Spectrum: 2048
>>>>>Begin Spectral Data<<<<<
223.165	-2.25
223.4	-2.25
223.635	-2.25
223.869	-27.25
224.104	-6.25
224.338	-12.25
224.573	-30.25
224.808	-13.25
225.042	0.75
225.277	2.75
225.511	-2.25
225.746	1.75
225.98	8.75
226.215	10.75
226.449	8.75
226.683	17.75
226.918	20.75
227.152	21.75
227.387	34.75
227.621	21.75
227.856	40.75
228.09	43.75
228.324	54.75
228.559	62.75
228.793	53.75
229.027	77.75
229.262	86.75
229.496	95.75
229.73	114.75
229.964	117.75
230.199	125.75
230.433	93.75
230.667	107.75
230.901	89.75
231.136	95.75
231.37	88.75
231.604	107.75
231.838	95.75
232.072	110.75
232.306	98.75
232.541	91.75
232.775	106.75
233.009	105.75
233.243	106.75
233.477	117.75
233.711	111.75
233.945	99.75
234.179	100.75
234.413	90.75
234.647	102.75
234.881	104.75
235.115	111.75
235.349	96.75
235.583	112.75
235.817	109.75
236.051	120.75
236.285	130.75
236.519	104.75
236.753	115.75
236.987	113.75
237.221	151.75
237.455	191.75
237.689	146.75
237.922	117.75
238.156	118.75
238.39	119.75
238.624	124.75
238.858	110.75
239.091	114.75
239.325	107.75
239.559	112.75
239.793	88.75
240.027	96.75
240.26	121.75
240.494	130.75
240.728	139.75
240.961	117.75
241.195	113.75
241.429	129.75
241.662	118.75
241.896	104.75
242.13	108.75
242.363	110.75
242.597	110.75
242.83	124.75
243.064	115.75
243.298	96.75
243.531	116.75
243.765	106.75
243.998	131.75
244.232	117.75
244.465	126.75
244.699	132.75
244.932	111.75
245.166	113.75
245.399	114.75
245.633	126.75
245.866	126.75
246.099	119.75
246.333	139.75
246.566	119.75
246.8	141.75
247.033	146.75
247.266	149.75
247.5	135.75
247.733	143.75
247.966	144.75
248.2	146.75
248.433	151.75
248.666	163.75
248.899	147.75
249.133	160.75
249.366	178.75
249.599	154.75
249.832	150.75
250.066	154.75
250.299	136.75
250.532	155.75
250.765	182.75
250.998	182.75
251.231	170.75
251.465	165.75
251.698	157.75
251.931	163.75
252.164	157.75
252.397	146.75
252.63	176.75
252.863	155.75
253.096	174.75
253.329	178.75
253.562	174.75
253.795	188.75
254.028	184.75
254.261	174.75
254.494	187.75
254.727	204.75
254.96	232.75
255.193	214.75
255.426	207.75
255.659	192.75
255.892	211.75
256.124	190.75
256.357	193.75
256.59	186.75
256.823	169.75
257.056	174.75
257.289	174.75
257.521	153.75
257.754	180.75
257.987	180.75
258.22	175.75
258.452	168.75
258.685	179.75
258.918	166.75
259.151	176.75
259.383	171.75
259.616	177.75
259.849	183.75
260.081	205.75
260.314	198.75
260.547	208.75
260.779	188.75
261.012	192.75
261.244	187.75
261.477	180.75
261.71	181.75
261.942	187.75
262.175	186.75
262.407	188.75
262.64	186.75
262.872	186.75
263.105	186.75
263.337	186.75
263.57	177.75
263.802	170.75
264.035	160.75
264.267	180.75
264.499	172.75
264.732	180.75
264.964	164.75
265.197	178.75
265.429	171.75
265.661	177.75
265.894	166.75
266.126	177.75
266.358	182.75
266.591	165.75
266.823	194.75
267.055	195.75
267.287	196.75
267.52	186.75
267.752	203.75
267.984	192.75
268.216	181.75
268.448	195.75
268.681	195.75
268.913	192.75
269.145	206.75
269.377	204.75
269.609	208.75
269.841	213.75
270.073	220.75
270.306	215.75
270.538	241.75
270.77	252.75
271.002	224.75
271.234	218.75
271.466	223.75
271.698	257.75
271.93	253.75
272.162	245.75
272.394	243.75
272.626	238.75
272.858	216.75
273.09	213.75
273.322	237.75
273.553	200.75
273.785	219.75
274.017	218.75
274.249	184.75
274.481	232.75
274.713	221.75
274.945	214.75
275.176	202.75
275.408	204.75
275.64	213.75
275.872	218.75
276.104	202.75
276.335	224.75
276.567	223.75
276.799	242.75
277.031	252.75
277.262	259.75
277.494	245.75
277.726	235.75
277.957	240.75
278.189	253.75
278.421	224.75
278.652	219.75
278.884	211.75
279.115	228.75
279.347	240.75
279.579	228.75
279.81	236.75
280.042	212.75
280.273	208.75
280.505	219.75
280.736	199.75
280.968	197.75
281.199	209.75
281.431	220.75
281.662	188.75
281.894	216.75
282.125	220.75
282.356	242.75
282.588	246.75
282.819	263.75
283.051	220.75
283.282	222.75
283.513	220.75
283.745	210.75
283.976	222.75
284.207	226.75
284.439	224.75
284.67	219.75
284.901	219.75
285.132	228.75
285.364	223.75
285.595	230.75
285.826	222.75
286.057	224.75
286.288	224.75
286.52	223.75
286.751	218.75
286.982	212.75
287.213	225.75
287.444	246.75
287.675	228.75
287.906	226.75
288.138	250.75
288.369	234.75
288.6	238.75
288.831	235.75
289.062	259.75
289.293	240.75
289.524	229.75
289.755	228.75
289.986	232.75
290.217	242.75
290.448	238.75
290.679	219.75
290.91	218.75
291.141	227.75
291.371	236.75
291.602	222.75
291.833	241.75
292.064	227.75
292.295	224.75
292.526	235.75
292.757	229.75
292.987	231.75
293.218	241.75
293.449	242.75
293.68	249.75
293.91	229.75
294.141	236.75
294.372	223.75
294.603	214.75
294.833	238.75
295.064	256.75
295.295	236.75
295.525	227.75
295.756	232.75
295.987	246.75
296.217	264.75
296.448	268.75
296.679	264.75
296.909	242.75
297.14	218.75
297.37	252.75
297.601	264.75
297.831	228.75
298.062	240.75
298.292	251.75
298.523	232.75
298.753	239.75
298.984	247.75
299.214	241.75
299.445	234.75
299.675	249.75
299.905	262.75
300.136	240.75
300.366	251.75
300.597	235.75
300.827	256.75
301.057	272.75
301.288	269.75
301.518	257.75
301.748	248.75
301.979	247.75
302.209	264.75
302.439	266.75
302.669	251.75
302.9	261.75
303.13	275.75
303.36	261.75
303.59	258.75
303.82	257.75
304.051	269.75
304.281	258.75
304.511	265.75
304.741	266.75
304.971	264.75
305.201	244.75
305.431	266.75
305.661	257.75
305.891	262.75
306.121	276.75
306.352	281.75
306.582	269.75
306.812	287.75
307.042	254.75
307.272	282.75
307.502	251.75
307.731	269.75
307.961	272.75
308.191	260.75
308.421	262.75
308.651	282.75
308.881	282.75
309.111	263.75
309.341	272.75
309.571	271.75
309.8	291.75
310.03	282.75
310.26	302.75
310.49	304.75
310.72	303.75
310.949	306.75
311.179	313.75
311.409	289.75
311.639	294.75
311.868	288.75
312.098	303.75
312.328	322.75
312.557	318.75
312.787	340.75
313.017	340.75
313.246	319.75
313.476	316.75
313.706	312.75
313.935	305.75
314.165	324.75
314.394	322.75
314.624	307.75
314.853	314.75
315.083	312.75
315.312	303.75
315.542	299.75
315.771	302.75
316.001	298.75
316.23	294.75
316.46	312.75
316.689	297.75
316.919	313.75
317.148	307.75
317.377	322.75
317.607	319.75
317.836	328.75
318.065	296.75
318.295	298.75
318.524	314.75
318.753	297.75
318.983	308.75
319.212	283.75
319.441	304.75
319.67	308.75
319.9	312.75
320.129	307.75
320.358	320.75
320.587	308.75
320.816	320.75
321.046	326.75
321.275	337.75
321.504	310.75
321.733	328.75
321.962	338.75
322.191	338.75
322.42	340.75
322.649	360.75
322.878	375.75
323.108	378.75
323.337	396.75
323.566	408.75
323.795	440.75
324.024	475.75
324.253	578.75
324.482	818.75
324.71	1278.75
324.939	1719.75
325.168	1448.75
325.397	768.75
325.626	544.75
325.855	435.75
326.084	416.75
326.313	412.75
326.542	409.75
326.77	456.75
326.999	532.75
327.228	754.75
327.457	1101.75
327.686	1267.75
327.914	838.75
328.143	604.75
328.372	526.75
328.6	475.75
328.829	458.75
329.058	462.75
329.287	475.75
329.515	434.75
329.744	423.75
329.972	411.75
330.201	437.75
330.43	453.75
330.658	480.75
330.887	483.75
331.115	471.75
331.344	421.75
331.572	399.75
331.801	410.75
332.03	401.75
332.258	376.75
332.486	350.75
332.715	361.75
332.943	367.75
333.172	358.75
333.4	366.75
333.629	386.75
333.857	387.75
334.085	389.75
334.314	410.75
334.542	419.75
334.771	420.75
334.999	383.75
335.227	386.75
335.455	375.75
335.684	386.75
335.912	370.75
336.14	351.75
336.369	351.75
336.597	349.75
336.825	351.75
337.053	351.75
337.281	336.75
337.51	354.75
337.738	363.75
337.966	362.75
338.194	339.75
338.422	372.75
338.65	339.75
338.878	328.75
339.106	353.75
339.334	355.75
339.562	339.75
339.79	345.75
340.018	336.75
340.246	338.75
340.474	362.75
340.702	362.75
340.93	331.75
341.158	354.75
341.386	354.75
341.614	352.75
341.842	345.75
342.07	351.75
342.298	344.75
342.526	356.75
342.754	346.75
342.981	329.75
343.209	335.75
343.437	328.75
343.665	332.75
343.893	343.75
344.12	329.75
344.348	348.75
344.576	331.75
344.804	354.75
345.031	363.75
345.259	372.75
345.487	363.75
345.714	327.75
345.942	345.75
346.17	332.75
346.397	347.75
346.625	330.75
346.853	342.75
347.08	345.75
347.308	338.75
347.535	332.75
347.763	349.75
347.99	357.75
348.218	331.75
348.445	340.75
348.673	346.75
348.9	354.75
349.128	328.75
349.355	316.75
349.583	331.75
349.81	332.75
350.037	327.75
350.265	335.75
350.492	309.75
350.72	330.75
350.947	351.75
351.174	348.75
351.402	329.75
351.629	340.75
351.856	360.75
352.083	364.75
352.311	340.75
352.538	347.75
352.765	372.75
352.992	349.75
353.22	350.75
353.447	346.75
353.674	346.75
353.901	346.75
354.128	331.75
354.355	315.75
354.583	332.75
354.81	330.75
355.037	318.75
355.264	307.75
355.491	302.75
355.718	293.75
355.945	329.75
356.172	325.75
356.399	313.75
356.626	302.75
356.853	293.75
357.08	312.75
357.307	318.75
357.534	313.75
357.761	321.75
357.988	315.75
358.215	323.75
358.441	304.75
358.668	316.75
358.895	318.75
359.122	337.75
359.349	315.75
359.576	332.75
359.802	355.75
360.029	385.75
360.256	392.75
360.483	363.75
360.709	351.75
360.936	347.75
361.163	342.75
361.39	332.75
361.616	338.75
361.843	326.75
362.07	338.75
362.296	369.75
362.523	342.75
362.749	331.75
362.976	343.75
363.203	326.75
363.429	324.75
363.656	334.75
363.882	328.75
364.109	316.75
364.335	315.75
364.562	307.75
364.788	326.75
365.015	327.75
365.241	334.75
365.468	346.75
365.694	326.75
365.92	337.75
366.147	323.75
366.373	318.75
366.599	327.75
366.826	328.75
367.052	312.75
367.278	326.75
367.505	328.75
367.731	325.75
367.957	332.75
368.184	337.75
368.41	343.75
368.636	318.75
368.862	356.75
369.089	337.75
369.315	326.75
369.541	336.75
369.767	328.75
369.993	315.75
370.219	298.75
370.445	325.75
370.672	310.75
370.898	312.75
371.124	318.75
371.35	327.75
371.576	326.75
371.802	328.75
372.028	322.75
372.254	292.75
372.48	328.75
372.706	337.75
372.932	342.75
373.158	319.75
373.384	338.75
373.61	316.75
373.835	322.75
374.061	311.75
374.287	346.75
374.513	325.75
374.739	326.75
374.965	314.75
375.191	340.75
375.416	323.75
375.642	314.75
375.868	320.75
376.094	316.75
376.319	327.75
376.545	323.75
376.771	315.75
376.997	311.75
377.222	320.75
377.448	304.75
377.674	322.75
377.899	315.75
378.125	308.75
378.35	294.75
378.576	304.75
378.802	318.75
379.027	312.75
379.253	337.75
379.478	336.75
379.704	315.75
379.929	336.75
380.155	318.75
380.38	327.75
380.606	330.75
380.831	320.75
381.057	319.75
381.282	333.75
381.507	318.75
381.733	318.75
381.958	342.75
382.184	313.75
382.409	322.75
382.634	328.75
382.86	323.75
383.085	335.75
383.31	307.75
383.535	346.75
383.761	338.75
383.986	338.75
384.211	345.75
384.436	329.75
384.662	337.75
384.887	336.75
385.112	343.75
385.337	346.75
385.562	345.75
385.787	335.75
386.013	345.75
386.238	352.75
386.463	344.75
386.688	364.75
386.913	368.75
387.138	349.75
387.363	336.75
387.588	349.75
387.813	326.75
388.038	324.75
388.263	350.75
388.488	348.75
388.713	355.75
388.938	366.75
389.163	346.75
389.387	345.75
389.612	338.75
389.837	351.75
390.062	345.75
390.287	360.75
390.512	324.75
390.736	329.75
390.961	332.75
391.186	337.75
391.411	348.75
391.636	337.75
391.86	354.75
392.085	363.75
392.31	366.75
392.534	336.75
392.759	348.75
392.984	347.75
393.208	346.75
393.433	345.75
393.658	354.75
393.882	338.75
394.107	349.75
394.331	362.75
394.556	346.75
394.78	347.75
395.005	352.75
395.229	339.75
395.454	347.75
395.678	338.75
395.903	363.75
396.127	391.75
396.352	374.75
396.576	358.75
396.801	370.75
397.025	366.75
397.249	360.75
397.474	378.75
397.698	376.75
397.922	371.75
398.147	378.75
398.371	392.75
398.595	382.75
398.82	377.75
399.044	386.75
399.268	401.75
399.492	422.75
399.717	427.75
399.941	447.75
400.165	472.75
400.389	477.75
400.613	450.75
400.837	421.75
401.062	395.75
401.286	405.75
401.51	393.75
401.734	387.75
401.958	385.75
402.182	403.75
402.406	397.75
402.63	396.75
402.854	420.75
403.078	398.75
403.302	386.75
403.526	398.75
403.75	397.75
403.974	401.75
404.198	401.75
404.422	419.75
404.645	399.75
404.869	421.75
405.093	418.75
405.317	465.75
405.541	476.75
405.765	438.75
405.988	435.75
406.212	448.75
406.436	445.75
406.66	450.75
406.883	441.75
407.107	455.75
407.331	480.75
407.555	522.75
407.778	525.75
408.002	485.75
408.226	450.75
408.449	438.75
408.673	431.75
408.896	455.75
409.12	493.75
409.344	466.75
409.567	421.75
409.791	426.75
410.014	414.75
410.238	395.75
410.461	411.75
410.685	426.75
410.908	410.75
411.132	457.75
411.355	472.75
411.578	444.75
411.802	414.75
412.025	444.75
412.249	422.75
412.472	436.75
412.695	433.75
412.919	439.75
413.142	415.75
413.365	377.75
413.589	398.75
413.812	413.75
414.035	412.75
414.258	395.75
414.482	386.75
414.705	359.75
414.928	393.75
415.151	394.75
415.374	376.75
415.597	386.75
415.821	378.75
416.044	384.75
416.267	358.75
416.49	375.75
416.713	374.75
416.936	385.75
417.159	381.75
417.382	377.75
417.605	389.75
417.828	393.75
418.051	414.75
418.274	386.75
418.497	385.75
418.72	391.75
418.943	389.75
419.166	385.75
419.389	418.75
419.611	402.75
419.834	413.75
420.057	417.75
420.28	402.75
420.503	403.75
420.726	417.75
420.948	410.75
421.171	442.75
421.394	450.75
421.617	427.75
421.839	410.75
422.062	395.75
422.285	420.75
422.507	438.75
422.73	515.75
422.953	498.75
423.175	447.75
423.398	430.75
423.621	410.75
423.843	419.75
424.066	419.75
424.288	426.75
424.511	452.75
424.733	491.75
424.956	538.75
425.178	506.75
425.401	503.75
425.623	524.75
425.846	482.75
426.068	434.75
426.291	436.75
426.513	422.75
426.735	440.75
426.958	477.75
427.18	522.75
427.402	618.75
427.625	688.75
427.847	588.75
428.069	528.75
428.292	458.75
428.514	416.75
428.736	425.75
428.958	408.75
429.181	383.75
429.403	401.75
429.625	402.75
429.847	458.75
430.069	478.75
430.292	488.75
430.514	416.75
430.736	403.75
430.958	424.75
431.18	385.75
431.402	400.75
431.624	373.75
431.846	398.75
432.068	396.75
432.29	385.75
432.512	379.75
432.734	392.75
432.956	394.75
433.178	411.75
433.4	397.75
433.622	386.75
433.844	393.75
434.066	389.75
434.287	395.75
434.509	377.75
434.731	337.75
434.953	386.75
435.175	419.75
435.397	448.75
435.618	431.75
435.84	453.75
436.062	528.75
436.284	579.75
436.505	510.75
436.727	448.75
436.949	416.75
437.17	423.75
437.392	407.75
437.614	416.75
437.835	430.75
438.057	521.75
438.278	576.75
438.5	592.75
438.721	657.75
438.943	621.75
439.165	495.75
439.386	464.75
439.608	431.75
439.829	466.75
440.05	466.75
440.272	487.75
440.493	472.75
440.715	447.75
440.936	422.75
441.158	438.75
441.379	417.75
441.6	435.75
441.822	435.75
442.043	463.75
442.264	542.75
442.486	546.75
442.707	462.75
442.928	450.75
443.149	436.75
443.371	454.75
443.592	506.75
443.813	568.75
444.034	604.75
444.255	500.75
444.476	451.75
444.698	396.75
444.919	437.75
445.14	518.75
445.361	472.75
445.582	468.75
445.803	519.75
446.024	604.75
446.245	600.75
446.466	549.75
446.687	486.75
446.908	454.75
447.129	422.75
447.35	421.75
447.571	425.75
447.792	403.75
448.013	435.75
448.234	428.75
448.455	480.75
448.675	569.75
448.896	642.75
449.117	523.75
449.338	511.75
449.559	592.75
449.779	650.75
450	525.75
450.221	464.75
450.442	405.75
450.662	389.75
450.883	408.75
451.104	408.75
451.324	401.75
451.545	407.75
451.766	385.75
451.986	364.75
452.207	337.75
452.428	357.75
452.648	367.75
452.869	342.75
453.089	366.75
453.31	376.75
453.53	385.75
453.751	359.75
453.971	372.75
454.192	384.75
454.412	388.75
454.633	359.75
454.853	357.75
455.073	387.75
455.294	397.75
455.514	426.75
455.734	418.75
455.955	361.75
456.175	361.75
456.395	353.75
456.616	342.75
456.836	355.75
457.056	364.75
457.276	329.75
457.497	331.75
457.717	339.75
457.937	360.75
458.157	364.75
458.377	366.75
458.598	374.75
458.818	400.75
459.038	468.75
459.258	492.75
459.478	414.75
459.698	380.75
459.918	372.75
460.138	383.75
460.358	396.75
460.578	390.75
460.798	395.75
461.018	404.75
461.238	390.75
461.458	396.75
461.678	375.75
461.898	385.75
462.118	397.75
462.338	392.75
462.558	417.75
462.777	404.75
462.997	410.75
463.217	413.75
463.437	420.75
463.657	415.75
463.876	431.75
464.096	430.75
464.316	411.75
464.536	410.75
464.755	423.75
464.975	402.75
465.195	458.75
465.414	544.75
465.634	459.75
465.854	427.75
466.073	382.75
466.293	395.75
466.512	380.75
466.732	388.75
466.951	379.75
467.171	380.75
467.391	384.75
467.61	387.75
467.829	415.75
468.049	385.75
468.268	384.75
468.488	377.75
468.707	396.75
468.927	361.75
469.146	359.75
469.365	362.75
469.585	368.75
469.804	377.75
470.023	386.75
470.243	388.75
470.462	391.75
470.681	411.75
470.901	386.75
471.12	403.75
471.339	382.75
471.558	386.75
471.777	381.75
471.997	374.75
472.216	385.75
472.435	427.75
472.654	418.75
472.873	384.75
473.092	372.75
473.311	387.75
473.53	387.75
473.749	394.75
473.968	437.75
474.187	524.75
474.406	500.75
474.625	424.75
474.844	405.75
475.063	380.75
475.282	403.75
475.501	392.75
475.72	381.75
475.939	382.75
476.158	407.75
476.377	376.75
476.596	391.75
476.814	417.75
477.033	434.75
477.252	416.75
477.471	416.75
477.69	404.75
477.908	406.75
478.127	423.75
478.346	420.75
478.564	424.75
478.783	417.75
479.002	451.75
479.22	433.75
479.439	464.75
479.658	443.75
479.876	460.75
480.095	466.75
480.313	488.75
480.532	452.75
480.751	469.75
480.969	483.75
481.188	537.75
481.406	538.75
481.624	484.75
481.843	463.75
482.061	446.75
482.28	457.75
482.498	464.75
482.717	458.75
482.935	444.75
483.153	444.75
483.372	454.75
483.59	448.75
483.808	445.75
484.027	446.75
484.245	461.75
484.463	465.75
484.681	475.75
484.9	447.75
485.118	453.75
485.336	455.75
485.554	476.75
485.772	476.75
485.99	478.75
486.209	486.75
486.427	456.75
486.645	479.75
486.863	491.75
487.081	478.75
487.299	482.75
487.517	499.75
487.735	480.75
487.953	512.75
488.171	494.75
488.389	484.75
488.607	487.75
488.825	474.75
489.043	494.75
489.261	466.75
489.479	495.75
489.696	502.75
489.914	491.75
490.132	508.75
490.35	510.75
490.568	504.75
490.786	526.75
491.003	522.75
491.221	530.75
491.439	534.75
491.657	518.75
491.874	517.75
492.092	564.75
492.31	541.75
492.527	549.75
492.745	547.75
492.963	558.75
493.18	555.75
493.398	558.75
493.615	556.75
493.833	573.75
494.05	558.75
494.268	540.75
494.485	560.75
494.703	548.75
494.92	538.75
495.138	566.75
495.355	572.75
495.573	575.75
495.79	558.75
496.008	535.75
496.225	573.75
496.442	558.75
496.66	586.75
496.877	555.75
497.094	550.75
497.312	576.75
497.529	558.75
497.746	592.75
497.963	592.75
498.181	601.75
498.398	614.75
498.615	624.75
498.832	627.75
499.049	640.75
499.267	673.75
499.484	674.75
499.701	669.75
499.918	675.75
500.135	714.75
500.352	722.75
500.569	742.75
500.786	721.75
501.003	736.75
501.22	734.75
501.437	734.75
501.654	707.75
501.871	680.75
502.088	669.75
502.305	632.75
502.522	614.75
502.739	622.75
502.956	601.75
503.172	600.75
503.389	593.75
503.606	610.75
503.823	587.75
504.04	592.75
504.256	564.75
504.473	563.75
504.69	581.75
504.907	570.75
505.123	538.75
505.34	542.75
505.557	519.75
505.773	559.75
505.99	544.75
506.207	536.75
506.423	552.75
506.64	539.75
506.856	518.75
507.073	542.75
507.289	520.75
507.506	531.75
507.722	538.75
507.939	547.75
508.155	538.75
508.372	538.75
508.588	503.75
508.805	504.75
509.021	533.75
509.238	508.75
509.454	522.75
509.67	524.75
509.887	518.75
510.103	531.75
510.319	525.75
510.536	624.75
510.752	1066.75
510.968	845.75
511.184	550.75
511.401	530.75
511.617	499.75
511.833	486.75
512.049	486.75
512.265	484.75
512.481	490.75
512.698	499.75
512.914	477.75
513.13	493.75
513.346	518.75
513.562	491.75
513.778	493.75
513.994	528.75
514.21	524.75
514.426	517.75
514.642	542.75
514.858	584.75
515.074	602.75
515.29	768.75
515.506	1142.75
515.721	920.75
515.937	639.75
516.153	574.75
516.369	517.75
516.585	517.75
516.801	514.75
517.016	546.75
517.232	507.75
517.448	496.75
517.664	531.75
517.879	498.75
518.095	517.75
518.311	497.75
518.527	500.75
518.742	507.75
518.958	500.75
519.173	492.75
519.389	526.75
519.605	507.75
519.82	485.75
520.036	512.75
520.251	534.75
520.467	564.75
520.682	562.75
520.898	561.75
521.113	593.75
521.329	629.75
521.544	712.75
521.76	903.75
521.975	1462.75
522.19	1494.75
522.406	778.75
522.621	592.75
522.836	540.75
523.052	525.75
523.267	473.75
523.482	465.75
523.698	463.75
523.913	451.75
524.128	449.75
524.343	448.75
524.559	446.75
524.774	426.75
524.989	445.75
525.204	443.75
525.419	443.75
525.634	425.75
525.849	408.75
526.064	400.75
526.28	433.75
526.495	408.75
526.71	425.75
526.925	423.75
527.14	422.75
527.355	427.75
527.57	424.75
527.785	407.75
527.999	415.75
528.214	420.75
528.429	391.75
528.644	418.75
528.859	445.75
529.074	410.75
529.289	438.75
529.503	506.75
529.718	519.75
529.933	452.75
530.148	434.75
530.363	446.75
530.577	417.75
530.792	395.75
531.007	410.75
531.221	404.75
531.436	403.75
531.651	402.75
531.865	389.75
532.08	378.75
532.295	391.75
532.509	396.75
532.724	395.75
532.938	402.75
533.153	394.75
533.367	382.75
533.582	401.75
533.796	414.75
534.011	387.75
534.225	395.75
534.44	372.75
534.654	373.75
534.868	390.75
535.083	393.75
535.297	386.75
535.511	395.75
535.726	400.75
535.94	402.75
536.154	394.75
536.369	391.75
536.583	379.75
536.797	381.75
537.011	386.75
537.225	387.75
537.44	374.75
537.654	394.75
537.868	377.75
538.082	386.75
538.296	378.75
538.51	390.75
538.724	376.75
538.938	376.75
539.153	369.75
539.367	390.75
539.581	378.75
539.795	373.75
540.009	382.75
540.222	368.75
540.436	379.75
540.65	362.75
540.864	374.75
541.078	386.75
541.292	374.75
541.506	384.75
541.72	373.75
541.934	371.75
542.147	370.75
542.361	374.75
542.575	351.75
542.789	372.75
543.002	359.75
543.216	367.75
543.43	387.75
543.644	360.75
543.857	364.75
544.071	374.75
544.285	377.75
544.498	380.75
544.712	371.75
544.925	362.75
545.139	361.75
545.352	358.75
545.566	362.75
545.779	356.75
545.993	346.75
546.206	368.75
546.42	363.75
546.633	339.75
546.847	368.75
547.06	363.75
547.274	371.75
547.487	366.75
547.7	373.75
547.914	369.75
548.127	349.75
548.34	370.75
548.554	352.75
548.767	359.75
548.98	333.75
549.193	371.75
549.407	336.75
549.62	324.75
549.833	350.75
550.046	363.75
550.259	324.75
550.473	348.75
550.686	328.75
550.899	358.75
551.112	349.75
551.325	350.75
551.538	339.75
551.751	336.75
551.964	373.75
552.177	334.75
552.39	372.75
552.603	327.75
552.816	330.75
553.029	358.75
553.242	343.75
553.455	329.75
553.667	358.75
553.88	380.75
554.093	340.75
554.306	358.75
554.519	359.75
554.732	357.75
554.944	342.75
555.157	337.75
555.37	332.75
555.583	343.75
555.795	341.75
556.008	346.75
556.221	340.75
556.433	323.75
556.646	342.75
556.859	329.75
557.071	326.75
557.284	320.75
557.496	322.75
557.709	327.75
557.921	328.75
558.134	316.75
558.346	296.75
558.559	310.75
558.771	327.75
558.984	323.75
559.196	316.75
559.409	309.75
559.621	325.75
559.833	310.75
560.046	325.75
560.258	302.75
560.47	296.75
560.683	327.75
560.895	310.75
561.107	317.75
561.32	321.75
561.532	327.75
561.744	320.75
561.956	292.75
562.168	309.75
562.381	308.75
562.593	326.75
562.805	310.75
563.017	333.75
563.229	317.75
563.441	308.75
563.653	328.75
563.865	314.75
564.077	314.75
564.289	308.75
564.501	318.75
564.713	329.75
564.925	354.75
565.137	334.75
565.349	331.75
565.561	329.75
565.773	342.75
565.985	344.75
566.197	347.75
566.408	345.75
566.62	345.75
566.832	353.75
567.044	360.75
567.255	382.75
567.467	388.75
567.679	365.75
567.891	368.75
568.102	358.75
568.314	366.75
568.526	348.75
568.737	360.75
568.949	328.75
569.161	332.75
569.372	334.75
569.584	326.75
569.795	309.75
570.007	338.75
570.218	382.75
570.43	332.75
570.641	314.75
570.853	295.75
571.064	307.75
571.276	284.75
571.487	297.75
571.698	302.75
571.91	297.75
572.121	282.75
572.333	278.75
572.544	295.75
572.755	275.75
572.966	268.75
573.178	286.75
573.389	287.75
573.6	282.75
573.811	282.75
574.023	283.75
574.234	276.75
574.445	272.75
574.656	259.75
574.867	289.75
575.078	289.75
575.289	261.75
575.501	267.75
575.712	281.75
575.923	269.75
576.134	273.75
576.345	272.75
576.556	263.75
576.767	258.75
576.978	273.75
577.188	258.75
577.399	260.75
577.61	275.75
577.821	269.75
578.032	277.75
578.243	311.75
578.454	519.75
578.665	372.75
578.875	274.75
579.086	274.75
579.297	275.75
579.508	252.75
579.718	252.75
579.929	256.75
580.14	260.75
580.35	245.75
580.561	283.75
580.772	242.75
580.982	250.75
581.193	246.75
581.403	266.75
581.614	246.75
581.825	266.75
582.035	239.75
582.246	249.75
582.456	266.75
582.667	248.75
582.877	263.75
583.087	256.75
583.298	236.75
583.508	270.75
583.719	246.75
583.929	239.75
584.139	232.75
584.35	251.75
584.56	254.75
584.77	233.75
584.981	254.75
585.191	254.75
585.401	246.75
585.611	239.75
585.821	244.75
586.032	240.75
586.242	215.75
586.452	251.75
586.662	220.75
586.872	229.75
587.082	239.75
587.292	245.75
587.502	245.75
587.713	245.75
587.923	238.75
588.133	259.75
588.343	246.75
588.553	244.75
588.762	247.75
588.972	234.75
589.182	354.75
589.392	338.75
589.602	294.75
589.812	327.75
590.022	318.75
590.232	246.75
590.441	236.75
590.651	223.75
590.861	233.75
591.071	231.75
591.281	213.75
591.49	243.75
591.7	243.75
591.91	224.75
592.119	244.75
592.329	229.75
592.539	230.75
592.748	248.75
592.958	244.75
593.167	254.75
593.377	233.75
593.587	246.75
593.796	243.75
594.006	244.75
594.215	245.75
594.424	247.75
594.634	245.75
594.843	224.75
595.053	220.75
595.262	241.75
595.472	241.75
595.681	220.75
595.89	245.75
596.1	232.75
596.309	243.75
596.518	231.75
596.727	224.75
596.937	234.75
597.146	250.75
597.355	236.75
597.564	228.75
597.774	223.75
597.983	233.75
598.192	214.75
598.401	199.75
598.61	217.75
598.819	228.75
599.028	203.75
599.237	217.75
599.446	208.75
599.655	222.75
599.864	215.75
600.073	222.75
600.282	217.75
600.491	207.75
600.7	217.75
600.909	207.75
601.118	211.75
601.327	201.75
601.536	212.75
601.745	228.75
601.953	232.75
602.162	195.75
602.371	204.75
602.58	204.75
602.789	213.75
602.997	207.75
603.206	204.75
603.415	190.75
603.623	215.75
603.832	201.75
604.041	210.75
604.249	193.75
604.458	202.75
604.666	211.75
604.875	198.75
605.084	192.75
605.292	203.75
605.501	213.75
605.709	200.75
605.918	191.75
606.126	194.75
606.334	206.75
606.543	203.75
606.751	211.75
606.96	212.75
607.168	201.75
607.376	211.75
607.585	202.75
607.793	196.75
608.001	203.75
608.21	200.75
608.418	193.75
608.626	193.75
608.834	202.75
609.043	193.75
609.251	187.75
609.459	209.75
609.667	203.75
609.875	209.75
610.083	195.75
610.291	185.75
610.499	210.75
610.707	186.75
610.916	189.75
611.124	207.75
611.332	204.75
611.54	193.75
611.748	214.75
611.955	196.75
612.163	199.75
612.371	184.75
612.579	191.75
612.787	203.75
612.995	207.75
613.203	192.75
613.411	203.75
613.618	197.75
613.826	201.75
614.034	187.75
614.242	206.75
614.449	194.75
614.657	198.75
614.865	186.75
615.072	207.75
615.28	187.75
615.488	183.75
615.695	197.75
615.903	185.75
616.111	193.75
616.318	200.75
616.526	199.75
616.733	183.75
616.941	186.75
617.148	197.75
617.356	191.75
617.563	196.75
617.771	206.75
617.978	182.75
618.185	201.75
618.393	182.75
618.6	174.75
618.807	179.75
619.015	200.75
619.222	202.75
619.429	181.75
619.637	178.75
619.844	187.75
620.051	190.75
620.258	184.75
620.466	194.75
620.673	194.75
620.88	186.75
621.087	163.75
621.294	185.75
621.501	164.75
621.708	178.75
621.915	178.75
622.122	189.75
622.329	198.75
622.536	178.75
622.743	181.75
622.95	181.75
623.157	203.75
623.364	182.75
623.571	170.75
623.778	190.75
623.985	170.75
624.192	183.75
624.399	184.75
624.606	196.75
624.812	178.75
625.019	181.75
625.226	171.75
625.433	193.75
625.639	174.75
625.846	167.75
626.053	171.75
626.259	178.75
626.466	168.75
626.673	175.75
626.879	167.75
627.086	164.75
627.293	162.75
627.499	168.75
627.706	157.75
627.912	171.75
628.119	167.75
628.325	184.75
628.532	175.75
628.738	153.75
628.945	166.75
629.151	173.75
629.357	162.75
629.564	177.75
629.77	156.75
629.976	171.75
630.183	166.75
630.389	163.75
630.595	172.75
630.802	163.75
631.008	167.75
631.214	171.75
631.42	167.75
631.627	178.75
631.833	140.75
632.039	171.75
632.245	155.75
632.451	162.75
632.657	166.75
632.863	151.75
633.069	164.75
633.275	175.75
633.481	156.75
633.688	164.75
633.893	160.75
634.099	133.75
634.305	167.75
634.511	161.75
634.717	146.75
634.923	166.75
635.129	138.75
635.335	147.75
635.541	147.75
635.747	140.75
635.952	160.75
636.158	144.75
636.364	154.75
636.57	171.75
636.775	150.75
636.981	166.75
637.187	162.75
637.392	151.75
637.598	161.75
637.804	151.75
638.009	153.75
638.215	146.75
638.421	155.75
638.626	162.75
638.832	156.75
639.037	145.75
639.243	147.75
639.448	161.75
639.654	134.75
639.859	157.75
640.065	144.75
640.27	153.75
640.475	138.75
640.681	140.75
640.886	136.75
641.091	147.75
641.297	178.75
641.502	145.75
641.707	139.75
641.913	135.75
642.118	126.75
642.323	141.75
642.528	140.75
642.733	137.75
642.939	138.75
643.144	143.75
643.349	158.75
643.554	157.75
643.759	142.75
643.964	130.75
644.169	146.75
644.374	149.75
644.579	139.75
644.784	146.75
644.989	151.75
645.194	139.75
645.399	162.75
645.604	138.75
645.809	164.75
646.014	154.75
646.219	140.75
646.423	141.75
646.628	138.75
646.833	140.75
647.038	148.75
647.243	146.75
647.447	144.75
647.652	138.75
647.857	149.75
648.062	148.75
648.266	130.75
648.471	154.75
648.676	138.75
648.88	144.75
649.085	159.75
649.289	157.75
649.494	158.75
649.698	166.75
649.903	169.75
650.107	137.75
650.312	157.75
650.516	136.75
650.721	146.75
650.925	130.75
651.13	135.75
651.334	143.75
651.539	131.75
651.743	126.75
651.947	130.75
652.152	140.75
652.356	113.75
652.56	138.75
652.764	116.75
652.969	134.75
653.173	130.75
653.377	127.75
653.581	133.75
653.785	123.75
653.99	112.75
654.194	122.75
654.398	113.75
654.602	114.75
654.806	123.75
655.01	126.75
655.214	136.75
655.418	122.75
655.622	144.75
655.826	128.75
656.03	136.75
656.234	130.75
656.438	115.75
656.642	126.75
656.846	125.75
657.049	133.75
657.253	115.75
657.457	110.75
657.661	116.75
657.865	106.75
658.068	127.75
658.272	99.75
658.476	98.75
658.68	92.75
658.883	106.75
659.087	103.75
659.291	97.75
659.494	89.75
659.698	85.75
659.901	88.75
660.105	96.75
660.309	91.75
660.512	86.75
660.716	84.75
660.919	86.75
661.123	101.75
661.326	94.75
661.53	86.75
661.733	83.75
661.936	91.75
662.14	85.75
662.343	84.75
662.546	77.75
662.75	80.75
662.953	97.75
663.156	81.75
663.36	82.75
663.563	81.75
663.766	83.75
663.969	75.75
664.173	76.75
664.376	81.75
664.579	83.75
664.782	80.75
664.985	72.75
665.188	74.75
665.391	89.75
665.594	79.75
665.797	74.75
666	74.75
666.203	74.75
666.406	71.75
666.609	96.75
666.812	68.75
667.015	79.75
667.218	83.75
667.421	92.75
667.624	64.75
667.827	75.75
668.03	82.75
668.232	78.75
668.435	74.75
668.638	74.75
668.841	78.75
669.043	74.75
669.246	86.75
669.449	88.75
669.651	80.75
669.854	70.75
670.057	68.75
670.259	84.75
670.462	82.75
670.665	81.75
670.867	72.75
671.07	70.75
671.272	74.75
671.475	83.75
671.677	76.75
671.88	77.75
672.082	86.75
672.284	87.75
672.487	80.75
672.689	82.75
672.892	72.75
