Data from 1966.PennyLincolnUp.Lamp.En5.5.200Scan.071719.P1._HRD10591_14-12-55-913.txt Node
Date: Thu Jul 18 14:12:55 EDT 2019
User: cochatt
Spectrometer: HR+D1059
Trigger mode: 1
Integration Time (sec): 1.000000E-1
Scans to average: 1
Electric dark correction enabled: true
Nonlinearity correction enabled: false
Boxcar width: 0
XAxis mode: Wavelengths
Number of Pixels in Spectrum: 2048
>>>>>Begin Spectral Data<<<<<
223.165	-5.5
223.4	-5.5
223.635	-5.5
223.869	0.5
224.104	-13.5
224.338	-6.5
224.573	-18.5
224.808	-9.5
225.042	-10.5
225.277	-22.5
225.511	-10.5
225.746	2.5
225.98	12.5
226.215	-0.5
226.449	21.5
226.683	18.5
226.918	18.5
227.152	23.5
227.387	39.5
227.621	32.5
227.856	29.5
228.09	56.5
228.324	45.5
228.559	60.5
228.793	61.5
229.027	72.5
229.262	92.5
229.496	78.5
229.73	106.5
229.964	100.5
230.199	97.5
230.433	86.5
230.667	78.5
230.901	86.5
231.136	89.5
231.37	91.5
231.604	97.5
231.838	79.5
232.072	90.5
232.306	81.5
232.541	105.5
232.775	92.5
233.009	93.5
233.243	101.5
233.477	93.5
233.711	94.5
233.945	90.5
234.179	95.5
234.413	92.5
234.647	103.5
234.881	93.5
235.115	100.5
235.349	89.5
235.583	86.5
235.817	94.5
236.051	98.5
236.285	106.5
236.519	110.5
236.753	98.5
236.987	108.5
237.221	127.5
237.455	133.5
237.689	120.5
237.922	88.5
238.156	87.5
238.39	90.5
238.624	104.5
238.858	100.5
239.091	100.5
239.325	86.5
239.559	95.5
239.793	99.5
240.027	101.5
240.26	104.5
240.494	119.5
240.728	112.5
240.961	105.5
241.195	113.5
241.429	111.5
241.662	92.5
241.896	109.5
242.13	88.5
242.363	93.5
242.597	98.5
242.83	95.5
243.064	102.5
243.298	102.5
243.531	110.5
243.765	99.5
243.998	104.5
244.232	120.5
244.465	115.5
244.699	105.5
244.932	90.5
245.166	108.5
245.399	106.5
245.633	93.5
245.866	105.5
246.099	111.5
246.333	101.5
246.566	113.5
246.8	101.5
247.033	103.5
247.266	123.5
247.5	110.5
247.733	105.5
247.966	102.5
248.2	112.5
248.433	104.5
248.666	107.5
248.899	113.5
249.133	125.5
249.366	128.5
249.599	125.5
249.832	118.5
250.066	115.5
250.299	106.5
250.532	118.5
250.765	133.5
250.998	138.5
251.231	126.5
251.465	131.5
251.698	120.5
251.931	112.5
252.164	131.5
252.397	128.5
252.63	120.5
252.863	126.5
253.096	128.5
253.329	141.5
253.562	125.5
253.795	137.5
254.028	137.5
254.261	148.5
254.494	142.5
254.727	146.5
254.96	149.5
255.193	146.5
255.426	135.5
255.659	122.5
255.892	140.5
256.124	145.5
256.357	133.5
256.59	122.5
256.823	129.5
257.056	112.5
257.289	135.5
257.521	121.5
257.754	134.5
257.987	108.5
258.22	136.5
258.452	128.5
258.685	125.5
258.918	126.5
259.151	128.5
259.383	124.5
259.616	131.5
259.849	138.5
260.081	158.5
260.314	161.5
260.547	150.5
260.779	138.5
261.012	117.5
261.244	127.5
261.477	144.5
261.71	131.5
261.942	128.5
262.175	147.5
262.407	131.5
262.64	133.5
262.872	122.5
263.105	127.5
263.337	127.5
263.57	128.5
263.802	138.5
264.035	119.5
264.267	135.5
264.499	125.5
264.732	127.5
264.964	135.5
265.197	118.5
265.429	123.5
265.661	133.5
265.894	132.5
266.126	128.5
266.358	143.5
266.591	116.5
266.823	127.5
267.055	143.5
267.287	141.5
267.52	126.5
267.752	127.5
267.984	148.5
268.216	161.5
268.448	134.5
268.681	136.5
268.913	142.5
269.145	165.5
269.377	164.5
269.609	152.5
269.841	163.5
270.073	157.5
270.306	157.5
270.538	188.5
270.77	177.5
271.002	177.5
271.234	142.5
271.466	153.5
271.698	167.5
271.93	179.5
272.162	148.5
272.394	189.5
272.626	159.5
272.858	159.5
273.09	140.5
273.322	143.5
273.553	142.5
273.785	141.5
274.017	152.5
274.249	143.5
274.481	151.5
274.713	139.5
274.945	169.5
275.176	149.5
275.408	139.5
275.64	161.5
275.872	151.5
276.104	163.5
276.335	167.5
276.567	165.5
276.799	173.5
277.031	187.5
277.262	174.5
277.494	184.5
277.726	149.5
277.957	172.5
278.189	156.5
278.421	149.5
278.652	151.5
278.884	152.5
279.115	153.5
279.347	148.5
279.579	142.5
279.81	164.5
280.042	157.5
280.273	151.5
280.505	161.5
280.736	151.5
280.968	148.5
281.199	143.5
281.431	155.5
281.662	157.5
281.894	172.5
282.125	159.5
282.356	158.5
282.588	175.5
282.819	183.5
283.051	161.5
283.282	156.5
283.513	148.5
283.745	163.5
283.976	157.5
284.207	162.5
284.439	147.5
284.67	163.5
284.901	152.5
285.132	152.5
285.364	152.5
285.595	171.5
285.826	153.5
286.057	169.5
286.288	171.5
286.52	169.5
286.751	155.5
286.982	159.5
287.213	177.5
287.444	151.5
287.675	168.5
287.906	171.5
288.138	161.5
288.369	175.5
288.6	158.5
288.831	167.5
289.062	173.5
289.293	151.5
289.524	170.5
289.755	166.5
289.986	164.5
290.217	156.5
290.448	154.5
290.679	161.5
290.91	157.5
291.141	161.5
291.371	163.5
291.602	156.5
291.833	171.5
292.064	165.5
292.295	167.5
292.526	163.5
292.757	164.5
292.987	152.5
293.218	162.5
293.449	183.5
293.68	166.5
293.91	159.5
294.141	166.5
294.372	161.5
294.603	163.5
294.833	163.5
295.064	178.5
295.295	164.5
295.525	163.5
295.756	156.5
295.987	173.5
296.217	189.5
296.448	177.5
296.679	161.5
296.909	168.5
297.14	164.5
297.37	171.5
297.601	182.5
297.831	160.5
298.062	168.5
298.292	170.5
298.523	176.5
298.753	170.5
298.984	172.5
299.214	157.5
299.445	177.5
299.675	177.5
299.905	185.5
300.136	183.5
300.366	158.5
300.597	162.5
300.827	172.5
301.057	174.5
301.288	180.5
301.518	191.5
301.748	160.5
301.979	177.5
302.209	174.5
302.439	165.5
302.669	193.5
302.9	169.5
303.13	176.5
303.36	183.5
303.59	164.5
303.82	187.5
304.051	177.5
304.281	179.5
304.511	192.5
304.741	171.5
304.971	181.5
305.201	171.5
305.431	176.5
305.661	175.5
305.891	159.5
306.121	163.5
306.352	172.5
306.582	174.5
306.812	190.5
307.042	170.5
307.272	177.5
307.502	182.5
307.731	170.5
307.961	174.5
308.191	159.5
308.421	173.5
308.651	181.5
308.881	189.5
309.111	173.5
309.341	184.5
309.571	181.5
309.8	177.5
310.03	193.5
310.26	205.5
310.49	204.5
310.72	200.5
310.949	209.5
311.179	208.5
311.409	191.5
311.639	191.5
311.868	195.5
312.098	197.5
312.328	201.5
312.557	217.5
312.787	198.5
313.017	196.5
313.246	192.5
313.476	199.5
313.706	202.5
313.935	192.5
314.165	206.5
314.394	217.5
314.624	215.5
314.853	223.5
315.083	196.5
315.312	205.5
315.542	200.5
315.771	198.5
316.001	200.5
316.23	193.5
316.46	182.5
316.689	193.5
316.919	184.5
317.148	197.5
317.377	209.5
317.607	201.5
317.836	198.5
318.065	209.5
318.295	201.5
318.524	225.5
318.753	196.5
318.983	189.5
319.212	191.5
319.441	199.5
319.67	210.5
319.9	199.5
320.129	187.5
320.358	188.5
320.587	196.5
320.816	220.5
321.046	199.5
321.275	213.5
321.504	194.5
321.733	198.5
321.962	208.5
322.191	207.5
322.42	227.5
322.649	235.5
322.878	221.5
323.108	229.5
323.337	224.5
323.566	235.5
323.795	249.5
324.024	257.5
324.253	340.5
324.482	457.5
324.71	683.5
324.939	953.5
325.168	740.5
325.397	379.5
325.626	295.5
325.855	251.5
326.084	222.5
326.313	247.5
326.542	254.5
326.77	261.5
326.999	308.5
327.228	414.5
327.457	602.5
327.686	679.5
327.914	446.5
328.143	354.5
328.372	295.5
328.6	284.5
328.829	281.5
329.058	288.5
329.287	291.5
329.515	260.5
329.744	252.5
329.972	259.5
330.201	257.5
330.43	286.5
330.658	301.5
330.887	298.5
331.115	293.5
331.344	248.5
331.572	252.5
331.801	246.5
332.03	251.5
332.258	232.5
332.486	218.5
332.715	232.5
332.943	237.5
333.172	224.5
333.4	228.5
333.629	240.5
333.857	236.5
334.085	256.5
334.314	287.5
334.542	265.5
334.771	285.5
334.999	253.5
335.227	247.5
335.455	234.5
335.684	230.5
335.912	222.5
336.14	221.5
336.369	239.5
336.597	214.5
336.825	229.5
337.053	220.5
337.281	203.5
337.51	215.5
337.738	210.5
337.966	230.5
338.194	227.5
338.422	226.5
338.65	213.5
338.878	221.5
339.106	190.5
339.334	239.5
339.562	216.5
339.79	200.5
340.018	204.5
340.246	213.5
340.474	222.5
340.702	206.5
340.93	214.5
341.158	216.5
341.386	232.5
341.614	224.5
341.842	214.5
342.07	216.5
342.298	216.5
342.526	216.5
342.754	201.5
342.981	197.5
343.209	200.5
343.437	208.5
343.665	209.5
343.893	216.5
344.12	223.5
344.348	227.5
344.576	219.5
344.804	227.5
345.031	228.5
345.259	221.5
345.487	216.5
345.714	219.5
345.942	207.5
346.17	213.5
346.397	214.5
346.625	215.5
346.853	217.5
347.08	207.5
347.308	189.5
347.535	220.5
347.763	215.5
347.99	219.5
348.218	223.5
348.445	214.5
348.673	232.5
348.9	200.5
349.128	207.5
349.355	204.5
349.583	200.5
349.81	191.5
350.037	217.5
350.265	200.5
350.492	202.5
350.72	198.5
350.947	204.5
351.174	208.5
351.402	192.5
351.629	204.5
351.856	214.5
352.083	213.5
352.311	226.5
352.538	215.5
352.765	212.5
352.992	206.5
353.22	201.5
353.447	206.5
353.674	208.5
353.901	184.5
354.128	186.5
354.355	199.5
354.583	199.5
354.81	197.5
355.037	194.5
355.264	201.5
355.491	195.5
355.718	195.5
355.945	189.5
356.172	203.5
356.399	202.5
356.626	192.5
356.853	197.5
357.08	202.5
357.307	182.5
357.534	203.5
357.761	188.5
357.988	202.5
358.215	192.5
358.441	189.5
358.668	204.5
358.895	202.5
359.122	204.5
359.349	213.5
359.576	208.5
359.802	227.5
360.029	224.5
360.256	237.5
360.483	227.5
360.709	226.5
360.936	222.5
361.163	201.5
361.39	215.5
361.616	207.5
361.843	211.5
362.07	186.5
362.296	207.5
362.523	204.5
362.749	205.5
362.976	195.5
363.203	190.5
363.429	204.5
363.656	198.5
363.882	199.5
364.109	214.5
364.335	195.5
364.562	206.5
364.788	187.5
365.015	207.5
365.241	215.5
365.468	203.5
365.694	215.5
365.92	196.5
366.147	198.5
366.373	198.5
366.599	202.5
366.826	189.5
367.052	219.5
367.278	196.5
367.505	200.5
367.731	197.5
367.957	204.5
368.184	209.5
368.41	202.5
368.636	203.5
368.862	202.5
369.089	198.5
369.315	190.5
369.541	185.5
369.767	206.5
369.993	200.5
370.219	193.5
370.445	211.5
370.672	214.5
370.898	198.5
371.124	190.5
371.35	196.5
371.576	197.5
371.802	191.5
372.028	191.5
372.254	205.5
372.48	206.5
372.706	195.5
372.932	193.5
373.158	197.5
373.384	213.5
373.61	193.5
373.835	190.5
374.061	197.5
374.287	213.5
374.513	202.5
374.739	216.5
374.965	187.5
375.191	182.5
375.416	187.5
375.642	199.5
375.868	194.5
376.094	199.5
376.319	189.5
376.545	201.5
376.771	196.5
376.997	211.5
377.222	214.5
377.448	198.5
377.674	199.5
377.899	197.5
378.125	194.5
378.35	194.5
378.576	195.5
378.802	189.5
379.027	179.5
379.253	198.5
379.478	196.5
379.704	201.5
379.929	214.5
380.155	196.5
380.38	192.5
380.606	216.5
380.831	196.5
381.057	200.5
381.282	209.5
381.507	198.5
381.733	199.5
381.958	214.5
382.184	209.5
382.409	207.5
382.634	203.5
382.86	205.5
383.085	204.5
383.31	202.5
383.535	209.5
383.761	198.5
383.986	178.5
384.211	190.5
384.436	212.5
384.662	209.5
384.887	214.5
385.112	223.5
385.337	198.5
385.562	198.5
385.787	219.5
386.013	215.5
386.238	227.5
386.463	206.5
386.688	215.5
386.913	197.5
387.138	190.5
387.363	225.5
387.588	216.5
387.813	212.5
388.038	213.5
388.263	217.5
388.488	215.5
388.713	217.5
388.938	221.5
389.163	227.5
389.387	213.5
389.612	203.5
389.837	196.5
390.062	199.5
390.287	218.5
390.512	224.5
390.736	206.5
390.961	215.5
391.186	216.5
391.411	209.5
391.636	212.5
391.86	209.5
392.085	208.5
392.31	224.5
392.534	221.5
392.759	213.5
392.984	209.5
393.208	212.5
393.433	225.5
393.658	230.5
393.882	211.5
394.107	207.5
394.331	225.5
394.556	213.5
394.78	205.5
395.005	198.5
395.229	215.5
395.454	216.5
395.678	214.5
395.903	225.5
396.127	224.5
396.352	230.5
396.576	221.5
396.801	206.5
397.025	201.5
397.249	227.5
397.474	215.5
397.698	212.5
397.922	229.5
398.147	227.5
398.371	231.5
398.595	236.5
398.82	225.5
399.044	233.5
399.268	241.5
399.492	254.5
399.717	285.5
399.941	284.5
400.165	283.5
400.389	286.5
400.613	268.5
400.837	247.5
401.062	240.5
401.286	222.5
401.51	242.5
401.734	235.5
401.958	249.5
402.182	250.5
402.406	250.5
402.63	247.5
402.854	232.5
403.078	247.5
403.302	247.5
403.526	245.5
403.75	248.5
403.974	254.5
404.198	255.5
404.422	253.5
404.645	241.5
404.869	251.5
405.093	269.5
405.317	281.5
405.541	303.5
405.765	274.5
405.988	253.5
406.212	277.5
406.436	285.5
406.66	289.5
406.883	261.5
407.107	277.5
407.331	296.5
407.555	303.5
407.778	321.5
408.002	285.5
408.226	265.5
408.449	259.5
408.673	262.5
408.896	278.5
409.12	279.5
409.344	286.5
409.567	250.5
409.791	254.5
410.014	248.5
410.238	237.5
410.461	234.5
410.685	238.5
410.908	260.5
411.132	274.5
411.355	272.5
411.578	265.5
411.802	249.5
412.025	249.5
412.249	243.5
412.472	252.5
412.695	272.5
412.919	292.5
413.142	240.5
413.365	249.5
413.589	241.5
413.812	237.5
414.035	239.5
414.258	233.5
414.482	224.5
414.705	224.5
414.928	245.5
415.151	229.5
415.374	231.5
415.597	228.5
415.821	243.5
416.044	220.5
416.267	232.5
416.49	225.5
416.713	228.5
416.936	243.5
417.159	219.5
417.382	246.5
417.605	246.5
417.828	240.5
418.051	256.5
418.274	251.5
418.497	250.5
418.72	229.5
418.943	232.5
419.166	230.5
419.389	255.5
419.611	236.5
419.834	234.5
420.057	264.5
420.28	236.5
420.503	255.5
420.726	261.5
420.948	258.5
421.171	259.5
421.394	265.5
421.617	271.5
421.839	240.5
422.062	232.5
422.285	242.5
422.507	272.5
422.73	292.5
422.953	292.5
423.175	266.5
423.398	269.5
423.621	264.5
423.843	271.5
424.066	263.5
424.288	263.5
424.511	273.5
424.733	286.5
424.956	329.5
425.178	319.5
425.401	312.5
425.623	313.5
425.846	268.5
426.068	263.5
426.291	269.5
426.513	253.5
426.735	276.5
426.958	283.5
427.18	325.5
427.402	363.5
427.625	391.5
427.847	360.5
428.069	286.5
428.292	271.5
428.514	238.5
428.736	243.5
428.958	227.5
429.181	254.5
429.403	240.5
429.625	233.5
429.847	237.5
430.069	262.5
430.292	286.5
430.514	271.5
430.736	246.5
430.958	246.5
431.18	236.5
431.402	221.5
431.624	231.5
431.846	228.5
432.068	223.5
432.29	236.5
432.512	244.5
432.734	226.5
432.956	259.5
433.178	236.5
433.4	247.5
433.622	240.5
433.844	246.5
434.066	211.5
434.287	224.5
434.509	244.5
434.731	231.5
434.953	233.5
435.175	251.5
435.397	250.5
435.618	279.5
435.84	263.5
436.062	320.5
436.284	336.5
436.505	282.5
436.727	240.5
436.949	230.5
437.17	254.5
437.392	224.5
437.614	253.5
437.835	259.5
438.057	297.5
438.278	341.5
438.5	341.5
438.721	344.5
438.943	342.5
439.165	279.5
439.386	259.5
439.608	262.5
439.829	268.5
440.05	288.5
440.272	307.5
440.493	299.5
440.715	251.5
440.936	240.5
441.158	255.5
441.379	251.5
441.6	263.5
441.822	261.5
442.043	279.5
442.264	329.5
442.486	313.5
442.707	287.5
442.928	271.5
443.149	274.5
443.371	296.5
443.592	303.5
443.813	343.5
444.034	358.5
444.255	304.5
444.476	274.5
444.698	260.5
444.919	254.5
445.14	337.5
445.361	317.5
445.582	292.5
445.803	292.5
446.024	348.5
446.245	350.5
446.466	330.5
446.687	277.5
446.908	262.5
447.129	257.5
447.35	254.5
447.571	247.5
447.792	228.5
448.013	243.5
448.234	245.5
448.455	260.5
448.675	298.5
448.896	337.5
449.117	317.5
449.338	279.5
449.559	331.5
449.779	356.5
450	288.5
450.221	242.5
450.442	234.5
450.662	242.5
450.883	239.5
451.104	283.5
451.324	245.5
451.545	216.5
451.766	226.5
451.986	227.5
452.207	222.5
452.428	202.5
452.648	232.5
452.869	231.5
453.089	225.5
453.31	235.5
453.53	233.5
453.751	228.5
453.971	220.5
454.192	247.5
454.412	236.5
454.633	208.5
454.853	240.5
455.073	230.5
455.294	236.5
455.514	271.5
455.734	237.5
455.955	221.5
456.175	221.5
456.395	224.5
456.616	198.5
456.836	190.5
457.056	204.5
457.276	209.5
457.497	209.5
457.717	225.5
457.937	207.5
458.157	202.5
458.377	200.5
458.598	231.5
458.818	256.5
459.038	289.5
459.258	299.5
459.478	249.5
459.698	226.5
459.918	231.5
460.138	225.5
460.358	230.5
460.578	253.5
460.798	244.5
461.018	225.5
461.238	228.5
461.458	235.5
461.678	229.5
461.898	245.5
462.118	244.5
462.338	247.5
462.558	256.5
462.777	252.5
462.997	247.5
463.217	269.5
463.437	245.5
463.657	243.5
463.876	249.5
464.096	257.5
464.316	266.5
464.536	248.5
464.755	239.5
464.975	247.5
465.195	292.5
465.414	335.5
465.634	271.5
465.854	235.5
466.073	252.5
466.293	238.5
466.512	222.5
466.732	244.5
466.951	248.5
467.171	240.5
467.391	230.5
467.61	229.5
467.829	232.5
468.049	256.5
468.268	229.5
468.488	224.5
468.707	219.5
468.927	217.5
469.146	231.5
469.365	238.5
469.585	230.5
469.804	228.5
470.023	228.5
470.243	222.5
470.462	248.5
470.681	250.5
470.901	225.5
471.12	236.5
471.339	234.5
471.558	253.5
471.777	227.5
471.997	219.5
472.216	235.5
472.435	277.5
472.654	241.5
472.873	232.5
473.092	234.5
473.311	239.5
473.53	224.5
473.749	216.5
473.968	257.5
474.187	281.5
474.406	311.5
474.625	263.5
474.844	235.5
475.063	228.5
475.282	232.5
475.501	222.5
475.72	238.5
475.939	232.5
476.158	229.5
476.377	232.5
476.596	215.5
476.814	243.5
477.033	244.5
477.252	243.5
477.471	233.5
477.69	234.5
477.908	255.5
478.127	262.5
478.346	239.5
478.564	255.5
478.783	258.5
479.002	261.5
479.22	250.5
479.439	255.5
479.658	277.5
479.876	270.5
480.095	273.5
480.313	279.5
480.532	265.5
480.751	294.5
480.969	273.5
481.188	336.5
481.406	357.5
481.624	275.5
481.843	275.5
482.061	280.5
482.28	268.5
482.498	250.5
482.717	255.5
482.935	252.5
483.153	257.5
483.372	253.5
483.59	271.5
483.808	288.5
484.027	285.5
484.245	269.5
484.463	253.5
484.681	271.5
484.9	262.5
485.118	280.5
485.336	266.5
485.554	277.5
485.772	270.5
485.99	252.5
486.209	263.5
486.427	274.5
486.645	279.5
486.863	277.5
487.081	283.5
487.299	295.5
487.517	272.5
487.735	281.5
487.953	276.5
488.171	267.5
488.389	273.5
488.607	264.5
488.825	270.5
489.043	285.5
489.261	297.5
489.479	284.5
489.696	285.5
489.914	296.5
490.132	294.5
490.35	288.5
490.568	299.5
490.786	304.5
491.003	324.5
491.221	322.5
491.439	302.5
491.657	304.5
491.874	332.5
492.092	327.5
492.31	316.5
492.527	324.5
492.745	315.5
492.963	323.5
493.18	326.5
493.398	339.5
493.615	328.5
493.833	343.5
494.05	333.5
494.268	320.5
494.485	321.5
494.703	317.5
494.92	328.5
495.138	313.5
495.355	335.5
495.573	344.5
495.79	309.5
496.008	338.5
496.225	326.5
496.442	311.5
496.66	326.5
496.877	312.5
497.094	344.5
497.312	334.5
497.529	342.5
497.746	334.5
497.963	341.5
498.181	345.5
498.398	348.5
498.615	340.5
498.832	339.5
499.049	343.5
499.267	349.5
499.484	381.5
499.701	383.5
499.918	401.5
500.135	409.5
500.352	430.5
500.569	424.5
500.786	429.5
501.003	430.5
501.22	415.5
501.437	401.5
501.654	404.5
501.871	398.5
502.088	384.5
502.305	364.5
502.522	333.5
502.739	352.5
502.956	339.5
503.172	331.5
503.389	318.5
503.606	317.5
503.823	337.5
504.04	324.5
504.256	321.5
504.473	319.5
504.69	309.5
504.907	324.5
505.123	311.5
505.34	323.5
505.557	302.5
505.773	314.5
505.99	313.5
506.207	307.5
506.423	312.5
506.64	302.5
506.856	299.5
507.073	294.5
507.289	294.5
507.506	306.5
507.722	307.5
507.939	320.5
508.155	288.5
508.372	302.5
508.588	278.5
508.805	296.5
509.021	312.5
509.238	314.5
509.454	298.5
509.67	312.5
509.887	294.5
510.103	284.5
510.319	301.5
510.536	363.5
510.752	670.5
510.968	495.5
511.184	304.5
511.401	283.5
511.617	288.5
511.833	270.5
512.049	275.5
512.265	266.5
512.481	270.5
512.698	266.5
512.914	257.5
513.13	266.5
513.346	290.5
513.562	288.5
513.778	275.5
513.994	264.5
514.21	292.5
514.426	292.5
514.642	317.5
514.858	349.5
515.074	357.5
515.29	460.5
515.506	716.5
515.721	567.5
515.937	346.5
516.153	323.5
516.369	304.5
516.585	298.5
516.801	280.5
517.016	272.5
517.232	282.5
517.448	281.5
517.664	285.5
517.879	286.5
518.095	276.5
518.311	291.5
518.527	267.5
518.742	279.5
518.958	271.5
519.173	288.5
519.389	272.5
519.605	275.5
519.82	272.5
520.036	286.5
520.251	316.5
520.467	313.5
520.682	311.5
520.898	313.5
521.113	309.5
521.329	339.5
521.544	389.5
521.76	494.5
521.975	976.5
522.19	944.5
522.406	468.5
522.621	322.5
522.836	286.5
523.052	275.5
523.267	255.5
523.482	253.5
523.698	256.5
523.913	240.5
524.128	245.5
524.343	246.5
524.559	235.5
524.774	252.5
524.989	251.5
525.204	247.5
525.419	267.5
525.634	250.5
525.849	240.5
526.064	240.5
526.28	240.5
526.495	238.5
526.71	237.5
526.925	235.5
527.14	229.5
527.355	216.5
527.57	229.5
527.785	244.5
527.999	238.5
528.214	236.5
528.429	224.5
528.644	223.5
528.859	231.5
529.074	253.5
529.289	244.5
529.503	309.5
529.718	280.5
529.933	259.5
530.148	236.5
530.363	265.5
530.577	240.5
530.792	231.5
531.007	226.5
531.221	211.5
531.436	237.5
531.651	222.5
531.865	224.5
532.08	201.5
532.295	239.5
532.509	216.5
532.724	221.5
532.938	222.5
533.153	217.5
533.367	220.5
533.582	232.5
533.796	238.5
534.011	221.5
534.225	221.5
534.44	223.5
534.654	231.5
534.868	222.5
535.083	238.5
535.297	216.5
535.511	227.5
535.726	229.5
535.94	226.5
536.154	207.5
536.369	218.5
536.583	212.5
536.797	209.5
537.011	225.5
537.225	208.5
537.44	227.5
537.654	230.5
537.868	220.5
538.082	236.5
538.296	213.5
538.51	219.5
538.724	218.5
538.938	230.5
539.153	231.5
539.367	223.5
539.581	215.5
539.795	222.5
540.009	212.5
540.222	215.5
540.436	213.5
540.65	224.5
540.864	213.5
541.078	206.5
541.292	232.5
541.506	234.5
541.72	208.5
541.934	224.5
542.147	221.5
542.361	235.5
542.575	205.5
542.789	216.5
543.002	226.5
543.216	221.5
543.43	220.5
543.644	228.5
543.857	218.5
544.071	211.5
544.285	227.5
544.498	233.5
544.712	212.5
544.925	219.5
545.139	232.5
545.352	233.5
545.566	213.5
545.779	230.5
545.993	207.5
546.206	215.5
546.42	223.5
546.633	211.5
546.847	209.5
547.06	207.5
547.274	200.5
547.487	199.5
547.7	215.5
547.914	229.5
548.127	230.5
548.34	220.5
548.554	193.5
548.767	216.5
548.98	205.5
549.193	228.5
549.407	214.5
549.62	230.5
549.833	215.5
550.046	218.5
550.259	215.5
550.473	207.5
550.686	219.5
550.899	207.5
551.112	224.5
551.325	201.5
551.538	203.5
551.751	208.5
551.964	203.5
552.177	201.5
552.39	209.5
552.603	215.5
552.816	223.5
553.029	211.5
553.242	222.5
553.455	201.5
553.667	225.5
553.88	237.5
554.093	224.5
554.306	207.5
554.519	227.5
554.732	213.5
554.944	205.5
555.157	205.5
555.37	189.5
555.583	206.5
555.795	203.5
556.008	199.5
556.221	194.5
556.433	196.5
556.646	195.5
556.859	193.5
557.071	212.5
557.284	197.5
557.496	193.5
557.709	213.5
557.921	203.5
558.134	189.5
558.346	194.5
558.559	184.5
558.771	201.5
558.984	198.5
559.196	197.5
559.409	183.5
559.621	173.5
559.833	179.5
560.046	199.5
560.258	190.5
560.47	193.5
560.683	194.5
560.895	192.5
561.107	187.5
561.32	182.5
561.532	185.5
561.744	206.5
561.956	185.5
562.168	191.5
562.381	197.5
562.593	185.5
562.805	191.5
563.017	192.5
563.229	199.5
563.441	202.5
563.653	203.5
563.865	197.5
564.077	188.5
564.289	181.5
564.501	212.5
564.713	204.5
564.925	195.5
565.137	205.5
565.349	201.5
565.561	209.5
565.773	223.5
565.985	211.5
566.197	212.5
566.408	199.5
566.62	227.5
566.832	223.5
567.044	221.5
567.255	224.5
567.467	216.5
567.679	232.5
567.891	245.5
568.102	220.5
568.314	229.5
568.526	223.5
568.737	213.5
568.949	202.5
569.161	192.5
569.372	200.5
569.584	197.5
569.795	197.5
570.007	185.5
570.218	228.5
570.43	203.5
570.641	193.5
570.853	192.5
571.064	180.5
571.276	177.5
571.487	184.5
571.698	189.5
571.91	169.5
572.121	179.5
572.333	183.5
572.544	167.5
572.755	173.5
572.966	167.5
573.178	177.5
573.389	193.5
573.6	185.5
573.811	166.5
574.023	177.5
574.234	192.5
574.445	169.5
574.656	175.5
574.867	202.5
575.078	175.5
575.289	169.5
575.501	181.5
575.712	185.5
575.923	166.5
576.134	155.5
576.345	163.5
576.556	163.5
576.767	172.5
576.978	173.5
577.188	186.5
577.399	157.5
577.61	166.5
577.821	184.5
578.032	175.5
578.243	193.5
578.454	338.5
578.665	247.5
578.875	153.5
579.086	165.5
579.297	179.5
579.508	173.5
579.718	175.5
579.929	154.5
580.14	160.5
580.35	160.5
580.561	162.5
580.772	172.5
580.982	159.5
581.193	155.5
581.403	157.5
581.614	163.5
581.825	160.5
582.035	162.5
582.246	162.5
582.456	158.5
582.667	163.5
582.877	153.5
583.087	143.5
583.298	168.5
583.508	167.5
583.719	165.5
583.929	168.5
584.139	163.5
584.35	144.5
584.56	164.5
584.77	159.5
584.981	169.5
585.191	162.5
585.401	170.5
585.611	155.5
585.821	160.5
586.032	158.5
586.242	144.5
586.452	161.5
586.662	146.5
586.872	156.5
587.082	157.5
587.292	158.5
587.502	153.5
587.713	165.5
587.923	173.5
588.133	151.5
588.343	149.5
588.553	152.5
588.762	162.5
588.972	169.5
589.182	183.5
589.392	183.5
589.602	173.5
589.812	189.5
590.022	163.5
590.232	160.5
590.441	172.5
590.651	144.5
590.861	160.5
591.071	144.5
591.281	152.5
591.49	167.5
591.7	143.5
591.91	155.5
592.119	143.5
592.329	161.5
592.539	145.5
592.748	172.5
592.958	154.5
593.167	166.5
593.377	171.5
593.587	177.5
593.796	168.5
594.006	169.5
594.215	150.5
594.424	163.5
594.634	167.5
594.843	158.5
595.053	153.5
595.262	150.5
595.472	155.5
595.681	149.5
595.89	160.5
596.1	150.5
596.309	161.5
596.518	146.5
596.727	151.5
596.937	154.5
597.146	146.5
597.355	153.5
597.564	153.5
597.774	157.5
597.983	143.5
598.192	153.5
598.401	153.5
598.61	149.5
598.819	143.5
599.028	137.5
599.237	158.5
599.446	151.5
599.655	146.5
599.864	136.5
600.073	131.5
600.282	138.5
600.491	153.5
600.7	146.5
600.909	138.5
601.118	153.5
601.327	138.5
601.536	150.5
601.745	137.5
601.953	143.5
602.162	138.5
602.371	144.5
602.58	139.5
602.789	145.5
602.997	140.5
603.206	148.5
603.415	139.5
603.623	139.5
603.832	150.5
604.041	141.5
604.249	142.5
604.458	141.5
604.666	159.5
604.875	157.5
605.084	145.5
605.292	133.5
605.501	137.5
605.709	152.5
605.918	149.5
606.126	132.5
606.334	138.5
606.543	137.5
606.751	138.5
606.96	148.5
607.168	139.5
607.376	133.5
607.585	158.5
607.793	147.5
608.001	140.5
608.21	137.5
608.418	149.5
608.626	135.5
608.834	138.5
609.043	146.5
609.251	150.5
609.459	150.5
609.667	130.5
609.875	140.5
610.083	148.5
610.291	140.5
610.499	141.5
610.707	148.5
610.916	159.5
611.124	143.5
611.332	128.5
611.54	144.5
611.748	151.5
611.955	121.5
612.163	138.5
612.371	132.5
612.579	144.5
612.787	142.5
612.995	134.5
613.203	129.5
613.411	127.5
613.618	145.5
613.826	141.5
614.034	139.5
614.242	159.5
614.449	131.5
614.657	128.5
614.865	142.5
615.072	136.5
615.28	140.5
615.488	155.5
615.695	131.5
615.903	134.5
616.111	151.5
616.318	145.5
616.526	137.5
616.733	143.5
616.941	132.5
617.148	131.5
617.356	128.5
617.563	127.5
617.771	133.5
617.978	119.5
618.185	126.5
618.393	140.5
618.6	135.5
618.807	147.5
619.015	149.5
619.222	155.5
619.429	127.5
619.637	146.5
619.844	141.5
620.051	147.5
620.258	125.5
620.466	128.5
620.673	135.5
620.88	131.5
621.087	154.5
621.294	148.5
621.501	151.5
621.708	137.5
621.915	139.5
622.122	129.5
622.329	122.5
622.536	131.5
622.743	137.5
622.95	135.5
623.157	152.5
623.364	135.5
623.571	133.5
623.778	132.5
623.985	132.5
624.192	140.5
624.399	127.5
624.606	133.5
624.812	126.5
625.019	122.5
625.226	136.5
625.433	138.5
625.639	129.5
625.846	129.5
626.053	119.5
626.259	132.5
626.466	129.5
626.673	131.5
626.879	132.5
627.086	128.5
627.293	127.5
627.499	127.5
627.706	118.5
627.912	132.5
628.119	121.5
628.325	133.5
628.532	127.5
628.738	122.5
628.945	124.5
629.151	126.5
629.357	125.5
629.564	109.5
629.77	119.5
629.976	124.5
630.183	132.5
630.389	127.5
630.595	133.5
630.802	126.5
631.008	108.5
631.214	125.5
631.42	133.5
631.627	121.5
631.833	141.5
632.039	116.5
632.245	137.5
632.451	125.5
632.657	136.5
632.863	121.5
633.069	129.5
633.275	121.5
633.481	127.5
633.688	115.5
633.893	126.5
634.099	123.5
634.305	117.5
634.511	136.5
634.717	134.5
634.923	123.5
635.129	120.5
635.335	110.5
635.541	107.5
635.747	107.5
635.952	128.5
636.158	123.5
636.364	144.5
636.57	136.5
636.775	127.5
636.981	131.5
637.187	126.5
637.392	115.5
637.598	138.5
637.804	134.5
638.009	128.5
638.215	123.5
638.421	117.5
638.626	113.5
638.832	112.5
639.037	102.5
639.243	134.5
639.448	114.5
639.654	117.5
639.859	122.5
640.065	120.5
640.27	135.5
640.475	118.5
640.681	121.5
640.886	120.5
641.091	122.5
641.297	126.5
641.502	118.5
641.707	121.5
641.913	107.5
642.118	120.5
642.323	118.5
642.528	125.5
642.733	123.5
642.939	109.5
643.144	112.5
643.349	118.5
643.554	120.5
643.759	119.5
643.964	122.5
644.169	109.5
644.374	114.5
644.579	120.5
644.784	115.5
644.989	121.5
645.194	121.5
645.399	117.5
645.604	120.5
645.809	112.5
646.014	115.5
646.219	113.5
646.423	131.5
646.628	119.5
646.833	131.5
647.038	111.5
647.243	115.5
647.447	127.5
647.652	109.5
647.857	118.5
648.062	119.5
648.266	112.5
648.471	104.5
648.676	117.5
648.88	118.5
649.085	116.5
649.289	110.5
649.494	123.5
649.698	137.5
649.903	126.5
650.107	109.5
650.312	102.5
650.516	116.5
650.721	119.5
650.925	107.5
651.13	121.5
651.334	94.5
651.539	110.5
651.743	112.5
651.947	113.5
652.152	108.5
652.356	118.5
652.56	108.5
652.764	109.5
652.969	115.5
653.173	96.5
653.377	104.5
653.581	110.5
653.785	101.5
653.99	103.5
654.194	105.5
654.398	110.5
654.602	109.5
654.806	106.5
655.01	122.5
655.214	99.5
655.418	106.5
655.622	115.5
655.826	123.5
656.03	96.5
656.234	108.5
656.438	113.5
656.642	112.5
656.846	106.5
657.049	103.5
657.253	102.5
657.457	108.5
657.661	110.5
657.865	95.5
658.068	100.5
658.272	92.5
658.476	98.5
658.68	86.5
658.883	106.5
659.087	102.5
659.291	97.5
659.494	82.5
659.698	92.5
659.901	106.5
660.105	99.5
660.309	88.5
660.512	85.5
660.716	84.5
660.919	104.5
661.123	88.5
661.326	100.5
661.53	80.5
661.733	86.5
661.936	89.5
662.14	89.5
662.343	98.5
662.546	73.5
662.75	86.5
662.953	89.5
663.156	79.5
663.36	88.5
663.563	89.5
663.766	85.5
663.969	95.5
664.173	81.5
664.376	88.5
664.579	93.5
664.782	89.5
664.985	77.5
665.188	96.5
665.391	85.5
665.594	78.5
665.797	77.5
666	97.5
666.203	95.5
666.406	75.5
666.609	88.5
666.812	92.5
667.015	86.5
667.218	85.5
667.421	89.5
667.624	74.5
667.827	82.5
668.03	72.5
668.232	78.5
668.435	84.5
668.638	85.5
668.841	90.5
669.043	91.5
669.246	93.5
669.449	89.5
669.651	90.5
669.854	77.5
670.057	87.5
670.259	81.5
670.462	89.5
670.665	84.5
670.867	88.5
671.07	77.5
671.272	90.5
671.475	87.5
671.677	63.5
671.88	79.5
672.082	84.5
672.284	76.5
672.487	101.5
672.689	79.5
672.892	98.5
