Data from 1966.PennyLincolnUp.Lamp.En5.5.200Scan.071719.P1._HRD10591_14-13-26-913.txt Node
Date: Thu Jul 18 14:13:26 EDT 2019
User: cochatt
Spectrometer: HR+D1059
Trigger mode: 1
Integration Time (sec): 1.000000E-1
Scans to average: 1
Electric dark correction enabled: true
Nonlinearity correction enabled: false
Boxcar width: 0
XAxis mode: Wavelengths
Number of Pixels in Spectrum: 2048
>>>>>Begin Spectral Data<<<<<
223.165	-14.44
223.4	-14.44
223.635	-14.44
223.869	-16.44
224.104	-11.44
224.338	-16.44
224.573	-18.44
224.808	-12.44
225.042	-13.44
225.277	-7.44
225.511	-11.44
225.746	3.56
225.98	3.56
226.215	7.56
226.449	16.56
226.683	23.56
226.918	28.56
227.152	38.56
227.387	46.56
227.621	49.56
227.856	55.56
228.09	48.56
228.324	43.56
228.559	48.56
228.793	49.56
229.027	61.56
229.262	89.56
229.496	81.56
229.73	95.56
229.964	102.56
230.199	97.56
230.433	92.56
230.667	94.56
230.901	88.56
231.136	95.56
231.37	91.56
231.604	97.56
231.838	86.56
232.072	89.56
232.306	97.56
232.541	102.56
232.775	91.56
233.009	99.56
233.243	84.56
233.477	85.56
233.711	106.56
233.945	100.56
234.179	84.56
234.413	85.56
234.647	85.56
234.881	87.56
235.115	106.56
235.349	105.56
235.583	93.56
235.817	87.56
236.051	98.56
236.285	107.56
236.519	94.56
236.753	108.56
236.987	109.56
237.221	132.56
237.455	143.56
237.689	116.56
237.922	103.56
238.156	110.56
238.39	95.56
238.624	85.56
238.858	94.56
239.091	107.56
239.325	81.56
239.559	105.56
239.793	108.56
240.027	104.56
240.26	88.56
240.494	109.56
240.728	111.56
240.961	97.56
241.195	104.56
241.429	95.56
241.662	101.56
241.896	105.56
242.13	95.56
242.363	84.56
242.597	91.56
242.83	97.56
243.064	99.56
243.298	92.56
243.531	86.56
243.765	101.56
243.998	101.56
244.232	101.56
244.465	107.56
244.699	117.56
244.932	115.56
245.166	100.56
245.399	89.56
245.633	109.56
245.866	113.56
246.099	101.56
246.333	88.56
246.566	110.56
246.8	97.56
247.033	109.56
247.266	107.56
247.5	116.56
247.733	115.56
247.966	121.56
248.2	124.56
248.433	105.56
248.666	126.56
248.899	123.56
249.133	131.56
249.366	140.56
249.599	135.56
249.832	131.56
250.066	121.56
250.299	120.56
250.532	126.56
250.765	126.56
250.998	145.56
251.231	145.56
251.465	128.56
251.698	147.56
251.931	135.56
252.164	123.56
252.397	123.56
252.63	124.56
252.863	128.56
253.096	121.56
253.329	144.56
253.562	140.56
253.795	138.56
254.028	133.56
254.261	145.56
254.494	145.56
254.727	158.56
254.96	165.56
255.193	160.56
255.426	151.56
255.659	144.56
255.892	149.56
256.124	139.56
256.357	132.56
256.59	131.56
256.823	138.56
257.056	124.56
257.289	144.56
257.521	136.56
257.754	138.56
257.987	136.56
258.22	131.56
258.452	119.56
258.685	128.56
258.918	127.56
259.151	118.56
259.383	149.56
259.616	144.56
259.849	126.56
260.081	150.56
260.314	160.56
260.547	157.56
260.779	151.56
261.012	143.56
261.244	139.56
261.477	135.56
261.71	145.56
261.942	140.56
262.175	134.56
262.407	136.56
262.64	149.56
262.872	119.56
263.105	139.56
263.337	117.56
263.57	124.56
263.802	131.56
264.035	128.56
264.267	136.56
264.499	123.56
264.732	126.56
264.964	138.56
265.197	134.56
265.429	135.56
265.661	127.56
265.894	109.56
266.126	137.56
266.358	141.56
266.591	133.56
266.823	140.56
267.055	124.56
267.287	150.56
267.52	137.56
267.752	143.56
267.984	144.56
268.216	127.56
268.448	127.56
268.681	151.56
268.913	151.56
269.145	156.56
269.377	172.56
269.609	167.56
269.841	164.56
270.073	157.56
270.306	170.56
270.538	183.56
270.77	165.56
271.002	181.56
271.234	173.56
271.466	183.56
271.698	169.56
271.93	190.56
272.162	184.56
272.394	199.56
272.626	162.56
272.858	168.56
273.09	158.56
273.322	172.56
273.553	141.56
273.785	147.56
274.017	154.56
274.249	156.56
274.481	165.56
274.713	160.56
274.945	168.56
275.176	149.56
275.408	153.56
275.64	174.56
275.872	150.56
276.104	173.56
276.335	146.56
276.567	172.56
276.799	151.56
277.031	183.56
277.262	202.56
277.494	192.56
277.726	182.56
277.957	166.56
278.189	174.56
278.421	153.56
278.652	146.56
278.884	161.56
279.115	160.56
279.347	168.56
279.579	154.56
279.81	158.56
280.042	160.56
280.273	169.56
280.505	167.56
280.736	164.56
280.968	155.56
281.199	159.56
281.431	148.56
281.662	161.56
281.894	158.56
282.125	161.56
282.356	166.56
282.588	174.56
282.819	183.56
283.051	155.56
283.282	165.56
283.513	159.56
283.745	159.56
283.976	149.56
284.207	166.56
284.439	159.56
284.67	163.56
284.901	163.56
285.132	156.56
285.364	166.56
285.595	172.56
285.826	156.56
286.057	177.56
286.288	159.56
286.52	163.56
286.751	177.56
286.982	148.56
287.213	163.56
287.444	159.56
287.675	171.56
287.906	162.56
288.138	171.56
288.369	178.56
288.6	181.56
288.831	162.56
289.062	165.56
289.293	168.56
289.524	151.56
289.755	168.56
289.986	182.56
290.217	171.56
290.448	157.56
290.679	172.56
290.91	158.56
291.141	177.56
291.371	167.56
291.602	170.56
291.833	176.56
292.064	160.56
292.295	176.56
292.526	165.56
292.757	174.56
292.987	168.56
293.218	171.56
293.449	165.56
293.68	174.56
293.91	183.56
294.141	153.56
294.372	179.56
294.603	170.56
294.833	179.56
295.064	167.56
295.295	168.56
295.525	168.56
295.756	174.56
295.987	188.56
296.217	199.56
296.448	185.56
296.679	177.56
296.909	155.56
297.14	165.56
297.37	161.56
297.601	181.56
297.831	174.56
298.062	182.56
298.292	186.56
298.523	179.56
298.753	175.56
298.984	163.56
299.214	179.56
299.445	178.56
299.675	177.56
299.905	169.56
300.136	160.56
300.366	182.56
300.597	170.56
300.827	175.56
301.057	192.56
301.288	167.56
301.518	179.56
301.748	177.56
301.979	182.56
302.209	179.56
302.439	196.56
302.669	184.56
302.9	175.56
303.13	189.56
303.36	182.56
303.59	187.56
303.82	183.56
304.051	182.56
304.281	188.56
304.511	173.56
304.741	184.56
304.971	186.56
305.201	173.56
305.431	184.56
305.661	192.56
305.891	172.56
306.121	184.56
306.352	195.56
306.582	185.56
306.812	176.56
307.042	173.56
307.272	180.56
307.502	179.56
307.731	195.56
307.961	197.56
308.191	191.56
308.421	185.56
308.651	191.56
308.881	173.56
309.111	191.56
309.341	182.56
309.571	194.56
309.8	201.56
310.03	201.56
310.26	214.56
310.49	191.56
310.72	199.56
310.949	215.56
311.179	222.56
311.409	218.56
311.639	219.56
311.868	219.56
312.098	204.56
312.328	206.56
312.557	207.56
312.787	217.56
313.017	219.56
313.246	220.56
313.476	194.56
313.706	203.56
313.935	191.56
314.165	221.56
314.394	226.56
314.624	211.56
314.853	208.56
315.083	223.56
315.312	215.56
315.542	210.56
315.771	200.56
316.001	204.56
316.23	203.56
316.46	201.56
316.689	214.56
316.919	201.56
317.148	209.56
317.377	206.56
317.607	218.56
317.836	210.56
318.065	211.56
318.295	197.56
318.524	214.56
318.753	204.56
318.983	191.56
319.212	197.56
319.441	200.56
319.67	207.56
319.9	197.56
320.129	196.56
320.358	202.56
320.587	205.56
320.816	208.56
321.046	222.56
321.275	221.56
321.504	207.56
321.733	216.56
321.962	215.56
322.191	240.56
322.42	237.56
322.649	225.56
322.878	236.56
323.108	253.56
323.337	250.56
323.566	244.56
323.795	266.56
324.024	295.56
324.253	365.56
324.482	500.56
324.71	739.56
324.939	1006.56
325.168	801.56
325.397	399.56
325.626	297.56
325.855	251.56
326.084	262.56
326.313	262.56
326.542	258.56
326.77	300.56
326.999	352.56
327.228	458.56
327.457	655.56
327.686	752.56
327.914	508.56
328.143	344.56
328.372	312.56
328.6	313.56
328.829	284.56
329.058	300.56
329.287	310.56
329.515	279.56
329.744	266.56
329.972	268.56
330.201	278.56
330.43	315.56
330.658	320.56
330.887	321.56
331.115	317.56
331.344	282.56
331.572	261.56
331.801	256.56
332.03	255.56
332.258	247.56
332.486	228.56
332.715	236.56
332.943	246.56
333.172	233.56
333.4	235.56
333.629	243.56
333.857	259.56
334.085	267.56
334.314	259.56
334.542	289.56
334.771	317.56
334.999	269.56
335.227	239.56
335.455	239.56
335.684	249.56
335.912	249.56
336.14	235.56
336.369	224.56
336.597	234.56
336.825	228.56
337.053	245.56
337.281	216.56
337.51	238.56
337.738	223.56
337.966	245.56
338.194	231.56
338.422	234.56
338.65	216.56
338.878	218.56
339.106	227.56
339.334	235.56
339.562	217.56
339.79	218.56
340.018	223.56
340.246	221.56
340.474	241.56
340.702	225.56
340.93	230.56
341.158	228.56
341.386	239.56
341.614	226.56
341.842	234.56
342.07	246.56
342.298	217.56
342.526	207.56
342.754	213.56
342.981	221.56
343.209	219.56
343.437	208.56
343.665	223.56
343.893	214.56
344.12	217.56
344.348	222.56
344.576	210.56
344.804	218.56
345.031	235.56
345.259	260.56
345.487	235.56
345.714	222.56
345.942	224.56
346.17	226.56
346.397	220.56
346.625	228.56
346.853	226.56
347.08	219.56
347.308	224.56
347.535	223.56
347.763	227.56
347.99	222.56
348.218	205.56
348.445	216.56
348.673	205.56
348.9	231.56
349.128	208.56
349.355	203.56
349.583	213.56
349.81	214.56
350.037	203.56
350.265	211.56
350.492	194.56
350.72	217.56
350.947	218.56
351.174	221.56
351.402	230.56
351.629	236.56
351.856	221.56
352.083	243.56
352.311	225.56
352.538	214.56
352.765	234.56
352.992	215.56
353.22	223.56
353.447	209.56
353.674	217.56
353.901	209.56
354.128	220.56
354.355	213.56
354.583	199.56
354.81	205.56
355.037	191.56
355.264	213.56
355.491	207.56
355.718	185.56
355.945	218.56
356.172	199.56
356.399	220.56
356.626	194.56
356.853	191.56
357.08	183.56
357.307	193.56
357.534	204.56
357.761	206.56
357.988	205.56
358.215	208.56
358.441	202.56
358.668	209.56
358.895	202.56
359.122	198.56
359.349	217.56
359.576	211.56
359.802	225.56
360.029	252.56
360.256	238.56
360.483	240.56
360.709	215.56
360.936	223.56
361.163	229.56
361.39	217.56
361.616	230.56
361.843	203.56
362.07	216.56
362.296	235.56
362.523	201.56
362.749	207.56
362.976	207.56
363.203	216.56
363.429	203.56
363.656	213.56
363.882	196.56
364.109	201.56
364.335	206.56
364.562	214.56
364.788	217.56
365.015	212.56
365.241	209.56
365.468	208.56
365.694	214.56
365.92	214.56
366.147	210.56
366.373	203.56
366.599	208.56
366.826	214.56
367.052	211.56
367.278	224.56
367.505	209.56
367.731	196.56
367.957	210.56
368.184	196.56
368.41	206.56
368.636	218.56
368.862	206.56
369.089	218.56
369.315	199.56
369.541	212.56
369.767	210.56
369.993	203.56
370.219	214.56
370.445	225.56
370.672	218.56
370.898	200.56
371.124	207.56
371.35	215.56
371.576	203.56
371.802	196.56
372.028	220.56
372.254	214.56
372.48	192.56
372.706	195.56
372.932	192.56
373.158	205.56
373.384	224.56
373.61	195.56
373.835	223.56
374.061	207.56
374.287	209.56
374.513	211.56
374.739	199.56
374.965	216.56
375.191	215.56
375.416	213.56
375.642	215.56
375.868	219.56
376.094	192.56
376.319	179.56
376.545	186.56
376.771	200.56
376.997	207.56
377.222	195.56
377.448	214.56
377.674	210.56
377.899	198.56
378.125	215.56
378.35	206.56
378.576	197.56
378.802	217.56
379.027	195.56
379.253	208.56
379.478	194.56
379.704	207.56
379.929	218.56
380.155	201.56
380.38	201.56
380.606	188.56
380.831	217.56
381.057	207.56
381.282	188.56
381.507	203.56
381.733	211.56
381.958	185.56
382.184	215.56
382.409	213.56
382.634	202.56
382.86	195.56
383.085	207.56
383.31	199.56
383.535	221.56
383.761	203.56
383.986	212.56
384.211	228.56
384.436	202.56
384.662	207.56
384.887	212.56
385.112	226.56
385.337	230.56
385.562	221.56
385.787	211.56
386.013	232.56
386.238	234.56
386.463	221.56
386.688	220.56
386.913	211.56
387.138	206.56
387.363	209.56
387.588	207.56
387.813	210.56
388.038	213.56
388.263	231.56
388.488	227.56
388.713	232.56
388.938	222.56
389.163	218.56
389.387	236.56
389.612	212.56
389.837	222.56
390.062	218.56
390.287	205.56
390.512	208.56
390.736	210.56
390.961	206.56
391.186	228.56
391.411	229.56
391.636	227.56
391.86	215.56
392.085	220.56
392.31	228.56
392.534	206.56
392.759	231.56
392.984	225.56
393.208	219.56
393.433	229.56
393.658	231.56
393.882	229.56
394.107	217.56
394.331	222.56
394.556	209.56
394.78	213.56
395.005	207.56
395.229	206.56
395.454	217.56
395.678	227.56
395.903	230.56
396.127	220.56
396.352	243.56
396.576	233.56
396.801	221.56
397.025	232.56
397.249	235.56
397.474	210.56
397.698	238.56
397.922	236.56
398.147	226.56
398.371	238.56
398.595	249.56
398.82	251.56
399.044	243.56
399.268	255.56
399.492	293.56
399.717	278.56
399.941	274.56
400.165	292.56
400.389	296.56
400.613	273.56
400.837	265.56
401.062	239.56
401.286	252.56
401.51	260.56
401.734	247.56
401.958	243.56
402.182	254.56
402.406	249.56
402.63	266.56
402.854	253.56
403.078	246.56
403.302	257.56
403.526	247.56
403.75	276.56
403.974	260.56
404.198	253.56
404.422	250.56
404.645	260.56
404.869	253.56
405.093	291.56
405.317	312.56
405.541	291.56
405.765	278.56
405.988	275.56
406.212	279.56
406.436	297.56
406.66	312.56
406.883	274.56
407.107	287.56
407.331	301.56
407.555	331.56
407.778	328.56
408.002	325.56
408.226	274.56
408.449	286.56
408.673	276.56
408.896	278.56
409.12	321.56
409.344	290.56
409.567	261.56
409.791	253.56
410.014	277.56
410.238	236.56
410.461	259.56
410.685	256.56
410.908	252.56
411.132	294.56
411.355	289.56
411.578	271.56
411.802	237.56
412.025	229.56
412.249	263.56
412.472	271.56
412.695	295.56
412.919	275.56
413.142	255.56
413.365	248.56
413.589	251.56
413.812	255.56
414.035	249.56
414.258	247.56
414.482	248.56
414.705	265.56
414.928	245.56
415.151	241.56
415.374	240.56
415.597	256.56
415.821	234.56
416.044	232.56
416.267	261.56
416.49	237.56
416.713	249.56
416.936	250.56
417.159	245.56
417.382	237.56
417.605	237.56
417.828	257.56
418.051	246.56
418.274	251.56
418.497	257.56
418.72	243.56
418.943	255.56
419.166	264.56
419.389	276.56
419.611	271.56
419.834	261.56
420.057	255.56
420.28	271.56
420.503	268.56
420.726	264.56
420.948	273.56
421.171	259.56
421.394	280.56
421.617	255.56
421.839	245.56
422.062	245.56
422.285	266.56
422.507	307.56
422.73	319.56
422.953	294.56
423.175	267.56
423.398	269.56
423.621	257.56
423.843	282.56
424.066	269.56
424.288	260.56
424.511	300.56
424.733	304.56
424.956	327.56
425.178	327.56
425.401	307.56
425.623	321.56
425.846	286.56
426.068	245.56
426.291	259.56
426.513	256.56
426.735	285.56
426.958	299.56
427.18	354.56
427.402	395.56
427.625	415.56
427.847	372.56
428.069	297.56
428.292	286.56
428.514	274.56
428.736	251.56
428.958	250.56
429.181	246.56
429.403	250.56
429.625	260.56
429.847	259.56
430.069	289.56
430.292	294.56
430.514	259.56
430.736	245.56
430.958	251.56
431.18	249.56
431.402	217.56
431.624	229.56
431.846	254.56
432.068	249.56
432.29	249.56
432.512	247.56
432.734	248.56
432.956	264.56
433.178	249.56
433.4	247.56
433.622	259.56
433.844	242.56
434.066	214.56
434.287	244.56
434.509	237.56
434.731	239.56
434.953	244.56
435.175	259.56
435.397	266.56
435.618	273.56
435.84	279.56
436.062	324.56
436.284	348.56
436.505	281.56
436.727	297.56
436.949	265.56
437.17	254.56
437.392	250.56
437.614	263.56
437.835	272.56
438.057	324.56
438.278	346.56
438.5	336.56
438.721	367.56
438.943	349.56
439.165	309.56
439.386	286.56
439.608	279.56
439.829	268.56
440.05	275.56
440.272	305.56
440.493	301.56
440.715	253.56
440.936	251.56
441.158	269.56
441.379	226.56
441.6	261.56
441.822	276.56
442.043	295.56
442.264	339.56
442.486	350.56
442.707	273.56
442.928	266.56
443.149	295.56
443.371	286.56
443.592	310.56
443.813	348.56
444.034	358.56
444.255	311.56
444.476	279.56
444.698	277.56
444.919	269.56
445.14	353.56
445.361	304.56
445.582	295.56
445.803	314.56
446.024	367.56
446.245	375.56
446.466	323.56
446.687	287.56
446.908	272.56
447.129	280.56
447.35	241.56
447.571	267.56
447.792	239.56
448.013	241.56
448.234	252.56
448.455	304.56
448.675	347.56
448.896	379.56
449.117	328.56
449.338	297.56
449.559	350.56
449.779	384.56
450	297.56
450.221	268.56
450.442	248.56
450.662	222.56
450.883	261.56
451.104	249.56
451.324	270.56
451.545	249.56
451.766	238.56
451.986	208.56
452.207	216.56
452.428	227.56
452.648	238.56
452.869	234.56
453.089	260.56
453.31	239.56
453.53	239.56
453.751	235.56
453.971	248.56
454.192	240.56
454.412	251.56
454.633	212.56
454.853	213.56
455.073	223.56
455.294	234.56
455.514	280.56
455.734	281.56
455.955	220.56
456.175	216.56
456.395	229.56
456.616	216.56
456.836	231.56
457.056	226.56
457.276	215.56
457.497	235.56
457.717	208.56
457.937	224.56
458.157	212.56
458.377	218.56
458.598	233.56
458.818	273.56
459.038	325.56
459.258	317.56
459.478	256.56
459.698	232.56
459.918	239.56
460.138	238.56
460.358	251.56
460.578	228.56
460.798	251.56
461.018	249.56
461.238	247.56
461.458	262.56
461.678	239.56
461.898	241.56
462.118	248.56
462.338	248.56
462.558	248.56
462.777	276.56
462.997	261.56
463.217	269.56
463.437	260.56
463.657	251.56
463.876	239.56
464.096	251.56
464.316	253.56
464.536	252.56
464.755	268.56
464.975	260.56
465.195	286.56
465.414	341.56
465.634	296.56
465.854	255.56
466.073	265.56
466.293	252.56
466.512	247.56
466.732	236.56
466.951	230.56
467.171	260.56
467.391	244.56
467.61	263.56
467.829	246.56
468.049	249.56
468.268	262.56
468.488	244.56
468.707	233.56
468.927	232.56
469.146	225.56
469.365	221.56
469.585	237.56
469.804	245.56
470.023	236.56
470.243	260.56
470.462	233.56
470.681	265.56
470.901	249.56
471.12	237.56
471.339	224.56
471.558	241.56
471.777	229.56
471.997	257.56
472.216	267.56
472.435	274.56
472.654	272.56
472.873	246.56
473.092	226.56
473.311	216.56
473.53	221.56
473.749	251.56
473.968	275.56
474.187	313.56
474.406	310.56
474.625	264.56
474.844	250.56
475.063	243.56
475.282	239.56
475.501	222.56
475.72	250.56
475.939	244.56
476.158	239.56
476.377	234.56
476.596	233.56
476.814	251.56
477.033	248.56
477.252	252.56
477.471	246.56
477.69	247.56
477.908	266.56
478.127	248.56
478.346	243.56
478.564	251.56
478.783	262.56
479.002	268.56
479.22	268.56
479.439	266.56
479.658	292.56
479.876	279.56
480.095	289.56
480.313	300.56
480.532	297.56
480.751	279.56
480.969	287.56
481.188	332.56
481.406	371.56
481.624	305.56
481.843	274.56
482.061	279.56
482.28	295.56
482.498	284.56
482.717	267.56
482.935	280.56
483.153	277.56
483.372	282.56
483.59	273.56
483.808	279.56
484.027	280.56
484.245	276.56
484.463	289.56
484.681	287.56
484.9	263.56
485.118	289.56
485.336	256.56
485.554	273.56
485.772	269.56
485.99	273.56
486.209	288.56
486.427	285.56
486.645	288.56
486.863	288.56
487.081	307.56
487.299	276.56
487.517	274.56
487.735	287.56
487.953	309.56
488.171	294.56
488.389	280.56
488.607	297.56
488.825	301.56
489.043	307.56
489.261	277.56
489.479	286.56
489.696	294.56
489.914	300.56
490.132	303.56
490.35	317.56
490.568	301.56
490.786	317.56
491.003	309.56
491.221	304.56
491.439	351.56
491.657	343.56
491.874	340.56
492.092	353.56
492.31	318.56
492.527	357.56
492.745	347.56
492.963	344.56
493.18	335.56
493.398	352.56
493.615	358.56
493.833	350.56
494.05	358.56
494.268	323.56
494.485	337.56
494.703	347.56
494.92	350.56
495.138	364.56
495.355	331.56
495.573	333.56
495.79	351.56
496.008	330.56
496.225	328.56
496.442	336.56
496.66	355.56
496.877	331.56
497.094	344.56
497.312	333.56
497.529	347.56
497.746	355.56
497.963	348.56
498.181	358.56
498.398	365.56
498.615	376.56
498.832	363.56
499.049	373.56
499.267	377.56
499.484	395.56
499.701	408.56
499.918	408.56
500.135	424.56
500.352	468.56
500.569	456.56
500.786	464.56
501.003	449.56
501.22	445.56
501.437	435.56
501.654	437.56
501.871	417.56
502.088	393.56
502.305	377.56
502.522	367.56
502.739	372.56
502.956	332.56
503.172	356.56
503.389	348.56
503.606	357.56
503.823	358.56
504.04	352.56
504.256	370.56
504.473	335.56
504.69	339.56
504.907	323.56
505.123	327.56
505.34	333.56
505.557	321.56
505.773	319.56
505.99	323.56
506.207	318.56
506.423	330.56
506.64	336.56
506.856	307.56
507.073	313.56
507.289	325.56
507.506	328.56
507.722	325.56
507.939	321.56
508.155	318.56
508.372	312.56
508.588	295.56
508.805	329.56
509.021	296.56
509.238	314.56
509.454	323.56
509.67	303.56
509.887	312.56
510.103	315.56
510.319	315.56
510.536	383.56
510.752	735.56
510.968	530.56
511.184	319.56
511.401	297.56
511.617	297.56
511.833	294.56
512.049	285.56
512.265	290.56
512.481	283.56
512.698	298.56
512.914	302.56
513.13	280.56
513.346	279.56
513.562	272.56
513.778	302.56
513.994	292.56
514.21	286.56
514.426	324.56
514.642	341.56
514.858	368.56
515.074	389.56
515.29	464.56
515.506	787.56
515.721	637.56
515.937	388.56
516.153	326.56
516.369	327.56
516.585	297.56
516.801	302.56
517.016	284.56
517.232	302.56
517.448	310.56
517.664	297.56
517.879	301.56
518.095	304.56
518.311	304.56
518.527	308.56
518.742	293.56
518.958	293.56
519.173	289.56
519.389	306.56
519.605	289.56
519.82	285.56
520.036	315.56
520.251	298.56
520.467	317.56
520.682	305.56
520.898	317.56
521.113	334.56
521.329	347.56
521.544	427.56
521.76	584.56
521.975	1086.56
522.19	1066.56
522.406	496.56
522.621	356.56
522.836	317.56
523.052	281.56
523.267	271.56
523.482	259.56
523.698	276.56
523.913	291.56
524.128	263.56
524.343	252.56
524.559	261.56
524.774	251.56
524.989	271.56
525.204	257.56
525.419	266.56
525.634	270.56
525.849	252.56
526.064	244.56
526.28	248.56
526.495	239.56
526.71	247.56
526.925	234.56
527.14	257.56
527.355	221.56
527.57	252.56
527.785	244.56
527.999	246.56
528.214	236.56
528.429	233.56
528.644	243.56
528.859	240.56
529.074	245.56
529.289	270.56
529.503	315.56
529.718	297.56
529.933	252.56
530.148	245.56
530.363	251.56
530.577	243.56
530.792	254.56
531.007	235.56
531.221	235.56
531.436	212.56
531.651	230.56
531.865	236.56
532.08	232.56
532.295	246.56
532.509	235.56
532.724	236.56
532.938	248.56
533.153	230.56
533.367	229.56
533.582	252.56
533.796	217.56
534.011	224.56
534.225	235.56
534.44	237.56
534.654	227.56
534.868	235.56
535.083	219.56
535.297	218.56
535.511	239.56
535.726	223.56
535.94	225.56
536.154	237.56
536.369	230.56
536.583	213.56
536.797	230.56
537.011	239.56
537.225	216.56
537.44	232.56
537.654	229.56
537.868	215.56
538.082	223.56
538.296	233.56
538.51	232.56
538.724	225.56
538.938	231.56
539.153	247.56
539.367	247.56
539.581	237.56
539.795	232.56
540.009	237.56
540.222	215.56
540.436	219.56
540.65	230.56
540.864	207.56
541.078	238.56
541.292	220.56
541.506	232.56
541.72	227.56
541.934	223.56
542.147	236.56
542.361	224.56
542.575	237.56
542.789	232.56
543.002	238.56
543.216	238.56
543.43	231.56
543.644	244.56
543.857	234.56
544.071	218.56
544.285	238.56
544.498	222.56
544.712	236.56
544.925	228.56
545.139	213.56
545.352	205.56
545.566	208.56
545.779	232.56
545.993	228.56
546.206	230.56
546.42	236.56
546.633	216.56
546.847	233.56
547.06	218.56
547.274	228.56
547.487	233.56
547.7	223.56
547.914	209.56
548.127	215.56
548.34	224.56
548.554	215.56
548.767	223.56
548.98	226.56
549.193	231.56
549.407	212.56
549.62	226.56
549.833	204.56
550.046	213.56
550.259	214.56
550.473	212.56
550.686	218.56
550.899	222.56
551.112	208.56
551.325	223.56
551.538	212.56
551.751	208.56
551.964	219.56
552.177	195.56
552.39	205.56
552.603	215.56
552.816	229.56
553.029	231.56
553.242	232.56
553.455	225.56
553.667	221.56
553.88	253.56
554.093	252.56
554.306	235.56
554.519	233.56
554.732	228.56
554.944	213.56
555.157	199.56
555.37	199.56
555.583	211.56
555.795	210.56
556.008	219.56
556.221	207.56
556.433	216.56
556.646	215.56
556.859	210.56
557.071	201.56
557.284	204.56
557.496	205.56
557.709	200.56
557.921	197.56
558.134	202.56
558.346	206.56
558.559	200.56
558.771	209.56
558.984	196.56
559.196	205.56
559.409	199.56
559.621	193.56
559.833	193.56
560.046	186.56
560.258	201.56
560.47	197.56
560.683	194.56
560.895	192.56
561.107	208.56
561.32	209.56
561.532	207.56
561.744	187.56
561.956	191.56
562.168	201.56
562.381	191.56
562.593	215.56
562.805	199.56
563.017	204.56
563.229	208.56
563.441	208.56
563.653	188.56
563.865	208.56
564.077	203.56
564.289	200.56
564.501	191.56
564.713	201.56
564.925	202.56
565.137	223.56
565.349	212.56
565.561	217.56
565.773	212.56
565.985	205.56
566.197	217.56
566.408	237.56
566.62	219.56
566.832	233.56
567.044	241.56
567.255	231.56
567.467	220.56
567.679	236.56
567.891	229.56
568.102	240.56
568.314	238.56
568.526	230.56
568.737	220.56
568.949	221.56
569.161	195.56
569.372	212.56
569.584	197.56
569.795	211.56
570.007	214.56
570.218	235.56
570.43	214.56
570.641	195.56
570.853	204.56
571.064	211.56
571.276	194.56
571.487	185.56
571.698	191.56
571.91	166.56
572.121	184.56
572.333	181.56
572.544	175.56
572.755	170.56
572.966	167.56
573.178	185.56
573.389	171.56
573.6	155.56
573.811	163.56
574.023	171.56
574.234	176.56
574.445	181.56
574.656	188.56
574.867	158.56
575.078	179.56
575.289	161.56
575.501	168.56
575.712	168.56
575.923	182.56
576.134	181.56
576.345	186.56
576.556	157.56
576.767	186.56
576.978	164.56
577.188	174.56
577.399	179.56
577.61	173.56
577.821	180.56
578.032	168.56
578.243	199.56
578.454	359.56
578.665	256.56
578.875	184.56
579.086	158.56
579.297	187.56
579.508	164.56
579.718	147.56
579.929	172.56
580.14	169.56
580.35	129.56
580.561	151.56
580.772	171.56
580.982	165.56
581.193	157.56
581.403	163.56
581.614	155.56
581.825	179.56
582.035	164.56
582.246	176.56
582.456	174.56
582.667	157.56
582.877	165.56
583.087	174.56
583.298	167.56
583.508	159.56
583.719	159.56
583.929	183.56
584.139	163.56
584.35	171.56
584.56	163.56
584.77	154.56
584.981	170.56
585.191	150.56
585.401	156.56
585.611	165.56
585.821	176.56
586.032	164.56
586.242	153.56
586.452	151.56
586.662	169.56
586.872	161.56
587.082	160.56
587.292	154.56
587.502	164.56
587.713	163.56
587.923	162.56
588.133	161.56
588.343	165.56
588.553	158.56
588.762	179.56
588.972	159.56
589.182	170.56
589.392	172.56
589.602	172.56
589.812	172.56
590.022	153.56
590.232	151.56
590.441	161.56
590.651	151.56
590.861	167.56
591.071	152.56
591.281	154.56
591.49	160.56
591.7	162.56
591.91	160.56
592.119	161.56
592.329	165.56
592.539	176.56
592.748	162.56
592.958	162.56
593.167	160.56
593.377	160.56
593.587	165.56
593.796	166.56
594.006	152.56
594.215	170.56
594.424	179.56
594.634	163.56
594.843	165.56
595.053	167.56
595.262	158.56
595.472	145.56
595.681	159.56
595.89	152.56
596.1	151.56
596.309	168.56
596.518	161.56
596.727	145.56
596.937	156.56
597.146	163.56
597.355	159.56
597.564	152.56
597.774	161.56
597.983	169.56
598.192	147.56
598.401	140.56
598.61	132.56
598.819	143.56
599.028	138.56
599.237	139.56
599.446	160.56
599.655	148.56
599.864	148.56
600.073	151.56
600.282	139.56
600.491	145.56
600.7	149.56
600.909	146.56
601.118	134.56
601.327	144.56
601.536	155.56
601.745	151.56
601.953	157.56
602.162	142.56
602.371	139.56
602.58	144.56
602.789	140.56
602.997	151.56
603.206	148.56
603.415	149.56
603.623	158.56
603.832	146.56
604.041	167.56
604.249	141.56
604.458	143.56
604.666	144.56
604.875	143.56
605.084	126.56
605.292	138.56
605.501	139.56
605.709	153.56
605.918	160.56
606.126	150.56
606.334	159.56
606.543	136.56
606.751	149.56
606.96	147.56
607.168	150.56
607.376	148.56
607.585	140.56
607.793	143.56
608.001	155.56
608.21	136.56
608.418	140.56
608.626	150.56
608.834	132.56
609.043	128.56
609.251	120.56
609.459	149.56
609.667	137.56
609.875	147.56
610.083	142.56
610.291	151.56
610.499	155.56
610.707	160.56
610.916	139.56
611.124	149.56
611.332	154.56
611.54	136.56
611.748	159.56
611.955	145.56
612.163	147.56
612.371	143.56
612.579	135.56
612.787	140.56
612.995	137.56
613.203	143.56
613.411	151.56
613.618	142.56
613.826	145.56
614.034	151.56
614.242	132.56
614.449	137.56
614.657	141.56
614.865	138.56
615.072	137.56
615.28	129.56
615.488	119.56
615.695	128.56
615.903	151.56
616.111	143.56
616.318	156.56
616.526	137.56
616.733	140.56
616.941	130.56
617.148	146.56
617.356	136.56
617.563	128.56
617.771	135.56
617.978	131.56
618.185	149.56
618.393	159.56
618.6	139.56
618.807	147.56
619.015	139.56
619.222	149.56
619.429	139.56
619.637	139.56
619.844	143.56
620.051	138.56
620.258	144.56
620.466	139.56
620.673	161.56
620.88	144.56
621.087	143.56
621.294	138.56
621.501	138.56
621.708	136.56
621.915	135.56
622.122	144.56
622.329	151.56
622.536	142.56
622.743	125.56
622.95	137.56
623.157	151.56
623.364	128.56
623.571	145.56
623.778	131.56
623.985	143.56
624.192	142.56
624.399	126.56
624.606	142.56
624.812	134.56
625.019	128.56
625.226	125.56
625.433	128.56
625.639	142.56
625.846	137.56
626.053	133.56
626.259	140.56
626.466	136.56
626.673	132.56
626.879	128.56
627.086	116.56
627.293	145.56
627.499	120.56
627.706	122.56
627.912	137.56
628.119	140.56
628.325	139.56
628.532	128.56
628.738	135.56
628.945	136.56
629.151	126.56
629.357	131.56
629.564	128.56
629.77	144.56
629.976	126.56
630.183	125.56
630.389	139.56
630.595	139.56
630.802	134.56
631.008	132.56
631.214	124.56
631.42	124.56
631.627	136.56
631.833	125.56
632.039	141.56
632.245	120.56
632.451	132.56
632.657	131.56
632.863	133.56
633.069	133.56
633.275	121.56
633.481	132.56
633.688	127.56
633.893	129.56
634.099	127.56
634.305	129.56
634.511	115.56
634.717	115.56
634.923	122.56
635.129	128.56
635.335	123.56
635.541	129.56
635.747	126.56
635.952	121.56
636.158	116.56
636.364	125.56
636.57	132.56
636.775	125.56
636.981	128.56
637.187	119.56
637.392	134.56
637.598	123.56
637.804	128.56
638.009	122.56
638.215	116.56
638.421	119.56
638.626	111.56
638.832	111.56
639.037	113.56
639.243	126.56
639.448	127.56
639.654	127.56
639.859	132.56
640.065	119.56
640.27	125.56
640.475	115.56
640.681	121.56
640.886	120.56
641.091	125.56
641.297	119.56
641.502	113.56
641.707	119.56
641.913	112.56
642.118	106.56
642.323	115.56
642.528	107.56
642.733	130.56
642.939	125.56
643.144	104.56
643.349	120.56
643.554	120.56
643.759	128.56
643.964	116.56
644.169	116.56
644.374	116.56
644.579	125.56
644.784	124.56
644.989	125.56
645.194	125.56
645.399	118.56
645.604	112.56
645.809	119.56
646.014	115.56
646.219	125.56
646.423	112.56
646.628	121.56
646.833	110.56
647.038	103.56
647.243	120.56
647.447	113.56
647.652	119.56
647.857	111.56
648.062	108.56
648.266	117.56
648.471	120.56
648.676	126.56
648.88	108.56
649.085	115.56
649.289	122.56
649.494	125.56
649.698	146.56
649.903	123.56
650.107	110.56
650.312	121.56
650.516	109.56
650.721	108.56
650.925	118.56
651.13	118.56
651.334	119.56
651.539	112.56
651.743	104.56
651.947	106.56
652.152	120.56
652.356	109.56
652.56	107.56
652.764	108.56
652.969	106.56
653.173	99.56
653.377	122.56
653.581	121.56
653.785	111.56
653.99	103.56
654.194	111.56
654.398	89.56
654.602	98.56
654.806	99.56
655.01	118.56
655.214	119.56
655.418	122.56
655.622	127.56
655.826	100.56
656.03	105.56
656.234	107.56
656.438	106.56
656.642	104.56
656.846	101.56
657.049	107.56
657.253	108.56
657.457	111.56
657.661	103.56
657.865	83.56
658.068	98.56
658.272	97.56
658.476	99.56
658.68	97.56
658.883	99.56
659.087	99.56
659.291	88.56
659.494	110.56
659.698	100.56
659.901	93.56
660.105	78.56
660.309	87.56
660.512	83.56
660.716	89.56
660.919	96.56
661.123	100.56
661.326	96.56
661.53	95.56
661.733	87.56
661.936	92.56
662.14	92.56
662.343	89.56
662.546	79.56
662.75	88.56
662.953	95.56
663.156	81.56
663.36	91.56
663.563	88.56
663.766	88.56
663.969	79.56
664.173	81.56
664.376	70.56
664.579	76.56
664.782	82.56
664.985	84.56
665.188	90.56
665.391	80.56
665.594	67.56
665.797	77.56
666	82.56
666.203	86.56
666.406	96.56
666.609	89.56
666.812	95.56
667.015	78.56
667.218	74.56
667.421	86.56
667.624	91.56
667.827	77.56
668.03	85.56
668.232	78.56
668.435	94.56
668.638	78.56
668.841	92.56
669.043	91.56
669.246	89.56
669.449	75.56
669.651	87.56
669.854	74.56
670.057	89.56
670.259	73.56
670.462	87.56
670.665	80.56
670.867	86.56
671.07	100.56
671.272	98.56
671.475	93.56
671.677	76.56
671.88	76.56
672.082	78.56
672.284	84.56
672.487	82.56
672.689	77.56
672.892	96.56
