Data from 1966.PennyLincolnUp.Lamp.En5.5.200Scan.071719.P1._HRD10591_14-13-35-913.txt Node
Date: Thu Jul 18 14:13:35 EDT 2019
User: cochatt
Spectrometer: HR+D1059
Trigger mode: 1
Integration Time (sec): 1.000000E-1
Scans to average: 1
Electric dark correction enabled: true
Nonlinearity correction enabled: false
Boxcar width: 0
XAxis mode: Wavelengths
Number of Pixels in Spectrum: 2048
>>>>>Begin Spectral Data<<<<<
223.165	-16.44
223.4	-16.44
223.635	-16.44
223.869	-14.44
224.104	-4.44
224.338	-18.44
224.573	-19.44
224.808	-20.44
225.042	-1.44
225.277	-10.44
225.511	4.56
225.746	2.56
225.98	8.56
226.215	15.56
226.449	7.56
226.683	16.56
226.918	22.56
227.152	27.56
227.387	38.56
227.621	37.56
227.856	38.56
228.09	63.56
228.324	47.56
228.559	69.56
228.793	77.56
229.027	74.56
229.262	77.56
229.496	92.56
229.73	87.56
229.964	118.56
230.199	93.56
230.433	82.56
230.667	98.56
230.901	100.56
231.136	96.56
231.37	97.56
231.604	94.56
231.838	94.56
232.072	97.56
232.306	94.56
232.541	97.56
232.775	99.56
233.009	88.56
233.243	95.56
233.477	94.56
233.711	91.56
233.945	97.56
234.179	97.56
234.413	99.56
234.647	87.56
234.881	108.56
235.115	100.56
235.349	93.56
235.583	99.56
235.817	101.56
236.051	108.56
236.285	95.56
236.519	91.56
236.753	104.56
236.987	101.56
237.221	119.56
237.455	133.56
237.689	121.56
237.922	107.56
238.156	119.56
238.39	103.56
238.624	97.56
238.858	108.56
239.091	106.56
239.325	111.56
239.559	104.56
239.793	76.56
240.027	93.56
240.26	109.56
240.494	127.56
240.728	103.56
240.961	108.56
241.195	97.56
241.429	97.56
241.662	96.56
241.896	107.56
242.13	101.56
242.363	83.56
242.597	100.56
242.83	107.56
243.064	118.56
243.298	105.56
243.531	110.56
243.765	102.56
243.998	96.56
244.232	113.56
244.465	110.56
244.699	114.56
244.932	115.56
245.166	102.56
245.399	109.56
245.633	96.56
245.866	102.56
246.099	101.56
246.333	108.56
246.566	109.56
246.8	117.56
247.033	96.56
247.266	112.56
247.5	117.56
247.733	116.56
247.966	134.56
248.2	115.56
248.433	109.56
248.666	124.56
248.899	145.56
249.133	132.56
249.366	132.56
249.599	128.56
249.832	142.56
250.066	123.56
250.299	117.56
250.532	136.56
250.765	145.56
250.998	140.56
251.231	139.56
251.465	135.56
251.698	134.56
251.931	127.56
252.164	136.56
252.397	123.56
252.63	134.56
252.863	125.56
253.096	140.56
253.329	144.56
253.562	138.56
253.795	147.56
254.028	145.56
254.261	144.56
254.494	158.56
254.727	149.56
254.96	153.56
255.193	171.56
255.426	143.56
255.659	130.56
255.892	151.56
256.124	153.56
256.357	159.56
256.59	153.56
256.823	139.56
257.056	145.56
257.289	137.56
257.521	125.56
257.754	130.56
257.987	124.56
258.22	137.56
258.452	147.56
258.685	129.56
258.918	133.56
259.151	137.56
259.383	137.56
259.616	146.56
259.849	143.56
260.081	149.56
260.314	153.56
260.547	153.56
260.779	132.56
261.012	151.56
261.244	129.56
261.477	146.56
261.71	149.56
261.942	143.56
262.175	144.56
262.407	141.56
262.64	137.56
262.872	133.56
263.105	133.56
263.337	128.56
263.57	133.56
263.802	143.56
264.035	137.56
264.267	136.56
264.499	135.56
264.732	135.56
264.964	126.56
265.197	146.56
265.429	138.56
265.661	141.56
265.894	128.56
266.126	156.56
266.358	133.56
266.591	140.56
266.823	130.56
267.055	145.56
267.287	145.56
267.52	131.56
267.752	140.56
267.984	141.56
268.216	126.56
268.448	143.56
268.681	155.56
268.913	146.56
269.145	151.56
269.377	162.56
269.609	160.56
269.841	166.56
270.073	175.56
270.306	173.56
270.538	175.56
270.77	198.56
271.002	184.56
271.234	146.56
271.466	183.56
271.698	178.56
271.93	188.56
272.162	176.56
272.394	195.56
272.626	183.56
272.858	165.56
273.09	172.56
273.322	146.56
273.553	165.56
273.785	143.56
274.017	146.56
274.249	150.56
274.481	157.56
274.713	155.56
274.945	153.56
275.176	163.56
275.408	158.56
275.64	169.56
275.872	167.56
276.104	151.56
276.335	162.56
276.567	155.56
276.799	166.56
277.031	180.56
277.262	199.56
277.494	186.56
277.726	183.56
277.957	155.56
278.189	155.56
278.421	179.56
278.652	166.56
278.884	162.56
279.115	155.56
279.347	168.56
279.579	159.56
279.81	157.56
280.042	167.56
280.273	153.56
280.505	162.56
280.736	143.56
280.968	151.56
281.199	160.56
281.431	167.56
281.662	156.56
281.894	159.56
282.125	154.56
282.356	166.56
282.588	176.56
282.819	194.56
283.051	147.56
283.282	153.56
283.513	185.56
283.745	173.56
283.976	170.56
284.207	159.56
284.439	174.56
284.67	156.56
284.901	163.56
285.132	178.56
285.364	168.56
285.595	183.56
285.826	174.56
286.057	147.56
286.288	160.56
286.52	168.56
286.751	175.56
286.982	166.56
287.213	179.56
287.444	171.56
287.675	168.56
287.906	176.56
288.138	198.56
288.369	167.56
288.6	168.56
288.831	166.56
289.062	168.56
289.293	173.56
289.524	178.56
289.755	165.56
289.986	183.56
290.217	168.56
290.448	165.56
290.679	161.56
290.91	159.56
291.141	160.56
291.371	153.56
291.602	152.56
291.833	167.56
292.064	154.56
292.295	172.56
292.526	168.56
292.757	174.56
292.987	173.56
293.218	161.56
293.449	178.56
293.68	189.56
293.91	165.56
294.141	175.56
294.372	172.56
294.603	178.56
294.833	174.56
295.064	166.56
295.295	182.56
295.525	174.56
295.756	176.56
295.987	173.56
296.217	176.56
296.448	178.56
296.679	166.56
296.909	177.56
297.14	167.56
297.37	169.56
297.601	169.56
297.831	163.56
298.062	179.56
298.292	170.56
298.523	173.56
298.753	177.56
298.984	182.56
299.214	175.56
299.445	158.56
299.675	197.56
299.905	189.56
300.136	171.56
300.366	172.56
300.597	195.56
300.827	181.56
301.057	183.56
301.288	188.56
301.518	191.56
301.748	181.56
301.979	191.56
302.209	197.56
302.439	206.56
302.669	181.56
302.9	165.56
303.13	188.56
303.36	205.56
303.59	173.56
303.82	196.56
304.051	196.56
304.281	181.56
304.511	173.56
304.741	178.56
304.971	183.56
305.201	185.56
305.431	176.56
305.661	173.56
305.891	173.56
306.121	191.56
306.352	196.56
306.582	201.56
306.812	194.56
307.042	185.56
307.272	178.56
307.502	197.56
307.731	183.56
307.961	189.56
308.191	195.56
308.421	179.56
308.651	185.56
308.881	187.56
309.111	193.56
309.341	183.56
309.571	195.56
309.8	189.56
310.03	197.56
310.26	201.56
310.49	205.56
310.72	197.56
310.949	216.56
311.179	214.56
311.409	203.56
311.639	227.56
311.868	205.56
312.098	215.56
312.328	201.56
312.557	218.56
312.787	236.56
313.017	221.56
313.246	207.56
313.476	214.56
313.706	206.56
313.935	215.56
314.165	227.56
314.394	232.56
314.624	233.56
314.853	203.56
315.083	216.56
315.312	208.56
315.542	211.56
315.771	226.56
316.001	210.56
316.23	187.56
316.46	209.56
316.689	204.56
316.919	206.56
317.148	226.56
317.377	221.56
317.607	216.56
317.836	212.56
318.065	205.56
318.295	206.56
318.524	208.56
318.753	181.56
318.983	200.56
319.212	185.56
319.441	210.56
319.67	222.56
319.9	213.56
320.129	228.56
320.358	203.56
320.587	202.56
320.816	214.56
321.046	203.56
321.275	221.56
321.504	206.56
321.733	204.56
321.962	217.56
322.191	225.56
322.42	230.56
322.649	237.56
322.878	246.56
323.108	262.56
323.337	267.56
323.566	254.56
323.795	283.56
324.024	314.56
324.253	357.56
324.482	517.56
324.71	734.56
324.939	989.56
325.168	783.56
325.397	399.56
325.626	294.56
325.855	259.56
326.084	252.56
326.313	260.56
326.542	259.56
326.77	274.56
326.999	348.56
327.228	475.56
327.457	651.56
327.686	727.56
327.914	482.56
328.143	313.56
328.372	322.56
328.6	298.56
328.829	287.56
329.058	296.56
329.287	305.56
329.515	271.56
329.744	265.56
329.972	282.56
330.201	282.56
330.43	321.56
330.658	314.56
330.887	355.56
331.115	320.56
331.344	272.56
331.572	242.56
331.801	251.56
332.03	266.56
332.258	238.56
332.486	229.56
332.715	233.56
332.943	242.56
333.172	218.56
333.4	241.56
333.629	239.56
333.857	246.56
334.085	261.56
334.314	265.56
334.542	275.56
334.771	291.56
334.999	293.56
335.227	254.56
335.455	237.56
335.684	231.56
335.912	239.56
336.14	235.56
336.369	223.56
336.597	236.56
336.825	235.56
337.053	249.56
337.281	231.56
337.51	234.56
337.738	229.56
337.966	233.56
338.194	217.56
338.422	231.56
338.65	209.56
338.878	231.56
339.106	223.56
339.334	218.56
339.562	219.56
339.79	209.56
340.018	216.56
340.246	238.56
340.474	221.56
340.702	240.56
340.93	233.56
341.158	221.56
341.386	232.56
341.614	213.56
341.842	217.56
342.07	225.56
342.298	230.56
342.526	238.56
342.754	218.56
342.981	221.56
343.209	214.56
343.437	233.56
343.665	217.56
343.893	225.56
344.12	222.56
344.348	234.56
344.576	240.56
344.804	240.56
345.031	229.56
345.259	231.56
345.487	236.56
345.714	224.56
345.942	219.56
346.17	212.56
346.397	202.56
346.625	209.56
346.853	219.56
347.08	208.56
347.308	216.56
347.535	223.56
347.763	219.56
347.99	215.56
348.218	220.56
348.445	235.56
348.673	232.56
348.9	209.56
349.128	217.56
349.355	204.56
349.583	204.56
349.81	215.56
350.037	212.56
350.265	204.56
350.492	226.56
350.72	223.56
350.947	213.56
351.174	240.56
351.402	231.56
351.629	216.56
351.856	238.56
352.083	236.56
352.311	224.56
352.538	223.56
352.765	236.56
352.992	206.56
353.22	218.56
353.447	217.56
353.674	219.56
353.901	213.56
354.128	218.56
354.355	194.56
354.583	215.56
354.81	203.56
355.037	186.56
355.264	199.56
355.491	206.56
355.718	205.56
355.945	220.56
356.172	202.56
356.399	205.56
356.626	197.56
356.853	206.56
357.08	194.56
357.307	205.56
357.534	201.56
357.761	208.56
357.988	211.56
358.215	211.56
358.441	226.56
358.668	198.56
358.895	203.56
359.122	219.56
359.349	222.56
359.576	222.56
359.802	238.56
360.029	245.56
360.256	261.56
360.483	263.56
360.709	209.56
360.936	206.56
361.163	220.56
361.39	209.56
361.616	219.56
361.843	207.56
362.07	193.56
362.296	235.56
362.523	219.56
362.749	229.56
362.976	215.56
363.203	221.56
363.429	192.56
363.656	194.56
363.882	198.56
364.109	193.56
364.335	207.56
364.562	198.56
364.788	201.56
365.015	195.56
365.241	223.56
365.468	228.56
365.694	218.56
365.92	212.56
366.147	202.56
366.373	205.56
366.599	203.56
366.826	205.56
367.052	208.56
367.278	202.56
367.505	209.56
367.731	213.56
367.957	197.56
368.184	223.56
368.41	212.56
368.636	219.56
368.862	210.56
369.089	201.56
369.315	213.56
369.541	192.56
369.767	207.56
369.993	211.56
370.219	214.56
370.445	218.56
370.672	200.56
370.898	205.56
371.124	217.56
371.35	202.56
371.576	218.56
371.802	201.56
372.028	221.56
372.254	211.56
372.48	199.56
372.706	202.56
372.932	211.56
373.158	224.56
373.384	204.56
373.61	201.56
373.835	202.56
374.061	207.56
374.287	216.56
374.513	205.56
374.739	210.56
374.965	214.56
375.191	218.56
375.416	215.56
375.642	215.56
375.868	207.56
376.094	197.56
376.319	197.56
376.545	188.56
376.771	198.56
376.997	206.56
377.222	200.56
377.448	213.56
377.674	197.56
377.899	192.56
378.125	195.56
378.35	182.56
378.576	208.56
378.802	203.56
379.027	204.56
379.253	214.56
379.478	210.56
379.704	205.56
379.929	192.56
380.155	209.56
380.38	209.56
380.606	192.56
380.831	204.56
381.057	204.56
381.282	208.56
381.507	211.56
381.733	197.56
381.958	208.56
382.184	200.56
382.409	206.56
382.634	217.56
382.86	211.56
383.085	205.56
383.31	204.56
383.535	205.56
383.761	204.56
383.986	214.56
384.211	223.56
384.436	228.56
384.662	216.56
384.887	214.56
385.112	221.56
385.337	211.56
385.562	201.56
385.787	210.56
386.013	232.56
386.238	217.56
386.463	225.56
386.688	214.56
386.913	215.56
387.138	198.56
387.363	226.56
387.588	218.56
387.813	221.56
388.038	216.56
388.263	226.56
388.488	227.56
388.713	223.56
388.938	210.56
389.163	225.56
389.387	226.56
389.612	206.56
389.837	218.56
390.062	217.56
390.287	216.56
390.512	209.56
390.736	221.56
390.961	217.56
391.186	211.56
391.411	216.56
391.636	206.56
391.86	227.56
392.085	210.56
392.31	232.56
392.534	229.56
392.759	234.56
392.984	214.56
393.208	221.56
393.433	223.56
393.658	222.56
393.882	210.56
394.107	217.56
394.331	234.56
394.556	208.56
394.78	226.56
395.005	225.56
395.229	217.56
395.454	227.56
395.678	224.56
395.903	230.56
396.127	254.56
396.352	232.56
396.576	225.56
396.801	217.56
397.025	225.56
397.249	224.56
397.474	237.56
397.698	237.56
397.922	227.56
398.147	248.56
398.371	250.56
398.595	237.56
398.82	218.56
399.044	250.56
399.268	263.56
399.492	264.56
399.717	255.56
399.941	290.56
400.165	282.56
400.389	285.56
400.613	258.56
400.837	230.56
401.062	253.56
401.286	255.56
401.51	257.56
401.734	254.56
401.958	245.56
402.182	248.56
402.406	263.56
402.63	264.56
402.854	250.56
403.078	262.56
403.302	238.56
403.526	266.56
403.75	264.56
403.974	264.56
404.198	260.56
404.422	270.56
404.645	246.56
404.869	253.56
405.093	273.56
405.317	269.56
405.541	294.56
405.765	265.56
405.988	255.56
406.212	274.56
406.436	282.56
406.66	299.56
406.883	273.56
407.107	280.56
407.331	309.56
407.555	334.56
407.778	320.56
408.002	304.56
408.226	285.56
408.449	273.56
408.673	265.56
408.896	268.56
409.12	282.56
409.344	287.56
409.567	255.56
409.791	249.56
410.014	240.56
410.238	259.56
410.461	240.56
410.685	243.56
410.908	269.56
411.132	292.56
411.355	288.56
411.578	266.56
411.802	256.56
412.025	248.56
412.249	258.56
412.472	263.56
412.695	277.56
412.919	275.56
413.142	259.56
413.365	262.56
413.589	256.56
413.812	236.56
414.035	249.56
414.258	241.56
414.482	242.56
414.705	253.56
414.928	250.56
415.151	255.56
415.374	241.56
415.597	249.56
415.821	230.56
416.044	255.56
416.267	261.56
416.49	233.56
416.713	229.56
416.936	253.56
417.159	252.56
417.382	238.56
417.605	248.56
417.828	242.56
418.051	259.56
418.274	250.56
418.497	245.56
418.72	256.56
418.943	234.56
419.166	240.56
419.389	260.56
419.611	266.56
419.834	251.56
420.057	261.56
420.28	235.56
420.503	263.56
420.726	248.56
420.948	263.56
421.171	277.56
421.394	283.56
421.617	268.56
421.839	231.56
422.062	248.56
422.285	253.56
422.507	293.56
422.73	313.56
422.953	305.56
423.175	290.56
423.398	246.56
423.621	278.56
423.843	258.56
424.066	266.56
424.288	265.56
424.511	290.56
424.733	322.56
424.956	343.56
425.178	313.56
425.401	311.56
425.623	335.56
425.846	286.56
426.068	281.56
426.291	249.56
426.513	276.56
426.735	261.56
426.958	288.56
427.18	315.56
427.402	371.56
427.625	391.56
427.847	358.56
428.069	325.56
428.292	299.56
428.514	267.56
428.736	243.56
428.958	272.56
429.181	267.56
429.403	234.56
429.625	257.56
429.847	273.56
430.069	313.56
430.292	278.56
430.514	252.56
430.736	262.56
430.958	256.56
431.18	252.56
431.402	249.56
431.624	231.56
431.846	231.56
432.068	239.56
432.29	253.56
432.512	239.56
432.734	242.56
432.956	253.56
433.178	255.56
433.4	251.56
433.622	247.56
433.844	264.56
434.066	230.56
434.287	246.56
434.509	251.56
434.731	250.56
434.953	238.56
435.175	256.56
435.397	275.56
435.618	269.56
435.84	293.56
436.062	322.56
436.284	344.56
436.505	296.56
436.727	272.56
436.949	265.56
437.17	256.56
437.392	236.56
437.614	269.56
437.835	271.56
438.057	316.56
438.278	340.56
438.5	360.56
438.721	385.56
438.943	356.56
439.165	279.56
439.386	280.56
439.608	283.56
439.829	274.56
440.05	291.56
440.272	293.56
440.493	289.56
440.715	259.56
440.936	248.56
441.158	255.56
441.379	251.56
441.6	268.56
441.822	274.56
442.043	289.56
442.264	340.56
442.486	336.56
442.707	293.56
442.928	280.56
443.149	273.56
443.371	289.56
443.592	313.56
443.813	349.56
444.034	373.56
444.255	302.56
444.476	273.56
444.698	276.56
444.919	268.56
445.14	354.56
445.361	321.56
445.582	298.56
445.803	337.56
446.024	361.56
446.245	346.56
446.466	328.56
446.687	291.56
446.908	262.56
447.129	255.56
447.35	259.56
447.571	255.56
447.792	250.56
448.013	234.56
448.234	251.56
448.455	273.56
448.675	325.56
448.896	357.56
449.117	298.56
449.338	310.56
449.559	339.56
449.779	387.56
450	319.56
450.221	270.56
450.442	253.56
450.662	249.56
450.883	269.56
451.104	268.56
451.324	254.56
451.545	246.56
451.766	242.56
451.986	239.56
452.207	240.56
452.428	236.56
452.648	221.56
452.869	226.56
453.089	246.56
453.31	237.56
453.53	233.56
453.751	235.56
453.971	247.56
454.192	241.56
454.412	240.56
454.633	219.56
454.853	239.56
455.073	228.56
455.294	248.56
455.514	279.56
455.734	269.56
455.955	241.56
456.175	220.56
456.395	226.56
456.616	224.56
456.836	215.56
457.056	219.56
457.276	211.56
457.497	219.56
457.717	220.56
457.937	228.56
458.157	215.56
458.377	241.56
458.598	222.56
458.818	267.56
459.038	307.56
459.258	314.56
459.478	262.56
459.698	259.56
459.918	241.56
460.138	235.56
460.358	216.56
460.578	237.56
460.798	240.56
461.018	228.56
461.238	236.56
461.458	230.56
461.678	242.56
461.898	235.56
462.118	241.56
462.338	251.56
462.558	259.56
462.777	259.56
462.997	250.56
463.217	247.56
463.437	267.56
463.657	240.56
463.876	251.56
464.096	253.56
464.316	263.56
464.536	271.56
464.755	272.56
464.975	274.56
465.195	293.56
465.414	333.56
465.634	272.56
465.854	252.56
466.073	236.56
466.293	223.56
466.512	222.56
466.732	229.56
466.951	221.56
467.171	215.56
467.391	246.56
467.61	245.56
467.829	241.56
468.049	236.56
468.268	239.56
468.488	272.56
468.707	237.56
468.927	228.56
469.146	222.56
469.365	213.56
469.585	215.56
469.804	237.56
470.023	245.56
470.243	237.56
470.462	241.56
470.681	244.56
470.901	248.56
471.12	245.56
471.339	248.56
471.558	253.56
471.777	220.56
471.997	242.56
472.216	232.56
472.435	295.56
472.654	243.56
472.873	225.56
473.092	215.56
473.311	220.56
473.53	233.56
473.749	240.56
473.968	256.56
474.187	316.56
474.406	322.56
474.625	264.56
474.844	239.56
475.063	239.56
475.282	246.56
475.501	247.56
475.72	266.56
475.939	243.56
476.158	253.56
476.377	230.56
476.596	244.56
476.814	245.56
477.033	246.56
477.252	243.56
477.471	226.56
477.69	257.56
477.908	240.56
478.127	253.56
478.346	246.56
478.564	249.56
478.783	261.56
479.002	260.56
479.22	266.56
479.439	273.56
479.658	293.56
479.876	282.56
480.095	281.56
480.313	309.56
480.532	314.56
480.751	271.56
480.969	304.56
481.188	336.56
481.406	368.56
481.624	297.56
481.843	276.56
482.061	273.56
482.28	273.56
482.498	262.56
482.717	285.56
482.935	281.56
483.153	302.56
483.372	270.56
483.59	268.56
483.808	288.56
484.027	280.56
484.245	279.56
484.463	268.56
484.681	273.56
484.9	266.56
485.118	273.56
485.336	269.56
485.554	279.56
485.772	277.56
485.99	283.56
486.209	279.56
486.427	309.56
486.645	293.56
486.863	282.56
487.081	309.56
487.299	281.56
487.517	285.56
487.735	287.56
487.953	280.56
488.171	289.56
488.389	294.56
488.607	274.56
488.825	294.56
489.043	281.56
489.261	280.56
489.479	298.56
489.696	294.56
489.914	302.56
490.132	293.56
490.35	314.56
490.568	298.56
490.786	302.56
491.003	328.56
491.221	333.56
491.439	357.56
491.657	330.56
491.874	352.56
492.092	343.56
492.31	348.56
492.527	335.56
492.745	350.56
492.963	339.56
493.18	352.56
493.398	358.56
493.615	344.56
493.833	339.56
494.05	345.56
494.268	340.56
494.485	335.56
494.703	334.56
494.92	349.56
495.138	343.56
495.355	348.56
495.573	347.56
495.79	328.56
496.008	330.56
496.225	317.56
496.442	322.56
496.66	343.56
496.877	335.56
497.094	347.56
497.312	322.56
497.529	338.56
497.746	357.56
497.963	355.56
498.181	371.56
498.398	363.56
498.615	365.56
498.832	352.56
499.049	380.56
499.267	379.56
499.484	384.56
499.701	398.56
499.918	421.56
500.135	419.56
500.352	429.56
500.569	431.56
500.786	443.56
501.003	449.56
501.22	444.56
501.437	418.56
501.654	426.56
501.871	417.56
502.088	397.56
502.305	394.56
502.522	367.56
502.739	366.56
502.956	332.56
503.172	355.56
503.389	345.56
503.606	335.56
503.823	352.56
504.04	334.56
504.256	345.56
504.473	342.56
504.69	329.56
504.907	336.56
505.123	329.56
505.34	324.56
505.557	333.56
505.773	325.56
505.99	310.56
506.207	345.56
506.423	320.56
506.64	313.56
506.856	319.56
507.073	322.56
507.289	331.56
507.506	300.56
507.722	318.56
507.939	335.56
508.155	337.56
508.372	320.56
508.588	310.56
508.805	298.56
509.021	322.56
509.238	322.56
509.454	318.56
509.67	294.56
509.887	309.56
510.103	310.56
510.319	323.56
510.536	374.56
510.752	735.56
510.968	538.56
511.184	318.56
511.401	313.56
511.617	295.56
511.833	285.56
512.049	290.56
512.265	277.56
512.481	302.56
512.698	283.56
512.914	283.56
513.13	310.56
513.346	311.56
513.562	291.56
513.778	290.56
513.994	297.56
514.21	321.56
514.426	319.56
514.642	343.56
514.858	343.56
515.074	371.56
515.29	480.56
515.506	760.56
515.721	583.56
515.937	367.56
516.153	330.56
516.369	310.56
516.585	299.56
516.801	295.56
517.016	295.56
517.232	284.56
517.448	300.56
517.664	299.56
517.879	288.56
518.095	283.56
518.311	298.56
518.527	294.56
518.742	306.56
518.958	305.56
519.173	291.56
519.389	279.56
519.605	282.56
519.82	278.56
520.036	275.56
520.251	313.56
520.467	335.56
520.682	323.56
520.898	331.56
521.113	328.56
521.329	353.56
521.544	412.56
521.76	548.56
521.975	1070.56
522.19	1027.56
522.406	525.56
522.621	349.56
522.836	304.56
523.052	277.56
523.267	271.56
523.482	271.56
523.698	268.56
523.913	263.56
524.128	277.56
524.343	258.56
524.559	257.56
524.774	255.56
524.989	262.56
525.204	262.56
525.419	284.56
525.634	245.56
525.849	250.56
526.064	248.56
526.28	239.56
526.495	247.56
526.71	251.56
526.925	229.56
527.14	245.56
527.355	233.56
527.57	247.56
527.785	233.56
527.999	237.56
528.214	213.56
528.429	247.56
528.644	237.56
528.859	242.56
529.074	265.56
529.289	266.56
529.503	309.56
529.718	311.56
529.933	265.56
530.148	257.56
530.363	250.56
530.577	251.56
530.792	216.56
531.007	233.56
531.221	239.56
531.436	241.56
531.651	243.56
531.865	229.56
532.08	230.56
532.295	233.56
532.509	213.56
532.724	242.56
532.938	240.56
533.153	236.56
533.367	239.56
533.582	221.56
533.796	227.56
534.011	238.56
534.225	221.56
534.44	219.56
534.654	221.56
534.868	217.56
535.083	238.56
535.297	237.56
535.511	236.56
535.726	250.56
535.94	226.56
536.154	237.56
536.369	231.56
536.583	219.56
536.797	217.56
537.011	213.56
537.225	226.56
537.44	228.56
537.654	218.56
537.868	222.56
538.082	222.56
538.296	211.56
538.51	241.56
538.724	237.56
538.938	235.56
539.153	236.56
539.367	242.56
539.581	246.56
539.795	216.56
540.009	226.56
540.222	225.56
540.436	245.56
540.65	222.56
540.864	225.56
541.078	221.56
541.292	232.56
541.506	236.56
541.72	224.56
541.934	221.56
542.147	239.56
542.361	227.56
542.575	233.56
542.789	232.56
543.002	218.56
543.216	241.56
543.43	247.56
543.644	238.56
543.857	229.56
544.071	217.56
544.285	240.56
544.498	248.56
544.712	232.56
544.925	223.56
545.139	213.56
545.352	223.56
545.566	232.56
545.779	217.56
545.993	222.56
546.206	239.56
546.42	225.56
546.633	222.56
546.847	224.56
547.06	212.56
547.274	237.56
547.487	230.56
547.7	234.56
547.914	223.56
548.127	228.56
548.34	222.56
548.554	224.56
548.767	218.56
548.98	218.56
549.193	205.56
549.407	213.56
549.62	216.56
549.833	219.56
550.046	230.56
550.259	211.56
550.473	216.56
550.686	218.56
550.899	220.56
551.112	206.56
551.325	215.56
551.538	205.56
551.751	226.56
551.964	212.56
552.177	224.56
552.39	225.56
552.603	197.56
552.816	215.56
553.029	221.56
553.242	225.56
553.455	220.56
553.667	237.56
553.88	241.56
554.093	232.56
554.306	227.56
554.519	226.56
554.732	215.56
554.944	223.56
555.157	210.56
555.37	221.56
555.583	209.56
555.795	225.56
556.008	210.56
556.221	214.56
556.433	215.56
556.646	202.56
556.859	208.56
557.071	213.56
557.284	203.56
557.496	199.56
557.709	221.56
557.921	219.56
558.134	208.56
558.346	201.56
558.559	205.56
558.771	199.56
558.984	206.56
559.196	213.56
559.409	199.56
559.621	189.56
559.833	178.56
560.046	201.56
560.258	185.56
560.47	192.56
560.683	212.56
560.895	213.56
561.107	192.56
561.32	205.56
561.532	191.56
561.744	198.56
561.956	202.56
562.168	201.56
562.381	195.56
562.593	199.56
562.805	200.56
563.017	204.56
563.229	218.56
563.441	194.56
563.653	198.56
563.865	217.56
564.077	197.56
564.289	193.56
564.501	209.56
564.713	168.56
564.925	209.56
565.137	218.56
565.349	216.56
565.561	213.56
565.773	229.56
565.985	213.56
566.197	203.56
566.408	215.56
566.62	222.56
566.832	238.56
567.044	223.56
567.255	215.56
567.467	234.56
567.679	237.56
567.891	234.56
568.102	232.56
568.314	244.56
568.526	219.56
568.737	228.56
568.949	212.56
569.161	216.56
569.372	209.56
569.584	204.56
569.795	215.56
570.007	208.56
570.218	231.56
570.43	232.56
570.641	214.56
570.853	205.56
571.064	183.56
571.276	197.56
571.487	195.56
571.698	204.56
571.91	195.56
572.121	179.56
572.333	181.56
572.544	175.56
572.755	169.56
572.966	179.56
573.178	178.56
573.389	181.56
573.6	183.56
573.811	190.56
574.023	184.56
574.234	191.56
574.445	165.56
574.656	164.56
574.867	171.56
575.078	171.56
575.289	185.56
575.501	177.56
575.712	179.56
575.923	190.56
576.134	174.56
576.345	173.56
576.556	179.56
576.767	174.56
576.978	182.56
577.188	171.56
577.399	171.56
577.61	170.56
577.821	173.56
578.032	174.56
578.243	205.56
578.454	386.56
578.665	243.56
578.875	175.56
579.086	172.56
579.297	178.56
579.508	162.56
579.718	166.56
579.929	160.56
580.14	179.56
580.35	157.56
580.561	174.56
580.772	176.56
580.982	156.56
581.193	166.56
581.403	172.56
581.614	161.56
581.825	169.56
582.035	161.56
582.246	172.56
582.456	161.56
582.667	180.56
582.877	158.56
583.087	178.56
583.298	156.56
583.508	155.56
583.719	138.56
583.929	156.56
584.139	163.56
584.35	154.56
584.56	162.56
584.77	170.56
584.981	171.56
585.191	165.56
585.401	149.56
585.611	159.56
585.821	173.56
586.032	168.56
586.242	169.56
586.452	177.56
586.662	155.56
586.872	169.56
587.082	172.56
587.292	146.56
587.502	169.56
587.713	173.56
587.923	166.56
588.133	157.56
588.343	159.56
588.553	165.56
588.762	133.56
588.972	147.56
589.182	161.56
589.392	169.56
589.602	151.56
589.812	182.56
590.022	162.56
590.232	156.56
590.441	161.56
590.651	161.56
590.861	147.56
591.071	146.56
591.281	165.56
591.49	157.56
591.7	165.56
591.91	158.56
592.119	156.56
592.329	170.56
592.539	168.56
592.748	170.56
592.958	176.56
593.167	167.56
593.377	178.56
593.587	178.56
593.796	170.56
594.006	166.56
594.215	163.56
594.424	165.56
594.634	181.56
594.843	153.56
595.053	166.56
595.262	163.56
595.472	174.56
595.681	150.56
595.89	153.56
596.1	166.56
596.309	147.56
596.518	152.56
596.727	162.56
596.937	165.56
597.146	160.56
597.355	158.56
597.564	161.56
597.774	157.56
597.983	159.56
598.192	160.56
598.401	146.56
598.61	149.56
598.819	159.56
599.028	157.56
599.237	158.56
599.446	154.56
599.655	150.56
599.864	161.56
600.073	135.56
600.282	145.56
600.491	149.56
600.7	155.56
600.909	150.56
601.118	141.56
601.327	147.56
601.536	142.56
601.745	143.56
601.953	152.56
602.162	151.56
602.371	147.56
602.58	136.56
602.789	147.56
602.997	143.56
603.206	157.56
603.415	143.56
603.623	149.56
603.832	149.56
604.041	128.56
604.249	153.56
604.458	160.56
604.666	153.56
604.875	155.56
605.084	136.56
605.292	139.56
605.501	142.56
605.709	144.56
605.918	144.56
606.126	153.56
606.334	139.56
606.543	160.56
606.751	153.56
606.96	138.56
607.168	143.56
607.376	145.56
607.585	127.56
607.793	137.56
608.001	135.56
608.21	150.56
608.418	153.56
608.626	145.56
608.834	147.56
609.043	157.56
609.251	145.56
609.459	133.56
609.667	141.56
609.875	146.56
610.083	141.56
610.291	155.56
610.499	144.56
610.707	159.56
610.916	137.56
611.124	147.56
611.332	143.56
611.54	155.56
611.748	147.56
611.955	134.56
612.163	153.56
612.371	152.56
612.579	156.56
612.787	147.56
612.995	163.56
613.203	148.56
613.411	150.56
613.618	145.56
613.826	156.56
614.034	141.56
614.242	145.56
614.449	131.56
614.657	145.56
614.865	147.56
615.072	162.56
615.28	146.56
615.488	139.56
615.695	141.56
615.903	153.56
616.111	144.56
616.318	140.56
616.526	133.56
616.733	146.56
616.941	143.56
617.148	151.56
617.356	135.56
617.563	137.56
617.771	136.56
617.978	151.56
618.185	150.56
618.393	133.56
618.6	135.56
618.807	138.56
619.015	143.56
619.222	149.56
619.429	133.56
619.637	135.56
619.844	138.56
620.051	141.56
620.258	148.56
620.466	139.56
620.673	129.56
620.88	157.56
621.087	161.56
621.294	143.56
621.501	135.56
621.708	136.56
621.915	135.56
622.122	144.56
622.329	142.56
622.536	162.56
622.743	143.56
622.95	135.56
623.157	134.56
623.364	126.56
623.571	135.56
623.778	147.56
623.985	136.56
624.192	134.56
624.399	128.56
624.606	139.56
624.812	129.56
625.019	141.56
625.226	127.56
625.433	154.56
625.639	128.56
625.846	134.56
626.053	137.56
626.259	125.56
626.466	129.56
626.673	119.56
626.879	124.56
627.086	125.56
627.293	142.56
627.499	149.56
627.706	139.56
627.912	141.56
628.119	134.56
628.325	119.56
628.532	129.56
628.738	131.56
628.945	131.56
629.151	138.56
629.357	126.56
629.564	131.56
629.77	126.56
629.976	135.56
630.183	147.56
630.389	130.56
630.595	130.56
630.802	119.56
631.008	131.56
631.214	138.56
631.42	115.56
631.627	141.56
631.833	127.56
632.039	120.56
632.245	131.56
632.451	129.56
632.657	115.56
632.863	117.56
633.069	118.56
633.275	127.56
633.481	123.56
633.688	114.56
633.893	133.56
634.099	128.56
634.305	145.56
634.511	133.56
634.717	135.56
634.923	127.56
635.129	123.56
635.335	121.56
635.541	127.56
635.747	127.56
635.952	125.56
636.158	117.56
636.364	137.56
636.57	149.56
636.775	124.56
636.981	126.56
637.187	113.56
637.392	130.56
637.598	121.56
637.804	126.56
638.009	129.56
638.215	126.56
638.421	126.56
638.626	116.56
638.832	120.56
639.037	126.56
639.243	105.56
639.448	126.56
639.654	115.56
639.859	123.56
640.065	128.56
640.27	131.56
640.475	105.56
640.681	122.56
640.886	116.56
641.091	134.56
641.297	128.56
641.502	101.56
641.707	123.56
641.913	124.56
642.118	127.56
642.323	115.56
642.528	108.56
642.733	111.56
642.939	121.56
643.144	107.56
643.349	112.56
643.554	129.56
643.759	123.56
643.964	127.56
644.169	119.56
644.374	112.56
644.579	110.56
644.784	122.56
644.989	129.56
645.194	110.56
645.399	119.56
645.604	135.56
645.809	129.56
646.014	112.56
646.219	110.56
646.423	97.56
646.628	121.56
646.833	134.56
647.038	120.56
647.243	112.56
647.447	118.56
647.652	119.56
647.857	126.56
648.062	132.56
648.266	123.56
648.471	112.56
648.676	124.56
648.88	119.56
649.085	107.56
649.289	120.56
649.494	121.56
649.698	128.56
649.903	126.56
650.107	123.56
650.312	123.56
650.516	117.56
650.721	118.56
650.925	110.56
651.13	99.56
651.334	114.56
651.539	123.56
651.743	101.56
651.947	123.56
652.152	122.56
652.356	103.56
652.56	120.56
652.764	104.56
652.969	112.56
653.173	110.56
653.377	107.56
653.581	119.56
653.785	108.56
653.99	113.56
654.194	126.56
654.398	113.56
654.602	101.56
654.806	116.56
655.01	119.56
655.214	116.56
655.418	106.56
655.622	112.56
655.826	113.56
656.03	107.56
656.234	117.56
656.438	117.56
656.642	109.56
656.846	111.56
657.049	114.56
657.253	127.56
657.457	112.56
657.661	111.56
657.865	91.56
658.068	103.56
658.272	103.56
658.476	104.56
658.68	97.56
658.883	97.56
659.087	96.56
659.291	90.56
659.494	96.56
659.698	101.56
659.901	95.56
660.105	89.56
660.309	82.56
660.512	81.56
660.716	84.56
660.919	91.56
661.123	86.56
661.326	100.56
661.53	93.56
661.733	81.56
661.936	97.56
662.14	91.56
662.343	88.56
662.546	97.56
662.75	82.56
662.953	100.56
663.156	83.56
663.36	95.56
663.563	87.56
663.766	91.56
663.969	94.56
664.173	82.56
664.376	78.56
664.579	72.56
664.782	96.56
664.985	90.56
665.188	90.56
665.391	78.56
665.594	105.56
665.797	89.56
666	94.56
666.203	89.56
666.406	91.56
666.609	91.56
666.812	85.56
667.015	84.56
667.218	89.56
667.421	79.56
667.624	82.56
667.827	90.56
668.03	75.56
668.232	78.56
668.435	77.56
668.638	77.56
668.841	96.56
669.043	75.56
669.246	89.56
669.449	95.56
669.651	83.56
669.854	85.56
670.057	90.56
670.259	89.56
670.462	82.56
670.665	101.56
670.867	76.56
671.07	86.56
671.272	89.56
671.475	93.56
671.677	77.56
671.88	85.56
672.082	99.56
672.284	82.56
672.487	80.56
672.689	81.56
672.892	89.56
