Data from 1966.PennyLincolnUp.Lamp.En5.5.200Scan.071719.P1._HRD10591_14-15-27-951.txt Node
Date: Thu Jul 18 14:15:27 EDT 2019
User: cochatt
Spectrometer: HR+D1059
Trigger mode: 1
Integration Time (sec): 1.000000E-1
Scans to average: 1
Electric dark correction enabled: true
Nonlinearity correction enabled: false
Boxcar width: 0
XAxis mode: Wavelengths
Number of Pixels in Spectrum: 2048
>>>>>Begin Spectral Data<<<<<
223.165	-18.75
223.4	-18.75
223.635	-18.75
223.869	-7.75
224.104	-28.75
224.338	-16.75
224.573	-4.75
224.808	-10.75
225.042	-11.75
225.277	0.25
225.511	-2.75
225.746	-0.75
225.98	13.25
226.215	6.25
226.449	14.25
226.683	18.25
226.918	25.25
227.152	25.25
227.387	46.25
227.621	61.25
227.856	36.25
228.09	71.25
228.324	56.25
228.559	61.25
228.793	63.25
229.027	74.25
229.262	92.25
229.496	88.25
229.73	86.25
229.964	97.25
230.199	93.25
230.433	80.25
230.667	84.25
230.901	97.25
231.136	86.25
231.37	85.25
231.604	104.25
231.838	94.25
232.072	93.25
232.306	96.25
232.541	101.25
232.775	92.25
233.009	94.25
233.243	97.25
233.477	97.25
233.711	78.25
233.945	96.25
234.179	92.25
234.413	92.25
234.647	98.25
234.881	107.25
235.115	77.25
235.349	116.25
235.583	113.25
235.817	112.25
236.051	106.25
236.285	108.25
236.519	109.25
236.753	83.25
236.987	108.25
237.221	133.25
237.455	161.25
237.689	118.25
237.922	108.25
238.156	105.25
238.39	97.25
238.624	98.25
238.858	103.25
239.091	107.25
239.325	98.25
239.559	88.25
239.793	107.25
240.027	125.25
240.26	102.25
240.494	117.25
240.728	113.25
240.961	107.25
241.195	123.25
241.429	92.25
241.662	104.25
241.896	89.25
242.13	105.25
242.363	93.25
242.597	108.25
242.83	113.25
243.064	98.25
243.298	96.25
243.531	110.25
243.765	122.25
243.998	97.25
244.232	99.25
244.465	107.25
244.699	113.25
244.932	108.25
245.166	108.25
245.399	113.25
245.633	110.25
245.866	101.25
246.099	104.25
246.333	103.25
246.566	119.25
246.8	125.25
247.033	106.25
247.266	121.25
247.5	126.25
247.733	121.25
247.966	131.25
248.2	137.25
248.433	117.25
248.666	120.25
248.899	121.25
249.133	115.25
249.366	137.25
249.599	137.25
249.832	126.25
250.066	127.25
250.299	123.25
250.532	127.25
250.765	144.25
250.998	151.25
251.231	159.25
251.465	128.25
251.698	118.25
251.931	139.25
252.164	142.25
252.397	136.25
252.63	140.25
252.863	143.25
253.096	134.25
253.329	148.25
253.562	153.25
253.795	140.25
254.028	161.25
254.261	146.25
254.494	152.25
254.727	162.25
254.96	179.25
255.193	167.25
255.426	160.25
255.659	153.25
255.892	157.25
256.124	154.25
256.357	159.25
256.59	148.25
256.823	137.25
257.056	129.25
257.289	154.25
257.521	129.25
257.754	145.25
257.987	128.25
258.22	141.25
258.452	147.25
258.685	144.25
258.918	133.25
259.151	140.25
259.383	143.25
259.616	145.25
259.849	143.25
260.081	157.25
260.314	169.25
260.547	158.25
260.779	155.25
261.012	150.25
261.244	146.25
261.477	153.25
261.71	147.25
261.942	147.25
262.175	161.25
262.407	158.25
262.64	147.25
262.872	152.25
263.105	142.25
263.337	147.25
263.57	138.25
263.802	138.25
264.035	150.25
264.267	153.25
264.499	136.25
264.732	128.25
264.964	140.25
265.197	143.25
265.429	134.25
265.661	150.25
265.894	139.25
266.126	147.25
266.358	151.25
266.591	147.25
266.823	142.25
267.055	139.25
267.287	145.25
267.52	154.25
267.752	157.25
267.984	136.25
268.216	141.25
268.448	154.25
268.681	159.25
268.913	158.25
269.145	155.25
269.377	176.25
269.609	187.25
269.841	171.25
270.073	197.25
270.306	183.25
270.538	182.25
270.77	197.25
271.002	176.25
271.234	183.25
271.466	188.25
271.698	195.25
271.93	200.25
272.162	178.25
272.394	186.25
272.626	193.25
272.858	176.25
273.09	172.25
273.322	152.25
273.553	161.25
273.785	168.25
274.017	160.25
274.249	169.25
274.481	163.25
274.713	167.25
274.945	178.25
275.176	161.25
275.408	170.25
275.64	163.25
275.872	163.25
276.104	168.25
276.335	170.25
276.567	171.25
276.799	186.25
277.031	197.25
277.262	218.25
277.494	216.25
277.726	186.25
277.957	197.25
278.189	185.25
278.421	169.25
278.652	170.25
278.884	167.25
279.115	156.25
279.347	153.25
279.579	175.25
279.81	176.25
280.042	156.25
280.273	175.25
280.505	167.25
280.736	158.25
280.968	167.25
281.199	162.25
281.431	163.25
281.662	157.25
281.894	158.25
282.125	163.25
282.356	193.25
282.588	189.25
282.819	185.25
283.051	185.25
283.282	171.25
283.513	169.25
283.745	161.25
283.976	160.25
284.207	176.25
284.439	170.25
284.67	166.25
284.901	169.25
285.132	167.25
285.364	157.25
285.595	166.25
285.826	159.25
286.057	174.25
286.288	158.25
286.52	168.25
286.751	169.25
286.982	172.25
287.213	181.25
287.444	178.25
287.675	176.25
287.906	199.25
288.138	187.25
288.369	181.25
288.6	187.25
288.831	173.25
289.062	191.25
289.293	164.25
289.524	174.25
289.755	179.25
289.986	176.25
290.217	171.25
290.448	173.25
290.679	169.25
290.91	185.25
291.141	165.25
291.371	195.25
291.602	171.25
291.833	171.25
292.064	180.25
292.295	181.25
292.526	175.25
292.757	183.25
292.987	194.25
293.218	184.25
293.449	185.25
293.68	175.25
293.91	166.25
294.141	191.25
294.372	169.25
294.603	172.25
294.833	177.25
295.064	165.25
295.295	174.25
295.525	182.25
295.756	177.25
295.987	195.25
296.217	200.25
296.448	199.25
296.679	206.25
296.909	176.25
297.14	177.25
297.37	167.25
297.601	182.25
297.831	168.25
298.062	163.25
298.292	198.25
298.523	181.25
298.753	175.25
298.984	185.25
299.214	177.25
299.445	190.25
299.675	199.25
299.905	194.25
300.136	185.25
300.366	173.25
300.597	183.25
300.827	193.25
301.057	201.25
301.288	212.25
301.518	191.25
301.748	189.25
301.979	201.25
302.209	193.25
302.439	193.25
302.669	177.25
302.9	189.25
303.13	187.25
303.36	201.25
303.59	201.25
303.82	199.25
304.051	200.25
304.281	198.25
304.511	199.25
304.741	191.25
304.971	200.25
305.201	177.25
305.431	189.25
305.661	181.25
305.891	181.25
306.121	198.25
306.352	194.25
306.582	199.25
306.812	206.25
307.042	192.25
307.272	193.25
307.502	195.25
307.731	197.25
307.961	201.25
308.191	198.25
308.421	199.25
308.651	194.25
308.881	195.25
309.111	188.25
309.341	194.25
309.571	202.25
309.8	216.25
310.03	207.25
310.26	227.25
310.49	223.25
310.72	237.25
310.949	222.25
311.179	253.25
311.409	226.25
311.639	218.25
311.868	229.25
312.098	226.25
312.328	209.25
312.557	229.25
312.787	227.25
313.017	239.25
313.246	237.25
313.476	210.25
313.706	209.25
313.935	220.25
314.165	243.25
314.394	224.25
314.624	229.25
314.853	227.25
315.083	225.25
315.312	222.25
315.542	228.25
315.771	228.25
316.001	198.25
316.23	200.25
316.46	226.25
316.689	222.25
316.919	216.25
317.148	217.25
317.377	219.25
317.607	217.25
317.836	214.25
318.065	201.25
318.295	217.25
318.524	227.25
318.753	216.25
318.983	242.25
319.212	212.25
319.441	226.25
319.67	226.25
319.9	233.25
320.129	212.25
320.358	220.25
320.587	221.25
320.816	215.25
321.046	229.25
321.275	221.25
321.504	223.25
321.733	224.25
321.962	214.25
322.191	234.25
322.42	255.25
322.649	241.25
322.878	243.25
323.108	251.25
323.337	274.25
323.566	296.25
323.795	299.25
324.024	324.25
324.253	390.25
324.482	567.25
324.71	814.25
324.939	1094.25
325.168	910.25
325.397	480.25
325.626	330.25
325.855	286.25
326.084	280.25
326.313	247.25
326.542	271.25
326.77	293.25
326.999	374.25
327.228	497.25
327.457	737.25
327.686	814.25
327.914	539.25
328.143	373.25
328.372	346.25
328.6	323.25
328.829	318.25
329.058	325.25
329.287	329.25
329.515	319.25
329.744	303.25
329.972	280.25
330.201	309.25
330.43	333.25
330.658	334.25
330.887	368.25
331.115	346.25
331.344	315.25
331.572	281.25
331.801	282.25
332.03	276.25
332.258	263.25
332.486	262.25
332.715	265.25
332.943	248.25
333.172	262.25
333.4	266.25
333.629	282.25
333.857	266.25
334.085	273.25
334.314	296.25
334.542	331.25
334.771	331.25
334.999	302.25
335.227	273.25
335.455	240.25
335.684	285.25
335.912	236.25
336.14	258.25
336.369	255.25
336.597	232.25
336.825	237.25
337.053	237.25
337.281	248.25
337.51	253.25
337.738	249.25
337.966	241.25
338.194	252.25
338.422	251.25
338.65	252.25
338.878	241.25
339.106	239.25
339.334	232.25
339.562	233.25
339.79	235.25
340.018	224.25
340.246	226.25
340.474	249.25
340.702	245.25
340.93	231.25
341.158	219.25
341.386	235.25
341.614	250.25
341.842	239.25
342.07	242.25
342.298	239.25
342.526	220.25
342.754	224.25
342.981	232.25
343.209	240.25
343.437	227.25
343.665	240.25
343.893	237.25
344.12	246.25
344.348	237.25
344.576	242.25
344.804	260.25
345.031	245.25
345.259	254.25
345.487	242.25
345.714	239.25
345.942	240.25
346.17	233.25
346.397	224.25
346.625	231.25
346.853	231.25
347.08	224.25
347.308	243.25
347.535	227.25
347.763	251.25
347.99	249.25
348.218	249.25
348.445	248.25
348.673	261.25
348.9	236.25
349.128	217.25
349.355	214.25
349.583	232.25
349.81	221.25
350.037	240.25
350.265	223.25
350.492	214.25
350.72	225.25
350.947	212.25
351.174	237.25
351.402	234.25
351.629	233.25
351.856	250.25
352.083	245.25
352.311	231.25
352.538	241.25
352.765	245.25
352.992	247.25
353.22	234.25
353.447	227.25
353.674	224.25
353.901	204.25
354.128	197.25
354.355	211.25
354.583	224.25
354.81	218.25
355.037	230.25
355.264	221.25
355.491	203.25
355.718	211.25
355.945	221.25
356.172	227.25
356.399	202.25
356.626	214.25
356.853	222.25
357.08	222.25
357.307	212.25
357.534	217.25
357.761	223.25
357.988	229.25
358.215	219.25
358.441	214.25
358.668	215.25
358.895	215.25
359.122	211.25
359.349	210.25
359.576	233.25
359.802	247.25
360.029	266.25
360.256	298.25
360.483	238.25
360.709	227.25
360.936	239.25
361.163	232.25
361.39	232.25
361.616	233.25
361.843	224.25
362.07	248.25
362.296	238.25
362.523	225.25
362.749	231.25
362.976	224.25
363.203	238.25
363.429	223.25
363.656	226.25
363.882	223.25
364.109	233.25
364.335	221.25
364.562	204.25
364.788	223.25
365.015	232.25
365.241	210.25
365.468	229.25
365.694	225.25
365.92	217.25
366.147	218.25
366.373	218.25
366.599	215.25
366.826	218.25
367.052	214.25
367.278	212.25
367.505	225.25
367.731	222.25
367.957	221.25
368.184	229.25
368.41	223.25
368.636	234.25
368.862	216.25
369.089	217.25
369.315	230.25
369.541	221.25
369.767	202.25
369.993	217.25
370.219	220.25
370.445	208.25
370.672	201.25
370.898	214.25
371.124	215.25
371.35	220.25
371.576	231.25
371.802	212.25
372.028	216.25
372.254	220.25
372.48	216.25
372.706	216.25
372.932	191.25
373.158	221.25
373.384	235.25
373.61	204.25
373.835	209.25
374.061	205.25
374.287	224.25
374.513	232.25
374.739	217.25
374.965	217.25
375.191	216.25
375.416	212.25
375.642	209.25
375.868	187.25
376.094	216.25
376.319	216.25
376.545	206.25
376.771	216.25
376.997	220.25
377.222	216.25
377.448	215.25
377.674	215.25
377.899	235.25
378.125	228.25
378.35	208.25
378.576	210.25
378.802	202.25
379.027	213.25
379.253	223.25
379.478	223.25
379.704	204.25
379.929	217.25
380.155	216.25
380.38	209.25
380.606	216.25
380.831	211.25
381.057	218.25
381.282	209.25
381.507	215.25
381.733	225.25
381.958	221.25
382.184	223.25
382.409	220.25
382.634	211.25
382.86	222.25
383.085	230.25
383.31	243.25
383.535	231.25
383.761	218.25
383.986	218.25
384.211	230.25
384.436	226.25
384.662	219.25
384.887	219.25
385.112	229.25
385.337	217.25
385.562	232.25
385.787	229.25
386.013	251.25
386.238	250.25
386.463	237.25
386.688	226.25
386.913	224.25
387.138	220.25
387.363	224.25
387.588	231.25
387.813	241.25
388.038	232.25
388.263	214.25
388.488	232.25
388.713	226.25
388.938	237.25
389.163	246.25
389.387	233.25
389.612	227.25
389.837	239.25
390.062	233.25
390.287	225.25
390.512	233.25
390.736	235.25
390.961	227.25
391.186	229.25
391.411	219.25
391.636	237.25
391.86	236.25
392.085	233.25
392.31	237.25
392.534	214.25
392.759	230.25
392.984	220.25
393.208	245.25
393.433	249.25
393.658	248.25
393.882	250.25
394.107	231.25
394.331	228.25
394.556	210.25
394.78	226.25
395.005	245.25
395.229	229.25
395.454	242.25
395.678	240.25
395.903	241.25
396.127	257.25
396.352	261.25
396.576	248.25
396.801	236.25
397.025	242.25
397.249	240.25
397.474	248.25
397.698	239.25
397.922	252.25
398.147	263.25
398.371	251.25
398.595	262.25
398.82	265.25
399.044	249.25
399.268	279.25
399.492	290.25
399.717	293.25
399.941	295.25
400.165	313.25
400.389	322.25
400.613	293.25
400.837	272.25
401.062	274.25
401.286	255.25
401.51	268.25
401.734	265.25
401.958	269.25
402.182	258.25
402.406	287.25
402.63	272.25
402.854	265.25
403.078	283.25
403.302	279.25
403.526	254.25
403.75	290.25
403.974	263.25
404.198	263.25
404.422	280.25
404.645	281.25
404.869	278.25
405.093	303.25
405.317	308.25
405.541	325.25
405.765	308.25
405.988	273.25
406.212	274.25
406.436	298.25
406.66	307.25
406.883	295.25
407.107	285.25
407.331	317.25
407.555	331.25
407.778	341.25
408.002	304.25
408.226	302.25
408.449	284.25
408.673	291.25
408.896	308.25
409.12	316.25
409.344	309.25
409.567	303.25
409.791	273.25
410.014	272.25
410.238	283.25
410.461	275.25
410.685	272.25
410.908	272.25
411.132	295.25
411.355	311.25
411.578	288.25
411.802	265.25
412.025	281.25
412.249	276.25
412.472	302.25
412.695	295.25
412.919	286.25
413.142	267.25
413.365	283.25
413.589	259.25
413.812	242.25
414.035	250.25
414.258	249.25
414.482	259.25
414.705	245.25
414.928	269.25
415.151	279.25
415.374	251.25
415.597	247.25
415.821	242.25
416.044	251.25
416.267	265.25
416.49	278.25
416.713	272.25
416.936	247.25
417.159	250.25
417.382	261.25
417.605	269.25
417.828	284.25
418.051	279.25
418.274	270.25
418.497	274.25
418.72	262.25
418.943	272.25
419.166	267.25
419.389	260.25
419.611	265.25
419.834	270.25
420.057	268.25
420.28	275.25
420.503	271.25
420.726	265.25
420.948	282.25
421.171	275.25
421.394	294.25
421.617	288.25
421.839	283.25
422.062	289.25
422.285	284.25
422.507	319.25
422.73	337.25
422.953	311.25
423.175	287.25
423.398	280.25
423.621	295.25
423.843	258.25
424.066	290.25
424.288	288.25
424.511	287.25
424.733	331.25
424.956	350.25
425.178	340.25
425.401	339.25
425.623	336.25
425.846	292.25
426.068	288.25
426.291	281.25
426.513	290.25
426.735	287.25
426.958	317.25
427.18	353.25
427.402	416.25
427.625	438.25
427.847	404.25
428.069	339.25
428.292	301.25
428.514	285.25
428.736	266.25
428.958	269.25
429.181	270.25
429.403	266.25
429.625	273.25
429.847	282.25
430.069	313.25
430.292	323.25
430.514	257.25
430.736	262.25
430.958	273.25
431.18	241.25
431.402	251.25
431.624	256.25
431.846	248.25
432.068	250.25
432.29	271.25
432.512	253.25
432.734	261.25
432.956	267.25
433.178	259.25
433.4	253.25
433.622	255.25
433.844	259.25
434.066	263.25
434.287	266.25
434.509	270.25
434.731	258.25
434.953	280.25
435.175	267.25
435.397	293.25
435.618	285.25
435.84	306.25
436.062	360.25
436.284	385.25
436.505	305.25
436.727	284.25
436.949	269.25
437.17	264.25
437.392	272.25
437.614	291.25
437.835	279.25
438.057	333.25
438.278	379.25
438.5	379.25
438.721	393.25
438.943	360.25
439.165	293.25
439.386	292.25
439.608	299.25
439.829	289.25
440.05	330.25
440.272	323.25
440.493	313.25
440.715	272.25
440.936	269.25
441.158	267.25
441.379	273.25
441.6	276.25
441.822	269.25
442.043	324.25
442.264	349.25
442.486	359.25
442.707	325.25
442.928	295.25
443.149	297.25
443.371	323.25
443.592	327.25
443.813	340.25
444.034	372.25
444.255	331.25
444.476	293.25
444.698	289.25
444.919	284.25
445.14	383.25
445.361	359.25
445.582	306.25
445.803	340.25
446.024	389.25
446.245	369.25
446.466	336.25
446.687	319.25
446.908	285.25
447.129	282.25
447.35	271.25
447.571	274.25
447.792	275.25
448.013	250.25
448.234	267.25
448.455	315.25
448.675	360.25
448.896	407.25
449.117	338.25
449.338	326.25
449.559	379.25
449.779	411.25
450	340.25
450.221	283.25
450.442	273.25
450.662	278.25
450.883	269.25
451.104	286.25
451.324	283.25
451.545	264.25
451.766	227.25
451.986	239.25
452.207	237.25
452.428	264.25
452.648	255.25
452.869	250.25
453.089	266.25
453.31	266.25
453.53	266.25
453.751	238.25
453.971	253.25
454.192	260.25
454.412	249.25
454.633	252.25
454.853	257.25
455.073	234.25
455.294	245.25
455.514	285.25
455.734	279.25
455.955	242.25
456.175	242.25
456.395	230.25
456.616	211.25
456.836	247.25
457.056	235.25
457.276	220.25
457.497	224.25
457.717	226.25
457.937	230.25
458.157	245.25
458.377	228.25
458.598	261.25
458.818	282.25
459.038	349.25
459.258	322.25
459.478	274.25
459.698	256.25
459.918	257.25
460.138	258.25
460.358	250.25
460.578	249.25
460.798	257.25
461.018	258.25
461.238	258.25
461.458	254.25
461.678	241.25
461.898	251.25
462.118	255.25
462.338	250.25
462.558	265.25
462.777	275.25
462.997	285.25
463.217	282.25
463.437	251.25
463.657	269.25
463.876	293.25
464.096	265.25
464.316	252.25
464.536	291.25
464.755	266.25
464.975	279.25
465.195	307.25
465.414	358.25
465.634	313.25
465.854	265.25
466.073	265.25
466.293	249.25
466.512	275.25
466.732	252.25
466.951	239.25
467.171	226.25
467.391	262.25
467.61	259.25
467.829	271.25
468.049	280.25
468.268	283.25
468.488	259.25
468.707	243.25
468.927	255.25
469.146	237.25
469.365	241.25
469.585	234.25
469.804	257.25
470.023	259.25
470.243	252.25
470.462	254.25
470.681	283.25
470.901	263.25
471.12	249.25
471.339	281.25
471.558	266.25
471.777	255.25
471.997	237.25
472.216	277.25
472.435	294.25
472.654	283.25
472.873	253.25
473.092	269.25
473.311	238.25
473.53	243.25
473.749	263.25
473.968	283.25
474.187	322.25
474.406	330.25
474.625	251.25
474.844	275.25
475.063	253.25
475.282	263.25
475.501	267.25
475.72	251.25
475.939	261.25
476.158	261.25
476.377	235.25
476.596	264.25
476.814	265.25
477.033	257.25
477.252	266.25
477.471	275.25
477.69	267.25
477.908	266.25
478.127	279.25
478.346	258.25
478.564	270.25
478.783	271.25
479.002	285.25
479.22	287.25
479.439	301.25
479.658	313.25
479.876	284.25
480.095	309.25
480.313	317.25
480.532	301.25
480.751	304.25
480.969	316.25
481.188	381.25
481.406	421.25
481.624	341.25
481.843	300.25
482.061	296.25
482.28	274.25
482.498	291.25
482.717	289.25
482.935	296.25
483.153	289.25
483.372	302.25
483.59	298.25
483.808	282.25
484.027	292.25
484.245	288.25
484.463	300.25
484.681	302.25
484.9	303.25
485.118	277.25
485.336	290.25
485.554	283.25
485.772	291.25
485.99	300.25
486.209	303.25
486.427	287.25
486.645	300.25
486.863	332.25
487.081	311.25
487.299	335.25
487.517	300.25
487.735	311.25
487.953	318.25
488.171	321.25
488.389	301.25
488.607	301.25
488.825	298.25
489.043	313.25
489.261	307.25
489.479	313.25
489.696	310.25
489.914	315.25
490.132	311.25
490.35	322.25
490.568	320.25
490.786	330.25
491.003	340.25
491.221	343.25
491.439	355.25
491.657	360.25
491.874	360.25
492.092	369.25
492.31	373.25
492.527	379.25
492.745	367.25
492.963	359.25
493.18	379.25
493.398	376.25
493.615	368.25
493.833	377.25
494.05	375.25
494.268	382.25
494.485	346.25
494.703	377.25
494.92	369.25
495.138	370.25
495.355	354.25
495.573	399.25
495.79	365.25
496.008	363.25
496.225	345.25
496.442	359.25
496.66	357.25
496.877	351.25
497.094	356.25
497.312	348.25
497.529	362.25
497.746	363.25
497.963	359.25
498.181	388.25
498.398	383.25
498.615	399.25
498.832	400.25
499.049	395.25
499.267	403.25
499.484	416.25
499.701	424.25
499.918	438.25
500.135	458.25
500.352	465.25
500.569	480.25
500.786	488.25
501.003	468.25
501.22	464.25
501.437	461.25
501.654	460.25
501.871	455.25
502.088	412.25
502.305	387.25
502.522	370.25
502.739	379.25
502.956	362.25
503.172	367.25
503.389	367.25
503.606	366.25
503.823	357.25
504.04	374.25
504.256	370.25
504.473	357.25
504.69	341.25
504.907	359.25
505.123	349.25
505.34	352.25
505.557	348.25
505.773	342.25
505.99	354.25
506.207	329.25
506.423	343.25
506.64	337.25
506.856	325.25
507.073	343.25
507.289	322.25
507.506	330.25
507.722	348.25
507.939	366.25
508.155	334.25
508.372	327.25
508.588	323.25
508.805	343.25
509.021	337.25
509.238	337.25
509.454	362.25
509.67	351.25
509.887	313.25
510.103	344.25
510.319	339.25
510.536	437.25
510.752	827.25
510.968	621.25
511.184	349.25
511.401	320.25
511.617	322.25
511.833	312.25
512.049	300.25
512.265	314.25
512.481	304.25
512.698	310.25
512.914	297.25
513.13	305.25
513.346	294.25
513.562	320.25
513.778	311.25
513.994	325.25
514.21	328.25
514.426	342.25
514.642	358.25
514.858	376.25
515.074	413.25
515.29	537.25
515.506	907.25
515.721	679.25
515.937	419.25
516.153	380.25
516.369	343.25
516.585	334.25
516.801	313.25
517.016	311.25
517.232	318.25
517.448	329.25
517.664	329.25
517.879	333.25
518.095	320.25
518.311	304.25
518.527	310.25
518.742	302.25
518.958	306.25
519.173	313.25
519.389	315.25
519.605	326.25
519.82	314.25
520.036	335.25
520.251	329.25
520.467	351.25
520.682	339.25
520.898	356.25
521.113	372.25
521.329	408.25
521.544	473.25
521.76	660.25
521.975	1211.25
522.19	1189.25
522.406	563.25
522.621	384.25
522.836	321.25
523.052	326.25
523.267	302.25
523.482	289.25
523.698	293.25
523.913	305.25
524.128	296.25
524.343	275.25
524.559	286.25
524.774	277.25
524.989	260.25
525.204	277.25
525.419	294.25
525.634	261.25
525.849	262.25
526.064	248.25
526.28	266.25
526.495	261.25
526.71	252.25
526.925	248.25
527.14	271.25
527.355	241.25
527.57	243.25
527.785	268.25
527.999	255.25
528.214	261.25
528.429	253.25
528.644	262.25
528.859	240.25
529.074	267.25
529.289	271.25
529.503	353.25
529.718	331.25
529.933	284.25
530.148	263.25
530.363	263.25
530.577	249.25
530.792	258.25
531.007	240.25
531.221	236.25
531.436	240.25
531.651	249.25
531.865	253.25
532.08	253.25
532.295	241.25
532.509	240.25
532.724	247.25
532.938	221.25
533.153	236.25
533.367	248.25
533.582	238.25
533.796	255.25
534.011	246.25
534.225	246.25
534.44	239.25
534.654	228.25
534.868	232.25
535.083	257.25
535.297	257.25
535.511	230.25
535.726	247.25
535.94	282.25
536.154	271.25
536.369	247.25
536.583	238.25
536.797	248.25
537.011	253.25
537.225	238.25
537.44	242.25
537.654	234.25
537.868	225.25
538.082	243.25
538.296	225.25
538.51	228.25
538.724	247.25
538.938	240.25
539.153	251.25
539.367	259.25
539.581	264.25
539.795	265.25
540.009	249.25
540.222	250.25
540.436	233.25
540.65	241.25
540.864	238.25
541.078	238.25
541.292	246.25
541.506	229.25
541.72	259.25
541.934	259.25
542.147	252.25
542.361	241.25
542.575	255.25
542.789	232.25
543.002	242.25
543.216	253.25
543.43	236.25
543.644	243.25
543.857	246.25
544.071	241.25
544.285	255.25
544.498	224.25
544.712	232.25
544.925	257.25
545.139	221.25
545.352	230.25
545.566	239.25
545.779	245.25
545.993	245.25
546.206	237.25
546.42	241.25
546.633	234.25
546.847	233.25
547.06	238.25
547.274	243.25
547.487	240.25
547.7	241.25
547.914	230.25
548.127	220.25
548.34	229.25
548.554	236.25
548.767	234.25
548.98	220.25
549.193	219.25
549.407	241.25
549.62	238.25
549.833	217.25
550.046	239.25
550.259	233.25
550.473	226.25
550.686	233.25
550.899	227.25
551.112	239.25
551.325	216.25
551.538	235.25
551.751	231.25
551.964	223.25
552.177	231.25
552.39	225.25
552.603	232.25
552.816	223.25
553.029	223.25
553.242	225.25
553.455	225.25
553.667	233.25
553.88	258.25
554.093	240.25
554.306	232.25
554.519	222.25
554.732	257.25
554.944	220.25
555.157	217.25
555.37	221.25
555.583	223.25
555.795	220.25
556.008	226.25
556.221	218.25
556.433	225.25
556.646	219.25
556.859	216.25
557.071	213.25
557.284	218.25
557.496	217.25
557.709	208.25
557.921	215.25
558.134	211.25
558.346	194.25
558.559	204.25
558.771	202.25
558.984	204.25
559.196	213.25
559.409	184.25
559.621	206.25
559.833	192.25
560.046	212.25
560.258	199.25
560.47	210.25
560.683	221.25
560.895	214.25
561.107	183.25
561.32	206.25
561.532	207.25
561.744	216.25
561.956	205.25
562.168	228.25
562.381	213.25
562.593	212.25
562.805	211.25
563.017	227.25
563.229	213.25
563.441	216.25
563.653	201.25
563.865	206.25
564.077	211.25
564.289	218.25
564.501	210.25
564.713	217.25
564.925	224.25
565.137	217.25
565.349	214.25
565.561	213.25
565.773	214.25
565.985	208.25
566.197	227.25
566.408	226.25
566.62	236.25
566.832	223.25
567.044	234.25
567.255	237.25
567.467	242.25
567.679	237.25
567.891	249.25
568.102	264.25
568.314	250.25
568.526	231.25
568.737	229.25
568.949	226.25
569.161	232.25
569.372	209.25
569.584	211.25
569.795	207.25
570.007	216.25
570.218	246.25
570.43	231.25
570.641	201.25
570.853	209.25
571.064	199.25
571.276	191.25
571.487	194.25
571.698	194.25
571.91	206.25
572.121	181.25
572.333	194.25
572.544	182.25
572.755	183.25
572.966	185.25
573.178	178.25
573.389	167.25
573.6	185.25
573.811	201.25
574.023	173.25
574.234	191.25
574.445	199.25
574.656	173.25
574.867	206.25
575.078	195.25
575.289	191.25
575.501	191.25
575.712	175.25
575.923	162.25
576.134	167.25
576.345	193.25
576.556	179.25
576.767	188.25
576.978	184.25
577.188	183.25
577.399	182.25
577.61	178.25
577.821	179.25
578.032	178.25
578.243	219.25
578.454	426.25
578.665	276.25
578.875	208.25
579.086	169.25
579.297	180.25
579.508	180.25
579.718	192.25
579.929	182.25
580.14	162.25
580.35	181.25
580.561	173.25
580.772	189.25
580.982	176.25
581.193	174.25
581.403	165.25
581.614	177.25
581.825	181.25
582.035	173.25
582.246	166.25
582.456	168.25
582.667	176.25
582.877	167.25
583.087	151.25
583.298	166.25
583.508	178.25
583.719	166.25
583.929	173.25
584.139	182.25
584.35	149.25
584.56	174.25
584.77	185.25
584.981	176.25
585.191	164.25
585.401	167.25
585.611	173.25
585.821	177.25
586.032	192.25
586.242	166.25
586.452	157.25
586.662	171.25
586.872	167.25
587.082	160.25
587.292	170.25
587.502	165.25
587.713	157.25
587.923	166.25
588.133	176.25
588.343	175.25
588.553	159.25
588.762	175.25
588.972	165.25
589.182	168.25
589.392	178.25
589.602	165.25
589.812	171.25
590.022	169.25
590.232	162.25
590.441	162.25
590.651	166.25
590.861	183.25
591.071	157.25
591.281	161.25
591.49	167.25
591.7	163.25
591.91	166.25
592.119	178.25
592.329	163.25
592.539	162.25
592.748	178.25
592.958	169.25
593.167	173.25
593.377	166.25
593.587	167.25
593.796	171.25
594.006	157.25
594.215	167.25
594.424	179.25
594.634	185.25
594.843	174.25
595.053	170.25
595.262	173.25
595.472	182.25
595.681	168.25
595.89	152.25
596.1	156.25
596.309	154.25
596.518	167.25
596.727	165.25
596.937	167.25
597.146	165.25
597.355	158.25
597.564	148.25
597.774	173.25
597.983	159.25
598.192	156.25
598.401	171.25
598.61	153.25
598.819	161.25
599.028	178.25
599.237	160.25
599.446	149.25
599.655	169.25
599.864	166.25
600.073	171.25
600.282	154.25
600.491	152.25
600.7	156.25
600.909	147.25
601.118	132.25
601.327	151.25
601.536	147.25
601.745	143.25
601.953	150.25
602.162	146.25
602.371	145.25
602.58	154.25
602.789	158.25
602.997	160.25
603.206	157.25
603.415	146.25
603.623	138.25
603.832	152.25
604.041	165.25
604.249	149.25
604.458	158.25
604.666	142.25
604.875	157.25
605.084	143.25
605.292	145.25
605.501	155.25
605.709	157.25
605.918	138.25
606.126	151.25
606.334	151.25
606.543	143.25
606.751	167.25
606.96	161.25
607.168	144.25
607.376	148.25
607.585	139.25
607.793	137.25
608.001	157.25
608.21	157.25
608.418	160.25
608.626	165.25
608.834	136.25
609.043	155.25
609.251	144.25
609.459	147.25
609.667	135.25
609.875	155.25
610.083	147.25
610.291	158.25
610.499	165.25
610.707	155.25
610.916	155.25
611.124	154.25
611.332	155.25
611.54	153.25
611.748	147.25
611.955	148.25
612.163	161.25
612.371	160.25
612.579	146.25
612.787	151.25
612.995	151.25
613.203	149.25
613.411	139.25
613.618	161.25
613.826	156.25
614.034	146.25
614.242	145.25
614.449	141.25
614.657	141.25
614.865	160.25
615.072	157.25
615.28	156.25
615.488	147.25
615.695	139.25
615.903	147.25
616.111	140.25
616.318	159.25
616.526	152.25
616.733	160.25
616.941	155.25
617.148	154.25
617.356	150.25
617.563	146.25
617.771	138.25
617.978	134.25
618.185	147.25
618.393	147.25
618.6	141.25
618.807	151.25
619.015	147.25
619.222	137.25
619.429	138.25
619.637	145.25
619.844	141.25
620.051	157.25
620.258	151.25
620.466	139.25
620.673	140.25
620.88	153.25
621.087	137.25
621.294	146.25
621.501	134.25
621.708	142.25
621.915	160.25
622.122	132.25
622.329	128.25
622.536	151.25
622.743	146.25
622.95	141.25
623.157	142.25
623.364	135.25
623.571	143.25
623.778	115.25
623.985	141.25
624.192	129.25
624.399	138.25
624.606	137.25
624.812	135.25
625.019	142.25
625.226	129.25
625.433	139.25
625.639	142.25
625.846	150.25
626.053	143.25
626.259	125.25
626.466	135.25
626.673	130.25
626.879	141.25
627.086	124.25
627.293	154.25
627.499	138.25
627.706	136.25
627.912	136.25
628.119	134.25
628.325	130.25
628.532	132.25
628.738	133.25
628.945	136.25
629.151	131.25
629.357	129.25
629.564	128.25
629.77	135.25
629.976	129.25
630.183	132.25
630.389	120.25
630.595	120.25
630.802	141.25
631.008	137.25
631.214	136.25
631.42	128.25
631.627	130.25
631.833	123.25
632.039	110.25
632.245	123.25
632.451	133.25
632.657	138.25
632.863	133.25
633.069	121.25
633.275	127.25
633.481	131.25
633.688	134.25
633.893	132.25
634.099	131.25
634.305	137.25
634.511	129.25
634.717	125.25
634.923	132.25
635.129	113.25
635.335	114.25
635.541	120.25
635.747	126.25
635.952	134.25
636.158	115.25
636.364	125.25
636.57	117.25
636.775	135.25
636.981	134.25
637.187	135.25
637.392	138.25
637.598	131.25
637.804	112.25
638.009	118.25
638.215	107.25
638.421	128.25
638.626	122.25
638.832	121.25
639.037	132.25
639.243	126.25
639.448	131.25
639.654	125.25
639.859	127.25
640.065	119.25
640.27	115.25
640.475	122.25
640.681	109.25
640.886	123.25
641.091	111.25
641.297	126.25
641.502	125.25
641.707	122.25
641.913	128.25
642.118	123.25
642.323	125.25
642.528	122.25
642.733	119.25
642.939	115.25
643.144	112.25
643.349	119.25
643.554	129.25
643.759	131.25
643.964	99.25
644.169	118.25
644.374	117.25
644.579	129.25
644.784	121.25
644.989	123.25
645.194	113.25
645.399	125.25
645.604	122.25
645.809	114.25
646.014	129.25
646.219	119.25
646.423	125.25
646.628	122.25
646.833	135.25
647.038	133.25
647.243	128.25
647.447	113.25
647.652	120.25
647.857	113.25
648.062	114.25
648.266	121.25
648.471	119.25
648.676	130.25
648.88	128.25
649.085	134.25
649.289	118.25
649.494	115.25
649.698	134.25
649.903	115.25
650.107	121.25
650.312	126.25
650.516	119.25
650.721	119.25
650.925	113.25
651.13	103.25
651.334	115.25
651.539	109.25
651.743	111.25
651.947	102.25
652.152	94.25
652.356	103.25
652.56	105.25
652.764	120.25
652.969	121.25
653.173	105.25
653.377	101.25
653.581	106.25
653.785	98.25
653.99	98.25
654.194	129.25
654.398	122.25
654.602	110.25
654.806	112.25
655.01	104.25
655.214	110.25
655.418	114.25
655.622	115.25
655.826	114.25
656.03	113.25
656.234	111.25
656.438	125.25
656.642	123.25
656.846	96.25
657.049	119.25
657.253	127.25
657.457	106.25
657.661	106.25
657.865	109.25
658.068	94.25
658.272	86.25
658.476	85.25
658.68	122.25
658.883	99.25
659.087	92.25
659.291	96.25
659.494	93.25
659.698	93.25
659.901	86.25
660.105	100.25
660.309	80.25
660.512	82.25
660.716	85.25
660.919	80.25
661.123	87.25
661.326	87.25
661.53	112.25
661.733	83.25
661.936	91.25
662.14	86.25
662.343	89.25
662.546	87.25
662.75	72.25
662.953	99.25
663.156	71.25
663.36	83.25
663.563	91.25
663.766	95.25
663.969	75.25
664.173	92.25
664.376	98.25
664.579	97.25
664.782	107.25
664.985	85.25
665.188	83.25
665.391	93.25
665.594	74.25
665.797	73.25
666	79.25
666.203	82.25
666.406	73.25
666.609	87.25
666.812	91.25
667.015	86.25
667.218	89.25
667.421	82.25
667.624	77.25
667.827	90.25
668.03	75.25
668.232	73.25
668.435	75.25
668.638	87.25
668.841	91.25
669.043	89.25
669.246	94.25
669.449	84.25
669.651	89.25
669.854	82.25
670.057	87.25
670.259	83.25
670.462	88.25
670.665	85.25
670.867	70.25
671.07	82.25
671.272	75.25
671.475	86.25
671.677	90.25
671.88	76.25
672.082	75.25
672.284	78.25
672.487	90.25
672.689	87.25
672.892	85.25
