Data from 1966.PennyLincolnUp.Lamp.En5.5.200Scan.071719.P1.Scan2.head_HRD10591_14-17-02-076.txt Node
Date: Thu Jul 18 14:17:02 EDT 2019
User: cochatt
Spectrometer: HR+D1059
Trigger mode: 1
Integration Time (sec): 1.000000E-1
Scans to average: 1
Electric dark correction enabled: true
Nonlinearity correction enabled: false
Boxcar width: 0
XAxis mode: Wavelengths
Number of Pixels in Spectrum: 2048
>>>>>Begin Spectral Data<<<<<
223.165	-22.81
223.4	-22.81
223.635	-22.81
223.869	-32.81
224.104	-17.81
224.338	-14.81
224.573	-12.81
224.808	5.19
225.042	0.19
225.277	-5.81
225.511	-7.81
225.746	6.19
225.98	14.19
226.215	9.19
226.449	17.19
226.683	10.19
226.918	35.19
227.152	17.19
227.387	25.19
227.621	38.19
227.856	35.19
228.09	46.19
228.324	37.19
228.559	58.19
228.793	57.19
229.027	104.19
229.262	97.19
229.496	99.19
229.73	122.19
229.964	144.19
230.199	109.19
230.433	105.19
230.667	114.19
230.901	99.19
231.136	102.19
231.37	101.19
231.604	105.19
231.838	106.19
232.072	125.19
232.306	97.19
232.541	103.19
232.775	113.19
233.009	111.19
233.243	104.19
233.477	109.19
233.711	114.19
233.945	104.19
234.179	98.19
234.413	113.19
234.647	114.19
234.881	99.19
235.115	117.19
235.349	121.19
235.583	116.19
235.817	112.19
236.051	122.19
236.285	119.19
236.519	102.19
236.753	118.19
236.987	136.19
237.221	170.19
237.455	231.19
237.689	186.19
237.922	126.19
238.156	132.19
238.39	115.19
238.624	114.19
238.858	123.19
239.091	121.19
239.325	110.19
239.559	105.19
239.793	137.19
240.027	126.19
240.26	149.19
240.494	153.19
240.728	133.19
240.961	138.19
241.195	139.19
241.429	137.19
241.662	140.19
241.896	130.19
242.13	140.19
242.363	129.19
242.597	133.19
242.83	129.19
243.064	123.19
243.298	133.19
243.531	131.19
243.765	132.19
243.998	140.19
244.232	141.19
244.465	142.19
244.699	131.19
244.932	147.19
245.166	140.19
245.399	154.19
245.633	145.19
245.866	130.19
246.099	150.19
246.333	136.19
246.566	152.19
246.8	132.19
247.033	160.19
247.266	157.19
247.5	143.19
247.733	156.19
247.966	159.19
248.2	158.19
248.433	174.19
248.666	153.19
248.899	178.19
249.133	193.19
249.366	212.19
249.599	186.19
249.832	186.19
250.066	169.19
250.299	163.19
250.532	181.19
250.765	195.19
250.998	204.19
251.231	211.19
251.465	210.19
251.698	183.19
251.931	184.19
252.164	182.19
252.397	175.19
252.63	173.19
252.863	199.19
253.096	215.19
253.329	210.19
253.562	218.19
253.795	198.19
254.028	198.19
254.261	218.19
254.494	216.19
254.727	241.19
254.96	260.19
255.193	240.19
255.426	210.19
255.659	223.19
255.892	224.19
256.124	206.19
256.357	225.19
256.59	223.19
256.823	202.19
257.056	223.19
257.289	199.19
257.521	218.19
257.754	181.19
257.987	202.19
258.22	189.19
258.452	191.19
258.685	186.19
258.918	196.19
259.151	193.19
259.383	201.19
259.616	218.19
259.849	221.19
260.081	202.19
260.314	220.19
260.547	239.19
260.779	235.19
261.012	203.19
261.244	219.19
261.477	220.19
261.71	215.19
261.942	213.19
262.175	222.19
262.407	203.19
262.64	209.19
262.872	217.19
263.105	204.19
263.337	197.19
263.57	187.19
263.802	205.19
264.035	211.19
264.267	190.19
264.499	206.19
264.732	214.19
264.964	202.19
265.197	201.19
265.429	207.19
265.661	202.19
265.894	198.19
266.126	206.19
266.358	219.19
266.591	212.19
266.823	220.19
267.055	217.19
267.287	201.19
267.52	209.19
267.752	220.19
267.984	207.19
268.216	218.19
268.448	197.19
268.681	222.19
268.913	228.19
269.145	230.19
269.377	238.19
269.609	259.19
269.841	239.19
270.073	259.19
270.306	286.19
270.538	302.19
270.77	293.19
271.002	290.19
271.234	275.19
271.466	279.19
271.698	290.19
271.93	312.19
272.162	310.19
272.394	287.19
272.626	280.19
272.858	261.19
273.09	266.19
273.322	263.19
273.553	250.19
273.785	263.19
274.017	253.19
274.249	252.19
274.481	240.19
274.713	259.19
274.945	245.19
275.176	241.19
275.408	259.19
275.64	263.19
275.872	249.19
276.104	257.19
276.335	240.19
276.567	259.19
276.799	235.19
277.031	290.19
277.262	274.19
277.494	293.19
277.726	281.19
277.957	281.19
278.189	276.19
278.421	238.19
278.652	265.19
278.884	264.19
279.115	241.19
279.347	252.19
279.579	260.19
279.81	274.19
280.042	263.19
280.273	274.19
280.505	261.19
280.736	260.19
280.968	272.19
281.199	249.19
281.431	257.19
281.662	257.19
281.894	259.19
282.125	265.19
282.356	257.19
282.588	292.19
282.819	291.19
283.051	265.19
283.282	251.19
283.513	251.19
283.745	276.19
283.976	263.19
284.207	267.19
284.439	276.19
284.67	265.19
284.901	291.19
285.132	264.19
285.364	268.19
285.595	268.19
285.826	288.19
286.057	262.19
286.288	274.19
286.52	275.19
286.751	258.19
286.982	272.19
287.213	275.19
287.444	277.19
287.675	278.19
287.906	270.19
288.138	273.19
288.369	288.19
288.6	279.19
288.831	285.19
289.062	282.19
289.293	283.19
289.524	277.19
289.755	285.19
289.986	295.19
290.217	269.19
290.448	279.19
290.679	270.19
290.91	270.19
291.141	270.19
291.371	281.19
291.602	286.19
291.833	267.19
292.064	280.19
292.295	290.19
292.526	287.19
292.757	280.19
292.987	283.19
293.218	278.19
293.449	277.19
293.68	255.19
293.91	286.19
294.141	286.19
294.372	289.19
294.603	280.19
294.833	288.19
295.064	294.19
295.295	290.19
295.525	294.19
295.756	298.19
295.987	306.19
296.217	302.19
296.448	331.19
296.679	303.19
296.909	281.19
297.14	272.19
297.37	286.19
297.601	289.19
297.831	287.19
298.062	302.19
298.292	283.19
298.523	282.19
298.753	287.19
298.984	288.19
299.214	294.19
299.445	306.19
299.675	295.19
299.905	326.19
300.136	298.19
300.366	289.19
300.597	305.19
300.827	322.19
301.057	309.19
301.288	313.19
301.518	336.19
301.748	325.19
301.979	318.19
302.209	314.19
302.439	317.19
302.669	323.19
302.9	312.19
303.13	313.19
303.36	318.19
303.59	333.19
303.82	322.19
304.051	327.19
304.281	319.19
304.511	309.19
304.741	298.19
304.971	308.19
305.201	322.19
305.431	322.19
305.661	312.19
305.891	326.19
306.121	322.19
306.352	321.19
306.582	325.19
306.812	323.19
307.042	297.19
307.272	309.19
307.502	326.19
307.731	337.19
307.961	312.19
308.191	321.19
308.421	326.19
308.651	326.19
308.881	305.19
309.111	338.19
309.341	307.19
309.571	328.19
309.8	337.19
310.03	349.19
310.26	368.19
310.49	345.19
310.72	355.19
310.949	370.19
311.179	360.19
311.409	360.19
311.639	377.19
311.868	356.19
312.098	370.19
312.328	356.19
312.557	366.19
312.787	366.19
313.017	378.19
313.246	362.19
313.476	360.19
313.706	348.19
313.935	366.19
314.165	385.19
314.394	395.19
314.624	391.19
314.853	367.19
315.083	356.19
315.312	349.19
315.542	353.19
315.771	373.19
316.001	355.19
316.23	356.19
316.46	354.19
316.689	363.19
316.919	361.19
317.148	366.19
317.377	381.19
317.607	355.19
317.836	369.19
318.065	377.19
318.295	381.19
318.524	359.19
318.753	345.19
318.983	363.19
319.212	373.19
319.441	383.19
319.67	360.19
319.9	379.19
320.129	367.19
320.358	381.19
320.587	376.19
320.816	366.19
321.046	385.19
321.275	383.19
321.504	374.19
321.733	394.19
321.962	390.19
322.191	403.19
322.42	421.19
322.649	426.19
322.878	415.19
323.108	434.19
323.337	426.19
323.566	448.19
323.795	473.19
324.024	496.19
324.253	559.19
324.482	807.19
324.71	1280.19
324.939	1855.19
325.168	1609.19
325.397	832.19
325.626	593.19
325.855	513.19
326.084	463.19
326.313	439.19
326.542	475.19
326.77	491.19
326.999	576.19
327.228	745.19
327.457	1142.19
327.686	1441.19
327.914	945.19
328.143	615.19
328.372	548.19
328.6	520.19
328.829	515.19
329.058	490.19
329.287	517.19
329.515	490.19
329.744	461.19
329.972	483.19
330.201	499.19
330.43	543.19
330.658	540.19
330.887	551.19
331.115	542.19
331.344	494.19
331.572	463.19
331.801	463.19
332.03	455.19
332.258	443.19
332.486	453.19
332.715	444.19
332.943	430.19
333.172	441.19
333.4	453.19
333.629	445.19
333.857	480.19
334.085	512.19
334.314	499.19
334.542	495.19
334.771	538.19
334.999	496.19
335.227	466.19
335.455	435.19
335.684	445.19
335.912	438.19
336.14	455.19
336.369	439.19
336.597	449.19
336.825	452.19
337.053	442.19
337.281	421.19
337.51	411.19
337.738	441.19
337.966	451.19
338.194	424.19
338.422	449.19
338.65	436.19
338.878	411.19
339.106	432.19
339.334	432.19
339.562	419.19
339.79	420.19
340.018	431.19
340.246	413.19
340.474	427.19
340.702	429.19
340.93	405.19
341.158	421.19
341.386	440.19
341.614	422.19
341.842	433.19
342.07	407.19
342.298	418.19
342.526	408.19
342.754	404.19
342.981	441.19
343.209	418.19
343.437	405.19
343.665	418.19
343.893	439.19
344.12	445.19
344.348	433.19
344.576	449.19
344.804	447.19
345.031	451.19
345.259	431.19
345.487	434.19
345.714	426.19
345.942	412.19
346.17	425.19
346.397	414.19
346.625	437.19
346.853	417.19
347.08	398.19
347.308	405.19
347.535	400.19
347.763	421.19
347.99	404.19
348.218	424.19
348.445	422.19
348.673	420.19
348.9	400.19
349.128	397.19
349.355	395.19
349.583	407.19
349.81	403.19
350.037	414.19
350.265	395.19
350.492	385.19
350.72	393.19
350.947	396.19
351.174	407.19
351.402	425.19
351.629	416.19
351.856	400.19
352.083	420.19
352.311	416.19
352.538	424.19
352.765	431.19
352.992	426.19
353.22	407.19
353.447	407.19
353.674	414.19
353.901	413.19
354.128	381.19
354.355	396.19
354.583	381.19
354.81	385.19
355.037	381.19
355.264	408.19
355.491	387.19
355.718	386.19
355.945	386.19
356.172	404.19
356.399	398.19
356.626	395.19
356.853	387.19
357.08	382.19
357.307	393.19
357.534	396.19
357.761	415.19
357.988	412.19
358.215	366.19
358.441	381.19
358.668	402.19
358.895	403.19
359.122	416.19
359.349	404.19
359.576	415.19
359.802	408.19
360.029	451.19
360.256	458.19
360.483	442.19
360.709	424.19
360.936	437.19
361.163	407.19
361.39	419.19
361.616	422.19
361.843	413.19
362.07	408.19
362.296	436.19
362.523	429.19
362.749	444.19
362.976	413.19
363.203	423.19
363.429	393.19
363.656	396.19
363.882	405.19
364.109	396.19
364.335	393.19
364.562	411.19
364.788	424.19
365.015	431.19
365.241	422.19
365.468	427.19
365.694	442.19
365.92	401.19
366.147	415.19
366.373	403.19
366.599	410.19
366.826	417.19
367.052	408.19
367.278	439.19
367.505	405.19
367.731	417.19
367.957	418.19
368.184	405.19
368.41	424.19
368.636	416.19
368.862	437.19
369.089	425.19
369.315	431.19
369.541	416.19
369.767	411.19
369.993	438.19
370.219	403.19
370.445	405.19
370.672	417.19
370.898	407.19
371.124	405.19
371.35	421.19
371.576	409.19
371.802	423.19
372.028	416.19
372.254	431.19
372.48	409.19
372.706	413.19
372.932	429.19
373.158	431.19
373.384	411.19
373.61	413.19
373.835	408.19
374.061	418.19
374.287	433.19
374.513	449.19
374.739	420.19
374.965	413.19
375.191	423.19
375.416	438.19
375.642	422.19
375.868	429.19
376.094	421.19
376.319	422.19
376.545	408.19
376.771	424.19
376.997	415.19
377.222	427.19
377.448	408.19
377.674	401.19
377.899	395.19
378.125	415.19
378.35	414.19
378.576	413.19
378.802	392.19
379.027	413.19
379.253	414.19
379.478	425.19
379.704	427.19
379.929	406.19
380.155	397.19
380.38	415.19
380.606	433.19
380.831	409.19
381.057	426.19
381.282	399.19
381.507	408.19
381.733	422.19
381.958	427.19
382.184	414.19
382.409	437.19
382.634	412.19
382.86	430.19
383.085	438.19
383.31	440.19
383.535	440.19
383.761	437.19
383.986	437.19
384.211	453.19
384.436	443.19
384.662	445.19
384.887	449.19
385.112	443.19
385.337	461.19
385.562	459.19
385.787	486.19
386.013	454.19
386.238	477.19
386.463	481.19
386.688	459.19
386.913	445.19
387.138	472.19
387.363	456.19
387.588	476.19
387.813	472.19
388.038	470.19
388.263	466.19
388.488	465.19
388.713	467.19
388.938	472.19
389.163	486.19
389.387	489.19
389.612	493.19
389.837	472.19
390.062	455.19
390.287	463.19
390.512	449.19
390.736	458.19
390.961	459.19
391.186	482.19
391.411	473.19
391.636	475.19
391.86	470.19
392.085	469.19
392.31	483.19
392.534	484.19
392.759	483.19
392.984	497.19
393.208	473.19
393.433	487.19
393.658	476.19
393.882	477.19
394.107	474.19
394.331	482.19
394.556	499.19
394.78	466.19
395.005	481.19
395.229	481.19
395.454	477.19
395.678	485.19
395.903	514.19
396.127	529.19
396.352	515.19
396.576	517.19
396.801	493.19
397.025	488.19
397.249	513.19
397.474	495.19
397.698	495.19
397.922	523.19
398.147	537.19
398.371	521.19
398.595	530.19
398.82	542.19
399.044	543.19
399.268	563.19
399.492	600.19
399.717	639.19
399.941	642.19
400.165	648.19
400.389	698.19
400.613	646.19
400.837	585.19
401.062	568.19
401.286	560.19
401.51	549.19
401.734	537.19
401.958	521.19
402.182	566.19
402.406	570.19
402.63	577.19
402.854	535.19
403.078	547.19
403.302	558.19
403.526	565.19
403.75	563.19
403.974	586.19
404.198	566.19
404.422	574.19
404.645	590.19
404.869	571.19
405.093	597.19
405.317	649.19
405.541	683.19
405.765	640.19
405.988	584.19
406.212	595.19
406.436	622.19
406.66	614.19
406.883	607.19
407.107	627.19
407.331	691.19
407.555	753.19
407.778	747.19
408.002	677.19
408.226	635.19
408.449	601.19
408.673	618.19
408.896	632.19
409.12	703.19
409.344	661.19
409.567	604.19
409.791	583.19
410.014	587.19
410.238	581.19
410.461	561.19
410.685	608.19
410.908	598.19
411.132	631.19
411.355	685.19
411.578	642.19
411.802	603.19
412.025	559.19
412.249	584.19
412.472	590.19
412.695	639.19
412.919	637.19
413.142	606.19
413.365	559.19
413.589	559.19
413.812	542.19
414.035	541.19
414.258	568.19
414.482	553.19
414.705	543.19
414.928	532.19
415.151	537.19
415.374	536.19
415.597	536.19
415.821	545.19
416.044	540.19
416.267	529.19
416.49	559.19
416.713	522.19
416.936	538.19
417.159	538.19
417.382	519.19
417.605	546.19
417.828	538.19
418.051	570.19
418.274	557.19
418.497	531.19
418.72	552.19
418.943	527.19
419.166	557.19
419.389	590.19
419.611	591.19
419.834	566.19
420.057	550.19
420.28	581.19
420.503	557.19
420.726	569.19
420.948	573.19
421.171	616.19
421.394	643.19
421.617	588.19
421.839	557.19
422.062	561.19
422.285	566.19
422.507	627.19
422.73	718.19
422.953	678.19
423.175	602.19
423.398	595.19
423.621	580.19
423.843	584.19
424.066	608.19
424.288	597.19
424.511	603.19
424.733	650.19
424.956	753.19
425.178	699.19
425.401	721.19
425.623	749.19
425.846	653.19
426.068	601.19
426.291	605.19
426.513	578.19
426.735	584.19
426.958	638.19
427.18	719.19
427.402	823.19
427.625	912.19
427.847	799.19
428.069	685.19
428.292	630.19
428.514	600.19
428.736	573.19
428.958	551.19
429.181	541.19
429.403	549.19
429.625	569.19
429.847	587.19
430.069	657.19
430.292	655.19
430.514	565.19
430.736	556.19
430.958	533.19
431.18	533.19
431.402	512.19
431.624	547.19
431.846	524.19
432.068	519.19
432.29	511.19
432.512	526.19
432.734	534.19
432.956	535.19
433.178	530.19
433.4	547.19
433.622	531.19
433.844	527.19
434.066	538.19
434.287	527.19
434.509	543.19
434.731	557.19
434.953	531.19
435.175	568.19
435.397	602.19
435.618	607.19
435.84	651.19
436.062	729.19
436.284	811.19
436.505	701.19
436.727	605.19
436.949	561.19
437.17	565.19
437.392	553.19
437.614	549.19
437.835	607.19
438.057	698.19
438.278	797.19
438.5	780.19
438.721	883.19
438.943	827.19
439.165	645.19
439.386	626.19
439.608	592.19
439.829	590.19
440.05	619.19
440.272	641.19
440.493	632.19
440.715	578.19
440.936	581.19
441.158	552.19
441.379	561.19
441.6	581.19
441.822	582.19
442.043	625.19
442.264	711.19
442.486	777.19
442.707	640.19
442.928	603.19
443.149	602.19
443.371	634.19
443.592	694.19
443.813	777.19
444.034	848.19
444.255	709.19
444.476	626.19
444.698	651.19
444.919	606.19
445.14	709.19
445.361	659.19
445.582	641.19
445.803	689.19
446.024	807.19
446.245	789.19
446.466	733.19
446.687	631.19
446.908	595.19
447.129	561.19
447.35	552.19
447.571	523.19
447.792	529.19
448.013	566.19
448.234	583.19
448.455	623.19
448.675	714.19
448.896	865.19
449.117	730.19
449.338	687.19
449.559	806.19
449.779	901.19
450	705.19
450.221	605.19
450.442	569.19
450.662	552.19
450.883	532.19
451.104	550.19
451.324	524.19
451.545	530.19
451.766	495.19
451.986	475.19
452.207	503.19
452.428	477.19
452.648	506.19
452.869	486.19
453.089	497.19
453.31	481.19
453.53	489.19
453.751	477.19
453.971	490.19
454.192	509.19
454.412	495.19
454.633	493.19
454.853	490.19
455.073	501.19
455.294	503.19
455.514	584.19
455.734	581.19
455.955	485.19
456.175	445.19
456.395	481.19
456.616	464.19
456.836	469.19
457.056	473.19
457.276	457.19
457.497	471.19
457.717	473.19
457.937	486.19
458.157	471.19
458.377	483.19
458.598	512.19
458.818	559.19
459.038	621.19
459.258	641.19
459.478	570.19
459.698	529.19
459.918	530.19
460.138	573.19
460.358	548.19
460.578	549.19
460.798	550.19
461.018	547.19
461.238	557.19
461.458	535.19
461.678	535.19
461.898	554.19
462.118	561.19
462.338	569.19
462.558	573.19
462.777	574.19
462.997	598.19
463.217	594.19
463.437	607.19
463.657	598.19
463.876	590.19
464.096	610.19
464.316	576.19
464.536	576.19
464.755	599.19
464.975	585.19
465.195	615.19
465.414	672.19
465.634	602.19
465.854	573.19
466.073	530.19
466.293	534.19
466.512	522.19
466.732	499.19
466.951	520.19
467.171	502.19
467.391	526.19
467.61	503.19
467.829	510.19
468.049	526.19
468.268	513.19
468.488	496.19
468.707	521.19
468.927	506.19
469.146	508.19
469.365	480.19
469.585	485.19
469.804	497.19
470.023	518.19
470.243	517.19
470.462	530.19
470.681	551.19
470.901	517.19
471.12	499.19
471.339	509.19
471.558	516.19
471.777	517.19
471.997	498.19
472.216	506.19
472.435	550.19
472.654	563.19
472.873	516.19
473.092	502.19
473.311	502.19
473.53	509.19
473.749	531.19
473.968	568.19
474.187	661.19
474.406	660.19
474.625	558.19
474.844	531.19
475.063	511.19
475.282	513.19
475.501	536.19
475.72	547.19
475.939	537.19
476.158	538.19
476.377	530.19
476.596	550.19
476.814	541.19
477.033	545.19
477.252	575.19
477.471	538.19
477.69	553.19
477.908	573.19
478.127	595.19
478.346	585.19
478.564	563.19
478.783	588.19
479.002	573.19
479.22	619.19
479.439	591.19
479.658	601.19
479.876	624.19
480.095	629.19
480.313	640.19
480.532	654.19
480.751	655.19
480.969	634.19
481.188	672.19
481.406	719.19
481.624	685.19
481.843	637.19
482.061	618.19
482.28	641.19
482.498	609.19
482.717	606.19
482.935	626.19
483.153	611.19
483.372	630.19
483.59	614.19
483.808	612.19
484.027	622.19
484.245	617.19
484.463	607.19
484.681	634.19
484.9	630.19
485.118	636.19
485.336	637.19
485.554	642.19
485.772	635.19
485.99	635.19
486.209	629.19
486.427	629.19
486.645	658.19
486.863	653.19
487.081	640.19
487.299	655.19
487.517	679.19
487.735	642.19
487.953	657.19
488.171	643.19
488.389	633.19
488.607	651.19
488.825	652.19
489.043	659.19
489.261	680.19
489.479	660.19
489.696	673.19
489.914	690.19
490.132	679.19
490.35	686.19
490.568	706.19
490.786	697.19
491.003	718.19
491.221	719.19
491.439	714.19
491.657	723.19
491.874	733.19
492.092	736.19
492.31	742.19
492.527	750.19
492.745	746.19
492.963	733.19
493.18	747.19
493.398	780.19
493.615	781.19
493.833	778.19
494.05	779.19
494.268	797.19
494.485	754.19
494.703	756.19
494.92	767.19
495.138	739.19
495.355	769.19
495.573	791.19
495.79	753.19
496.008	785.19
496.225	794.19
496.442	774.19
496.66	763.19
496.877	782.19
497.094	779.19
497.312	792.19
497.529	799.19
497.746	780.19
497.963	841.19
498.181	851.19
498.398	857.19
498.615	889.19
498.832	907.19
499.049	902.19
499.267	942.19
499.484	969.19
499.701	1010.19
499.918	1010.19
500.135	1102.19
500.352	1116.19
500.569	1155.19
500.786	1158.19
501.003	1145.19
501.22	1150.19
501.437	1060.19
501.654	1032.19
501.871	998.19
502.088	996.19
502.305	941.19
502.522	901.19
502.739	862.19
502.956	863.19
503.172	848.19
503.389	824.19
503.606	835.19
503.823	819.19
504.04	825.19
504.256	797.19
504.473	805.19
504.69	802.19
504.907	767.19
505.123	774.19
505.34	775.19
505.557	720.19
505.773	765.19
505.99	729.19
506.207	740.19
506.423	735.19
506.64	749.19
506.856	720.19
507.073	737.19
507.289	721.19
507.506	710.19
507.722	707.19
507.939	731.19
508.155	713.19
508.372	681.19
508.588	704.19
508.805	698.19
509.021	682.19
509.238	715.19
509.454	697.19
509.67	699.19
509.887	701.19
510.103	677.19
510.319	679.19
510.536	769.19
510.752	1100.19
510.968	955.19
511.184	690.19
511.401	666.19
511.617	687.19
511.833	650.19
512.049	657.19
512.265	663.19
512.481	666.19
512.698	660.19
512.914	642.19
513.13	646.19
513.346	664.19
513.562	649.19
513.778	653.19
513.994	677.19
514.21	672.19
514.426	680.19
514.642	714.19
514.858	726.19
515.074	756.19
515.29	866.19
515.506	1161.19
515.721	1025.19
515.937	777.19
516.153	721.19
516.369	679.19
516.585	671.19
516.801	697.19
517.016	676.19
517.232	697.19
517.448	698.19
517.664	719.19
517.879	671.19
518.095	686.19
518.311	689.19
518.527	694.19
518.742	645.19
518.958	676.19
519.173	689.19
519.389	657.19
519.605	646.19
519.82	662.19
520.036	695.19
520.251	680.19
520.467	705.19
520.682	686.19
520.898	715.19
521.113	694.19
521.329	728.19
521.544	785.19
521.76	934.19
521.975	1437.19
522.19	1406.19
522.406	872.19
522.621	707.19
522.836	679.19
523.052	666.19
523.267	614.19
523.482	598.19
523.698	597.19
523.913	594.19
524.128	588.19
524.343	571.19
524.559	599.19
524.774	593.19
524.989	601.19
525.204	570.19
525.419	573.19
525.634	567.19
525.849	571.19
526.064	543.19
526.28	557.19
526.495	557.19
526.71	529.19
526.925	551.19
527.14	569.19
527.355	543.19
527.57	519.19
527.785	557.19
527.999	527.19
528.214	544.19
528.429	555.19
528.644	532.19
528.859	577.19
529.074	543.19
529.289	563.19
529.503	598.19
529.718	621.19
529.933	570.19
530.148	572.19
530.363	554.19
530.577	571.19
530.792	554.19
531.007	516.19
531.221	533.19
531.436	506.19
531.651	519.19
531.865	529.19
532.08	522.19
532.295	519.19
532.509	532.19
532.724	523.19
532.938	538.19
533.153	520.19
533.367	531.19
533.582	531.19
533.796	513.19
534.011	523.19
534.225	488.19
534.44	520.19
534.654	519.19
534.868	514.19
535.083	532.19
535.297	519.19
535.511	519.19
535.726	521.19
535.94	529.19
536.154	539.19
536.369	494.19
536.583	513.19
536.797	511.19
537.011	501.19
537.225	522.19
537.44	501.19
537.654	509.19
537.868	463.19
538.082	478.19
538.296	490.19
538.51	509.19
538.724	518.19
538.938	498.19
539.153	508.19
539.367	531.19
539.581	499.19
539.795	511.19
540.009	470.19
540.222	476.19
540.436	489.19
540.65	507.19
540.864	509.19
541.078	503.19
541.292	500.19
541.506	501.19
541.72	486.19
541.934	511.19
542.147	499.19
542.361	498.19
542.575	507.19
542.789	475.19
543.002	468.19
543.216	481.19
543.43	502.19
543.644	512.19
543.857	509.19
544.071	503.19
544.285	500.19
544.498	488.19
544.712	499.19
544.925	482.19
545.139	467.19
545.352	479.19
545.566	482.19
545.779	504.19
545.993	503.19
546.206	511.19
546.42	469.19
546.633	499.19
546.847	511.19
547.06	470.19
547.274	490.19
547.487	488.19
547.7	484.19
547.914	483.19
548.127	487.19
548.34	489.19
548.554	493.19
548.767	491.19
548.98	499.19
549.193	493.19
549.407	465.19
549.62	494.19
549.833	482.19
550.046	485.19
550.259	475.19
550.473	463.19
550.686	485.19
550.899	473.19
551.112	492.19
551.325	455.19
551.538	481.19
551.751	459.19
551.964	472.19
552.177	490.19
552.39	464.19
552.603	478.19
552.816	490.19
553.029	478.19
553.242	493.19
553.455	483.19
553.667	490.19
553.88	494.19
554.093	510.19
554.306	486.19
554.519	498.19
554.732	473.19
554.944	470.19
555.157	477.19
555.37	463.19
555.583	457.19
555.795	451.19
556.008	454.19
556.221	422.19
556.433	454.19
556.646	449.19
556.859	450.19
557.071	443.19
557.284	414.19
557.496	450.19
557.709	448.19
557.921	418.19
558.134	407.19
558.346	409.19
558.559	445.19
558.771	424.19
558.984	433.19
559.196	437.19
559.409	436.19
559.621	443.19
559.833	440.19
560.046	422.19
560.258	409.19
560.47	415.19
560.683	409.19
560.895	415.19
561.107	437.19
561.32	414.19
561.532	449.19
561.744	445.19
561.956	420.19
562.168	416.19
562.381	438.19
562.593	426.19
562.805	433.19
563.017	435.19
563.229	421.19
563.441	431.19
563.653	434.19
563.865	439.19
564.077	449.19
564.289	445.19
564.501	468.19
564.713	442.19
564.925	458.19
565.137	476.19
565.349	470.19
565.561	459.19
565.773	473.19
565.985	490.19
566.197	504.19
566.408	511.19
566.62	526.19
566.832	531.19
567.044	557.19
567.255	543.19
567.467	559.19
567.679	571.19
567.891	585.19
568.102	568.19
568.314	547.19
568.526	549.19
568.737	534.19
568.949	503.19
569.161	479.19
569.372	481.19
569.584	455.19
569.795	465.19
570.007	436.19
570.218	483.19
570.43	461.19
570.641	438.19
570.853	438.19
571.064	440.19
571.276	431.19
571.487	412.19
571.698	423.19
571.91	407.19
572.121	405.19
572.333	410.19
572.544	389.19
572.755	365.19
572.966	399.19
573.178	397.19
573.389	386.19
573.6	391.19
573.811	387.19
574.023	370.19
574.234	373.19
574.445	374.19
574.656	383.19
574.867	354.19
575.078	389.19
575.289	375.19
575.501	363.19
575.712	371.19
575.923	363.19
576.134	371.19
576.345	361.19
576.556	373.19
576.767	377.19
576.978	376.19
577.188	375.19
577.399	367.19
577.61	359.19
577.821	352.19
578.032	353.19
578.243	404.19
578.454	552.19
578.665	427.19
578.875	357.19
579.086	352.19
579.297	355.19
579.508	347.19
579.718	343.19
579.929	338.19
580.14	329.19
580.35	339.19
580.561	330.19
580.772	361.19
580.982	352.19
581.193	356.19
581.403	339.19
581.614	332.19
581.825	339.19
582.035	342.19
582.246	345.19
582.456	353.19
582.667	329.19
582.877	342.19
583.087	348.19
583.298	328.19
583.508	325.19
583.719	335.19
583.929	327.19
584.139	319.19
584.35	330.19
584.56	342.19
584.77	331.19
584.981	323.19
585.191	311.19
585.401	319.19
585.611	342.19
585.821	324.19
586.032	329.19
586.242	327.19
586.452	332.19
586.662	303.19
586.872	315.19
587.082	329.19
587.292	331.19
587.502	323.19
587.713	319.19
587.923	334.19
588.133	365.19
588.343	343.19
588.553	335.19
588.762	344.19
588.972	333.19
589.182	359.19
589.392	343.19
589.602	339.19
589.812	345.19
590.022	327.19
590.232	325.19
590.441	328.19
590.651	317.19
590.861	344.19
591.071	335.19
591.281	350.19
591.49	325.19
591.7	338.19
591.91	349.19
592.119	319.19
592.329	342.19
592.539	346.19
592.748	341.19
592.958	351.19
593.167	338.19
593.377	343.19
593.587	355.19
593.796	350.19
594.006	343.19
594.215	349.19
594.424	358.19
594.634	340.19
594.843	358.19
595.053	331.19
595.262	332.19
595.472	311.19
595.681	327.19
595.89	323.19
596.1	328.19
596.309	309.19
596.518	305.19
596.727	330.19
596.937	302.19
597.146	307.19
597.355	292.19
597.564	313.19
597.774	320.19
597.983	291.19
598.192	310.19
598.401	276.19
598.61	310.19
598.819	294.19
599.028	293.19
599.237	296.19
599.446	276.19
599.655	293.19
599.864	283.19
600.073	291.19
600.282	283.19
600.491	283.19
600.7	283.19
600.909	289.19
601.118	288.19
601.327	288.19
601.536	281.19
601.745	290.19
601.953	289.19
602.162	287.19
602.371	276.19
602.58	282.19
602.789	286.19
602.997	284.19
603.206	268.19
603.415	263.19
603.623	292.19
603.832	267.19
604.041	273.19
604.249	262.19
604.458	280.19
604.666	271.19
604.875	269.19
605.084	288.19
605.292	273.19
605.501	270.19
605.709	261.19
605.918	237.19
606.126	255.19
606.334	280.19
606.543	277.19
606.751	254.19
606.96	270.19
607.168	248.19
607.376	268.19
607.585	278.19
607.793	292.19
608.001	277.19
608.21	251.19
608.418	279.19
608.626	264.19
608.834	277.19
609.043	267.19
609.251	276.19
609.459	257.19
609.667	259.19
609.875	262.19
610.083	241.19
610.291	269.19
610.499	273.19
610.707	265.19
610.916	267.19
611.124	261.19
611.332	263.19
611.54	273.19
611.748	270.19
611.955	232.19
612.163	260.19
612.371	265.19
612.579	274.19
612.787	257.19
612.995	265.19
613.203	263.19
613.411	251.19
613.618	262.19
613.826	259.19
614.034	261.19
614.242	250.19
614.449	260.19
614.657	269.19
614.865	231.19
615.072	246.19
615.28	259.19
615.488	266.19
615.695	263.19
615.903	265.19
616.111	257.19
616.318	253.19
616.526	271.19
616.733	258.19
616.941	242.19
617.148	242.19
617.356	261.19
617.563	259.19
617.771	254.19
617.978	270.19
618.185	241.19
618.393	258.19
618.6	261.19
618.807	263.19
619.015	260.19
619.222	261.19
619.429	246.19
619.637	255.19
619.844	246.19
620.051	236.19
620.258	254.19
620.466	242.19
620.673	241.19
620.88	245.19
621.087	249.19
621.294	237.19
621.501	237.19
621.708	234.19
621.915	238.19
622.122	243.19
622.329	229.19
622.536	228.19
622.743	253.19
622.95	240.19
623.157	220.19
623.364	253.19
623.571	226.19
623.778	243.19
623.985	242.19
624.192	238.19
624.399	239.19
624.606	228.19
624.812	222.19
625.019	228.19
625.226	253.19
625.433	230.19
625.639	220.19
625.846	214.19
626.053	200.19
626.259	216.19
626.466	223.19
626.673	217.19
626.879	231.19
627.086	221.19
627.293	225.19
627.499	218.19
627.706	218.19
627.912	232.19
628.119	208.19
628.325	213.19
628.532	216.19
628.738	215.19
628.945	219.19
629.151	209.19
629.357	211.19
629.564	195.19
629.77	223.19
629.976	210.19
630.183	206.19
630.389	211.19
630.595	211.19
630.802	208.19
631.008	205.19
631.214	214.19
631.42	206.19
631.627	209.19
631.833	215.19
632.039	213.19
632.245	201.19
632.451	194.19
632.657	191.19
632.863	189.19
633.069	190.19
633.275	187.19
633.481	187.19
633.688	215.19
633.893	191.19
634.099	206.19
634.305	224.19
634.511	186.19
634.717	194.19
634.923	188.19
635.129	192.19
635.335	199.19
635.541	171.19
635.747	192.19
635.952	176.19
636.158	198.19
636.364	196.19
636.57	179.19
636.775	185.19
636.981	190.19
637.187	202.19
637.392	180.19
637.598	179.19
637.804	203.19
638.009	202.19
638.215	192.19
638.421	186.19
638.626	198.19
638.832	188.19
639.037	172.19
639.243	178.19
639.448	173.19
639.654	202.19
639.859	183.19
640.065	185.19
640.27	176.19
640.475	185.19
640.681	173.19
640.886	181.19
641.091	191.19
641.297	185.19
641.502	173.19
641.707	192.19
641.913	173.19
642.118	172.19
642.323	191.19
642.528	178.19
642.733	171.19
642.939	163.19
643.144	174.19
643.349	177.19
643.554	173.19
643.759	187.19
643.964	194.19
644.169	194.19
644.374	161.19
644.579	177.19
644.784	177.19
644.989	181.19
645.194	166.19
645.399	188.19
645.604	191.19
645.809	161.19
646.014	177.19
646.219	186.19
646.423	171.19
646.628	177.19
646.833	174.19
647.038	160.19
647.243	168.19
647.447	171.19
647.652	184.19
647.857	162.19
648.062	163.19
648.266	184.19
648.471	185.19
648.676	177.19
648.88	191.19
649.085	170.19
649.289	174.19
649.494	177.19
649.698	183.19
649.903	187.19
650.107	169.19
650.312	164.19
650.516	162.19
650.721	154.19
650.925	169.19
651.13	165.19
651.334	151.19
651.539	166.19
651.743	151.19
651.947	148.19
652.152	126.19
652.356	159.19
652.56	150.19
652.764	164.19
652.969	143.19
653.173	131.19
653.377	145.19
653.581	158.19
653.785	153.19
653.99	132.19
654.194	165.19
654.398	131.19
654.602	142.19
654.806	152.19
655.01	144.19
655.214	144.19
655.418	158.19
655.622	140.19
655.826	148.19
656.03	133.19
656.234	135.19
656.438	163.19
656.642	137.19
656.846	129.19
657.049	133.19
657.253	133.19
657.457	121.19
657.661	117.19
657.865	112.19
658.068	127.19
658.272	113.19
658.476	100.19
658.68	111.19
658.883	119.19
659.087	100.19
659.291	115.19
659.494	95.19
659.698	92.19
659.901	94.19
660.105	107.19
660.309	93.19
660.512	92.19
660.716	75.19
660.919	104.19
661.123	96.19
661.326	84.19
661.53	91.19
661.733	99.19
661.936	72.19
662.14	77.19
662.343	78.19
662.546	75.19
662.75	77.19
662.953	79.19
663.156	99.19
663.36	91.19
663.563	87.19
663.766	73.19
663.969	83.19
664.173	69.19
664.376	80.19
664.579	81.19
664.782	53.19
664.985	79.19
665.188	83.19
665.391	76.19
665.594	66.19
665.797	83.19
666	85.19
666.203	80.19
666.406	83.19
666.609	71.19
666.812	74.19
667.015	60.19
667.218	78.19
667.421	74.19
667.624	75.19
667.827	83.19
668.03	86.19
668.232	79.19
668.435	78.19
668.638	81.19
668.841	83.19
669.043	81.19
669.246	81.19
669.449	87.19
669.651	79.19
669.854	74.19
670.057	69.19
670.259	81.19
670.462	72.19
670.665	73.19
670.867	87.19
671.07	78.19
671.272	84.19
671.475	89.19
671.677	88.19
671.88	67.19
672.082	76.19
672.284	80.19
672.487	82.19
672.689	77.19
672.892	72.19
