Data from 1966.PennyLincolnUp.Lamp.En5.5.200Scan.071719.P1.Scan2.head_HRD10591_14-16-40-046.txt Node
Date: Thu Jul 18 14:16:40 EDT 2019
User: cochatt
Spectrometer: HR+D1059
Trigger mode: 1
Integration Time (sec): 1.000000E-1
Scans to average: 1
Electric dark correction enabled: true
Nonlinearity correction enabled: false
Boxcar width: 0
XAxis mode: Wavelengths
Number of Pixels in Spectrum: 2048
>>>>>Begin Spectral Data<<<<<
223.165	-6.06
223.4	-6.06
223.635	-6.06
223.869	-7.06
224.104	-19.06
224.338	-11.06
224.573	-22.06
224.808	-10.06
225.042	-16.06
225.277	-20.06
225.511	-10.06
225.746	7.94
225.98	16.94
226.215	5.94
226.449	11.94
226.683	17.94
226.918	24.94
227.152	35.94
227.387	39.94
227.621	39.94
227.856	40.94
228.09	49.94
228.324	50.94
228.559	59.94
228.793	63.94
229.027	105.94
229.262	100.94
229.496	89.94
229.73	115.94
229.964	143.94
230.199	121.94
230.433	108.94
230.667	117.94
230.901	91.94
231.136	115.94
231.37	95.94
231.604	107.94
231.838	109.94
232.072	117.94
232.306	117.94
232.541	95.94
232.775	107.94
233.009	115.94
233.243	103.94
233.477	105.94
233.711	105.94
233.945	113.94
234.179	112.94
234.413	120.94
234.647	124.94
234.881	124.94
235.115	118.94
235.349	125.94
235.583	105.94
235.817	112.94
236.051	124.94
236.285	121.94
236.519	124.94
236.753	111.94
236.987	125.94
237.221	165.94
237.455	216.94
237.689	183.94
237.922	130.94
238.156	131.94
238.39	132.94
238.624	117.94
238.858	125.94
239.091	130.94
239.325	108.94
239.559	111.94
239.793	113.94
240.027	116.94
240.26	125.94
240.494	143.94
240.728	140.94
240.961	144.94
241.195	123.94
241.429	145.94
241.662	132.94
241.896	109.94
242.13	115.94
242.363	127.94
242.597	129.94
242.83	136.94
243.064	124.94
243.298	135.94
243.531	147.94
243.765	125.94
243.998	124.94
244.232	159.94
244.465	137.94
244.699	147.94
244.932	147.94
245.166	145.94
245.399	124.94
245.633	127.94
245.866	141.94
246.099	131.94
246.333	149.94
246.566	141.94
246.8	152.94
247.033	155.94
247.266	152.94
247.5	131.94
247.733	159.94
247.966	167.94
248.2	152.94
248.433	168.94
248.666	162.94
248.899	164.94
249.133	176.94
249.366	195.94
249.599	183.94
249.832	174.94
250.066	162.94
250.299	173.94
250.532	164.94
250.765	195.94
250.998	181.94
251.231	218.94
251.465	172.94
251.698	180.94
251.931	171.94
252.164	183.94
252.397	197.94
252.63	193.94
252.863	180.94
253.096	204.94
253.329	207.94
253.562	197.94
253.795	189.94
254.028	198.94
254.261	197.94
254.494	209.94
254.727	231.94
254.96	236.94
255.193	239.94
255.426	222.94
255.659	219.94
255.892	194.94
256.124	224.94
256.357	181.94
256.59	195.94
256.823	176.94
257.056	194.94
257.289	183.94
257.521	193.94
257.754	184.94
257.987	197.94
258.22	192.94
258.452	197.94
258.685	204.94
258.918	197.94
259.151	199.94
259.383	194.94
259.616	211.94
259.849	187.94
260.081	225.94
260.314	211.94
260.547	220.94
260.779	210.94
261.012	216.94
261.244	206.94
261.477	207.94
261.71	221.94
261.942	198.94
262.175	193.94
262.407	216.94
262.64	212.94
262.872	190.94
263.105	195.94
263.337	199.94
263.57	200.94
263.802	194.94
264.035	191.94
264.267	191.94
264.499	189.94
264.732	205.94
264.964	196.94
265.197	189.94
265.429	200.94
265.661	192.94
265.894	197.94
266.126	200.94
266.358	198.94
266.591	193.94
266.823	215.94
267.055	202.94
267.287	221.94
267.52	215.94
267.752	221.94
267.984	205.94
268.216	217.94
268.448	218.94
268.681	206.94
268.913	228.94
269.145	232.94
269.377	242.94
269.609	221.94
269.841	256.94
270.073	245.94
270.306	239.94
270.538	272.94
270.77	269.94
271.002	267.94
271.234	258.94
271.466	240.94
271.698	255.94
271.93	268.94
272.162	279.94
272.394	261.94
272.626	247.94
272.858	259.94
273.09	234.94
273.322	253.94
273.553	245.94
273.785	234.94
274.017	243.94
274.249	232.94
274.481	216.94
274.713	244.94
274.945	229.94
275.176	242.94
275.408	236.94
275.64	245.94
275.872	231.94
276.104	241.94
276.335	228.94
276.567	253.94
276.799	253.94
277.031	264.94
277.262	281.94
277.494	294.94
277.726	271.94
277.957	248.94
278.189	264.94
278.421	244.94
278.652	246.94
278.884	251.94
279.115	238.94
279.347	243.94
279.579	250.94
279.81	247.94
280.042	247.94
280.273	244.94
280.505	253.94
280.736	220.94
280.968	246.94
281.199	231.94
281.431	246.94
281.662	258.94
281.894	253.94
282.125	246.94
282.356	257.94
282.588	267.94
282.819	254.94
283.051	263.94
283.282	249.94
283.513	266.94
283.745	272.94
283.976	253.94
284.207	260.94
284.439	260.94
284.67	264.94
284.901	267.94
285.132	249.94
285.364	261.94
285.595	249.94
285.826	247.94
286.057	257.94
286.288	249.94
286.52	275.94
286.751	251.94
286.982	260.94
287.213	260.94
287.444	262.94
287.675	282.94
287.906	263.94
288.138	271.94
288.369	266.94
288.6	264.94
288.831	262.94
289.062	275.94
289.293	261.94
289.524	255.94
289.755	262.94
289.986	265.94
290.217	266.94
290.448	269.94
290.679	285.94
290.91	279.94
291.141	267.94
291.371	279.94
291.602	274.94
291.833	265.94
292.064	252.94
292.295	269.94
292.526	271.94
292.757	269.94
292.987	269.94
293.218	276.94
293.449	265.94
293.68	271.94
293.91	270.94
294.141	281.94
294.372	272.94
294.603	266.94
294.833	281.94
295.064	279.94
295.295	271.94
295.525	265.94
295.756	277.94
295.987	277.94
296.217	292.94
296.448	297.94
296.679	258.94
296.909	265.94
297.14	272.94
297.37	273.94
297.601	269.94
297.831	300.94
298.062	277.94
298.292	295.94
298.523	289.94
298.753	301.94
298.984	280.94
299.214	311.94
299.445	281.94
299.675	294.94
299.905	291.94
300.136	299.94
300.366	296.94
300.597	274.94
300.827	286.94
301.057	304.94
301.288	286.94
301.518	309.94
301.748	315.94
301.979	296.94
302.209	283.94
302.439	297.94
302.669	298.94
302.9	308.94
303.13	284.94
303.36	317.94
303.59	305.94
303.82	313.94
304.051	311.94
304.281	308.94
304.511	287.94
304.741	297.94
304.971	301.94
305.201	308.94
305.431	312.94
305.661	302.94
305.891	309.94
306.121	281.94
306.352	311.94
306.582	302.94
306.812	292.94
307.042	293.94
307.272	313.94
307.502	318.94
307.731	308.94
307.961	297.94
308.191	287.94
308.421	295.94
308.651	334.94
308.881	314.94
309.111	316.94
309.341	310.94
309.571	326.94
309.8	332.94
310.03	323.94
310.26	341.94
310.49	333.94
310.72	353.94
310.949	337.94
311.179	336.94
311.409	339.94
311.639	336.94
311.868	325.94
312.098	334.94
312.328	335.94
312.557	366.94
312.787	360.94
313.017	349.94
313.246	331.94
313.476	348.94
313.706	345.94
313.935	333.94
314.165	346.94
314.394	355.94
314.624	361.94
314.853	356.94
315.083	355.94
315.312	344.94
315.542	346.94
315.771	346.94
316.001	340.94
316.23	332.94
316.46	338.94
316.689	329.94
316.919	348.94
317.148	328.94
317.377	351.94
317.607	341.94
317.836	352.94
318.065	358.94
318.295	356.94
318.524	347.94
318.753	337.94
318.983	345.94
319.212	334.94
319.441	351.94
319.67	343.94
319.9	345.94
320.129	348.94
320.358	338.94
320.587	353.94
320.816	346.94
321.046	351.94
321.275	371.94
321.504	390.94
321.733	355.94
321.962	377.94
322.191	366.94
322.42	389.94
322.649	393.94
322.878	392.94
323.108	392.94
323.337	415.94
323.566	425.94
323.795	443.94
324.024	471.94
324.253	530.94
324.482	733.94
324.71	1171.94
324.939	1675.94
325.168	1489.94
325.397	732.94
325.626	499.94
325.855	474.94
326.084	440.94
326.313	417.94
326.542	420.94
326.77	448.94
326.999	533.94
327.228	686.94
327.457	1056.94
327.686	1295.94
327.914	857.94
328.143	577.94
328.372	509.94
328.6	468.94
328.829	439.94
329.058	463.94
329.287	476.94
329.515	469.94
329.744	431.94
329.972	445.94
330.201	452.94
330.43	454.94
330.658	494.94
330.887	497.94
331.115	477.94
331.344	447.94
331.572	438.94
331.801	438.94
332.03	407.94
332.258	430.94
332.486	415.94
332.715	399.94
332.943	417.94
333.172	411.94
333.4	386.94
333.629	419.94
333.857	445.94
334.085	435.94
334.314	421.94
334.542	464.94
334.771	462.94
334.999	451.94
335.227	447.94
335.455	439.94
335.684	417.94
335.912	393.94
336.14	413.94
336.369	408.94
336.597	415.94
336.825	426.94
337.053	422.94
337.281	394.94
337.51	399.94
337.738	395.94
337.966	399.94
338.194	413.94
338.422	397.94
338.65	378.94
338.878	417.94
339.106	408.94
339.334	395.94
339.562	407.94
339.79	399.94
340.018	375.94
340.246	379.94
340.474	389.94
340.702	391.94
340.93	385.94
341.158	408.94
341.386	389.94
341.614	392.94
341.842	398.94
342.07	399.94
342.298	381.94
342.526	405.94
342.754	387.94
342.981	391.94
343.209	393.94
343.437	401.94
343.665	399.94
343.893	407.94
344.12	401.94
344.348	401.94
344.576	408.94
344.804	399.94
345.031	407.94
345.259	433.94
345.487	400.94
345.714	402.94
345.942	398.94
346.17	383.94
346.397	367.94
346.625	383.94
346.853	379.94
347.08	373.94
347.308	401.94
347.535	404.94
347.763	383.94
347.99	389.94
348.218	408.94
348.445	397.94
348.673	389.94
348.9	375.94
349.128	366.94
349.355	382.94
349.583	385.94
349.81	375.94
350.037	389.94
350.265	372.94
350.492	395.94
350.72	384.94
350.947	363.94
351.174	375.94
351.402	391.94
351.629	393.94
351.856	383.94
352.083	379.94
352.311	384.94
352.538	379.94
352.765	384.94
352.992	411.94
353.22	387.94
353.447	397.94
353.674	384.94
353.901	367.94
354.128	375.94
354.355	363.94
354.583	368.94
354.81	387.94
355.037	381.94
355.264	387.94
355.491	379.94
355.718	372.94
355.945	365.94
356.172	357.94
356.399	374.94
356.626	382.94
356.853	376.94
357.08	385.94
357.307	357.94
357.534	357.94
357.761	359.94
357.988	391.94
358.215	389.94
358.441	394.94
358.668	371.94
358.895	376.94
359.122	383.94
359.349	393.94
359.576	389.94
359.802	399.94
360.029	410.94
360.256	430.94
360.483	410.94
360.709	384.94
360.936	394.94
361.163	394.94
361.39	395.94
361.616	396.94
361.843	399.94
362.07	388.94
362.296	393.94
362.523	409.94
362.749	396.94
362.976	397.94
363.203	385.94
363.429	388.94
363.656	391.94
363.882	391.94
364.109	384.94
364.335	384.94
364.562	368.94
364.788	387.94
365.015	390.94
365.241	384.94
365.468	393.94
365.694	404.94
365.92	397.94
366.147	371.94
366.373	407.94
366.599	363.94
366.826	380.94
367.052	380.94
367.278	399.94
367.505	379.94
367.731	390.94
367.957	393.94
368.184	399.94
368.41	384.94
368.636	393.94
368.862	413.94
369.089	389.94
369.315	381.94
369.541	405.94
369.767	402.94
369.993	388.94
370.219	368.94
370.445	404.94
370.672	388.94
370.898	381.94
371.124	383.94
371.35	387.94
371.576	395.94
371.802	383.94
372.028	388.94
372.254	409.94
372.48	393.94
372.706	396.94
372.932	411.94
373.158	391.94
373.384	399.94
373.61	407.94
373.835	413.94
374.061	390.94
374.287	399.94
374.513	412.94
374.739	392.94
374.965	396.94
375.191	401.94
375.416	375.94
375.642	399.94
375.868	405.94
376.094	387.94
376.319	383.94
376.545	394.94
376.771	378.94
376.997	380.94
377.222	379.94
377.448	406.94
377.674	410.94
377.899	400.94
378.125	398.94
378.35	407.94
378.576	383.94
378.802	407.94
379.027	398.94
379.253	387.94
379.478	393.94
379.704	404.94
379.929	413.94
380.155	382.94
380.38	396.94
380.606	401.94
380.831	404.94
381.057	419.94
381.282	405.94
381.507	387.94
381.733	409.94
381.958	416.94
382.184	409.94
382.409	419.94
382.634	418.94
382.86	428.94
383.085	405.94
383.31	406.94
383.535	399.94
383.761	427.94
383.986	432.94
384.211	438.94
384.436	425.94
384.662	449.94
384.887	429.94
385.112	451.94
385.337	425.94
385.562	431.94
385.787	426.94
386.013	439.94
386.238	450.94
386.463	465.94
386.688	455.94
386.913	458.94
387.138	454.94
387.363	445.94
387.588	464.94
387.813	447.94
388.038	444.94
388.263	446.94
388.488	455.94
388.713	428.94
388.938	438.94
389.163	456.94
389.387	467.94
389.612	432.94
389.837	432.94
390.062	453.94
390.287	439.94
390.512	466.94
390.736	435.94
390.961	464.94
391.186	440.94
391.411	438.94
391.636	443.94
391.86	459.94
392.085	452.94
392.31	455.94
392.534	461.94
392.759	467.94
392.984	448.94
393.208	452.94
393.433	466.94
393.658	464.94
393.882	457.94
394.107	446.94
394.331	439.94
394.556	460.94
394.78	444.94
395.005	470.94
395.229	447.94
395.454	469.94
395.678	458.94
395.903	487.94
396.127	489.94
396.352	515.94
396.576	480.94
396.801	480.94
397.025	483.94
397.249	475.94
397.474	483.94
397.698	476.94
397.922	498.94
398.147	479.94
398.371	509.94
398.595	518.94
398.82	511.94
399.044	522.94
399.268	549.94
399.492	551.94
399.717	584.94
399.941	637.94
400.165	641.94
400.389	657.94
400.613	570.94
400.837	552.94
401.062	533.94
401.286	529.94
401.51	513.94
401.734	520.94
401.958	515.94
402.182	520.94
402.406	528.94
402.63	521.94
402.854	527.94
403.078	523.94
403.302	538.94
403.526	537.94
403.75	563.94
403.974	541.94
404.198	542.94
404.422	540.94
404.645	529.94
404.869	555.94
405.093	565.94
405.317	614.94
405.541	645.94
405.765	598.94
405.988	563.94
406.212	559.94
406.436	564.94
406.66	574.94
406.883	578.94
407.107	604.94
407.331	667.94
407.555	736.94
407.778	689.94
408.002	651.94
408.226	589.94
408.449	583.94
408.673	589.94
408.896	593.94
409.12	648.94
409.344	614.94
409.567	551.94
409.791	555.94
410.014	559.94
410.238	533.94
410.461	536.94
410.685	528.94
410.908	575.94
411.132	581.94
411.355	613.94
411.578	586.94
411.802	537.94
412.025	533.94
412.249	554.94
412.472	549.94
412.695	586.94
412.919	599.94
413.142	548.94
413.365	558.94
413.589	512.94
413.812	522.94
414.035	520.94
414.258	541.94
414.482	517.94
414.705	503.94
414.928	503.94
415.151	502.94
415.374	495.94
415.597	517.94
415.821	505.94
416.044	504.94
416.267	502.94
416.49	493.94
416.713	497.94
416.936	499.94
417.159	493.94
417.382	512.94
417.605	491.94
417.828	519.94
418.051	530.94
418.274	522.94
418.497	499.94
418.72	507.94
418.943	510.94
419.166	549.94
419.389	557.94
419.611	573.94
419.834	533.94
420.057	534.94
420.28	534.94
420.503	527.94
420.726	512.94
420.948	555.94
421.171	566.94
421.394	611.94
421.617	535.94
421.839	521.94
422.062	536.94
422.285	541.94
422.507	592.94
422.73	677.94
422.953	643.94
423.175	560.94
423.398	526.94
423.621	551.94
423.843	571.94
424.066	556.94
424.288	575.94
424.511	596.94
424.733	620.94
424.956	726.94
425.178	647.94
425.401	649.94
425.623	676.94
425.846	598.94
426.068	566.94
426.291	555.94
426.513	555.94
426.735	598.94
426.958	608.94
427.18	675.94
427.402	785.94
427.625	875.94
427.847	749.94
428.069	640.94
428.292	608.94
428.514	547.94
428.736	525.94
428.958	538.94
429.181	528.94
429.403	513.94
429.625	536.94
429.847	575.94
430.069	616.94
430.292	598.94
430.514	544.94
430.736	533.94
430.958	500.94
431.18	503.94
431.402	517.94
431.624	489.94
431.846	488.94
432.068	481.94
432.29	506.94
432.512	510.94
432.734	486.94
432.956	497.94
433.178	515.94
433.4	525.94
433.622	520.94
433.844	500.94
434.066	485.94
434.287	487.94
434.509	511.94
434.731	501.94
434.953	525.94
435.175	539.94
435.397	556.94
435.618	566.94
435.84	601.94
436.062	681.94
436.284	743.94
436.505	598.94
436.727	584.94
436.949	541.94
437.17	528.94
437.392	516.94
437.614	525.94
437.835	544.94
438.057	662.94
438.278	744.94
438.5	750.94
438.721	814.94
438.943	793.94
439.165	599.94
439.386	557.94
439.608	558.94
439.829	564.94
440.05	589.94
440.272	628.94
440.493	584.94
440.715	561.94
440.936	547.94
441.158	524.94
441.379	537.94
441.6	513.94
441.822	549.94
442.043	608.94
442.264	664.94
442.486	717.94
442.707	634.94
442.928	553.94
443.149	565.94
443.371	589.94
443.592	623.94
443.813	720.94
444.034	790.94
444.255	639.94
444.476	572.94
444.698	561.94
444.919	550.94
445.14	662.94
445.361	642.94
445.582	582.94
445.803	660.94
446.024	745.94
446.245	764.94
446.466	675.94
446.687	588.94
446.908	563.94
447.129	530.94
447.35	529.94
447.571	535.94
447.792	492.94
448.013	520.94
448.234	516.94
448.455	582.94
448.675	677.94
448.896	807.94
449.117	670.94
449.338	615.94
449.559	736.94
449.779	838.94
450	659.94
450.221	541.94
450.442	535.94
450.662	502.94
450.883	505.94
451.104	520.94
451.324	498.94
451.545	494.94
451.766	475.94
451.986	445.94
452.207	469.94
452.428	456.94
452.648	464.94
452.869	454.94
453.089	486.94
453.31	476.94
453.53	448.94
453.751	464.94
453.971	438.94
454.192	482.94
454.412	491.94
454.633	474.94
454.853	448.94
455.073	462.94
455.294	489.94
455.514	532.94
455.734	524.94
455.955	479.94
456.175	446.94
456.395	442.94
456.616	454.94
456.836	439.94
457.056	440.94
457.276	432.94
457.497	432.94
457.717	457.94
457.937	449.94
458.157	449.94
458.377	478.94
458.598	464.94
458.818	500.94
459.038	564.94
459.258	582.94
459.478	535.94
459.698	509.94
459.918	485.94
460.138	499.94
460.358	515.94
460.578	533.94
460.798	510.94
461.018	533.94
461.238	537.94
461.458	512.94
461.678	527.94
461.898	545.94
462.118	520.94
462.338	540.94
462.558	527.94
462.777	547.94
462.997	565.94
463.217	587.94
463.437	594.94
463.657	556.94
463.876	545.94
464.096	559.94
464.316	526.94
464.536	539.94
464.755	554.94
464.975	552.94
465.195	589.94
465.414	624.94
465.634	540.94
465.854	521.94
466.073	520.94
466.293	495.94
466.512	465.94
466.732	475.94
466.951	459.94
467.171	492.94
467.391	495.94
467.61	502.94
467.829	481.94
468.049	506.94
468.268	495.94
468.488	486.94
468.707	452.94
468.927	447.94
469.146	464.94
469.365	477.94
469.585	484.94
469.804	473.94
470.023	490.94
470.243	494.94
470.462	479.94
470.681	494.94
470.901	508.94
471.12	488.94
471.339	493.94
471.558	495.94
471.777	476.94
471.997	471.94
472.216	481.94
472.435	512.94
472.654	508.94
472.873	489.94
473.092	487.94
473.311	494.94
473.53	488.94
473.749	487.94
473.968	522.94
474.187	629.94
474.406	642.94
474.625	544.94
474.844	519.94
475.063	474.94
475.282	523.94
475.501	515.94
475.72	521.94
475.939	513.94
476.158	499.94
476.377	510.94
476.596	507.94
476.814	511.94
477.033	517.94
477.252	511.94
477.471	535.94
477.69	520.94
477.908	527.94
478.127	528.94
478.346	548.94
478.564	543.94
478.783	537.94
479.002	544.94
479.22	570.94
479.439	565.94
479.658	597.94
479.876	588.94
480.095	586.94
480.313	606.94
480.532	605.94
480.751	622.94
480.969	599.94
481.188	631.94
481.406	663.94
481.624	620.94
481.843	613.94
482.061	580.94
482.28	583.94
482.498	560.94
482.717	571.94
482.935	580.94
483.153	575.94
483.372	573.94
483.59	572.94
483.808	575.94
484.027	567.94
484.245	567.94
484.463	574.94
484.681	601.94
484.9	570.94
485.118	571.94
485.336	585.94
485.554	591.94
485.772	588.94
485.99	596.94
486.209	600.94
486.427	612.94
486.645	619.94
486.863	639.94
487.081	630.94
487.299	614.94
487.517	624.94
487.735	625.94
487.953	624.94
488.171	647.94
488.389	617.94
488.607	610.94
488.825	620.94
489.043	636.94
489.261	601.94
489.479	627.94
489.696	643.94
489.914	625.94
490.132	623.94
490.35	640.94
490.568	641.94
490.786	657.94
491.003	635.94
491.221	679.94
491.439	665.94
491.657	665.94
491.874	716.94
492.092	704.94
492.31	680.94
492.527	701.94
492.745	704.94
492.963	709.94
493.18	727.94
493.398	720.94
493.615	714.94
493.833	689.94
494.05	710.94
494.268	727.94
494.485	703.94
494.703	708.94
494.92	707.94
495.138	715.94
495.355	725.94
495.573	741.94
495.79	758.94
496.008	736.94
496.225	732.94
496.442	719.94
496.66	728.94
496.877	741.94
497.094	729.94
497.312	729.94
497.529	732.94
497.746	749.94
497.963	778.94
498.181	815.94
498.398	814.94
498.615	808.94
498.832	852.94
499.049	847.94
499.267	883.94
499.484	914.94
499.701	926.94
499.918	969.94
500.135	1024.94
500.352	1089.94
500.569	1089.94
500.786	1085.94
501.003	1059.94
501.22	1047.94
501.437	1020.94
501.654	953.94
501.871	949.94
502.088	896.94
502.305	876.94
502.522	851.94
502.739	846.94
502.956	813.94
503.172	779.94
503.389	750.94
503.606	744.94
503.823	782.94
504.04	748.94
504.256	755.94
504.473	731.94
504.69	757.94
504.907	723.94
505.123	712.94
505.34	717.94
505.557	736.94
505.773	704.94
505.99	707.94
506.207	700.94
506.423	694.94
506.64	702.94
506.856	701.94
507.073	670.94
507.289	689.94
507.506	652.94
507.722	697.94
507.939	687.94
508.155	649.94
508.372	657.94
508.588	639.94
508.805	672.94
509.021	651.94
509.238	638.94
509.454	657.94
509.67	645.94
509.887	639.94
510.103	635.94
510.319	652.94
510.536	691.94
510.752	1006.94
510.968	879.94
511.184	649.94
511.401	615.94
511.617	615.94
511.833	594.94
512.049	609.94
512.265	619.94
512.481	585.94
512.698	596.94
512.914	611.94
513.13	592.94
513.346	608.94
513.562	588.94
513.778	614.94
513.994	633.94
514.21	633.94
514.426	644.94
514.642	642.94
514.858	652.94
515.074	715.94
515.29	776.94
515.506	1004.94
515.721	876.94
515.937	698.94
516.153	638.94
516.369	633.94
516.585	619.94
516.801	619.94
517.016	650.94
517.232	642.94
517.448	632.94
517.664	657.94
517.879	664.94
518.095	664.94
518.311	645.94
518.527	639.94
518.742	639.94
518.958	615.94
519.173	602.94
519.389	616.94
519.605	615.94
519.82	618.94
520.036	621.94
520.251	619.94
520.467	655.94
520.682	635.94
520.898	637.94
521.113	644.94
521.329	689.94
521.544	716.94
521.76	827.94
521.975	1252.94
522.19	1235.94
522.406	752.94
522.621	634.94
522.836	579.94
523.052	577.94
523.267	590.94
523.482	567.94
523.698	560.94
523.913	541.94
524.128	556.94
524.343	573.94
524.559	542.94
524.774	535.94
524.989	538.94
525.204	545.94
525.419	531.94
525.634	544.94
525.849	546.94
526.064	527.94
526.28	533.94
526.495	515.94
526.71	516.94
526.925	519.94
527.14	540.94
527.355	501.94
527.57	491.94
527.785	511.94
527.999	525.94
528.214	519.94
528.429	518.94
528.644	502.94
528.859	532.94
529.074	537.94
529.289	510.94
529.503	563.94
529.718	557.94
529.933	536.94
530.148	526.94
530.363	524.94
530.577	509.94
530.792	499.94
531.007	512.94
531.221	498.94
531.436	511.94
531.651	515.94
531.865	519.94
532.08	500.94
532.295	493.94
532.509	495.94
532.724	501.94
532.938	507.94
533.153	513.94
533.367	478.94
533.582	491.94
533.796	502.94
534.011	493.94
534.225	490.94
534.44	487.94
534.654	473.94
534.868	499.94
535.083	511.94
535.297	499.94
535.511	491.94
535.726	495.94
535.94	475.94
536.154	468.94
536.369	472.94
536.583	488.94
536.797	495.94
537.011	486.94
537.225	467.94
537.44	471.94
537.654	490.94
537.868	475.94
538.082	489.94
538.296	490.94
538.51	464.94
538.724	487.94
538.938	483.94
539.153	470.94
539.367	488.94
539.581	495.94
539.795	480.94
540.009	471.94
540.222	471.94
540.436	493.94
540.65	475.94
540.864	477.94
541.078	463.94
541.292	496.94
541.506	472.94
541.72	472.94
541.934	476.94
542.147	476.94
542.361	475.94
542.575	463.94
542.789	455.94
543.002	448.94
543.216	476.94
543.43	480.94
543.644	480.94
543.857	474.94
544.071	467.94
544.285	476.94
544.498	469.94
544.712	474.94
544.925	458.94
545.139	458.94
545.352	476.94
545.566	457.94
545.779	469.94
545.993	455.94
546.206	484.94
546.42	465.94
546.633	462.94
546.847	467.94
547.06	449.94
547.274	472.94
547.487	464.94
547.7	458.94
547.914	453.94
548.127	464.94
548.34	465.94
548.554	462.94
548.767	447.94
548.98	456.94
549.193	473.94
549.407	461.94
549.62	459.94
549.833	458.94
550.046	445.94
550.259	449.94
550.473	466.94
550.686	440.94
550.899	456.94
551.112	454.94
551.325	458.94
551.538	454.94
551.751	432.94
551.964	456.94
552.177	454.94
552.39	449.94
552.603	460.94
552.816	457.94
553.029	471.94
553.242	468.94
553.455	465.94
553.667	481.94
553.88	488.94
554.093	472.94
554.306	464.94
554.519	458.94
554.732	465.94
554.944	445.94
555.157	440.94
555.37	429.94
555.583	466.94
555.795	435.94
556.008	455.94
556.221	436.94
556.433	432.94
556.646	404.94
556.859	428.94
557.071	427.94
557.284	413.94
557.496	406.94
557.709	430.94
557.921	424.94
558.134	421.94
558.346	414.94
558.559	419.94
558.771	392.94
558.984	393.94
559.196	405.94
559.409	440.94
559.621	408.94
559.833	408.94
560.046	398.94
560.258	413.94
560.47	397.94
560.683	415.94
560.895	409.94
561.107	409.94
561.32	391.94
561.532	404.94
561.744	414.94
561.956	423.94
562.168	404.94
562.381	423.94
562.593	427.94
562.805	413.94
563.017	432.94
563.229	409.94
563.441	415.94
563.653	397.94
563.865	420.94
564.077	437.94
564.289	425.94
564.501	432.94
564.713	446.94
564.925	446.94
565.137	420.94
565.349	460.94
565.561	451.94
565.773	459.94
565.985	465.94
566.197	473.94
566.408	490.94
566.62	493.94
566.832	527.94
567.044	532.94
567.255	527.94
567.467	547.94
567.679	524.94
567.891	552.94
568.102	554.94
568.314	544.94
568.526	515.94
568.737	489.94
568.949	500.94
569.161	437.94
569.372	471.94
569.584	444.94
569.795	449.94
570.007	444.94
570.218	451.94
570.43	427.94
570.641	427.94
570.853	424.94
571.064	416.94
571.276	409.94
571.487	405.94
571.698	419.94
571.91	395.94
572.121	384.94
572.333	389.94
572.544	401.94
572.755	363.94
572.966	381.94
573.178	369.94
573.389	370.94
573.6	379.94
573.811	367.94
574.023	369.94
574.234	332.94
574.445	360.94
574.656	375.94
574.867	375.94
575.078	366.94
575.289	371.94
575.501	361.94
575.712	344.94
575.923	373.94
576.134	365.94
576.345	334.94
576.556	347.94
576.767	355.94
576.978	352.94
577.188	351.94
577.399	363.94
577.61	331.94
577.821	348.94
578.032	330.94
578.243	369.94
578.454	473.94
578.665	409.94
578.875	344.94
579.086	347.94
579.297	340.94
579.508	341.94
579.718	327.94
579.929	336.94
580.14	334.94
580.35	337.94
580.561	320.94
580.772	341.94
580.982	323.94
581.193	327.94
581.403	317.94
581.614	326.94
581.825	339.94
582.035	336.94
582.246	340.94
582.456	336.94
582.667	310.94
582.877	319.94
583.087	346.94
583.298	309.94
583.508	337.94
583.719	301.94
583.929	325.94
584.139	319.94
584.35	317.94
584.56	329.94
584.77	317.94
584.981	330.94
585.191	334.94
585.401	319.94
585.611	325.94
585.821	331.94
586.032	323.94
586.242	319.94
586.452	323.94
586.662	312.94
586.872	330.94
587.082	303.94
587.292	321.94
587.502	300.94
587.713	304.94
587.923	332.94
588.133	322.94
588.343	320.94
588.553	315.94
588.762	293.94
588.972	311.94
589.182	355.94
589.392	369.94
589.602	322.94
589.812	351.94
590.022	328.94
590.232	317.94
590.441	322.94
590.651	300.94
590.861	317.94
591.071	297.94
591.281	328.94
591.49	306.94
591.7	312.94
591.91	327.94
592.119	314.94
592.329	330.94
592.539	345.94
592.748	331.94
592.958	324.94
593.167	342.94
593.377	337.94
593.587	374.94
593.796	349.94
594.006	349.94
594.215	332.94
594.424	325.94
594.634	339.94
594.843	334.94
595.053	341.94
595.262	334.94
595.472	343.94
595.681	331.94
595.89	305.94
596.1	324.94
596.309	303.94
596.518	327.94
596.727	314.94
596.937	318.94
597.146	291.94
597.355	317.94
597.564	308.94
597.774	296.94
597.983	314.94
598.192	295.94
598.401	299.94
598.61	294.94
598.819	309.94
599.028	292.94
599.237	295.94
599.446	296.94
599.655	279.94
599.864	268.94
600.073	276.94
600.282	287.94
600.491	279.94
600.7	293.94
600.909	274.94
601.118	289.94
601.327	282.94
601.536	272.94
601.745	277.94
601.953	281.94
602.162	284.94
602.371	288.94
602.58	278.94
602.789	266.94
602.997	282.94
603.206	265.94
603.415	290.94
603.623	270.94
603.832	281.94
604.041	262.94
604.249	261.94
604.458	267.94
604.666	257.94
604.875	273.94
605.084	269.94
605.292	264.94
605.501	276.94
605.709	267.94
605.918	263.94
606.126	281.94
606.334	248.94
606.543	267.94
606.751	255.94
606.96	291.94
607.168	263.94
607.376	266.94
607.585	250.94
607.793	267.94
608.001	273.94
608.21	260.94
608.418	265.94
608.626	271.94
608.834	253.94
609.043	255.94
609.251	265.94
609.459	254.94
609.667	255.94
609.875	236.94
610.083	252.94
610.291	251.94
610.499	258.94
610.707	271.94
610.916	281.94
611.124	259.94
611.332	270.94
611.54	269.94
611.748	271.94
611.955	262.94
612.163	257.94
612.371	247.94
612.579	243.94
612.787	251.94
612.995	270.94
613.203	262.94
613.411	250.94
613.618	259.94
613.826	255.94
614.034	244.94
614.242	249.94
614.449	245.94
614.657	247.94
614.865	249.94
615.072	249.94
615.28	253.94
615.488	251.94
615.695	266.94
615.903	247.94
616.111	263.94
616.318	251.94
616.526	247.94
616.733	272.94
616.941	259.94
617.148	240.94
617.356	255.94
617.563	232.94
617.771	231.94
617.978	215.94
618.185	245.94
618.393	236.94
618.6	243.94
618.807	238.94
619.015	261.94
619.222	244.94
619.429	243.94
619.637	241.94
619.844	233.94
620.051	241.94
620.258	238.94
620.466	235.94
620.673	230.94
620.88	227.94
621.087	244.94
621.294	237.94
621.501	239.94
621.708	243.94
621.915	249.94
622.122	236.94
622.329	251.94
622.536	247.94
622.743	232.94
622.95	220.94
623.157	228.94
623.364	234.94
623.571	222.94
623.778	236.94
623.985	238.94
624.192	227.94
624.399	217.94
624.606	247.94
624.812	232.94
625.019	238.94
625.226	208.94
625.433	218.94
625.639	212.94
625.846	218.94
626.053	219.94
626.259	241.94
626.466	237.94
626.673	217.94
626.879	228.94
627.086	219.94
627.293	227.94
627.499	205.94
627.706	228.94
627.912	231.94
628.119	238.94
628.325	224.94
628.532	222.94
628.738	214.94
628.945	206.94
629.151	213.94
629.357	203.94
629.564	195.94
629.77	200.94
629.976	200.94
630.183	204.94
630.389	216.94
630.595	225.94
630.802	193.94
631.008	208.94
631.214	219.94
631.42	208.94
631.627	220.94
631.833	199.94
632.039	203.94
632.245	193.94
632.451	205.94
632.657	217.94
632.863	191.94
633.069	196.94
633.275	213.94
633.481	192.94
633.688	179.94
633.893	199.94
634.099	193.94
634.305	191.94
634.511	195.94
634.717	192.94
634.923	192.94
635.129	186.94
635.335	204.94
635.541	210.94
635.747	203.94
635.952	181.94
636.158	205.94
636.364	193.94
636.57	214.94
636.775	194.94
636.981	197.94
637.187	177.94
637.392	184.94
637.598	171.94
637.804	188.94
638.009	184.94
638.215	203.94
638.421	188.94
638.626	183.94
638.832	206.94
639.037	211.94
639.243	187.94
639.448	191.94
639.654	185.94
639.859	184.94
640.065	178.94
640.27	180.94
640.475	201.94
640.681	188.94
640.886	184.94
641.091	195.94
641.297	186.94
641.502	182.94
641.707	191.94
641.913	181.94
642.118	173.94
642.323	175.94
642.528	191.94
642.733	183.94
642.939	189.94
643.144	180.94
643.349	188.94
643.554	174.94
643.759	171.94
643.964	161.94
644.169	185.94
644.374	177.94
644.579	191.94
644.784	172.94
644.989	183.94
645.194	177.94
645.399	183.94
645.604	185.94
645.809	172.94
646.014	173.94
646.219	191.94
646.423	186.94
646.628	180.94
646.833	180.94
647.038	183.94
647.243	179.94
647.447	180.94
647.652	172.94
647.857	165.94
648.062	185.94
648.266	174.94
648.471	182.94
648.676	192.94
648.88	174.94
649.085	176.94
649.289	183.94
649.494	179.94
649.698	197.94
649.903	191.94
650.107	171.94
650.312	184.94
650.516	151.94
650.721	166.94
650.925	162.94
651.13	179.94
651.334	165.94
651.539	167.94
651.743	170.94
651.947	157.94
652.152	163.94
652.356	160.94
652.56	161.94
652.764	169.94
652.969	158.94
653.173	154.94
653.377	158.94
653.581	152.94
653.785	145.94
653.99	150.94
654.194	126.94
654.398	156.94
654.602	139.94
654.806	153.94
655.01	143.94
655.214	168.94
655.418	156.94
655.622	144.94
655.826	162.94
656.03	142.94
656.234	144.94
656.438	166.94
656.642	137.94
656.846	144.94
657.049	139.94
657.253	153.94
657.457	143.94
657.661	131.94
657.865	119.94
658.068	126.94
658.272	127.94
658.476	122.94
658.68	113.94
658.883	107.94
659.087	115.94
659.291	112.94
659.494	102.94
659.698	104.94
659.901	110.94
660.105	83.94
660.309	108.94
660.512	102.94
660.716	85.94
660.919	97.94
661.123	96.94
661.326	112.94
661.53	85.94
661.733	89.94
661.936	86.94
662.14	101.94
662.343	83.94
662.546	93.94
662.75	87.94
662.953	100.94
663.156	88.94
663.36	81.94
663.563	93.94
663.766	75.94
663.969	81.94
664.173	78.94
664.376	94.94
664.579	81.94
664.782	81.94
664.985	97.94
665.188	93.94
665.391	82.94
665.594	78.94
665.797	81.94
666	86.94
666.203	86.94
666.406	86.94
666.609	86.94
666.812	95.94
667.015	79.94
667.218	82.94
667.421	90.94
667.624	96.94
667.827	92.94
668.03	72.94
668.232	74.94
668.435	96.94
668.638	85.94
668.841	88.94
669.043	79.94
669.246	81.94
669.449	79.94
669.651	75.94
669.854	87.94
670.057	85.94
670.259	84.94
670.462	80.94
670.665	88.94
670.867	79.94
671.07	64.94
671.272	87.94
671.475	98.94
671.677	84.94
671.88	86.94
672.082	88.94
672.284	64.94
672.487	83.94
672.689	67.94
672.892	81.94
