Data from 1966.PennyLincolnUp.Lamp.En5.5.200Scan.071719.P1.Scan2.head_HRD10591_14-17-16-094.txt Node
Date: Thu Jul 18 14:17:16 EDT 2019
User: cochatt
Spectrometer: HR+D1059
Trigger mode: 1
Integration Time (sec): 1.000000E-1
Scans to average: 1
Electric dark correction enabled: true
Nonlinearity correction enabled: false
Boxcar width: 0
XAxis mode: Wavelengths
Number of Pixels in Spectrum: 2048
>>>>>Begin Spectral Data<<<<<
223.165	1.12
223.4	1.12
223.635	1.12
223.869	-5.88
224.104	-19.88
224.338	-16.88
224.573	-21.88
224.808	-14.88
225.042	-12.88
225.277	-13.88
225.511	-15.88
225.746	-0.88
225.98	7.12
226.215	26.12
226.449	12.12
226.683	26.12
226.918	18.12
227.152	32.12
227.387	42.12
227.621	41.12
227.856	42.12
228.09	49.12
228.324	44.12
228.559	71.12
228.793	72.12
229.027	91.12
229.262	106.12
229.496	106.12
229.73	130.12
229.964	147.12
230.199	122.12
230.433	124.12
230.667	90.12
230.901	103.12
231.136	108.12
231.37	129.12
231.604	128.12
231.838	115.12
232.072	112.12
232.306	131.12
232.541	110.12
232.775	118.12
233.009	128.12
233.243	118.12
233.477	124.12
233.711	111.12
233.945	116.12
234.179	108.12
234.413	120.12
234.647	118.12
234.881	127.12
235.115	128.12
235.349	116.12
235.583	111.12
235.817	127.12
236.051	130.12
236.285	129.12
236.519	130.12
236.753	134.12
236.987	141.12
237.221	186.12
237.455	226.12
237.689	183.12
237.922	146.12
238.156	143.12
238.39	134.12
238.624	131.12
238.858	131.12
239.091	132.12
239.325	127.12
239.559	137.12
239.793	135.12
240.027	142.12
240.26	136.12
240.494	159.12
240.728	162.12
240.961	150.12
241.195	150.12
241.429	154.12
241.662	143.12
241.896	136.12
242.13	132.12
242.363	139.12
242.597	139.12
242.83	136.12
243.064	132.12
243.298	153.12
243.531	128.12
243.765	161.12
243.998	152.12
244.232	144.12
244.465	155.12
244.699	152.12
244.932	159.12
245.166	144.12
245.399	155.12
245.633	160.12
245.866	152.12
246.099	145.12
246.333	152.12
246.566	162.12
246.8	156.12
247.033	153.12
247.266	149.12
247.5	174.12
247.733	168.12
247.966	174.12
248.2	172.12
248.433	187.12
248.666	188.12
248.899	187.12
249.133	209.12
249.366	224.12
249.599	179.12
249.832	194.12
250.066	203.12
250.299	183.12
250.532	204.12
250.765	198.12
250.998	208.12
251.231	225.12
251.465	212.12
251.698	202.12
251.931	186.12
252.164	213.12
252.397	203.12
252.63	201.12
252.863	204.12
253.096	211.12
253.329	225.12
253.562	229.12
253.795	217.12
254.028	220.12
254.261	230.12
254.494	231.12
254.727	254.12
254.96	286.12
255.193	247.12
255.426	255.12
255.659	238.12
255.892	232.12
256.124	238.12
256.357	230.12
256.59	225.12
256.823	224.12
257.056	208.12
257.289	205.12
257.521	210.12
257.754	203.12
257.987	225.12
258.22	222.12
258.452	225.12
258.685	209.12
258.918	210.12
259.151	202.12
259.383	223.12
259.616	235.12
259.849	223.12
260.081	232.12
260.314	261.12
260.547	255.12
260.779	237.12
261.012	252.12
261.244	232.12
261.477	232.12
261.71	213.12
261.942	212.12
262.175	241.12
262.407	222.12
262.64	233.12
262.872	204.12
263.105	225.12
263.337	226.12
263.57	214.12
263.802	231.12
264.035	208.12
264.267	239.12
264.499	216.12
264.732	208.12
264.964	208.12
265.197	217.12
265.429	217.12
265.661	218.12
265.894	212.12
266.126	222.12
266.358	218.12
266.591	240.12
266.823	236.12
267.055	211.12
267.287	240.12
267.52	251.12
267.752	226.12
267.984	248.12
268.216	227.12
268.448	228.12
268.681	250.12
268.913	240.12
269.145	284.12
269.377	272.12
269.609	270.12
269.841	274.12
270.073	271.12
270.306	294.12
270.538	308.12
270.77	326.12
271.002	294.12
271.234	301.12
271.466	299.12
271.698	316.12
271.93	313.12
272.162	326.12
272.394	312.12
272.626	300.12
272.858	292.12
273.09	269.12
273.322	276.12
273.553	282.12
273.785	288.12
274.017	268.12
274.249	279.12
274.481	269.12
274.713	268.12
274.945	275.12
275.176	267.12
275.408	261.12
275.64	251.12
275.872	239.12
276.104	255.12
276.335	267.12
276.567	275.12
276.799	274.12
277.031	287.12
277.262	315.12
277.494	324.12
277.726	298.12
277.957	295.12
278.189	290.12
278.421	272.12
278.652	275.12
278.884	286.12
279.115	276.12
279.347	275.12
279.579	275.12
279.81	253.12
280.042	275.12
280.273	280.12
280.505	281.12
280.736	262.12
280.968	272.12
281.199	281.12
281.431	272.12
281.662	272.12
281.894	250.12
282.125	265.12
282.356	277.12
282.588	311.12
282.819	298.12
283.051	275.12
283.282	275.12
283.513	288.12
283.745	278.12
283.976	293.12
284.207	302.12
284.439	286.12
284.67	280.12
284.901	275.12
285.132	286.12
285.364	273.12
285.595	294.12
285.826	274.12
286.057	296.12
286.288	280.12
286.52	272.12
286.751	284.12
286.982	291.12
287.213	299.12
287.444	290.12
287.675	290.12
287.906	307.12
288.138	316.12
288.369	297.12
288.6	313.12
288.831	294.12
289.062	332.12
289.293	299.12
289.524	289.12
289.755	314.12
289.986	291.12
290.217	289.12
290.448	308.12
290.679	286.12
290.91	304.12
291.141	311.12
291.371	279.12
291.602	311.12
291.833	291.12
292.064	288.12
292.295	288.12
292.526	282.12
292.757	299.12
292.987	308.12
293.218	293.12
293.449	319.12
293.68	299.12
293.91	297.12
294.141	298.12
294.372	291.12
294.603	305.12
294.833	296.12
295.064	288.12
295.295	301.12
295.525	298.12
295.756	295.12
295.987	310.12
296.217	322.12
296.448	324.12
296.679	319.12
296.909	297.12
297.14	300.12
297.37	314.12
297.601	298.12
297.831	301.12
298.062	314.12
298.292	322.12
298.523	318.12
298.753	321.12
298.984	321.12
299.214	308.12
299.445	334.12
299.675	310.12
299.905	324.12
300.136	316.12
300.366	311.12
300.597	314.12
300.827	340.12
301.057	328.12
301.288	337.12
301.518	340.12
301.748	327.12
301.979	335.12
302.209	327.12
302.439	348.12
302.669	327.12
302.9	340.12
303.13	352.12
303.36	337.12
303.59	340.12
303.82	342.12
304.051	328.12
304.281	345.12
304.511	326.12
304.741	323.12
304.971	339.12
305.201	331.12
305.431	334.12
305.661	322.12
305.891	329.12
306.121	335.12
306.352	339.12
306.582	343.12
306.812	354.12
307.042	331.12
307.272	331.12
307.502	355.12
307.731	339.12
307.961	351.12
308.191	344.12
308.421	326.12
308.651	356.12
308.881	359.12
309.111	376.12
309.341	361.12
309.571	339.12
309.8	363.12
310.03	368.12
310.26	383.12
310.49	352.12
310.72	363.12
310.949	392.12
311.179	382.12
311.409	389.12
311.639	376.12
311.868	387.12
312.098	376.12
312.328	384.12
312.557	386.12
312.787	402.12
313.017	401.12
313.246	385.12
313.476	365.12
313.706	376.12
313.935	382.12
314.165	379.12
314.394	403.12
314.624	386.12
314.853	391.12
315.083	388.12
315.312	387.12
315.542	383.12
315.771	377.12
316.001	380.12
316.23	398.12
316.46	366.12
316.689	376.12
316.919	394.12
317.148	389.12
317.377	399.12
317.607	384.12
317.836	394.12
318.065	382.12
318.295	394.12
318.524	384.12
318.753	377.12
318.983	392.12
319.212	387.12
319.441	379.12
319.67	391.12
319.9	379.12
320.129	381.12
320.358	400.12
320.587	392.12
320.816	400.12
321.046	386.12
321.275	402.12
321.504	399.12
321.733	402.12
321.962	408.12
322.191	425.12
322.42	434.12
322.649	441.12
322.878	441.12
323.108	452.12
323.337	488.12
323.566	483.12
323.795	514.12
324.024	542.12
324.253	660.12
324.482	902.12
324.71	1360.12
324.939	2035.12
325.168	1806.12
325.397	890.12
325.626	590.12
325.855	518.12
326.084	491.12
326.313	486.12
326.542	500.12
326.77	507.12
326.999	654.12
327.228	824.12
327.457	1222.12
327.686	1557.12
327.914	1050.12
328.143	669.12
328.372	591.12
328.6	563.12
328.829	555.12
329.058	544.12
329.287	528.12
329.515	554.12
329.744	502.12
329.972	483.12
330.201	512.12
330.43	522.12
330.658	562.12
330.887	570.12
331.115	594.12
331.344	516.12
331.572	490.12
331.801	474.12
332.03	496.12
332.258	470.12
332.486	467.12
332.715	448.12
332.943	457.12
333.172	436.12
333.4	456.12
333.629	467.12
333.857	479.12
334.085	484.12
334.314	500.12
334.542	552.12
334.771	545.12
334.999	496.12
335.227	479.12
335.455	463.12
335.684	472.12
335.912	480.12
336.14	459.12
336.369	464.12
336.597	458.12
336.825	460.12
337.053	457.12
337.281	449.12
337.51	464.12
337.738	467.12
337.966	451.12
338.194	468.12
338.422	457.12
338.65	463.12
338.878	433.12
339.106	424.12
339.334	446.12
339.562	430.12
339.79	430.12
340.018	452.12
340.246	438.12
340.474	461.12
340.702	442.12
340.93	444.12
341.158	412.12
341.386	440.12
341.614	452.12
341.842	435.12
342.07	443.12
342.298	436.12
342.526	439.12
342.754	434.12
342.981	425.12
343.209	406.12
343.437	445.12
343.665	425.12
343.893	448.12
344.12	467.12
344.348	435.12
344.576	468.12
344.804	462.12
345.031	461.12
345.259	460.12
345.487	443.12
345.714	447.12
345.942	449.12
346.17	432.12
346.397	419.12
346.625	448.12
346.853	426.12
347.08	436.12
347.308	450.12
347.535	452.12
347.763	440.12
347.99	453.12
348.218	432.12
348.445	430.12
348.673	436.12
348.9	438.12
349.128	430.12
349.355	426.12
349.583	423.12
349.81	416.12
350.037	453.12
350.265	408.12
350.492	408.12
350.72	424.12
350.947	414.12
351.174	434.12
351.402	451.12
351.629	421.12
351.856	420.12
352.083	433.12
352.311	443.12
352.538	447.12
352.765	441.12
352.992	416.12
353.22	417.12
353.447	428.12
353.674	440.12
353.901	422.12
354.128	408.12
354.355	410.12
354.583	414.12
354.81	418.12
355.037	416.12
355.264	418.12
355.491	400.12
355.718	419.12
355.945	398.12
356.172	416.12
356.399	400.12
356.626	380.12
356.853	402.12
357.08	403.12
357.307	415.12
357.534	407.12
357.761	401.12
357.988	416.12
358.215	432.12
358.441	401.12
358.668	411.12
358.895	388.12
359.122	414.12
359.349	431.12
359.576	440.12
359.802	452.12
360.029	464.12
360.256	508.12
360.483	488.12
360.709	463.12
360.936	438.12
361.163	452.12
361.39	439.12
361.616	438.12
361.843	431.12
362.07	443.12
362.296	458.12
362.523	459.12
362.749	444.12
362.976	431.12
363.203	429.12
363.429	435.12
363.656	443.12
363.882	420.12
364.109	400.12
364.335	421.12
364.562	414.12
364.788	426.12
365.015	442.12
365.241	448.12
365.468	439.12
365.694	430.12
365.92	420.12
366.147	438.12
366.373	423.12
366.599	408.12
366.826	435.12
367.052	426.12
367.278	419.12
367.505	424.12
367.731	417.12
367.957	415.12
368.184	432.12
368.41	446.12
368.636	421.12
368.862	439.12
369.089	435.12
369.315	438.12
369.541	428.12
369.767	409.12
369.993	424.12
370.219	426.12
370.445	429.12
370.672	427.12
370.898	434.12
371.124	440.12
371.35	446.12
371.576	429.12
371.802	419.12
372.028	440.12
372.254	425.12
372.48	442.12
372.706	435.12
372.932	446.12
373.158	452.12
373.384	464.12
373.61	463.12
373.835	443.12
374.061	440.12
374.287	448.12
374.513	440.12
374.739	432.12
374.965	465.12
375.191	435.12
375.416	431.12
375.642	434.12
375.868	448.12
376.094	429.12
376.319	428.12
376.545	444.12
376.771	447.12
376.997	440.12
377.222	428.12
377.448	436.12
377.674	459.12
377.899	418.12
378.125	432.12
378.35	421.12
378.576	423.12
378.802	441.12
379.027	438.12
379.253	420.12
379.478	409.12
379.704	410.12
379.929	449.12
380.155	430.12
380.38	423.12
380.606	411.12
380.831	449.12
381.057	454.12
381.282	438.12
381.507	446.12
381.733	447.12
381.958	445.12
382.184	432.12
382.409	431.12
382.634	431.12
382.86	454.12
383.085	430.12
383.31	454.12
383.535	461.12
383.761	450.12
383.986	456.12
384.211	458.12
384.436	463.12
384.662	479.12
384.887	464.12
385.112	450.12
385.337	458.12
385.562	464.12
385.787	476.12
386.013	510.12
386.238	479.12
386.463	480.12
386.688	487.12
386.913	464.12
387.138	476.12
387.363	488.12
387.588	486.12
387.813	471.12
388.038	484.12
388.263	485.12
388.488	480.12
388.713	484.12
388.938	490.12
389.163	485.12
389.387	466.12
389.612	489.12
389.837	481.12
390.062	480.12
390.287	490.12
390.512	479.12
390.736	482.12
390.961	478.12
391.186	482.12
391.411	506.12
391.636	520.12
391.86	506.12
392.085	497.12
392.31	480.12
392.534	498.12
392.759	501.12
392.984	504.12
393.208	523.12
393.433	510.12
393.658	507.12
393.882	502.12
394.107	497.12
394.331	473.12
394.556	491.12
394.78	505.12
395.005	502.12
395.229	506.12
395.454	513.12
395.678	503.12
395.903	506.12
396.127	547.12
396.352	542.12
396.576	521.12
396.801	508.12
397.025	495.12
397.249	516.12
397.474	521.12
397.698	525.12
397.922	538.12
398.147	545.12
398.371	564.12
398.595	555.12
398.82	560.12
399.044	590.12
399.268	596.12
399.492	614.12
399.717	649.12
399.941	683.12
400.165	690.12
400.389	720.12
400.613	634.12
400.837	610.12
401.062	590.12
401.286	589.12
401.51	542.12
401.734	566.12
401.958	562.12
402.182	559.12
402.406	598.12
402.63	581.12
402.854	574.12
403.078	566.12
403.302	566.12
403.526	589.12
403.75	595.12
403.974	601.12
404.198	585.12
404.422	585.12
404.645	605.12
404.869	589.12
405.093	645.12
405.317	678.12
405.541	700.12
405.765	648.12
405.988	639.12
406.212	617.12
406.436	659.12
406.66	630.12
406.883	641.12
407.107	673.12
407.331	689.12
407.555	764.12
407.778	768.12
408.002	721.12
408.226	674.12
408.449	630.12
408.673	638.12
408.896	677.12
409.12	716.12
409.344	670.12
409.567	625.12
409.791	613.12
410.014	603.12
410.238	608.12
410.461	601.12
410.685	610.12
410.908	607.12
411.132	642.12
411.355	682.12
411.578	651.12
411.802	588.12
412.025	596.12
412.249	593.12
412.472	618.12
412.695	671.12
412.919	654.12
413.142	623.12
413.365	575.12
413.589	558.12
413.812	554.12
414.035	575.12
414.258	560.12
414.482	566.12
414.705	582.12
414.928	586.12
415.151	559.12
415.374	559.12
415.597	546.12
415.821	552.12
416.044	568.12
416.267	555.12
416.49	546.12
416.713	550.12
416.936	550.12
417.159	543.12
417.382	547.12
417.605	547.12
417.828	582.12
418.051	586.12
418.274	563.12
418.497	576.12
418.72	538.12
418.943	579.12
419.166	575.12
419.389	553.12
419.611	604.12
419.834	560.12
420.057	572.12
420.28	563.12
420.503	583.12
420.726	584.12
420.948	613.12
421.171	640.12
421.394	650.12
421.617	620.12
421.839	578.12
422.062	571.12
422.285	602.12
422.507	647.12
422.73	733.12
422.953	688.12
423.175	625.12
423.398	610.12
423.621	591.12
423.843	620.12
424.066	635.12
424.288	612.12
424.511	634.12
424.733	723.12
424.956	805.12
425.178	758.12
425.401	753.12
425.623	753.12
425.846	658.12
426.068	607.12
426.291	608.12
426.513	622.12
426.735	640.12
426.958	683.12
427.18	743.12
427.402	890.12
427.625	994.12
427.847	851.12
428.069	747.12
428.292	662.12
428.514	606.12
428.736	602.12
428.958	587.12
429.181	571.12
429.403	569.12
429.625	572.12
429.847	608.12
430.069	682.12
430.292	678.12
430.514	591.12
430.736	566.12
430.958	578.12
431.18	565.12
431.402	550.12
431.624	532.12
431.846	533.12
432.068	539.12
432.29	531.12
432.512	548.12
432.734	567.12
432.956	564.12
433.178	560.12
433.4	570.12
433.622	530.12
433.844	564.12
434.066	529.12
434.287	546.12
434.509	572.12
434.731	550.12
434.953	561.12
435.175	582.12
435.397	627.12
435.618	633.12
435.84	670.12
436.062	746.12
436.284	828.12
436.505	686.12
436.727	609.12
436.949	600.12
437.17	581.12
437.392	585.12
437.614	595.12
437.835	616.12
438.057	716.12
438.278	832.12
438.5	794.12
438.721	919.12
438.943	881.12
439.165	678.12
439.386	619.12
439.608	623.12
439.829	623.12
440.05	620.12
440.272	669.12
440.493	647.12
440.715	614.12
440.936	587.12
441.158	583.12
441.379	571.12
441.6	591.12
441.822	601.12
442.043	646.12
442.264	747.12
442.486	780.12
442.707	670.12
442.928	636.12
443.149	641.12
443.371	667.12
443.592	724.12
443.813	828.12
444.034	887.12
444.255	721.12
444.476	643.12
444.698	638.12
444.919	666.12
445.14	735.12
445.361	716.12
445.582	674.12
445.803	741.12
446.024	842.12
446.245	841.12
446.466	782.12
446.687	681.12
446.908	626.12
447.129	585.12
447.35	576.12
447.571	582.12
447.792	558.12
448.013	591.12
448.234	610.12
448.455	624.12
448.675	758.12
448.896	879.12
449.117	758.12
449.338	706.12
449.559	814.12
449.779	946.12
450	742.12
450.221	603.12
450.442	568.12
450.662	564.12
450.883	562.12
451.104	541.12
451.324	557.12
451.545	541.12
451.766	531.12
451.986	494.12
452.207	494.12
452.428	506.12
452.648	494.12
452.869	524.12
453.089	520.12
453.31	539.12
453.53	516.12
453.751	520.12
453.971	504.12
454.192	535.12
454.412	518.12
454.633	527.12
454.853	513.12
455.073	520.12
455.294	540.12
455.514	599.12
455.734	590.12
455.955	534.12
456.175	489.12
456.395	493.12
456.616	498.12
456.836	503.12
457.056	481.12
457.276	506.12
457.497	492.12
457.717	505.12
457.937	477.12
458.157	499.12
458.377	511.12
458.598	515.12
458.818	583.12
459.038	646.12
459.258	660.12
459.478	591.12
459.698	560.12
459.918	558.12
460.138	574.12
460.358	560.12
460.578	557.12
460.798	556.12
461.018	578.12
461.238	565.12
461.458	553.12
461.678	574.12
461.898	570.12
462.118	578.12
462.338	588.12
462.558	590.12
462.777	596.12
462.997	631.12
463.217	632.12
463.437	618.12
463.657	582.12
463.876	610.12
464.096	600.12
464.316	600.12
464.536	599.12
464.755	617.12
464.975	617.12
465.195	661.12
465.414	691.12
465.634	615.12
465.854	582.12
466.073	556.12
466.293	557.12
466.512	545.12
466.732	525.12
466.951	526.12
467.171	527.12
467.391	540.12
467.61	547.12
467.829	533.12
468.049	525.12
468.268	528.12
468.488	522.12
468.707	531.12
468.927	499.12
469.146	506.12
469.365	514.12
469.585	497.12
469.804	527.12
470.023	525.12
470.243	542.12
470.462	550.12
470.681	563.12
470.901	546.12
471.12	526.12
471.339	532.12
471.558	557.12
471.777	529.12
471.997	555.12
472.216	537.12
472.435	588.12
472.654	558.12
472.873	557.12
473.092	521.12
473.311	538.12
473.53	537.12
473.749	552.12
473.968	561.12
474.187	682.12
474.406	715.12
474.625	586.12
474.844	547.12
475.063	530.12
475.282	536.12
475.501	551.12
475.72	550.12
475.939	565.12
476.158	547.12
476.377	557.12
476.596	566.12
476.814	582.12
477.033	569.12
477.252	572.12
477.471	586.12
477.69	592.12
477.908	577.12
478.127	572.12
478.346	604.12
478.564	615.12
478.783	619.12
479.002	617.12
479.22	615.12
479.439	632.12
479.658	637.12
479.876	643.12
480.095	678.12
480.313	671.12
480.532	682.12
480.751	663.12
480.969	655.12
481.188	727.12
481.406	748.12
481.624	685.12
481.843	664.12
482.061	633.12
482.28	648.12
482.498	632.12
482.717	631.12
482.935	643.12
483.153	622.12
483.372	654.12
483.59	634.12
483.808	632.12
484.027	660.12
484.245	644.12
484.463	608.12
484.681	634.12
484.9	649.12
485.118	655.12
485.336	625.12
485.554	664.12
485.772	674.12
485.99	652.12
486.209	646.12
486.427	646.12
486.645	652.12
486.863	699.12
487.081	704.12
487.299	689.12
487.517	670.12
487.735	674.12
487.953	672.12
488.171	703.12
488.389	673.12
488.607	682.12
488.825	665.12
489.043	686.12
489.261	680.12
489.479	699.12
489.696	699.12
489.914	692.12
490.132	686.12
490.35	703.12
490.568	715.12
490.786	730.12
491.003	705.12
491.221	734.12
491.439	739.12
491.657	770.12
491.874	778.12
492.092	760.12
492.31	797.12
492.527	762.12
492.745	790.12
492.963	796.12
493.18	788.12
493.398	785.12
493.615	784.12
493.833	781.12
494.05	817.12
494.268	785.12
494.485	819.12
494.703	816.12
494.92	775.12
495.138	792.12
495.355	799.12
495.573	787.12
495.79	803.12
496.008	800.12
496.225	808.12
496.442	796.12
496.66	776.12
496.877	794.12
497.094	802.12
497.312	836.12
497.529	837.12
497.746	837.12
497.963	818.12
498.181	875.12
498.398	891.12
498.615	877.12
498.832	945.12
499.049	935.12
499.267	963.12
499.484	989.12
499.701	1040.12
499.918	1068.12
500.135	1123.12
500.352	1170.12
500.569	1179.12
500.786	1218.12
501.003	1160.12
501.22	1160.12
501.437	1102.12
501.654	1066.12
501.871	1035.12
502.088	1017.12
502.305	964.12
502.522	928.12
502.739	906.12
502.956	863.12
503.172	882.12
503.389	831.12
503.606	848.12
503.823	833.12
504.04	822.12
504.256	824.12
504.473	812.12
504.69	804.12
504.907	834.12
505.123	791.12
505.34	796.12
505.557	801.12
505.773	739.12
505.99	783.12
506.207	787.12
506.423	746.12
506.64	744.12
506.856	752.12
507.073	750.12
507.289	721.12
507.506	731.12
507.722	748.12
507.939	758.12
508.155	738.12
508.372	712.12
508.588	717.12
508.805	706.12
509.021	736.12
509.238	712.12
509.454	740.12
509.67	714.12
509.887	715.12
510.103	744.12
510.319	729.12
510.536	800.12
510.752	1196.12
510.968	1006.12
511.184	718.12
511.401	692.12
511.617	686.12
511.833	678.12
512.049	668.12
512.265	683.12
512.481	662.12
512.698	684.12
512.914	667.12
513.13	671.12
513.346	660.12
513.562	695.12
513.778	678.12
513.994	682.12
514.21	712.12
514.426	701.12
514.642	726.12
514.858	748.12
515.074	804.12
515.29	905.12
515.506	1246.12
515.721	1034.12
515.937	782.12
516.153	747.12
516.369	700.12
516.585	712.12
516.801	736.12
517.016	720.12
517.232	704.12
517.448	703.12
517.664	703.12
517.879	730.12
518.095	708.12
518.311	732.12
518.527	699.12
518.742	694.12
518.958	691.12
519.173	687.12
519.389	691.12
519.605	658.12
519.82	699.12
520.036	690.12
520.251	712.12
520.467	702.12
520.682	714.12
520.898	712.12
521.113	755.12
521.329	791.12
521.544	843.12
521.76	1035.12
521.975	1542.12
522.19	1556.12
522.406	932.12
522.621	705.12
522.836	675.12
523.052	646.12
523.267	630.12
523.482	628.12
523.698	635.12
523.913	620.12
524.128	619.12
524.343	637.12
524.559	598.12
524.774	610.12
524.989	585.12
525.204	591.12
525.419	608.12
525.634	601.12
525.849	595.12
526.064	572.12
526.28	568.12
526.495	575.12
526.71	571.12
526.925	577.12
527.14	546.12
527.355	580.12
527.57	555.12
527.785	576.12
527.999	565.12
528.214	582.12
528.429	550.12
528.644	572.12
528.859	580.12
529.074	585.12
529.289	588.12
529.503	663.12
529.718	637.12
529.933	601.12
530.148	564.12
530.363	564.12
530.577	564.12
530.792	552.12
531.007	576.12
531.221	539.12
531.436	563.12
531.651	547.12
531.865	541.12
532.08	527.12
532.295	546.12
532.509	554.12
532.724	563.12
532.938	538.12
533.153	538.12
533.367	544.12
533.582	540.12
533.796	556.12
534.011	551.12
534.225	538.12
534.44	548.12
534.654	532.12
534.868	555.12
535.083	536.12
535.297	538.12
535.511	539.12
535.726	554.12
535.94	538.12
536.154	536.12
536.369	568.12
536.583	552.12
536.797	528.12
537.011	514.12
537.225	519.12
537.44	517.12
537.654	539.12
537.868	527.12
538.082	503.12
538.296	541.12
538.51	524.12
538.724	539.12
538.938	537.12
539.153	521.12
539.367	509.12
539.581	526.12
539.795	525.12
540.009	517.12
540.222	529.12
540.436	507.12
540.65	527.12
540.864	537.12
541.078	534.12
541.292	526.12
541.506	510.12
541.72	503.12
541.934	520.12
542.147	529.12
542.361	517.12
542.575	514.12
542.789	531.12
543.002	515.12
543.216	543.12
543.43	544.12
543.644	533.12
543.857	512.12
544.071	514.12
544.285	508.12
544.498	513.12
544.712	526.12
544.925	523.12
545.139	520.12
545.352	493.12
545.566	503.12
545.779	494.12
545.993	500.12
546.206	512.12
546.42	513.12
546.633	510.12
546.847	489.12
547.06	502.12
547.274	488.12
547.487	499.12
547.7	516.12
547.914	497.12
548.127	487.12
548.34	498.12
548.554	510.12
548.767	490.12
548.98	489.12
549.193	476.12
549.407	502.12
549.62	490.12
549.833	494.12
550.046	506.12
550.259	497.12
550.473	518.12
550.686	489.12
550.899	496.12
551.112	487.12
551.325	481.12
551.538	486.12
551.751	487.12
551.964	514.12
552.177	491.12
552.39	490.12
552.603	500.12
552.816	518.12
553.029	493.12
553.242	486.12
553.455	514.12
553.667	529.12
553.88	521.12
554.093	519.12
554.306	527.12
554.519	497.12
554.732	503.12
554.944	494.12
555.157	488.12
555.37	479.12
555.583	475.12
555.795	475.12
556.008	471.12
556.221	452.12
556.433	493.12
556.646	474.12
556.859	448.12
557.071	464.12
557.284	441.12
557.496	446.12
557.709	462.12
557.921	443.12
558.134	446.12
558.346	458.12
558.559	455.12
558.771	457.12
558.984	442.12
559.196	450.12
559.409	419.12
559.621	449.12
559.833	456.12
560.046	433.12
560.258	462.12
560.47	445.12
560.683	469.12
560.895	446.12
561.107	462.12
561.32	417.12
561.532	438.12
561.744	436.12
561.956	451.12
562.168	448.12
562.381	460.12
562.593	464.12
562.805	460.12
563.017	466.12
563.229	472.12
563.441	455.12
563.653	449.12
563.865	431.12
564.077	445.12
564.289	458.12
564.501	458.12
564.713	478.12
564.925	477.12
565.137	488.12
565.349	487.12
565.561	490.12
565.773	516.12
565.985	505.12
566.197	497.12
566.408	541.12
566.62	533.12
566.832	553.12
567.044	550.12
567.255	563.12
567.467	586.12
567.679	579.12
567.891	612.12
568.102	607.12
568.314	572.12
568.526	556.12
568.737	539.12
568.949	508.12
569.161	503.12
569.372	503.12
569.584	488.12
569.795	474.12
570.007	452.12
570.218	499.12
570.43	474.12
570.641	462.12
570.853	444.12
571.064	445.12
571.276	446.12
571.487	448.12
571.698	422.12
571.91	425.12
572.121	420.12
572.333	424.12
572.544	403.12
572.755	407.12
572.966	425.12
573.178	406.12
573.389	402.12
573.6	402.12
573.811	402.12
574.023	392.12
574.234	415.12
574.445	377.12
574.656	399.12
574.867	408.12
575.078	388.12
575.289	386.12
575.501	383.12
575.712	379.12
575.923	380.12
576.134	368.12
576.345	390.12
576.556	378.12
576.767	387.12
576.978	380.12
577.188	360.12
577.399	380.12
577.61	353.12
577.821	368.12
578.032	375.12
578.243	395.12
578.454	563.12
578.665	472.12
578.875	371.12
579.086	344.12
579.297	369.12
579.508	362.12
579.718	368.12
579.929	343.12
580.14	348.12
580.35	353.12
580.561	365.12
580.772	343.12
580.982	355.12
581.193	333.12
581.403	332.12
581.614	339.12
581.825	339.12
582.035	323.12
582.246	345.12
582.456	359.12
582.667	335.12
582.877	350.12
583.087	332.12
583.298	344.12
583.508	335.12
583.719	362.12
583.929	350.12
584.139	349.12
584.35	340.12
584.56	356.12
584.77	338.12
584.981	345.12
585.191	328.12
585.401	340.12
585.611	337.12
585.821	323.12
586.032	346.12
586.242	330.12
586.452	342.12
586.662	338.12
586.872	335.12
587.082	339.12
587.292	334.12
587.502	347.12
587.713	349.12
587.923	335.12
588.133	326.12
588.343	330.12
588.553	334.12
588.762	366.12
588.972	344.12
589.182	355.12
589.392	370.12
589.602	343.12
589.812	346.12
590.022	350.12
590.232	321.12
590.441	332.12
590.651	339.12
590.861	353.12
591.071	346.12
591.281	352.12
591.49	329.12
591.7	333.12
591.91	336.12
592.119	333.12
592.329	366.12
592.539	339.12
592.748	361.12
592.958	366.12
593.167	358.12
593.377	366.12
593.587	378.12
593.796	373.12
594.006	361.12
594.215	380.12
594.424	357.12
594.634	349.12
594.843	373.12
595.053	352.12
595.262	344.12
595.472	364.12
595.681	340.12
595.89	344.12
596.1	319.12
596.309	343.12
596.518	317.12
596.727	322.12
596.937	321.12
597.146	329.12
597.355	318.12
597.564	306.12
597.774	305.12
597.983	307.12
598.192	305.12
598.401	318.12
598.61	304.12
598.819	315.12
599.028	305.12
599.237	303.12
599.446	302.12
599.655	311.12
599.864	310.12
600.073	303.12
600.282	310.12
600.491	311.12
600.7	317.12
600.909	295.12
601.118	284.12
601.327	300.12
601.536	287.12
601.745	298.12
601.953	297.12
602.162	295.12
602.371	283.12
602.58	307.12
602.789	288.12
602.997	280.12
603.206	304.12
603.415	291.12
603.623	273.12
603.832	269.12
604.041	294.12
604.249	278.12
604.458	285.12
604.666	294.12
604.875	279.12
605.084	272.12
605.292	291.12
605.501	289.12
605.709	283.12
605.918	282.12
606.126	288.12
606.334	284.12
606.543	296.12
606.751	272.12
606.96	264.12
607.168	255.12
607.376	271.12
607.585	259.12
607.793	272.12
608.001	272.12
608.21	265.12
608.418	280.12
608.626	290.12
608.834	275.12
609.043	280.12
609.251	274.12
609.459	272.12
609.667	265.12
609.875	269.12
610.083	282.12
610.291	270.12
610.499	267.12
610.707	284.12
610.916	275.12
611.124	265.12
611.332	288.12
611.54	276.12
611.748	262.12
611.955	259.12
612.163	266.12
612.371	275.12
612.579	269.12
612.787	265.12
612.995	284.12
613.203	275.12
613.411	268.12
613.618	265.12
613.826	292.12
614.034	263.12
614.242	268.12
614.449	280.12
614.657	264.12
614.865	277.12
615.072	263.12
615.28	286.12
615.488	263.12
615.695	268.12
615.903	271.12
616.111	270.12
616.318	274.12
616.526	270.12
616.733	263.12
616.941	282.12
617.148	263.12
617.356	254.12
617.563	276.12
617.771	269.12
617.978	277.12
618.185	262.12
618.393	262.12
618.6	273.12
618.807	283.12
619.015	262.12
619.222	260.12
619.429	271.12
619.637	272.12
619.844	260.12
620.051	260.12
620.258	245.12
620.466	240.12
620.673	255.12
620.88	251.12
621.087	243.12
621.294	264.12
621.501	243.12
621.708	227.12
621.915	246.12
622.122	262.12
622.329	220.12
622.536	256.12
622.743	247.12
622.95	252.12
623.157	253.12
623.364	235.12
623.571	239.12
623.778	241.12
623.985	241.12
624.192	240.12
624.399	222.12
624.606	259.12
624.812	244.12
625.019	242.12
625.226	244.12
625.433	251.12
625.639	239.12
625.846	242.12
626.053	242.12
626.259	230.12
626.466	228.12
626.673	230.12
626.879	219.12
627.086	222.12
627.293	236.12
627.499	233.12
627.706	235.12
627.912	232.12
628.119	239.12
628.325	234.12
628.532	228.12
628.738	236.12
628.945	241.12
629.151	238.12
629.357	225.12
629.564	233.12
629.77	217.12
629.976	227.12
630.183	221.12
630.389	218.12
630.595	231.12
630.802	228.12
631.008	225.12
631.214	225.12
631.42	214.12
631.627	228.12
631.833	215.12
632.039	212.12
632.245	225.12
632.451	216.12
632.657	225.12
632.863	207.12
633.069	211.12
633.275	220.12
633.481	202.12
633.688	208.12
633.893	218.12
634.099	207.12
634.305	222.12
634.511	209.12
634.717	226.12
634.923	204.12
635.129	204.12
635.335	206.12
635.541	204.12
635.747	200.12
635.952	193.12
636.158	204.12
636.364	211.12
636.57	231.12
636.775	208.12
636.981	220.12
637.187	210.12
637.392	206.12
637.598	187.12
637.804	191.12
638.009	206.12
638.215	201.12
638.421	205.12
638.626	181.12
638.832	200.12
639.037	207.12
639.243	202.12
639.448	183.12
639.654	192.12
639.859	177.12
640.065	196.12
640.27	202.12
640.475	188.12
640.681	183.12
640.886	188.12
641.091	217.12
641.297	188.12
641.502	188.12
641.707	200.12
641.913	189.12
642.118	191.12
642.323	185.12
642.528	188.12
642.733	199.12
642.939	200.12
643.144	177.12
643.349	183.12
643.554	182.12
643.759	200.12
643.964	186.12
644.169	186.12
644.374	200.12
644.579	164.12
644.784	193.12
644.989	190.12
645.194	182.12
645.399	182.12
645.604	201.12
645.809	173.12
646.014	187.12
646.219	204.12
646.423	182.12
646.628	192.12
646.833	190.12
647.038	185.12
647.243	172.12
647.447	184.12
647.652	200.12
647.857	179.12
648.062	214.12
648.266	183.12
648.471	186.12
648.676	195.12
648.88	194.12
649.085	193.12
649.289	193.12
649.494	209.12
649.698	226.12
649.903	206.12
650.107	189.12
650.312	170.12
650.516	182.12
650.721	174.12
650.925	179.12
651.13	181.12
651.334	169.12
651.539	169.12
651.743	187.12
651.947	181.12
652.152	177.12
652.356	171.12
652.56	170.12
652.764	171.12
652.969	166.12
653.173	156.12
653.377	170.12
653.581	153.12
653.785	154.12
653.99	156.12
654.194	151.12
654.398	160.12
654.602	142.12
654.806	149.12
655.01	166.12
655.214	169.12
655.418	143.12
655.622	134.12
655.826	144.12
656.03	155.12
656.234	150.12
656.438	164.12
656.642	157.12
656.846	142.12
657.049	143.12
657.253	144.12
657.457	138.12
657.661	141.12
657.865	125.12
658.068	111.12
658.272	114.12
658.476	115.12
658.68	134.12
658.883	109.12
659.087	109.12
659.291	107.12
659.494	116.12
659.698	99.12
659.901	103.12
660.105	96.12
660.309	88.12
660.512	83.12
660.716	110.12
660.919	97.12
661.123	91.12
661.326	98.12
661.53	103.12
661.733	101.12
661.936	103.12
662.14	95.12
662.343	96.12
662.546	90.12
662.75	92.12
662.953	88.12
663.156	104.12
663.36	90.12
663.563	97.12
663.766	103.12
663.969	91.12
664.173	101.12
664.376	78.12
664.579	89.12
664.782	76.12
664.985	84.12
665.188	92.12
665.391	80.12
665.594	75.12
665.797	81.12
666	86.12
666.203	80.12
666.406	89.12
666.609	94.12
666.812	84.12
667.015	91.12
667.218	102.12
667.421	89.12
667.624	77.12
667.827	85.12
668.03	86.12
668.232	82.12
668.435	84.12
668.638	87.12
668.841	89.12
669.043	105.12
669.246	95.12
669.449	111.12
669.651	88.12
669.854	70.12
670.057	84.12
670.259	90.12
670.462	86.12
670.665	86.12
670.867	82.12
671.07	87.12
671.272	96.12
671.475	88.12
671.677	83.12
671.88	84.12
672.082	77.12
672.284	76.12
672.487	97.12
672.689	90.12
672.892	92.12
