Data from 1966.PennyLincolnUp.Lamp.En5.5.200Scan.071719.P1.Scan2.head_HRD10591_14-16-54-065.txt Node
Date: Thu Jul 18 14:16:54 EDT 2019
User: cochatt
Spectrometer: HR+D1059
Trigger mode: 1
Integration Time (sec): 1.000000E-1
Scans to average: 1
Electric dark correction enabled: true
Nonlinearity correction enabled: false
Boxcar width: 0
XAxis mode: Wavelengths
Number of Pixels in Spectrum: 2048
>>>>>Begin Spectral Data<<<<<
223.165	-24.81
223.4	-24.81
223.635	-24.81
223.869	-11.81
224.104	-10.81
224.338	-6.81
224.573	-12.81
224.808	-19.81
225.042	-2.81
225.277	-4.81
225.511	-5.81
225.746	7.19
225.98	16.19
226.215	13.19
226.449	11.19
226.683	10.19
226.918	19.19
227.152	23.19
227.387	33.19
227.621	34.19
227.856	53.19
228.09	57.19
228.324	49.19
228.559	56.19
228.793	70.19
229.027	90.19
229.262	102.19
229.496	83.19
229.73	115.19
229.964	150.19
230.199	125.19
230.433	112.19
230.667	108.19
230.901	101.19
231.136	102.19
231.37	108.19
231.604	111.19
231.838	104.19
232.072	126.19
232.306	110.19
232.541	111.19
232.775	114.19
233.009	115.19
233.243	103.19
233.477	117.19
233.711	126.19
233.945	123.19
234.179	118.19
234.413	100.19
234.647	119.19
234.881	113.19
235.115	117.19
235.349	113.19
235.583	113.19
235.817	122.19
236.051	119.19
236.285	117.19
236.519	121.19
236.753	127.19
236.987	129.19
237.221	163.19
237.455	211.19
237.689	174.19
237.922	146.19
238.156	121.19
238.39	129.19
238.624	133.19
238.858	126.19
239.091	129.19
239.325	110.19
239.559	115.19
239.793	122.19
240.027	137.19
240.26	123.19
240.494	152.19
240.728	133.19
240.961	139.19
241.195	153.19
241.429	126.19
241.662	117.19
241.896	142.19
242.13	133.19
242.363	126.19
242.597	122.19
242.83	127.19
243.064	128.19
243.298	149.19
243.531	127.19
243.765	133.19
243.998	139.19
244.232	147.19
244.465	131.19
244.699	138.19
244.932	142.19
245.166	142.19
245.399	146.19
245.633	148.19
245.866	141.19
246.099	141.19
246.333	143.19
246.566	137.19
246.8	163.19
247.033	151.19
247.266	154.19
247.5	168.19
247.733	163.19
247.966	178.19
248.2	162.19
248.433	168.19
248.666	165.19
248.899	170.19
249.133	199.19
249.366	193.19
249.599	193.19
249.832	184.19
250.066	173.19
250.299	176.19
250.532	174.19
250.765	193.19
250.998	198.19
251.231	203.19
251.465	193.19
251.698	199.19
251.931	182.19
252.164	175.19
252.397	179.19
252.63	196.19
252.863	188.19
253.096	199.19
253.329	211.19
253.562	205.19
253.795	206.19
254.028	201.19
254.261	184.19
254.494	211.19
254.727	229.19
254.96	252.19
255.193	232.19
255.426	220.19
255.659	207.19
255.892	223.19
256.124	217.19
256.357	222.19
256.59	224.19
256.823	196.19
257.056	199.19
257.289	189.19
257.521	195.19
257.754	200.19
257.987	190.19
258.22	197.19
258.452	196.19
258.685	195.19
258.918	193.19
259.151	182.19
259.383	217.19
259.616	201.19
259.849	195.19
260.081	220.19
260.314	225.19
260.547	228.19
260.779	217.19
261.012	222.19
261.244	217.19
261.477	206.19
261.71	206.19
261.942	213.19
262.175	220.19
262.407	205.19
262.64	204.19
262.872	189.19
263.105	196.19
263.337	203.19
263.57	197.19
263.802	198.19
264.035	197.19
264.267	186.19
264.499	213.19
264.732	200.19
264.964	210.19
265.197	196.19
265.429	189.19
265.661	214.19
265.894	211.19
266.126	212.19
266.358	198.19
266.591	183.19
266.823	211.19
267.055	199.19
267.287	212.19
267.52	203.19
267.752	199.19
267.984	215.19
268.216	197.19
268.448	215.19
268.681	218.19
268.913	240.19
269.145	241.19
269.377	250.19
269.609	242.19
269.841	222.19
270.073	253.19
270.306	261.19
270.538	285.19
270.77	269.19
271.002	281.19
271.234	275.19
271.466	283.19
271.698	275.19
271.93	275.19
272.162	282.19
272.394	290.19
272.626	253.19
272.858	267.19
273.09	267.19
273.322	260.19
273.553	252.19
273.785	242.19
274.017	239.19
274.249	258.19
274.481	260.19
274.713	257.19
274.945	252.19
275.176	249.19
275.408	250.19
275.64	245.19
275.872	238.19
276.104	243.19
276.335	249.19
276.567	243.19
276.799	268.19
277.031	282.19
277.262	278.19
277.494	286.19
277.726	290.19
277.957	266.19
278.189	261.19
278.421	251.19
278.652	250.19
278.884	250.19
279.115	258.19
279.347	254.19
279.579	235.19
279.81	249.19
280.042	243.19
280.273	259.19
280.505	255.19
280.736	261.19
280.968	242.19
281.199	242.19
281.431	260.19
281.662	265.19
281.894	263.19
282.125	265.19
282.356	267.19
282.588	271.19
282.819	265.19
283.051	257.19
283.282	264.19
283.513	271.19
283.745	237.19
283.976	255.19
284.207	266.19
284.439	275.19
284.67	281.19
284.901	263.19
285.132	271.19
285.364	286.19
285.595	247.19
285.826	267.19
286.057	261.19
286.288	271.19
286.52	262.19
286.751	243.19
286.982	265.19
287.213	257.19
287.444	275.19
287.675	259.19
287.906	259.19
288.138	287.19
288.369	298.19
288.6	282.19
288.831	278.19
289.062	281.19
289.293	267.19
289.524	267.19
289.755	268.19
289.986	270.19
290.217	262.19
290.448	281.19
290.679	261.19
290.91	269.19
291.141	269.19
291.371	249.19
291.602	263.19
291.833	267.19
292.064	280.19
292.295	284.19
292.526	268.19
292.757	268.19
292.987	262.19
293.218	274.19
293.449	277.19
293.68	293.19
293.91	277.19
294.141	264.19
294.372	268.19
294.603	250.19
294.833	273.19
295.064	275.19
295.295	284.19
295.525	282.19
295.756	273.19
295.987	282.19
296.217	293.19
296.448	307.19
296.679	291.19
296.909	269.19
297.14	277.19
297.37	286.19
297.601	271.19
297.831	270.19
298.062	272.19
298.292	260.19
298.523	285.19
298.753	297.19
298.984	284.19
299.214	294.19
299.445	309.19
299.675	298.19
299.905	291.19
300.136	293.19
300.366	295.19
300.597	303.19
300.827	322.19
301.057	276.19
301.288	295.19
301.518	298.19
301.748	296.19
301.979	308.19
302.209	322.19
302.439	300.19
302.669	301.19
302.9	286.19
303.13	295.19
303.36	299.19
303.59	295.19
303.82	301.19
304.051	315.19
304.281	309.19
304.511	309.19
304.741	321.19
304.971	302.19
305.201	314.19
305.431	311.19
305.661	309.19
305.891	313.19
306.121	318.19
306.352	309.19
306.582	319.19
306.812	320.19
307.042	312.19
307.272	312.19
307.502	302.19
307.731	322.19
307.961	311.19
308.191	309.19
308.421	300.19
308.651	327.19
308.881	317.19
309.111	323.19
309.341	318.19
309.571	333.19
309.8	340.19
310.03	331.19
310.26	333.19
310.49	335.19
310.72	331.19
310.949	353.19
311.179	358.19
311.409	347.19
311.639	331.19
311.868	351.19
312.098	351.19
312.328	339.19
312.557	354.19
312.787	364.19
313.017	345.19
313.246	366.19
313.476	350.19
313.706	350.19
313.935	344.19
314.165	347.19
314.394	361.19
314.624	363.19
314.853	343.19
315.083	359.19
315.312	341.19
315.542	337.19
315.771	334.19
316.001	362.19
316.23	341.19
316.46	351.19
316.689	347.19
316.919	359.19
317.148	362.19
317.377	364.19
317.607	353.19
317.836	365.19
318.065	337.19
318.295	337.19
318.524	367.19
318.753	320.19
318.983	338.19
319.212	363.19
319.441	360.19
319.67	361.19
319.9	330.19
320.129	364.19
320.358	371.19
320.587	363.19
320.816	349.19
321.046	346.19
321.275	370.19
321.504	350.19
321.733	355.19
321.962	374.19
322.191	385.19
322.42	396.19
322.649	390.19
322.878	411.19
323.108	403.19
323.337	417.19
323.566	426.19
323.795	435.19
324.024	490.19
324.253	609.19
324.482	771.19
324.71	1192.19
324.939	1815.19
325.168	1551.19
325.397	773.19
325.626	550.19
325.855	465.19
326.084	435.19
326.313	432.19
326.542	459.19
326.77	462.19
326.999	534.19
327.228	756.19
327.457	1080.19
327.686	1410.19
327.914	899.19
328.143	599.19
328.372	534.19
328.6	515.19
328.829	476.19
329.058	487.19
329.287	500.19
329.515	479.19
329.744	457.19
329.972	420.19
330.201	453.19
330.43	490.19
330.658	505.19
330.887	514.19
331.115	507.19
331.344	467.19
331.572	443.19
331.801	434.19
332.03	437.19
332.258	413.19
332.486	423.19
332.715	413.19
332.943	399.19
333.172	431.19
333.4	436.19
333.629	442.19
333.857	444.19
334.085	452.19
334.314	463.19
334.542	498.19
334.771	500.19
334.999	475.19
335.227	447.19
335.455	414.19
335.684	429.19
335.912	431.19
336.14	417.19
336.369	411.19
336.597	431.19
336.825	448.19
337.053	427.19
337.281	426.19
337.51	414.19
337.738	393.19
337.966	403.19
338.194	419.19
338.422	410.19
338.65	414.19
338.878	422.19
339.106	406.19
339.334	402.19
339.562	419.19
339.79	384.19
340.018	411.19
340.246	414.19
340.474	425.19
340.702	412.19
340.93	392.19
341.158	381.19
341.386	409.19
341.614	386.19
341.842	401.19
342.07	390.19
342.298	405.19
342.526	385.19
342.754	410.19
342.981	417.19
343.209	396.19
343.437	410.19
343.665	423.19
343.893	413.19
344.12	428.19
344.348	415.19
344.576	414.19
344.804	436.19
345.031	419.19
345.259	443.19
345.487	408.19
345.714	408.19
345.942	403.19
346.17	410.19
346.397	412.19
346.625	403.19
346.853	381.19
347.08	392.19
347.308	409.19
347.535	407.19
347.763	388.19
347.99	399.19
348.218	423.19
348.445	432.19
348.673	369.19
348.9	399.19
349.128	390.19
349.355	376.19
349.583	387.19
349.81	373.19
350.037	383.19
350.265	394.19
350.492	393.19
350.72	388.19
350.947	372.19
351.174	397.19
351.402	389.19
351.629	413.19
351.856	393.19
352.083	428.19
352.311	404.19
352.538	420.19
352.765	404.19
352.992	415.19
353.22	409.19
353.447	395.19
353.674	377.19
353.901	388.19
354.128	388.19
354.355	378.19
354.583	377.19
354.81	383.19
355.037	389.19
355.264	386.19
355.491	369.19
355.718	400.19
355.945	370.19
356.172	392.19
356.399	371.19
356.626	378.19
356.853	373.19
357.08	383.19
357.307	381.19
357.534	386.19
357.761	391.19
357.988	387.19
358.215	393.19
358.441	371.19
358.668	392.19
358.895	392.19
359.122	382.19
359.349	397.19
359.576	382.19
359.802	419.19
360.029	429.19
360.256	447.19
360.483	431.19
360.709	420.19
360.936	387.19
361.163	399.19
361.39	381.19
361.616	406.19
361.843	394.19
362.07	392.19
362.296	411.19
362.523	408.19
362.749	398.19
362.976	411.19
363.203	395.19
363.429	375.19
363.656	382.19
363.882	388.19
364.109	381.19
364.335	389.19
364.562	397.19
364.788	377.19
365.015	404.19
365.241	385.19
365.468	409.19
365.694	391.19
365.92	403.19
366.147	382.19
366.373	382.19
366.599	379.19
366.826	392.19
367.052	389.19
367.278	387.19
367.505	391.19
367.731	404.19
367.957	407.19
368.184	394.19
368.41	389.19
368.636	383.19
368.862	407.19
369.089	422.19
369.315	386.19
369.541	403.19
369.767	403.19
369.993	401.19
370.219	401.19
370.445	378.19
370.672	408.19
370.898	402.19
371.124	378.19
371.35	382.19
371.576	400.19
371.802	396.19
372.028	390.19
372.254	403.19
372.48	395.19
372.706	406.19
372.932	411.19
373.158	417.19
373.384	387.19
373.61	382.19
373.835	381.19
374.061	403.19
374.287	429.19
374.513	395.19
374.739	419.19
374.965	404.19
375.191	403.19
375.416	415.19
375.642	404.19
375.868	395.19
376.094	429.19
376.319	409.19
376.545	407.19
376.771	393.19
376.997	395.19
377.222	402.19
377.448	397.19
377.674	393.19
377.899	407.19
378.125	391.19
378.35	412.19
378.576	401.19
378.802	405.19
379.027	387.19
379.253	417.19
379.478	391.19
379.704	406.19
379.929	397.19
380.155	405.19
380.38	411.19
380.606	427.19
380.831	415.19
381.057	427.19
381.282	384.19
381.507	402.19
381.733	421.19
381.958	410.19
382.184	406.19
382.409	441.19
382.634	416.19
382.86	433.19
383.085	414.19
383.31	424.19
383.535	429.19
383.761	425.19
383.986	436.19
384.211	425.19
384.436	446.19
384.662	416.19
384.887	433.19
385.112	443.19
385.337	446.19
385.562	468.19
385.787	435.19
386.013	446.19
386.238	463.19
386.463	486.19
386.688	461.19
386.913	472.19
387.138	468.19
387.363	459.19
387.588	442.19
387.813	445.19
388.038	462.19
388.263	473.19
388.488	439.19
388.713	440.19
388.938	457.19
389.163	464.19
389.387	469.19
389.612	430.19
389.837	430.19
390.062	459.19
390.287	453.19
390.512	442.19
390.736	453.19
390.961	449.19
391.186	468.19
391.411	449.19
391.636	461.19
391.86	451.19
392.085	467.19
392.31	486.19
392.534	476.19
392.759	459.19
392.984	465.19
393.208	456.19
393.433	478.19
393.658	465.19
393.882	445.19
394.107	455.19
394.331	449.19
394.556	460.19
394.78	457.19
395.005	468.19
395.229	465.19
395.454	503.19
395.678	472.19
395.903	491.19
396.127	493.19
396.352	491.19
396.576	483.19
396.801	494.19
397.025	512.19
397.249	501.19
397.474	494.19
397.698	482.19
397.922	482.19
398.147	501.19
398.371	511.19
398.595	516.19
398.82	521.19
399.044	532.19
399.268	555.19
399.492	559.19
399.717	607.19
399.941	633.19
400.165	640.19
400.389	659.19
400.613	576.19
400.837	566.19
401.062	521.19
401.286	537.19
401.51	525.19
401.734	518.19
401.958	523.19
402.182	521.19
402.406	532.19
402.63	506.19
402.854	523.19
403.078	527.19
403.302	553.19
403.526	539.19
403.75	546.19
403.974	535.19
404.198	538.19
404.422	565.19
404.645	538.19
404.869	565.19
405.093	606.19
405.317	640.19
405.541	638.19
405.765	613.19
405.988	566.19
406.212	581.19
406.436	587.19
406.66	583.19
406.883	576.19
407.107	618.19
407.331	656.19
407.555	715.19
407.778	701.19
408.002	648.19
408.226	598.19
408.449	610.19
408.673	605.19
408.896	633.19
409.12	657.19
409.344	615.19
409.567	587.19
409.791	564.19
410.014	549.19
410.238	558.19
410.461	568.19
410.685	566.19
410.908	571.19
411.132	587.19
411.355	633.19
411.578	572.19
411.802	557.19
412.025	549.19
412.249	540.19
412.472	572.19
412.695	620.19
412.919	591.19
413.142	561.19
413.365	534.19
413.589	537.19
413.812	523.19
414.035	505.19
414.258	511.19
414.482	512.19
414.705	531.19
414.928	504.19
415.151	514.19
415.374	518.19
415.597	519.19
415.821	511.19
416.044	524.19
416.267	527.19
416.49	529.19
416.713	512.19
416.936	500.19
417.159	522.19
417.382	514.19
417.605	532.19
417.828	495.19
418.051	538.19
418.274	546.19
418.497	514.19
418.72	504.19
418.943	523.19
419.166	530.19
419.389	563.19
419.611	553.19
419.834	566.19
420.057	545.19
420.28	535.19
420.503	537.19
420.726	527.19
420.948	543.19
421.171	600.19
421.394	631.19
421.617	558.19
421.839	522.19
422.062	524.19
422.285	561.19
422.507	608.19
422.73	680.19
422.953	638.19
423.175	590.19
423.398	555.19
423.621	563.19
423.843	566.19
424.066	569.19
424.288	569.19
424.511	586.19
424.733	626.19
424.956	705.19
425.178	689.19
425.401	693.19
425.623	691.19
425.846	623.19
426.068	578.19
426.291	558.19
426.513	564.19
426.735	582.19
426.958	601.19
427.18	675.19
427.402	793.19
427.625	883.19
427.847	781.19
428.069	657.19
428.292	596.19
428.514	562.19
428.736	563.19
428.958	571.19
429.181	531.19
429.403	531.19
429.625	549.19
429.847	583.19
430.069	635.19
430.292	622.19
430.514	519.19
430.736	529.19
430.958	518.19
431.18	506.19
431.402	506.19
431.624	491.19
431.846	508.19
432.068	492.19
432.29	499.19
432.512	517.19
432.734	509.19
432.956	517.19
433.178	506.19
433.4	522.19
433.622	506.19
433.844	514.19
434.066	497.19
434.287	518.19
434.509	509.19
434.731	525.19
434.953	535.19
435.175	540.19
435.397	590.19
435.618	581.19
435.84	596.19
436.062	718.19
436.284	766.19
436.505	662.19
436.727	595.19
436.949	548.19
437.17	518.19
437.392	518.19
437.614	521.19
437.835	563.19
438.057	645.19
438.278	731.19
438.5	750.19
438.721	830.19
438.943	795.19
439.165	642.19
439.386	587.19
439.608	575.19
439.829	569.19
440.05	585.19
440.272	626.19
440.493	606.19
440.715	561.19
440.936	536.19
441.158	526.19
441.379	538.19
441.6	545.19
441.822	557.19
442.043	611.19
442.264	698.19
442.486	711.19
442.707	636.19
442.928	583.19
443.149	589.19
443.371	598.19
443.592	636.19
443.813	737.19
444.034	833.19
444.255	641.19
444.476	607.19
444.698	579.19
444.919	578.19
445.14	677.19
445.361	629.19
445.582	601.19
445.803	670.19
446.024	774.19
446.245	790.19
446.466	722.19
446.687	602.19
446.908	552.19
447.129	543.19
447.35	531.19
447.571	542.19
447.792	508.19
448.013	518.19
448.234	527.19
448.455	584.19
448.675	690.19
448.896	807.19
449.117	661.19
449.338	658.19
449.559	718.19
449.779	873.19
450	659.19
450.221	596.19
450.442	530.19
450.662	527.19
450.883	507.19
451.104	516.19
451.324	519.19
451.545	475.19
451.766	504.19
451.986	477.19
452.207	476.19
452.428	474.19
452.648	467.19
452.869	454.19
453.089	465.19
453.31	478.19
453.53	448.19
453.751	479.19
453.971	473.19
454.192	493.19
454.412	488.19
454.633	451.19
454.853	456.19
455.073	456.19
455.294	504.19
455.514	543.19
455.734	545.19
455.955	492.19
456.175	462.19
456.395	456.19
456.616	460.19
456.836	456.19
457.056	459.19
457.276	438.19
457.497	449.19
457.717	440.19
457.937	442.19
458.157	458.19
458.377	452.19
458.598	476.19
458.818	527.19
459.038	611.19
459.258	640.19
459.478	525.19
459.698	522.19
459.918	505.19
460.138	509.19
460.358	508.19
460.578	531.19
460.798	518.19
461.018	497.19
461.238	522.19
461.458	515.19
461.678	512.19
461.898	538.19
462.118	533.19
462.338	535.19
462.558	556.19
462.777	552.19
462.997	570.19
463.217	586.19
463.437	578.19
463.657	560.19
463.876	563.19
464.096	565.19
464.316	547.19
464.536	569.19
464.755	566.19
464.975	580.19
465.195	577.19
465.414	609.19
465.634	589.19
465.854	548.19
466.073	530.19
466.293	505.19
466.512	523.19
466.732	499.19
466.951	493.19
467.171	494.19
467.391	510.19
467.61	489.19
467.829	512.19
468.049	509.19
468.268	501.19
468.488	491.19
468.707	491.19
468.927	481.19
469.146	455.19
469.365	473.19
469.585	490.19
469.804	495.19
470.023	493.19
470.243	484.19
470.462	486.19
470.681	498.19
470.901	493.19
471.12	513.19
471.339	499.19
471.558	513.19
471.777	521.19
471.997	469.19
472.216	503.19
472.435	519.19
472.654	498.19
472.873	496.19
473.092	519.19
473.311	491.19
473.53	494.19
473.749	495.19
473.968	541.19
474.187	616.19
474.406	652.19
474.625	539.19
474.844	515.19
475.063	493.19
475.282	498.19
475.501	507.19
475.72	511.19
475.939	519.19
476.158	516.19
476.377	516.19
476.596	509.19
476.814	525.19
477.033	532.19
477.252	505.19
477.471	531.19
477.69	536.19
477.908	550.19
478.127	561.19
478.346	535.19
478.564	565.19
478.783	566.19
479.002	570.19
479.22	563.19
479.439	597.19
479.658	614.19
479.876	617.19
480.095	614.19
480.313	612.19
480.532	633.19
480.751	620.19
480.969	612.19
481.188	649.19
481.406	673.19
481.624	642.19
481.843	598.19
482.061	625.19
482.28	599.19
482.498	593.19
482.717	577.19
482.935	585.19
483.153	585.19
483.372	564.19
483.59	592.19
483.808	607.19
484.027	591.19
484.245	600.19
484.463	604.19
484.681	595.19
484.9	602.19
485.118	606.19
485.336	609.19
485.554	601.19
485.772	616.19
485.99	611.19
486.209	622.19
486.427	621.19
486.645	622.19
486.863	635.19
487.081	610.19
487.299	611.19
487.517	628.19
487.735	600.19
487.953	618.19
488.171	633.19
488.389	626.19
488.607	661.19
488.825	613.19
489.043	611.19
489.261	629.19
489.479	652.19
489.696	634.19
489.914	629.19
490.132	669.19
490.35	651.19
490.568	650.19
490.786	678.19
491.003	683.19
491.221	705.19
491.439	685.19
491.657	685.19
491.874	690.19
492.092	703.19
492.31	730.19
492.527	721.19
492.745	702.19
492.963	713.19
493.18	743.19
493.398	721.19
493.615	719.19
493.833	716.19
494.05	714.19
494.268	716.19
494.485	730.19
494.703	725.19
494.92	709.19
495.138	733.19
495.355	735.19
495.573	751.19
495.79	732.19
496.008	758.19
496.225	747.19
496.442	751.19
496.66	755.19
496.877	759.19
497.094	748.19
497.312	781.19
497.529	748.19
497.746	777.19
497.963	787.19
498.181	807.19
498.398	815.19
498.615	860.19
498.832	859.19
499.049	891.19
499.267	881.19
499.484	949.19
499.701	948.19
499.918	976.19
500.135	1044.19
500.352	1085.19
500.569	1093.19
500.786	1094.19
501.003	1085.19
501.22	1043.19
501.437	1004.19
501.654	1005.19
501.871	972.19
502.088	929.19
502.305	885.19
502.522	873.19
502.739	815.19
502.956	832.19
503.172	806.19
503.389	793.19
503.606	819.19
503.823	760.19
504.04	755.19
504.256	773.19
504.473	744.19
504.69	737.19
504.907	716.19
505.123	746.19
505.34	737.19
505.557	724.19
505.773	730.19
505.99	708.19
506.207	708.19
506.423	701.19
506.64	701.19
506.856	699.19
507.073	705.19
507.289	697.19
507.506	687.19
507.722	665.19
507.939	690.19
508.155	655.19
508.372	649.19
508.588	683.19
508.805	668.19
509.021	665.19
509.238	679.19
509.454	684.19
509.67	646.19
509.887	672.19
510.103	660.19
510.319	649.19
510.536	717.19
510.752	1076.19
510.968	910.19
511.184	683.19
511.401	629.19
511.617	638.19
511.833	615.19
512.049	643.19
512.265	618.19
512.481	615.19
512.698	610.19
512.914	603.19
513.13	619.19
513.346	618.19
513.562	613.19
513.778	631.19
513.994	639.19
514.21	633.19
514.426	646.19
514.642	674.19
514.858	700.19
515.074	713.19
515.29	823.19
515.506	1072.19
515.721	955.19
515.937	720.19
516.153	697.19
516.369	634.19
516.585	651.19
516.801	644.19
517.016	667.19
517.232	659.19
517.448	674.19
517.664	654.19
517.879	649.19
518.095	659.19
518.311	648.19
518.527	640.19
518.742	645.19
518.958	621.19
519.173	631.19
519.389	614.19
519.605	616.19
519.82	634.19
520.036	637.19
520.251	666.19
520.467	644.19
520.682	661.19
520.898	663.19
521.113	660.19
521.329	692.19
521.544	756.19
521.76	916.19
521.975	1387.19
522.19	1355.19
522.406	829.19
522.621	685.19
522.836	613.19
523.052	599.19
523.267	581.19
523.482	573.19
523.698	567.19
523.913	574.19
524.128	548.19
524.343	574.19
524.559	538.19
524.774	554.19
524.989	541.19
525.204	550.19
525.419	579.19
525.634	561.19
525.849	548.19
526.064	531.19
526.28	542.19
526.495	529.19
526.71	525.19
526.925	530.19
527.14	535.19
527.355	517.19
527.57	517.19
527.785	507.19
527.999	539.19
528.214	546.19
528.429	519.19
528.644	503.19
528.859	516.19
529.074	513.19
529.289	554.19
529.503	589.19
529.718	603.19
529.933	564.19
530.148	554.19
530.363	535.19
530.577	514.19
530.792	518.19
531.007	499.19
531.221	519.19
531.436	504.19
531.651	529.19
531.865	511.19
532.08	515.19
532.295	503.19
532.509	484.19
532.724	507.19
532.938	515.19
533.153	515.19
533.367	514.19
533.582	514.19
533.796	467.19
534.011	514.19
534.225	503.19
534.44	508.19
534.654	489.19
534.868	490.19
535.083	500.19
535.297	494.19
535.511	462.19
535.726	512.19
535.94	501.19
536.154	518.19
536.369	485.19
536.583	501.19
536.797	483.19
537.011	485.19
537.225	488.19
537.44	508.19
537.654	475.19
537.868	471.19
538.082	482.19
538.296	507.19
538.51	502.19
538.724	477.19
538.938	485.19
539.153	446.19
539.367	492.19
539.581	525.19
539.795	486.19
540.009	475.19
540.222	470.19
540.436	470.19
540.65	506.19
540.864	489.19
541.078	475.19
541.292	473.19
541.506	487.19
541.72	474.19
541.934	484.19
542.147	487.19
542.361	483.19
542.575	456.19
542.789	497.19
543.002	461.19
543.216	492.19
543.43	468.19
543.644	480.19
543.857	478.19
544.071	473.19
544.285	473.19
544.498	472.19
544.712	481.19
544.925	471.19
545.139	458.19
545.352	478.19
545.566	457.19
545.779	473.19
545.993	463.19
546.206	489.19
546.42	472.19
546.633	462.19
546.847	461.19
547.06	452.19
547.274	460.19
547.487	464.19
547.7	456.19
547.914	467.19
548.127	500.19
548.34	465.19
548.554	457.19
548.767	451.19
548.98	458.19
549.193	447.19
549.407	470.19
549.62	461.19
549.833	485.19
550.046	467.19
550.259	452.19
550.473	465.19
550.686	464.19
550.899	453.19
551.112	447.19
551.325	457.19
551.538	454.19
551.751	457.19
551.964	476.19
552.177	460.19
552.39	458.19
552.603	464.19
552.816	447.19
553.029	472.19
553.242	457.19
553.455	462.19
553.667	484.19
553.88	492.19
554.093	495.19
554.306	468.19
554.519	459.19
554.732	459.19
554.944	429.19
555.157	431.19
555.37	467.19
555.583	438.19
555.795	434.19
556.008	444.19
556.221	429.19
556.433	435.19
556.646	443.19
556.859	427.19
557.071	411.19
557.284	430.19
557.496	403.19
557.709	431.19
557.921	419.19
558.134	412.19
558.346	437.19
558.559	427.19
558.771	411.19
558.984	422.19
559.196	428.19
559.409	396.19
559.621	419.19
559.833	413.19
560.046	412.19
560.258	404.19
560.47	413.19
560.683	413.19
560.895	411.19
561.107	438.19
561.32	410.19
561.532	407.19
561.744	420.19
561.956	412.19
562.168	439.19
562.381	433.19
562.593	433.19
562.805	423.19
563.017	426.19
563.229	407.19
563.441	407.19
563.653	430.19
563.865	435.19
564.077	414.19
564.289	427.19
564.501	423.19
564.713	429.19
564.925	453.19
565.137	463.19
565.349	448.19
565.561	448.19
565.773	468.19
565.985	456.19
566.197	476.19
566.408	502.19
566.62	486.19
566.832	533.19
567.044	540.19
567.255	527.19
567.467	516.19
567.679	555.19
567.891	538.19
568.102	549.19
568.314	549.19
568.526	508.19
568.737	499.19
568.949	467.19
569.161	473.19
569.372	446.19
569.584	437.19
569.795	429.19
570.007	425.19
570.218	441.19
570.43	429.19
570.641	414.19
570.853	419.19
571.064	423.19
571.276	418.19
571.487	404.19
571.698	383.19
571.91	407.19
572.121	396.19
572.333	379.19
572.544	389.19
572.755	363.19
572.966	385.19
573.178	383.19
573.389	364.19
573.6	391.19
573.811	372.19
574.023	372.19
574.234	358.19
574.445	348.19
574.656	339.19
574.867	359.19
575.078	366.19
575.289	365.19
575.501	377.19
575.712	358.19
575.923	369.19
576.134	342.19
576.345	372.19
576.556	353.19
576.767	358.19
576.978	342.19
577.188	344.19
577.399	342.19
577.61	364.19
577.821	357.19
578.032	349.19
578.243	391.19
578.454	533.19
578.665	420.19
578.875	325.19
579.086	328.19
579.297	339.19
579.508	323.19
579.718	335.19
579.929	318.19
580.14	325.19
580.35	332.19
580.561	334.19
580.772	329.19
580.982	335.19
581.193	309.19
581.403	339.19
581.614	303.19
581.825	323.19
582.035	331.19
582.246	326.19
582.456	311.19
582.667	340.19
582.877	312.19
583.087	322.19
583.298	339.19
583.508	331.19
583.719	310.19
583.929	306.19
584.139	330.19
584.35	339.19
584.56	323.19
584.77	312.19
584.981	308.19
585.191	313.19
585.401	326.19
585.611	317.19
585.821	340.19
586.032	326.19
586.242	312.19
586.452	320.19
586.662	331.19
586.872	307.19
587.082	334.19
587.292	299.19
587.502	309.19
587.713	329.19
587.923	310.19
588.133	305.19
588.343	321.19
588.553	311.19
588.762	318.19
588.972	332.19
589.182	354.19
589.392	343.19
589.602	344.19
589.812	322.19
590.022	328.19
590.232	325.19
590.441	317.19
590.651	328.19
590.861	338.19
591.071	303.19
591.281	318.19
591.49	307.19
591.7	319.19
591.91	324.19
592.119	330.19
592.329	319.19
592.539	306.19
592.748	347.19
592.958	335.19
593.167	331.19
593.377	332.19
593.587	330.19
593.796	343.19
594.006	350.19
594.215	325.19
594.424	350.19
594.634	335.19
594.843	335.19
595.053	318.19
595.262	309.19
595.472	317.19
595.681	318.19
595.89	312.19
596.1	311.19
596.309	309.19
596.518	286.19
596.727	290.19
596.937	313.19
597.146	288.19
597.355	307.19
597.564	282.19
597.774	287.19
597.983	272.19
598.192	276.19
598.401	283.19
598.61	288.19
598.819	303.19
599.028	291.19
599.237	270.19
599.446	280.19
599.655	284.19
599.864	276.19
600.073	283.19
600.282	285.19
600.491	290.19
600.7	270.19
600.909	287.19
601.118	289.19
601.327	296.19
601.536	278.19
601.745	246.19
601.953	277.19
602.162	286.19
602.371	267.19
602.58	268.19
602.789	277.19
602.997	289.19
603.206	270.19
603.415	280.19
603.623	265.19
603.832	265.19
604.041	277.19
604.249	257.19
604.458	274.19
604.666	269.19
604.875	267.19
605.084	269.19
605.292	257.19
605.501	267.19
605.709	276.19
605.918	257.19
606.126	251.19
606.334	259.19
606.543	272.19
606.751	266.19
606.96	260.19
607.168	258.19
607.376	246.19
607.585	268.19
607.793	259.19
608.001	243.19
608.21	253.19
608.418	262.19
608.626	257.19
608.834	255.19
609.043	247.19
609.251	253.19
609.459	249.19
609.667	254.19
609.875	258.19
610.083	251.19
610.291	252.19
610.499	262.19
610.707	268.19
610.916	263.19
611.124	291.19
611.332	259.19
611.54	291.19
611.748	278.19
611.955	273.19
612.163	275.19
612.371	276.19
612.579	250.19
612.787	241.19
612.995	257.19
613.203	255.19
613.411	273.19
613.618	245.19
613.826	251.19
614.034	235.19
614.242	259.19
614.449	250.19
614.657	261.19
614.865	240.19
615.072	243.19
615.28	247.19
615.488	245.19
615.695	268.19
615.903	248.19
616.111	241.19
616.318	251.19
616.526	249.19
616.733	246.19
616.941	244.19
617.148	250.19
617.356	250.19
617.563	274.19
617.771	253.19
617.978	244.19
618.185	261.19
618.393	253.19
618.6	253.19
618.807	257.19
619.015	259.19
619.222	247.19
619.429	257.19
619.637	234.19
619.844	219.19
620.051	241.19
620.258	248.19
620.466	228.19
620.673	225.19
620.88	214.19
621.087	243.19
621.294	235.19
621.501	222.19
621.708	237.19
621.915	249.19
622.122	234.19
622.329	222.19
622.536	214.19
622.743	230.19
622.95	235.19
623.157	218.19
623.364	236.19
623.571	231.19
623.778	235.19
623.985	222.19
624.192	208.19
624.399	219.19
624.606	234.19
624.812	226.19
625.019	236.19
625.226	220.19
625.433	237.19
625.639	232.19
625.846	231.19
626.053	212.19
626.259	194.19
626.466	217.19
626.673	218.19
626.879	207.19
627.086	218.19
627.293	220.19
627.499	217.19
627.706	207.19
627.912	213.19
628.119	206.19
628.325	212.19
628.532	213.19
628.738	216.19
628.945	220.19
629.151	214.19
629.357	215.19
629.564	207.19
629.77	212.19
629.976	211.19
630.183	185.19
630.389	201.19
630.595	198.19
630.802	199.19
631.008	207.19
631.214	203.19
631.42	209.19
631.627	201.19
631.833	188.19
632.039	183.19
632.245	201.19
632.451	196.19
632.657	194.19
632.863	199.19
633.069	205.19
633.275	207.19
633.481	223.19
633.688	195.19
633.893	194.19
634.099	197.19
634.305	188.19
634.511	187.19
634.717	190.19
634.923	203.19
635.129	195.19
635.335	190.19
635.541	196.19
635.747	193.19
635.952	199.19
636.158	187.19
636.364	179.19
636.57	197.19
636.775	193.19
636.981	175.19
637.187	201.19
637.392	199.19
637.598	194.19
637.804	178.19
638.009	205.19
638.215	183.19
638.421	185.19
638.626	183.19
638.832	190.19
639.037	168.19
639.243	191.19
639.448	185.19
639.654	193.19
639.859	186.19
640.065	176.19
640.27	201.19
640.475	189.19
640.681	188.19
640.886	185.19
641.091	183.19
641.297	187.19
641.502	173.19
641.707	181.19
641.913	171.19
642.118	173.19
642.323	194.19
642.528	173.19
642.733	177.19
642.939	172.19
643.144	181.19
643.349	183.19
643.554	175.19
643.759	164.19
643.964	186.19
644.169	181.19
644.374	161.19
644.579	183.19
644.784	187.19
644.989	166.19
645.194	177.19
645.399	181.19
645.604	180.19
645.809	165.19
646.014	170.19
646.219	145.19
646.423	175.19
646.628	182.19
646.833	170.19
647.038	162.19
647.243	183.19
647.447	181.19
647.652	180.19
647.857	180.19
648.062	170.19
648.266	188.19
648.471	182.19
648.676	187.19
648.88	170.19
649.085	162.19
649.289	181.19
649.494	180.19
649.698	197.19
649.903	175.19
650.107	171.19
650.312	178.19
650.516	168.19
650.721	166.19
650.925	155.19
651.13	171.19
651.334	155.19
651.539	163.19
651.743	136.19
651.947	155.19
652.152	162.19
652.356	177.19
652.56	168.19
652.764	163.19
652.969	149.19
653.173	147.19
653.377	157.19
653.581	143.19
653.785	139.19
653.99	134.19
654.194	153.19
654.398	158.19
654.602	146.19
654.806	135.19
655.01	146.19
655.214	129.19
655.418	135.19
655.622	153.19
655.826	138.19
656.03	161.19
656.234	132.19
656.438	134.19
656.642	131.19
656.846	151.19
657.049	139.19
657.253	127.19
657.457	120.19
657.661	123.19
657.865	127.19
658.068	134.19
658.272	122.19
658.476	106.19
658.68	105.19
658.883	118.19
659.087	110.19
659.291	107.19
659.494	110.19
659.698	92.19
659.901	93.19
660.105	109.19
660.309	100.19
660.512	99.19
660.716	89.19
660.919	74.19
661.123	95.19
661.326	87.19
661.53	98.19
661.733	97.19
661.936	87.19
662.14	93.19
662.343	79.19
662.546	77.19
662.75	93.19
662.953	85.19
663.156	99.19
663.36	82.19
663.563	78.19
663.766	66.19
663.969	97.19
664.173	71.19
664.376	69.19
664.579	78.19
664.782	68.19
664.985	79.19
665.188	89.19
665.391	69.19
665.594	85.19
665.797	76.19
666	80.19
666.203	83.19
666.406	93.19
666.609	80.19
666.812	76.19
667.015	82.19
667.218	79.19
667.421	90.19
667.624	90.19
667.827	93.19
668.03	75.19
668.232	82.19
668.435	94.19
668.638	94.19
668.841	75.19
669.043	74.19
669.246	82.19
669.449	75.19
669.651	91.19
669.854	75.19
670.057	85.19
670.259	86.19
670.462	88.19
670.665	83.19
670.867	82.19
671.07	83.19
671.272	73.19
671.475	77.19
671.677	97.19
671.88	81.19
672.082	82.19
672.284	81.19
672.487	92.19
672.689	70.19
672.892	102.19
