Data from 1966.PennyLincolnUp.Lamp.En5.5.200Scan.071719.P1.Scan2.head_HRD10591_14-19-10-246.txt Node
Date: Thu Jul 18 14:19:10 EDT 2019
User: cochatt
Spectrometer: HR+D1059
Trigger mode: 1
Integration Time (sec): 1.000000E-1
Scans to average: 1
Electric dark correction enabled: true
Nonlinearity correction enabled: false
Boxcar width: 0
XAxis mode: Wavelengths
Number of Pixels in Spectrum: 2048
>>>>>Begin Spectral Data<<<<<
223.165	-11.69
223.4	-11.69
223.635	-11.69
223.869	-24.69
224.104	-25.69
224.338	-18.69
224.573	-6.69
224.808	-4.69
225.042	-5.69
225.277	-5.69
225.511	-7.69
225.746	-0.69
225.98	1.31
226.215	20.31
226.449	19.31
226.683	9.31
226.918	25.31
227.152	36.31
227.387	38.31
227.621	26.31
227.856	45.31
228.09	51.31
228.324	45.31
228.559	46.31
228.793	60.31
229.027	98.31
229.262	112.31
229.496	118.31
229.73	135.31
229.964	156.31
230.199	127.31
230.433	103.31
230.667	136.31
230.901	107.31
231.136	123.31
231.37	116.31
231.604	123.31
231.838	126.31
232.072	112.31
232.306	105.31
232.541	113.31
232.775	118.31
233.009	135.31
233.243	132.31
233.477	121.31
233.711	130.31
233.945	123.31
234.179	123.31
234.413	118.31
234.647	124.31
234.881	119.31
235.115	111.31
235.349	113.31
235.583	106.31
235.817	143.31
236.051	133.31
236.285	120.31
236.519	124.31
236.753	140.31
236.987	154.31
237.221	189.31
237.455	231.31
237.689	195.31
237.922	133.31
238.156	138.31
238.39	124.31
238.624	124.31
238.858	151.31
239.091	135.31
239.325	127.31
239.559	133.31
239.793	129.31
240.027	144.31
240.26	168.31
240.494	158.31
240.728	155.31
240.961	156.31
241.195	169.31
241.429	136.31
241.662	137.31
241.896	134.31
242.13	139.31
242.363	134.31
242.597	157.31
242.83	160.31
243.064	132.31
243.298	145.31
243.531	146.31
243.765	139.31
243.998	135.31
244.232	135.31
244.465	143.31
244.699	148.31
244.932	154.31
245.166	144.31
245.399	144.31
245.633	157.31
245.866	158.31
246.099	166.31
246.333	146.31
246.566	138.31
246.8	151.31
247.033	146.31
247.266	159.31
247.5	167.31
247.733	158.31
247.966	171.31
248.2	172.31
248.433	182.31
248.666	179.31
248.899	201.31
249.133	192.31
249.366	206.31
249.599	199.31
249.832	187.31
250.066	205.31
250.299	183.31
250.532	193.31
250.765	207.31
250.998	227.31
251.231	224.31
251.465	222.31
251.698	205.31
251.931	206.31
252.164	212.31
252.397	180.31
252.63	220.31
252.863	221.31
253.096	217.31
253.329	238.31
253.562	220.31
253.795	224.31
254.028	238.31
254.261	223.31
254.494	223.31
254.727	277.31
254.96	292.31
255.193	279.31
255.426	254.31
255.659	247.31
255.892	249.31
256.124	244.31
256.357	254.31
256.59	228.31
256.823	228.31
257.056	220.31
257.289	217.31
257.521	220.31
257.754	214.31
257.987	200.31
258.22	225.31
258.452	229.31
258.685	204.31
258.918	215.31
259.151	222.31
259.383	231.31
259.616	220.31
259.849	236.31
260.081	243.31
260.314	251.31
260.547	265.31
260.779	253.31
261.012	248.31
261.244	237.31
261.477	209.31
261.71	221.31
261.942	231.31
262.175	253.31
262.407	219.31
262.64	214.31
262.872	223.31
263.105	208.31
263.337	228.31
263.57	221.31
263.802	216.31
264.035	220.31
264.267	227.31
264.499	215.31
264.732	223.31
264.964	223.31
265.197	224.31
265.429	224.31
265.661	217.31
265.894	223.31
266.126	230.31
266.358	233.31
266.591	231.31
266.823	235.31
267.055	226.31
267.287	259.31
267.52	232.31
267.752	222.31
267.984	231.31
268.216	256.31
268.448	249.31
268.681	254.31
268.913	243.31
269.145	273.31
269.377	285.31
269.609	305.31
269.841	266.31
270.073	273.31
270.306	291.31
270.538	321.31
270.77	324.31
271.002	311.31
271.234	291.31
271.466	308.31
271.698	326.31
271.93	327.31
272.162	318.31
272.394	310.31
272.626	327.31
272.858	276.31
273.09	300.31
273.322	281.31
273.553	267.31
273.785	267.31
274.017	260.31
274.249	277.31
274.481	253.31
274.713	256.31
274.945	280.31
275.176	290.31
275.408	271.31
275.64	284.31
275.872	269.31
276.104	277.31
276.335	275.31
276.567	293.31
276.799	289.31
277.031	314.31
277.262	325.31
277.494	349.31
277.726	302.31
277.957	291.31
278.189	281.31
278.421	303.31
278.652	287.31
278.884	302.31
279.115	285.31
279.347	285.31
279.579	269.31
279.81	270.31
280.042	287.31
280.273	296.31
280.505	296.31
280.736	277.31
280.968	279.31
281.199	278.31
281.431	290.31
281.662	297.31
281.894	295.31
282.125	283.31
282.356	291.31
282.588	325.31
282.819	307.31
283.051	276.31
283.282	287.31
283.513	307.31
283.745	276.31
283.976	292.31
284.207	295.31
284.439	283.31
284.67	308.31
284.901	299.31
285.132	303.31
285.364	271.31
285.595	297.31
285.826	292.31
286.057	292.31
286.288	293.31
286.52	295.31
286.751	305.31
286.982	293.31
287.213	272.31
287.444	315.31
287.675	302.31
287.906	313.31
288.138	309.31
288.369	302.31
288.6	311.31
288.831	319.31
289.062	309.31
289.293	314.31
289.524	294.31
289.755	286.31
289.986	311.31
290.217	295.31
290.448	296.31
290.679	301.31
290.91	287.31
291.141	297.31
291.371	302.31
291.602	309.31
291.833	294.31
292.064	309.31
292.295	300.31
292.526	293.31
292.757	292.31
292.987	293.31
293.218	301.31
293.449	296.31
293.68	294.31
293.91	300.31
294.141	316.31
294.372	299.31
294.603	301.31
294.833	320.31
295.064	314.31
295.295	325.31
295.525	302.31
295.756	311.31
295.987	311.31
296.217	335.31
296.448	343.31
296.679	313.31
296.909	309.31
297.14	299.31
297.37	307.31
297.601	317.31
297.831	307.31
298.062	295.31
298.292	296.31
298.523	317.31
298.753	316.31
298.984	326.31
299.214	321.31
299.445	319.31
299.675	309.31
299.905	325.31
300.136	331.31
300.366	331.31
300.597	348.31
300.827	336.31
301.057	337.31
301.288	353.31
301.518	327.31
301.748	347.31
301.979	337.31
302.209	345.31
302.439	344.31
302.669	345.31
302.9	355.31
303.13	344.31
303.36	349.31
303.59	372.31
303.82	351.31
304.051	361.31
304.281	332.31
304.511	344.31
304.741	348.31
304.971	356.31
305.201	346.31
305.431	320.31
305.661	327.31
305.891	338.31
306.121	341.31
306.352	352.31
306.582	356.31
306.812	351.31
307.042	336.31
307.272	328.31
307.502	352.31
307.731	356.31
307.961	357.31
308.191	343.31
308.421	356.31
308.651	337.31
308.881	342.31
309.111	372.31
309.341	363.31
309.571	351.31
309.8	369.31
310.03	367.31
310.26	384.31
310.49	367.31
310.72	387.31
310.949	405.31
311.179	414.31
311.409	383.31
311.639	396.31
311.868	403.31
312.098	400.31
312.328	402.31
312.557	425.31
312.787	431.31
313.017	425.31
313.246	397.31
313.476	383.31
313.706	395.31
313.935	402.31
314.165	407.31
314.394	433.31
314.624	417.31
314.853	409.31
315.083	412.31
315.312	374.31
315.542	387.31
315.771	391.31
316.001	382.31
316.23	404.31
316.46	385.31
316.689	385.31
316.919	392.31
317.148	411.31
317.377	389.31
317.607	377.31
317.836	391.31
318.065	391.31
318.295	401.31
318.524	383.31
318.753	396.31
318.983	402.31
319.212	393.31
319.441	407.31
319.67	412.31
319.9	409.31
320.129	389.31
320.358	383.31
320.587	396.31
320.816	422.31
321.046	401.31
321.275	409.31
321.504	420.31
321.733	429.31
321.962	437.31
322.191	449.31
322.42	445.31
322.649	468.31
322.878	487.31
323.108	475.31
323.337	505.31
323.566	508.31
323.795	542.31
324.024	580.31
324.253	699.31
324.482	954.31
324.71	1509.31
324.939	2281.31
325.168	1993.31
325.397	985.31
325.626	686.31
325.855	561.31
326.084	529.31
326.313	535.31
326.542	519.31
326.77	582.31
326.999	630.31
327.228	889.31
327.457	1421.31
327.686	1728.31
327.914	1107.31
328.143	733.31
328.372	654.31
328.6	613.31
328.829	572.31
329.058	585.31
329.287	593.31
329.515	555.31
329.744	537.31
329.972	519.31
330.201	556.31
330.43	586.31
330.658	595.31
330.887	630.31
331.115	617.31
331.344	532.31
331.572	528.31
331.801	517.31
332.03	518.31
332.258	507.31
332.486	496.31
332.715	470.31
332.943	484.31
333.172	463.31
333.4	483.31
333.629	486.31
333.857	504.31
334.085	505.31
334.314	523.31
334.542	547.31
334.771	589.31
334.999	542.31
335.227	523.31
335.455	475.31
335.684	500.31
335.912	491.31
336.14	464.31
336.369	484.31
336.597	469.31
336.825	500.31
337.053	499.31
337.281	473.31
337.51	479.31
337.738	459.31
337.966	475.31
338.194	460.31
338.422	448.31
338.65	465.31
338.878	463.31
339.106	478.31
339.334	452.31
339.562	467.31
339.79	446.31
340.018	469.31
340.246	466.31
340.474	472.31
340.702	455.31
340.93	462.31
341.158	452.31
341.386	440.31
341.614	460.31
341.842	457.31
342.07	450.31
342.298	459.31
342.526	448.31
342.754	447.31
342.981	455.31
343.209	440.31
343.437	443.31
343.665	443.31
343.893	466.31
344.12	469.31
344.348	466.31
344.576	473.31
344.804	469.31
345.031	472.31
345.259	476.31
345.487	455.31
345.714	479.31
345.942	474.31
346.17	462.31
346.397	446.31
346.625	439.31
346.853	444.31
347.08	443.31
347.308	443.31
347.535	467.31
347.763	470.31
347.99	447.31
348.218	462.31
348.445	457.31
348.673	459.31
348.9	446.31
349.128	432.31
349.355	439.31
349.583	440.31
349.81	429.31
350.037	449.31
350.265	437.31
350.492	431.31
350.72	454.31
350.947	435.31
351.174	463.31
351.402	487.31
351.629	467.31
351.856	441.31
352.083	465.31
352.311	459.31
352.538	476.31
352.765	471.31
352.992	457.31
353.22	432.31
353.447	456.31
353.674	448.31
353.901	420.31
354.128	406.31
354.355	428.31
354.583	417.31
354.81	424.31
355.037	427.31
355.264	416.31
355.491	430.31
355.718	436.31
355.945	398.31
356.172	435.31
356.399	421.31
356.626	433.31
356.853	410.31
357.08	419.31
357.307	444.31
357.534	425.31
357.761	430.31
357.988	440.31
358.215	426.31
358.441	419.31
358.668	419.31
358.895	446.31
359.122	417.31
359.349	437.31
359.576	431.31
359.802	488.31
360.029	496.31
360.256	497.31
360.483	492.31
360.709	473.31
360.936	451.31
361.163	439.31
361.39	446.31
361.616	447.31
361.843	440.31
362.07	436.31
362.296	442.31
362.523	453.31
362.749	436.31
362.976	452.31
363.203	426.31
363.429	431.31
363.656	452.31
363.882	444.31
364.109	449.31
364.335	423.31
364.562	442.31
364.788	467.31
365.015	444.31
365.241	435.31
365.468	433.31
365.694	442.31
365.92	431.31
366.147	431.31
366.373	459.31
366.599	446.31
366.826	427.31
367.052	419.31
367.278	452.31
367.505	431.31
367.731	438.31
367.957	446.31
368.184	455.31
368.41	447.31
368.636	464.31
368.862	472.31
369.089	458.31
369.315	442.31
369.541	464.31
369.767	445.31
369.993	431.31
370.219	427.31
370.445	449.31
370.672	456.31
370.898	453.31
371.124	464.31
371.35	440.31
371.576	455.31
371.802	441.31
372.028	433.31
372.254	441.31
372.48	460.31
372.706	453.31
372.932	447.31
373.158	436.31
373.384	431.31
373.61	445.31
373.835	451.31
374.061	427.31
374.287	451.31
374.513	458.31
374.739	452.31
374.965	449.31
375.191	467.31
375.416	461.31
375.642	471.31
375.868	467.31
376.094	450.31
376.319	468.31
376.545	452.31
376.771	448.31
376.997	437.31
377.222	443.31
377.448	432.31
377.674	439.31
377.899	429.31
378.125	459.31
378.35	427.31
378.576	433.31
378.802	450.31
379.027	431.31
379.253	450.31
379.478	440.31
379.704	445.31
379.929	453.31
380.155	449.31
380.38	454.31
380.606	448.31
380.831	455.31
381.057	449.31
381.282	464.31
381.507	458.31
381.733	430.31
381.958	433.31
382.184	443.31
382.409	456.31
382.634	451.31
382.86	449.31
383.085	456.31
383.31	453.31
383.535	470.31
383.761	441.31
383.986	475.31
384.211	472.31
384.436	483.31
384.662	490.31
384.887	479.31
385.112	460.31
385.337	481.31
385.562	477.31
385.787	495.31
386.013	495.31
386.238	499.31
386.463	492.31
386.688	492.31
386.913	489.31
387.138	480.31
387.363	496.31
387.588	499.31
387.813	490.31
388.038	492.31
388.263	491.31
388.488	480.31
388.713	507.31
388.938	495.31
389.163	482.31
389.387	488.31
389.612	509.31
389.837	495.31
390.062	488.31
390.287	500.31
390.512	474.31
390.736	500.31
390.961	499.31
391.186	492.31
391.411	513.31
391.636	499.31
391.86	478.31
392.085	517.31
392.31	503.31
392.534	525.31
392.759	523.31
392.984	489.31
393.208	487.31
393.433	502.31
393.658	488.31
393.882	504.31
394.107	490.31
394.331	503.31
394.556	495.31
394.78	508.31
395.005	519.31
395.229	527.31
395.454	515.31
395.678	535.31
395.903	541.31
396.127	547.31
396.352	552.31
396.576	527.31
396.801	529.31
397.025	504.31
397.249	513.31
397.474	526.31
397.698	527.31
397.922	551.31
398.147	557.31
398.371	570.31
398.595	571.31
398.82	563.31
399.044	584.31
399.268	601.31
399.492	624.31
399.717	653.31
399.941	693.31
400.165	692.31
400.389	718.31
400.613	650.31
400.837	590.31
401.062	592.31
401.286	581.31
401.51	599.31
401.734	585.31
401.958	589.31
402.182	587.31
402.406	590.31
402.63	599.31
402.854	603.31
403.078	575.31
403.302	587.31
403.526	628.31
403.75	609.31
403.974	592.31
404.198	592.31
404.422	617.31
404.645	617.31
404.869	604.31
405.093	666.31
405.317	694.31
405.541	743.31
405.765	643.31
405.988	616.31
406.212	645.31
406.436	635.31
406.66	676.31
406.883	625.31
407.107	683.31
407.331	732.31
407.555	806.31
407.778	801.31
408.002	727.31
408.226	701.31
408.449	663.31
408.673	642.31
408.896	690.31
409.12	722.31
409.344	686.31
409.567	628.31
409.791	620.31
410.014	584.31
410.238	592.31
410.461	609.31
410.685	631.31
410.908	642.31
411.132	665.31
411.355	729.31
411.578	669.31
411.802	602.31
412.025	600.31
412.249	634.31
412.472	647.31
412.695	708.31
412.919	662.31
413.142	624.31
413.365	590.31
413.589	591.31
413.812	580.31
414.035	573.31
414.258	594.31
414.482	559.31
414.705	578.31
414.928	560.31
415.151	572.31
415.374	574.31
415.597	577.31
415.821	568.31
416.044	567.31
416.267	563.31
416.49	560.31
416.713	580.31
416.936	579.31
417.159	581.31
417.382	558.31
417.605	567.31
417.828	619.31
418.051	578.31
418.274	589.31
418.497	576.31
418.72	549.31
418.943	567.31
419.166	589.31
419.389	601.31
419.611	625.31
419.834	623.31
420.057	590.31
420.28	610.31
420.503	605.31
420.726	607.31
420.948	599.31
421.171	639.31
421.394	693.31
421.617	633.31
421.839	612.31
422.062	597.31
422.285	613.31
422.507	669.31
422.73	757.31
422.953	731.31
423.175	643.31
423.398	639.31
423.621	616.31
423.843	663.31
424.066	669.31
424.288	639.31
424.511	664.31
424.733	724.31
424.956	821.31
425.178	765.31
425.401	758.31
425.623	791.31
425.846	683.31
426.068	637.31
426.291	645.31
426.513	653.31
426.735	646.31
426.958	699.31
427.18	784.31
427.402	912.31
427.625	1009.31
427.847	897.31
428.069	789.31
428.292	689.31
428.514	629.31
428.736	637.31
428.958	622.31
429.181	607.31
429.403	585.31
429.625	588.31
429.847	670.31
430.069	709.31
430.292	705.31
430.514	633.31
430.736	589.31
430.958	580.31
431.18	577.31
431.402	570.31
431.624	572.31
431.846	553.31
432.068	570.31
432.29	554.31
432.512	594.31
432.734	574.31
432.956	565.31
433.178	592.31
433.4	587.31
433.622	574.31
433.844	571.31
434.066	547.31
434.287	568.31
434.509	569.31
434.731	561.31
434.953	611.31
435.175	586.31
435.397	638.31
435.618	657.31
435.84	701.31
436.062	798.31
436.284	868.31
436.505	724.31
436.727	657.31
436.949	612.31
437.17	601.31
437.392	592.31
437.614	613.31
437.835	641.31
438.057	725.31
438.278	896.31
438.5	865.31
438.721	945.31
438.943	917.31
439.165	714.31
439.386	657.31
439.608	654.31
439.829	626.31
440.05	684.31
440.272	746.31
440.493	706.31
440.715	624.31
440.936	615.31
441.158	585.31
441.379	592.31
441.6	599.31
441.822	590.31
442.043	668.31
442.264	803.31
442.486	845.31
442.707	722.31
442.928	643.31
443.149	664.31
443.371	680.31
443.592	701.31
443.813	826.31
444.034	919.31
444.255	725.31
444.476	668.31
444.698	657.31
444.919	621.31
445.14	727.31
445.361	696.31
445.582	704.31
445.803	752.31
446.024	914.31
446.245	887.31
446.466	804.31
446.687	693.31
446.908	651.31
447.129	613.31
447.35	585.31
447.571	592.31
447.792	588.31
448.013	575.31
448.234	617.31
448.455	677.31
448.675	803.31
448.896	933.31
449.117	787.31
449.338	735.31
449.559	838.31
449.779	997.31
450	775.31
450.221	648.31
450.442	610.31
450.662	594.31
450.883	575.31
451.104	611.31
451.324	577.31
451.545	558.31
451.766	540.31
451.986	551.31
452.207	530.31
452.428	511.31
452.648	535.31
452.869	532.31
453.089	530.31
453.31	555.31
453.53	548.31
453.751	541.31
453.971	515.31
454.192	535.31
454.412	512.31
454.633	538.31
454.853	527.31
455.073	517.31
455.294	553.31
455.514	657.31
455.734	618.31
455.955	527.31
456.175	496.31
456.395	504.31
456.616	486.31
456.836	503.31
457.056	470.31
457.276	479.31
457.497	512.31
457.717	494.31
457.937	515.31
458.157	528.31
458.377	529.31
458.598	529.31
458.818	591.31
459.038	691.31
459.258	698.31
459.478	593.31
459.698	563.31
459.918	573.31
460.138	564.31
460.358	560.31
460.578	583.31
460.798	586.31
461.018	581.31
461.238	574.31
461.458	584.31
461.678	605.31
461.898	569.31
462.118	600.31
462.338	614.31
462.558	609.31
462.777	592.31
462.997	601.31
463.217	639.31
463.437	639.31
463.657	630.31
463.876	623.31
464.096	634.31
464.316	611.31
464.536	606.31
464.755	619.31
464.975	593.31
465.195	650.31
465.414	726.31
465.634	658.31
465.854	595.31
466.073	604.31
466.293	577.31
466.512	568.31
466.732	539.31
466.951	557.31
467.171	543.31
467.391	529.31
467.61	549.31
467.829	563.31
468.049	551.31
468.268	539.31
468.488	531.31
468.707	544.31
468.927	527.31
469.146	540.31
469.365	529.31
469.585	503.31
469.804	544.31
470.023	559.31
470.243	537.31
470.462	558.31
470.681	601.31
470.901	557.31
471.12	559.31
471.339	551.31
471.558	554.31
471.777	556.31
471.997	538.31
472.216	550.31
472.435	603.31
472.654	575.31
472.873	563.31
473.092	535.31
473.311	518.31
473.53	549.31
473.749	550.31
473.968	581.31
474.187	693.31
474.406	722.31
474.625	635.31
474.844	574.31
475.063	559.31
475.282	544.31
475.501	560.31
475.72	576.31
475.939	583.31
476.158	559.31
476.377	555.31
476.596	578.31
476.814	581.31
477.033	581.31
477.252	581.31
477.471	593.31
477.69	592.31
477.908	597.31
478.127	611.31
478.346	615.31
478.564	613.31
478.783	640.31
479.002	628.31
479.22	639.31
479.439	614.31
479.658	683.31
479.876	681.31
480.095	672.31
480.313	701.31
480.532	704.31
480.751	685.31
480.969	701.31
481.188	752.31
481.406	771.31
481.624	701.31
481.843	681.31
482.061	668.31
482.28	643.31
482.498	674.31
482.717	637.31
482.935	651.31
483.153	634.31
483.372	655.31
483.59	661.31
483.808	637.31
484.027	627.31
484.245	636.31
484.463	625.31
484.681	677.31
484.9	673.31
485.118	676.31
485.336	663.31
485.554	686.31
485.772	689.31
485.99	684.31
486.209	663.31
486.427	667.31
486.645	697.31
486.863	703.31
487.081	714.31
487.299	695.31
487.517	685.31
487.735	709.31
487.953	700.31
488.171	710.31
488.389	681.31
488.607	689.31
488.825	684.31
489.043	698.31
489.261	710.31
489.479	716.31
489.696	701.31
489.914	728.31
490.132	707.31
490.35	723.31
490.568	738.31
490.786	740.31
491.003	749.31
491.221	781.31
491.439	780.31
491.657	796.31
491.874	812.31
492.092	823.31
492.31	823.31
492.527	836.31
492.745	801.31
492.963	829.31
493.18	823.31
493.398	835.31
493.615	839.31
493.833	826.31
494.05	807.31
494.268	834.31
494.485	810.31
494.703	843.31
494.92	803.31
495.138	856.31
495.355	815.31
495.573	827.31
495.79	821.31
496.008	847.31
496.225	821.31
496.442	835.31
496.66	848.31
496.877	851.31
497.094	831.31
497.312	829.31
497.529	845.31
497.746	877.31
497.963	873.31
498.181	899.31
498.398	930.31
498.615	937.31
498.832	930.31
499.049	943.31
499.267	982.31
499.484	1022.31
499.701	1074.31
499.918	1095.31
500.135	1115.31
500.352	1214.31
500.569	1188.31
500.786	1197.31
501.003	1189.31
501.22	1145.31
501.437	1115.31
501.654	1087.31
501.871	1076.31
502.088	1016.31
502.305	981.31
502.522	964.31
502.739	961.31
502.956	891.31
503.172	901.31
503.389	870.31
503.606	891.31
503.823	857.31
504.04	848.31
504.256	834.31
504.473	844.31
504.69	827.31
504.907	841.31
505.123	826.31
505.34	812.31
505.557	806.31
505.773	817.31
505.99	829.31
506.207	816.31
506.423	823.31
506.64	799.31
506.856	792.31
507.073	758.31
507.289	765.31
507.506	749.31
507.722	775.31
507.939	765.31
508.155	773.31
508.372	727.31
508.588	763.31
508.805	726.31
509.021	759.31
509.238	739.31
509.454	759.31
509.67	748.31
509.887	727.31
510.103	764.31
510.319	755.31
510.536	831.31
510.752	1272.31
510.968	1053.31
511.184	749.31
511.401	728.31
511.617	722.31
511.833	720.31
512.049	678.31
512.265	695.31
512.481	722.31
512.698	704.31
512.914	718.31
513.13	697.31
513.346	728.31
513.562	696.31
513.778	692.31
513.994	707.31
514.21	712.31
514.426	747.31
514.642	780.31
514.858	795.31
515.074	841.31
515.29	966.31
515.506	1320.31
515.721	1097.31
515.937	845.31
516.153	763.31
516.369	729.31
516.585	743.31
516.801	757.31
517.016	759.31
517.232	738.31
517.448	745.31
517.664	761.31
517.879	738.31
518.095	751.31
518.311	734.31
518.527	713.31
518.742	719.31
518.958	708.31
519.173	731.31
519.389	718.31
519.605	722.31
519.82	698.31
520.036	724.31
520.251	753.31
520.467	752.31
520.682	752.31
520.898	785.31
521.113	759.31
521.329	816.31
521.544	887.31
521.76	1121.31
521.975	1694.31
522.19	1657.31
522.406	988.31
522.621	781.31
522.836	738.31
523.052	693.31
523.267	684.31
523.482	663.31
523.698	649.31
523.913	638.31
524.128	661.31
524.343	652.31
524.559	641.31
524.774	611.31
524.989	602.31
525.204	617.31
525.419	601.31
525.634	620.31
525.849	597.31
526.064	596.31
526.28	603.31
526.495	586.31
526.71	572.31
526.925	580.31
527.14	587.31
527.355	579.31
527.57	561.31
527.785	586.31
527.999	589.31
528.214	567.31
528.429	588.31
528.644	583.31
528.859	599.31
529.074	599.31
529.289	602.31
529.503	697.31
529.718	681.31
529.933	621.31
530.148	611.31
530.363	616.31
530.577	574.31
530.792	573.31
531.007	550.31
531.221	570.31
531.436	558.31
531.651	588.31
531.865	560.31
532.08	563.31
532.295	559.31
532.509	556.31
532.724	553.31
532.938	583.31
533.153	548.31
533.367	564.31
533.582	545.31
533.796	568.31
534.011	558.31
534.225	544.31
534.44	553.31
534.654	570.31
534.868	556.31
535.083	547.31
535.297	548.31
535.511	556.31
535.726	548.31
535.94	547.31
536.154	561.31
536.369	563.31
536.583	552.31
536.797	565.31
537.011	542.31
537.225	537.31
537.44	528.31
537.654	553.31
537.868	535.31
538.082	514.31
538.296	544.31
538.51	521.31
538.724	551.31
538.938	537.31
539.153	516.31
539.367	523.31
539.581	557.31
539.795	535.31
540.009	527.31
540.222	535.31
540.436	520.31
540.65	535.31
540.864	526.31
541.078	550.31
541.292	549.31
541.506	542.31
541.72	543.31
541.934	529.31
542.147	551.31
542.361	547.31
542.575	534.31
542.789	537.31
543.002	524.31
543.216	551.31
543.43	573.31
543.644	551.31
543.857	518.31
544.071	509.31
544.285	555.31
544.498	531.31
544.712	514.31
544.925	515.31
545.139	533.31
545.352	493.31
545.566	513.31
545.779	513.31
545.993	527.31
546.206	529.31
546.42	505.31
546.633	528.31
546.847	519.31
547.06	508.31
547.274	522.31
547.487	520.31
547.7	507.31
547.914	493.31
548.127	512.31
548.34	503.31
548.554	504.31
548.767	527.31
548.98	519.31
549.193	499.31
549.407	524.31
549.62	526.31
549.833	505.31
550.046	500.31
550.259	503.31
550.473	476.31
550.686	513.31
550.899	507.31
551.112	490.31
551.325	490.31
551.538	507.31
551.751	499.31
551.964	494.31
552.177	494.31
552.39	500.31
552.603	515.31
552.816	518.31
553.029	503.31
553.242	516.31
553.455	511.31
553.667	521.31
553.88	563.31
554.093	533.31
554.306	533.31
554.519	514.31
554.732	493.31
554.944	499.31
555.157	474.31
555.37	486.31
555.583	479.31
555.795	475.31
556.008	494.31
556.221	483.31
556.433	469.31
556.646	471.31
556.859	461.31
557.071	480.31
557.284	480.31
557.496	467.31
557.709	471.31
557.921	456.31
558.134	443.31
558.346	445.31
558.559	440.31
558.771	451.31
558.984	450.31
559.196	468.31
559.409	460.31
559.621	462.31
559.833	469.31
560.046	435.31
560.258	440.31
560.47	452.31
560.683	444.31
560.895	440.31
561.107	455.31
561.32	447.31
561.532	446.31
561.744	460.31
561.956	476.31
562.168	456.31
562.381	454.31
562.593	442.31
562.805	458.31
563.017	452.31
563.229	453.31
563.441	464.31
563.653	428.31
563.865	444.31
564.077	432.31
564.289	459.31
564.501	469.31
564.713	498.31
564.925	457.31
565.137	501.31
565.349	513.31
565.561	504.31
565.773	499.31
565.985	537.31
566.197	477.31
566.408	527.31
566.62	539.31
566.832	555.31
567.044	572.31
567.255	555.31
567.467	576.31
567.679	569.31
567.891	580.31
568.102	594.31
568.314	602.31
568.526	556.31
568.737	544.31
568.949	519.31
569.161	512.31
569.372	488.31
569.584	486.31
569.795	460.31
570.007	465.31
570.218	492.31
570.43	488.31
570.641	461.31
570.853	443.31
571.064	447.31
571.276	463.31
571.487	444.31
571.698	441.31
571.91	428.31
572.121	446.31
572.333	417.31
572.544	404.31
572.755	403.31
572.966	405.31
573.178	400.31
573.389	396.31
573.6	404.31
573.811	407.31
574.023	393.31
574.234	389.31
574.445	395.31
574.656	392.31
574.867	387.31
575.078	387.31
575.289	389.31
575.501	400.31
575.712	407.31
575.923	382.31
576.134	399.31
576.345	375.31
576.556	399.31
576.767	394.31
576.978	391.31
577.188	389.31
577.399	391.31
577.61	372.31
577.821	373.31
578.032	379.31
578.243	387.31
578.454	625.31
578.665	470.31
578.875	396.31
579.086	382.31
579.297	379.31
579.508	350.31
579.718	366.31
579.929	373.31
580.14	365.31
580.35	364.31
580.561	373.31
580.772	368.31
580.982	354.31
581.193	328.31
581.403	356.31
581.614	361.31
581.825	334.31
582.035	355.31
582.246	348.31
582.456	342.31
582.667	346.31
582.877	356.31
583.087	359.31
583.298	361.31
583.508	343.31
583.719	357.31
583.929	362.31
584.139	352.31
584.35	335.31
584.56	376.31
584.77	360.31
584.981	343.31
585.191	353.31
585.401	364.31
585.611	343.31
585.821	347.31
586.032	349.31
586.242	345.31
586.452	352.31
586.662	338.31
586.872	342.31
587.082	330.31
587.292	336.31
587.502	361.31
587.713	343.31
587.923	333.31
588.133	338.31
588.343	341.31
588.553	335.31
588.762	348.31
588.972	344.31
589.182	348.31
589.392	333.31
589.602	347.31
589.812	352.31
590.022	351.31
590.232	331.31
590.441	340.31
590.651	335.31
590.861	348.31
591.071	348.31
591.281	342.31
591.49	332.31
591.7	346.31
591.91	342.31
592.119	348.31
592.329	340.31
592.539	369.31
592.748	352.31
592.958	378.31
593.167	357.31
593.377	367.31
593.587	349.31
593.796	358.31
594.006	363.31
594.215	371.31
594.424	353.31
594.634	361.31
594.843	353.31
595.053	355.31
595.262	342.31
595.472	340.31
595.681	325.31
595.89	324.31
596.1	329.31
596.309	322.31
596.518	336.31
596.727	322.31
596.937	327.31
597.146	321.31
597.355	323.31
597.564	331.31
597.774	318.31
597.983	315.31
598.192	305.31
598.401	325.31
598.61	303.31
598.819	301.31
599.028	292.31
599.237	298.31
599.446	304.31
599.655	298.31
599.864	312.31
600.073	315.31
600.282	300.31
600.491	280.31
600.7	320.31
600.909	316.31
601.118	279.31
601.327	307.31
601.536	301.31
601.745	321.31
601.953	278.31
602.162	280.31
602.371	294.31
602.58	283.31
602.789	288.31
602.997	295.31
603.206	283.31
603.415	297.31
603.623	285.31
603.832	286.31
604.041	303.31
604.249	281.31
604.458	297.31
604.666	294.31
604.875	265.31
605.084	281.31
605.292	274.31
605.501	295.31
605.709	281.31
605.918	277.31
606.126	283.31
606.334	277.31
606.543	296.31
606.751	274.31
606.96	287.31
607.168	294.31
607.376	268.31
607.585	292.31
607.793	289.31
608.001	282.31
608.21	261.31
608.418	272.31
608.626	260.31
608.834	256.31
609.043	280.31
609.251	284.31
609.459	266.31
609.667	265.31
609.875	289.31
610.083	288.31
610.291	286.31
610.499	285.31
610.707	280.31
610.916	273.31
611.124	277.31
611.332	280.31
611.54	283.31
611.748	301.31
611.955	261.31
612.163	287.31
612.371	268.31
612.579	277.31
612.787	293.31
612.995	272.31
613.203	269.31
613.411	261.31
613.618	252.31
613.826	281.31
614.034	292.31
614.242	267.31
614.449	266.31
614.657	285.31
614.865	258.31
615.072	262.31
615.28	286.31
615.488	269.31
615.695	262.31
615.903	263.31
616.111	265.31
616.318	264.31
616.526	261.31
616.733	262.31
616.941	269.31
617.148	265.31
617.356	267.31
617.563	271.31
617.771	269.31
617.978	249.31
618.185	279.31
618.393	265.31
618.6	272.31
618.807	264.31
619.015	250.31
619.222	248.31
619.429	247.31
619.637	263.31
619.844	255.31
620.051	257.31
620.258	258.31
620.466	267.31
620.673	262.31
620.88	259.31
621.087	258.31
621.294	246.31
621.501	252.31
621.708	255.31
621.915	256.31
622.122	254.31
622.329	250.31
622.536	250.31
622.743	247.31
622.95	239.31
623.157	238.31
623.364	272.31
623.571	254.31
623.778	250.31
623.985	251.31
624.192	259.31
624.399	243.31
624.606	250.31
624.812	240.31
625.019	252.31
625.226	213.31
625.433	255.31
625.639	245.31
625.846	223.31
626.053	241.31
626.259	249.31
626.466	228.31
626.673	234.31
626.879	237.31
627.086	243.31
627.293	225.31
627.499	224.31
627.706	228.31
627.912	241.31
628.119	232.31
628.325	253.31
628.532	227.31
628.738	235.31
628.945	229.31
629.151	228.31
629.357	224.31
629.564	237.31
629.77	221.31
629.976	235.31
630.183	245.31
630.389	230.31
630.595	227.31
630.802	227.31
631.008	234.31
631.214	230.31
631.42	212.31
631.627	209.31
631.833	211.31
632.039	230.31
632.245	222.31
632.451	204.31
632.657	221.31
632.863	217.31
633.069	226.31
633.275	197.31
633.481	221.31
633.688	201.31
633.893	219.31
634.099	203.31
634.305	221.31
634.511	220.31
634.717	210.31
634.923	209.31
635.129	195.31
635.335	197.31
635.541	200.31
635.747	193.31
635.952	202.31
636.158	209.31
636.364	204.31
636.57	225.31
636.775	222.31
636.981	206.31
637.187	200.31
637.392	195.31
637.598	188.31
637.804	220.31
638.009	202.31
638.215	209.31
638.421	204.31
638.626	199.31
638.832	201.31
639.037	207.31
639.243	194.31
639.448	198.31
639.654	196.31
639.859	195.31
640.065	189.31
640.27	192.31
640.475	200.31
640.681	177.31
640.886	214.31
641.091	196.31
641.297	205.31
641.502	180.31
641.707	192.31
641.913	184.31
642.118	195.31
642.323	188.31
642.528	179.31
642.733	181.31
642.939	173.31
643.144	171.31
643.349	197.31
643.554	183.31
643.759	186.31
643.964	170.31
644.169	176.31
644.374	195.31
644.579	191.31
644.784	200.31
644.989	172.31
645.194	193.31
645.399	206.31
645.604	190.31
645.809	190.31
646.014	190.31
646.219	176.31
646.423	187.31
646.628	191.31
646.833	196.31
647.038	178.31
647.243	183.31
647.447	169.31
647.652	165.31
647.857	183.31
648.062	198.31
648.266	189.31
648.471	196.31
648.676	186.31
648.88	187.31
649.085	186.31
649.289	206.31
649.494	173.31
649.698	208.31
649.903	195.31
650.107	189.31
650.312	192.31
650.516	195.31
650.721	171.31
650.925	183.31
651.13	163.31
651.334	163.31
651.539	165.31
651.743	158.31
651.947	173.31
652.152	158.31
652.356	162.31
652.56	155.31
652.764	158.31
652.969	173.31
653.173	149.31
653.377	155.31
653.581	145.31
653.785	157.31
653.99	134.31
654.194	149.31
654.398	152.31
654.602	132.31
654.806	142.31
655.01	154.31
655.214	149.31
655.418	151.31
655.622	127.31
655.826	135.31
656.03	141.31
656.234	141.31
656.438	139.31
656.642	157.31
656.846	147.31
657.049	132.31
657.253	131.31
657.457	124.31
657.661	137.31
657.865	120.31
658.068	115.31
658.272	125.31
658.476	128.31
658.68	124.31
658.883	113.31
659.087	105.31
659.291	97.31
659.494	91.31
659.698	98.31
659.901	108.31
660.105	101.31
660.309	96.31
660.512	101.31
660.716	107.31
660.919	91.31
661.123	96.31
661.326	95.31
661.53	96.31
661.733	86.31
661.936	88.31
662.14	82.31
662.343	105.31
662.546	90.31
662.75	81.31
662.953	81.31
663.156	82.31
663.36	74.31
663.563	86.31
663.766	68.31
663.969	91.31
664.173	85.31
664.376	81.31
664.579	87.31
664.782	84.31
664.985	91.31
665.188	90.31
665.391	95.31
665.594	96.31
665.797	80.31
666	83.31
666.203	92.31
666.406	82.31
666.609	95.31
666.812	78.31
667.015	82.31
667.218	86.31
667.421	74.31
667.624	80.31
667.827	78.31
668.03	91.31
668.232	78.31
668.435	80.31
668.638	87.31
668.841	84.31
669.043	80.31
669.246	77.31
669.449	94.31
669.651	74.31
669.854	74.31
670.057	85.31
670.259	83.31
670.462	103.31
670.665	81.31
670.867	65.31
671.07	91.31
671.272	82.31
671.475	85.31
671.677	77.31
671.88	72.31
672.082	92.31
672.284	91.31
672.487	91.31
672.689	80.31
672.892	80.31
