Data from 1966.PennyLincolnUp.Lamp.En5.5.200Scan.071719.P1._HRD10591_14-12-49-913.txt Node
Date: Thu Jul 18 14:12:49 EDT 2019
User: cochatt
Spectrometer: HR+D1059
Trigger mode: 1
Integration Time (sec): 1.000000E-1
Scans to average: 1
Electric dark correction enabled: true
Nonlinearity correction enabled: false
Boxcar width: 0
XAxis mode: Wavelengths
Number of Pixels in Spectrum: 2048
>>>>>Begin Spectral Data<<<<<
223.165	-24.94
223.4	-24.94
223.635	-24.94
223.869	-13.94
224.104	-10.94
224.338	-13.94
224.573	-4.94
224.808	-6.94
225.042	-9.94
225.277	0.06
225.511	-9.94
225.746	2.06
225.98	13.06
226.215	17.06
226.449	12.06
226.683	13.06
226.918	17.06
227.152	21.06
227.387	40.06
227.621	36.06
227.856	30.06
228.09	47.06
228.324	41.06
228.559	48.06
228.793	41.06
229.027	74.06
229.262	74.06
229.496	87.06
229.73	87.06
229.964	94.06
230.199	96.06
230.433	82.06
230.667	74.06
230.901	94.06
231.136	85.06
231.37	92.06
231.604	90.06
231.838	81.06
232.072	93.06
232.306	91.06
232.541	87.06
232.775	98.06
233.009	87.06
233.243	91.06
233.477	94.06
233.711	89.06
233.945	84.06
234.179	75.06
234.413	92.06
234.647	83.06
234.881	93.06
235.115	93.06
235.349	95.06
235.583	103.06
235.817	87.06
236.051	93.06
236.285	90.06
236.519	89.06
236.753	96.06
236.987	99.06
237.221	115.06
237.455	132.06
237.689	114.06
237.922	101.06
238.156	84.06
238.39	89.06
238.624	93.06
238.858	83.06
239.091	100.06
239.325	88.06
239.559	87.06
239.793	91.06
240.027	89.06
240.26	98.06
240.494	106.06
240.728	87.06
240.961	116.06
241.195	92.06
241.429	103.06
241.662	99.06
241.896	83.06
242.13	102.06
242.363	101.06
242.597	99.06
242.83	87.06
243.064	97.06
243.298	82.06
243.531	91.06
243.765	83.06
243.998	97.06
244.232	96.06
244.465	99.06
244.699	99.06
244.932	94.06
245.166	99.06
245.399	100.06
245.633	102.06
245.866	86.06
246.099	99.06
246.333	91.06
246.566	84.06
246.8	102.06
247.033	108.06
247.266	95.06
247.5	94.06
247.733	104.06
247.966	114.06
248.2	109.06
248.433	122.06
248.666	106.06
248.899	114.06
249.133	132.06
249.366	128.06
249.599	121.06
249.832	126.06
250.066	128.06
250.299	123.06
250.532	103.06
250.765	117.06
250.998	128.06
251.231	142.06
251.465	128.06
251.698	131.06
251.931	120.06
252.164	122.06
252.397	114.06
252.63	121.06
252.863	119.06
253.096	127.06
253.329	133.06
253.562	139.06
253.795	139.06
254.028	115.06
254.261	120.06
254.494	138.06
254.727	154.06
254.96	161.06
255.193	150.06
255.426	133.06
255.659	142.06
255.892	146.06
256.124	141.06
256.357	129.06
256.59	122.06
256.823	132.06
257.056	126.06
257.289	122.06
257.521	128.06
257.754	121.06
257.987	121.06
258.22	131.06
258.452	129.06
258.685	126.06
258.918	121.06
259.151	130.06
259.383	120.06
259.616	136.06
259.849	111.06
260.081	120.06
260.314	132.06
260.547	146.06
260.779	137.06
261.012	130.06
261.244	133.06
261.477	140.06
261.71	134.06
261.942	130.06
262.175	142.06
262.407	141.06
262.64	137.06
262.872	119.06
263.105	119.06
263.337	118.06
263.57	118.06
263.802	115.06
264.035	124.06
264.267	128.06
264.499	130.06
264.732	129.06
264.964	121.06
265.197	131.06
265.429	122.06
265.661	136.06
265.894	119.06
266.126	103.06
266.358	128.06
266.591	124.06
266.823	134.06
267.055	136.06
267.287	123.06
267.52	130.06
267.752	126.06
267.984	138.06
268.216	129.06
268.448	123.06
268.681	132.06
268.913	123.06
269.145	161.06
269.377	142.06
269.609	152.06
269.841	141.06
270.073	155.06
270.306	167.06
270.538	175.06
270.77	176.06
271.002	172.06
271.234	173.06
271.466	150.06
271.698	171.06
271.93	166.06
272.162	180.06
272.394	164.06
272.626	153.06
272.858	160.06
273.09	169.06
273.322	152.06
273.553	140.06
273.785	145.06
274.017	152.06
274.249	156.06
274.481	147.06
274.713	152.06
274.945	157.06
275.176	156.06
275.408	148.06
275.64	156.06
275.872	143.06
276.104	132.06
276.335	131.06
276.567	160.06
276.799	170.06
277.031	198.06
277.262	183.06
277.494	178.06
277.726	168.06
277.957	142.06
278.189	154.06
278.421	154.06
278.652	138.06
278.884	150.06
279.115	144.06
279.347	139.06
279.579	140.06
279.81	158.06
280.042	169.06
280.273	149.06
280.505	136.06
280.736	150.06
280.968	143.06
281.199	155.06
281.431	138.06
281.662	151.06
281.894	145.06
282.125	157.06
282.356	170.06
282.588	158.06
282.819	182.06
283.051	176.06
283.282	150.06
283.513	150.06
283.745	137.06
283.976	156.06
284.207	156.06
284.439	153.06
284.67	164.06
284.901	146.06
285.132	146.06
285.364	141.06
285.595	163.06
285.826	142.06
286.057	159.06
286.288	163.06
286.52	149.06
286.751	170.06
286.982	170.06
287.213	143.06
287.444	157.06
287.675	162.06
287.906	163.06
288.138	156.06
288.369	164.06
288.6	170.06
288.831	146.06
289.062	182.06
289.293	141.06
289.524	175.06
289.755	151.06
289.986	162.06
290.217	148.06
290.448	165.06
290.679	163.06
290.91	170.06
291.141	170.06
291.371	173.06
291.602	155.06
291.833	145.06
292.064	164.06
292.295	146.06
292.526	155.06
292.757	156.06
292.987	155.06
293.218	144.06
293.449	164.06
293.68	144.06
293.91	157.06
294.141	150.06
294.372	162.06
294.603	153.06
294.833	136.06
295.064	147.06
295.295	164.06
295.525	165.06
295.756	161.06
295.987	179.06
296.217	192.06
296.448	181.06
296.679	150.06
296.909	160.06
297.14	167.06
297.37	194.06
297.601	163.06
297.831	139.06
298.062	165.06
298.292	172.06
298.523	174.06
298.753	159.06
298.984	178.06
299.214	160.06
299.445	148.06
299.675	167.06
299.905	169.06
300.136	160.06
300.366	173.06
300.597	156.06
300.827	162.06
301.057	168.06
301.288	164.06
301.518	185.06
301.748	178.06
301.979	164.06
302.209	180.06
302.439	179.06
302.669	165.06
302.9	174.06
303.13	179.06
303.36	177.06
303.59	181.06
303.82	171.06
304.051	179.06
304.281	171.06
304.511	168.06
304.741	169.06
304.971	168.06
305.201	158.06
305.431	166.06
305.661	172.06
305.891	176.06
306.121	177.06
306.352	188.06
306.582	187.06
306.812	192.06
307.042	190.06
307.272	182.06
307.502	176.06
307.731	170.06
307.961	183.06
308.191	170.06
308.421	171.06
308.651	174.06
308.881	169.06
309.111	200.06
309.341	171.06
309.571	190.06
309.8	199.06
310.03	180.06
310.26	202.06
310.49	201.06
310.72	202.06
310.949	202.06
311.179	202.06
311.409	198.06
311.639	211.06
311.868	191.06
312.098	183.06
312.328	210.06
312.557	217.06
312.787	215.06
313.017	212.06
313.246	191.06
313.476	191.06
313.706	195.06
313.935	174.06
314.165	197.06
314.394	216.06
314.624	195.06
314.853	210.06
315.083	215.06
315.312	201.06
315.542	192.06
315.771	187.06
316.001	194.06
316.23	196.06
316.46	200.06
316.689	200.06
316.919	184.06
317.148	199.06
317.377	184.06
317.607	194.06
317.836	193.06
318.065	190.06
318.295	194.06
318.524	190.06
318.753	198.06
318.983	194.06
319.212	199.06
319.441	202.06
319.67	191.06
319.9	201.06
320.129	187.06
320.358	204.06
320.587	191.06
320.816	194.06
321.046	193.06
321.275	193.06
321.504	192.06
321.733	190.06
321.962	196.06
322.191	220.06
322.42	192.06
322.649	215.06
322.878	218.06
323.108	222.06
323.337	233.06
323.566	252.06
323.795	262.06
324.024	290.06
324.253	334.06
324.482	464.06
324.71	677.06
324.939	890.06
325.168	726.06
325.397	387.06
325.626	276.06
325.855	237.06
326.084	245.06
326.313	228.06
326.542	247.06
326.77	254.06
326.999	308.06
327.228	410.06
327.457	601.06
327.686	671.06
327.914	449.06
328.143	317.06
328.372	291.06
328.6	281.06
328.829	279.06
329.058	258.06
329.287	288.06
329.515	273.06
329.744	240.06
329.972	267.06
330.201	248.06
330.43	302.06
330.658	295.06
330.887	316.06
331.115	291.06
331.344	258.06
331.572	253.06
331.801	241.06
332.03	239.06
332.258	251.06
332.486	226.06
332.715	202.06
332.943	217.06
333.172	225.06
333.4	229.06
333.629	215.06
333.857	236.06
334.085	231.06
334.314	246.06
334.542	277.06
334.771	281.06
334.999	261.06
335.227	240.06
335.455	219.06
335.684	218.06
335.912	214.06
336.14	223.06
336.369	203.06
336.597	227.06
336.825	213.06
337.053	213.06
337.281	227.06
337.51	232.06
337.738	227.06
337.966	222.06
338.194	216.06
338.422	224.06
338.65	225.06
338.878	215.06
339.106	187.06
339.334	211.06
339.562	206.06
339.79	224.06
340.018	227.06
340.246	215.06
340.474	203.06
340.702	217.06
340.93	204.06
341.158	202.06
341.386	224.06
341.614	214.06
341.842	202.06
342.07	190.06
342.298	210.06
342.526	194.06
342.754	200.06
342.981	207.06
343.209	217.06
343.437	222.06
343.665	215.06
343.893	212.06
344.12	203.06
344.348	206.06
344.576	211.06
344.804	215.06
345.031	222.06
345.259	222.06
345.487	205.06
345.714	214.06
345.942	204.06
346.17	211.06
346.397	192.06
346.625	199.06
346.853	198.06
347.08	198.06
347.308	214.06
347.535	199.06
347.763	218.06
347.99	214.06
348.218	202.06
348.445	225.06
348.673	214.06
348.9	206.06
349.128	202.06
349.355	207.06
349.583	206.06
349.81	186.06
350.037	201.06
350.265	201.06
350.492	219.06
350.72	202.06
350.947	202.06
351.174	221.06
351.402	205.06
351.629	194.06
351.856	201.06
352.083	219.06
352.311	222.06
352.538	227.06
352.765	218.06
352.992	208.06
353.22	233.06
353.447	220.06
353.674	200.06
353.901	191.06
354.128	200.06
354.355	210.06
354.583	194.06
354.81	196.06
355.037	193.06
355.264	195.06
355.491	174.06
355.718	190.06
355.945	201.06
356.172	190.06
356.399	183.06
356.626	190.06
356.853	219.06
357.08	207.06
357.307	195.06
357.534	192.06
357.761	202.06
357.988	183.06
358.215	205.06
358.441	198.06
358.668	194.06
358.895	204.06
359.122	184.06
359.349	186.06
359.576	211.06
359.802	215.06
360.029	242.06
360.256	235.06
360.483	224.06
360.709	209.06
360.936	199.06
361.163	215.06
361.39	199.06
361.616	196.06
361.843	230.06
362.07	203.06
362.296	208.06
362.523	202.06
362.749	208.06
362.976	203.06
363.203	203.06
363.429	188.06
363.656	203.06
363.882	207.06
364.109	197.06
364.335	199.06
364.562	198.06
364.788	191.06
365.015	196.06
365.241	197.06
365.468	187.06
365.694	215.06
365.92	196.06
366.147	171.06
366.373	207.06
366.599	200.06
366.826	178.06
367.052	176.06
367.278	196.06
367.505	202.06
367.731	192.06
367.957	190.06
368.184	181.06
368.41	221.06
368.636	204.06
368.862	208.06
369.089	206.06
369.315	187.06
369.541	203.06
369.767	194.06
369.993	192.06
370.219	203.06
370.445	194.06
370.672	178.06
370.898	196.06
371.124	203.06
371.35	195.06
371.576	193.06
371.802	195.06
372.028	206.06
372.254	196.06
372.48	197.06
372.706	185.06
372.932	192.06
373.158	186.06
373.384	209.06
373.61	186.06
373.835	192.06
374.061	195.06
374.287	189.06
374.513	183.06
374.739	200.06
374.965	198.06
375.191	216.06
375.416	194.06
375.642	197.06
375.868	188.06
376.094	191.06
376.319	186.06
376.545	206.06
376.771	196.06
376.997	197.06
377.222	210.06
377.448	196.06
377.674	193.06
377.899	185.06
378.125	203.06
378.35	198.06
378.576	211.06
378.802	187.06
379.027	201.06
379.253	190.06
379.478	182.06
379.704	198.06
379.929	177.06
380.155	187.06
380.38	196.06
380.606	200.06
380.831	206.06
381.057	197.06
381.282	195.06
381.507	197.06
381.733	207.06
381.958	194.06
382.184	187.06
382.409	194.06
382.634	189.06
382.86	208.06
383.085	186.06
383.31	216.06
383.535	193.06
383.761	218.06
383.986	210.06
384.211	208.06
384.436	221.06
384.662	206.06
384.887	190.06
385.112	211.06
385.337	198.06
385.562	203.06
385.787	204.06
386.013	229.06
386.238	227.06
386.463	236.06
386.688	209.06
386.913	199.06
387.138	216.06
387.363	215.06
387.588	206.06
387.813	223.06
388.038	228.06
388.263	206.06
388.488	222.06
388.713	207.06
388.938	195.06
389.163	219.06
389.387	212.06
389.612	232.06
389.837	222.06
390.062	219.06
390.287	211.06
390.512	218.06
390.736	222.06
390.961	215.06
391.186	204.06
391.411	211.06
391.636	197.06
391.86	210.06
392.085	222.06
392.31	221.06
392.534	214.06
392.759	203.06
392.984	207.06
393.208	211.06
393.433	225.06
393.658	215.06
393.882	210.06
394.107	206.06
394.331	207.06
394.556	211.06
394.78	198.06
395.005	215.06
395.229	208.06
395.454	202.06
395.678	222.06
395.903	225.06
396.127	231.06
396.352	229.06
396.576	224.06
396.801	224.06
397.025	208.06
397.249	231.06
397.474	219.06
397.698	222.06
397.922	228.06
398.147	219.06
398.371	242.06
398.595	244.06
398.82	254.06
399.044	229.06
399.268	240.06
399.492	255.06
399.717	282.06
399.941	281.06
400.165	279.06
400.389	276.06
400.613	264.06
400.837	239.06
401.062	239.06
401.286	235.06
401.51	246.06
401.734	236.06
401.958	248.06
402.182	258.06
402.406	251.06
402.63	242.06
402.854	243.06
403.078	240.06
403.302	267.06
403.526	252.06
403.75	245.06
403.974	243.06
404.198	231.06
404.422	254.06
404.645	250.06
404.869	256.06
405.093	269.06
405.317	295.06
405.541	282.06
405.765	262.06
405.988	257.06
406.212	274.06
406.436	280.06
406.66	283.06
406.883	267.06
407.107	281.06
407.331	304.06
407.555	314.06
407.778	318.06
408.002	278.06
408.226	277.06
408.449	261.06
408.673	255.06
408.896	278.06
409.12	290.06
409.344	291.06
409.567	266.06
409.791	264.06
410.014	229.06
410.238	250.06
410.461	234.06
410.685	276.06
410.908	272.06
411.132	267.06
411.355	281.06
411.578	263.06
411.802	255.06
412.025	245.06
412.249	242.06
412.472	274.06
412.695	274.06
412.919	271.06
413.142	240.06
413.365	248.06
413.589	233.06
413.812	243.06
414.035	231.06
414.258	242.06
414.482	234.06
414.705	234.06
414.928	253.06
415.151	225.06
415.374	233.06
415.597	247.06
415.821	249.06
416.044	233.06
416.267	244.06
416.49	225.06
416.713	243.06
416.936	232.06
417.159	244.06
417.382	238.06
417.605	239.06
417.828	257.06
418.051	247.06
418.274	249.06
418.497	232.06
418.72	236.06
418.943	246.06
419.166	227.06
419.389	256.06
419.611	242.06
419.834	260.06
420.057	258.06
420.28	238.06
420.503	249.06
420.726	254.06
420.948	237.06
421.171	280.06
421.394	270.06
421.617	252.06
421.839	242.06
422.062	230.06
422.285	258.06
422.507	266.06
422.73	315.06
422.953	293.06
423.175	261.06
423.398	246.06
423.621	250.06
423.843	276.06
424.066	275.06
424.288	258.06
424.511	276.06
424.733	304.06
424.956	311.06
425.178	316.06
425.401	310.06
425.623	302.06
425.846	271.06
426.068	262.06
426.291	241.06
426.513	258.06
426.735	240.06
426.958	262.06
427.18	324.06
427.402	359.06
427.625	384.06
427.847	346.06
428.069	314.06
428.292	272.06
428.514	241.06
428.736	235.06
428.958	238.06
429.181	239.06
429.403	253.06
429.625	234.06
429.847	262.06
430.069	290.06
430.292	304.06
430.514	246.06
430.736	238.06
430.958	242.06
431.18	216.06
431.402	234.06
431.624	226.06
431.846	254.06
432.068	225.06
432.29	229.06
432.512	248.06
432.734	247.06
432.956	227.06
433.178	233.06
433.4	259.06
433.622	232.06
433.844	221.06
434.066	223.06
434.287	216.06
434.509	225.06
434.731	235.06
434.953	240.06
435.175	252.06
435.397	254.06
435.618	240.06
435.84	264.06
436.062	308.06
436.284	338.06
436.505	282.06
436.727	262.06
436.949	244.06
437.17	248.06
437.392	247.06
437.614	255.06
437.835	258.06
438.057	299.06
438.278	336.06
438.5	347.06
438.721	363.06
438.943	342.06
439.165	288.06
439.386	266.06
439.608	267.06
439.829	264.06
440.05	260.06
440.272	290.06
440.493	279.06
440.715	251.06
440.936	251.06
441.158	251.06
441.379	255.06
441.6	249.06
441.822	254.06
442.043	284.06
442.264	299.06
442.486	336.06
442.707	272.06
442.928	292.06
443.149	280.06
443.371	260.06
443.592	294.06
443.813	323.06
444.034	346.06
444.255	292.06
444.476	274.06
444.698	239.06
444.919	264.06
445.14	350.06
445.361	302.06
445.582	282.06
445.803	326.06
446.024	346.06
446.245	353.06
446.466	322.06
446.687	270.06
446.908	248.06
447.129	254.06
447.35	227.06
447.571	238.06
447.792	252.06
448.013	243.06
448.234	235.06
448.455	270.06
448.675	310.06
448.896	347.06
449.117	295.06
449.338	294.06
449.559	336.06
449.779	368.06
450	303.06
450.221	237.06
450.442	263.06
450.662	243.06
450.883	242.06
451.104	266.06
451.324	247.06
451.545	230.06
451.766	236.06
451.986	223.06
452.207	224.06
452.428	234.06
452.648	212.06
452.869	231.06
453.089	243.06
453.31	237.06
453.53	223.06
453.751	228.06
453.971	220.06
454.192	230.06
454.412	223.06
454.633	214.06
454.853	224.06
455.073	215.06
455.294	215.06
455.514	266.06
455.734	250.06
455.955	207.06
456.175	218.06
456.395	206.06
456.616	210.06
456.836	207.06
457.056	219.06
457.276	202.06
457.497	218.06
457.717	210.06
457.937	212.06
458.157	209.06
458.377	214.06
458.598	202.06
458.818	273.06
459.038	310.06
459.258	306.06
459.478	267.06
459.698	242.06
459.918	231.06
460.138	227.06
460.358	227.06
460.578	238.06
460.798	229.06
461.018	257.06
461.238	235.06
461.458	232.06
461.678	231.06
461.898	230.06
462.118	230.06
462.338	261.06
462.558	248.06
462.777	249.06
462.997	250.06
463.217	250.06
463.437	243.06
463.657	243.06
463.876	253.06
464.096	259.06
464.316	239.06
464.536	258.06
464.755	246.06
464.975	251.06
465.195	267.06
465.414	316.06
465.634	259.06
465.854	235.06
466.073	241.06
466.293	275.06
466.512	227.06
466.732	204.06
466.951	221.06
467.171	234.06
467.391	225.06
467.61	228.06
467.829	234.06
468.049	235.06
468.268	233.06
468.488	229.06
468.707	225.06
468.927	231.06
469.146	203.06
469.365	226.06
469.585	221.06
469.804	230.06
470.023	228.06
470.243	239.06
470.462	232.06
470.681	266.06
470.901	246.06
471.12	228.06
471.339	238.06
471.558	238.06
471.777	231.06
471.997	228.06
472.216	222.06
472.435	272.06
472.654	252.06
472.873	231.06
473.092	223.06
473.311	210.06
473.53	236.06
473.749	242.06
473.968	252.06
474.187	287.06
474.406	295.06
474.625	251.06
474.844	234.06
475.063	206.06
475.282	220.06
475.501	223.06
475.72	233.06
475.939	243.06
476.158	247.06
476.377	231.06
476.596	233.06
476.814	238.06
477.033	248.06
477.252	236.06
477.471	244.06
477.69	252.06
477.908	242.06
478.127	257.06
478.346	262.06
478.564	235.06
478.783	236.06
479.002	257.06
479.22	260.06
479.439	271.06
479.658	251.06
479.876	286.06
480.095	278.06
480.313	290.06
480.532	291.06
480.751	276.06
480.969	297.06
481.188	324.06
481.406	351.06
481.624	307.06
481.843	266.06
482.061	274.06
482.28	265.06
482.498	266.06
482.717	266.06
482.935	251.06
483.153	263.06
483.372	259.06
483.59	268.06
483.808	256.06
484.027	263.06
484.245	268.06
484.463	265.06
484.681	266.06
484.9	280.06
485.118	286.06
485.336	278.06
485.554	260.06
485.772	277.06
485.99	265.06
486.209	266.06
486.427	285.06
486.645	264.06
486.863	289.06
487.081	295.06
487.299	286.06
487.517	273.06
487.735	283.06
487.953	267.06
488.171	269.06
488.389	266.06
488.607	264.06
488.825	262.06
489.043	291.06
489.261	288.06
489.479	276.06
489.696	268.06
489.914	295.06
490.132	299.06
490.35	290.06
490.568	305.06
490.786	306.06
491.003	298.06
491.221	322.06
491.439	341.06
491.657	326.06
491.874	316.06
492.092	329.06
492.31	320.06
492.527	336.06
492.745	328.06
492.963	321.06
493.18	318.06
493.398	360.06
493.615	350.06
493.833	347.06
494.05	339.06
494.268	317.06
494.485	339.06
494.703	322.06
494.92	338.06
495.138	336.06
495.355	344.06
495.573	325.06
495.79	321.06
496.008	331.06
496.225	330.06
496.442	335.06
496.66	322.06
496.877	338.06
497.094	353.06
497.312	320.06
497.529	326.06
497.746	333.06
497.963	327.06
498.181	352.06
498.398	339.06
498.615	353.06
498.832	365.06
499.049	380.06
499.267	369.06
499.484	386.06
499.701	383.06
499.918	416.06
500.135	428.06
500.352	440.06
500.569	454.06
500.786	445.06
501.003	435.06
501.22	408.06
501.437	404.06
501.654	407.06
501.871	411.06
502.088	400.06
502.305	376.06
502.522	366.06
502.739	349.06
502.956	350.06
503.172	335.06
503.389	312.06
503.606	333.06
503.823	340.06
504.04	327.06
504.256	320.06
504.473	324.06
504.69	322.06
504.907	332.06
505.123	318.06
505.34	298.06
505.557	309.06
505.773	320.06
505.99	309.06
506.207	302.06
506.423	329.06
506.64	290.06
506.856	296.06
507.073	302.06
507.289	306.06
507.506	312.06
507.722	307.06
507.939	321.06
508.155	311.06
508.372	300.06
508.588	298.06
508.805	287.06
509.021	290.06
509.238	297.06
509.454	299.06
509.67	300.06
509.887	292.06
510.103	293.06
510.319	287.06
510.536	373.06
510.752	680.06
510.968	500.06
511.184	321.06
511.401	284.06
511.617	300.06
511.833	273.06
512.049	285.06
512.265	288.06
512.481	280.06
512.698	282.06
512.914	295.06
513.13	274.06
513.346	278.06
513.562	271.06
513.778	268.06
513.994	298.06
514.21	282.06
514.426	307.06
514.642	320.06
514.858	316.06
515.074	367.06
515.29	442.06
515.506	716.06
515.721	574.06
515.937	326.06
516.153	323.06
516.369	297.06
516.585	288.06
516.801	292.06
517.016	271.06
517.232	286.06
517.448	289.06
517.664	294.06
517.879	296.06
518.095	279.06
518.311	282.06
518.527	262.06
518.742	271.06
518.958	276.06
519.173	277.06
519.389	273.06
519.605	285.06
519.82	290.06
520.036	288.06
520.251	308.06
520.467	316.06
520.682	313.06
520.898	322.06
521.113	319.06
521.329	333.06
521.544	375.06
521.76	532.06
521.975	981.06
522.19	946.06
522.406	451.06
522.621	334.06
522.836	314.06
523.052	275.06
523.267	258.06
523.482	275.06
523.698	268.06
523.913	255.06
524.128	254.06
524.343	247.06
524.559	262.06
524.774	253.06
524.989	254.06
525.204	231.06
525.419	266.06
525.634	234.06
525.849	239.06
526.064	244.06
526.28	242.06
526.495	231.06
526.71	221.06
526.925	250.06
527.14	236.06
527.355	232.06
527.57	235.06
527.785	243.06
527.999	230.06
528.214	230.06
528.429	216.06
528.644	231.06
528.859	243.06
529.074	220.06
529.289	262.06
529.503	303.06
529.718	291.06
529.933	243.06
530.148	218.06
530.363	247.06
530.577	254.06
530.792	219.06
531.007	223.06
531.221	216.06
531.436	219.06
531.651	229.06
531.865	218.06
532.08	222.06
532.295	234.06
532.509	206.06
532.724	213.06
532.938	218.06
533.153	220.06
533.367	223.06
533.582	211.06
533.796	218.06
534.011	208.06
534.225	222.06
534.44	226.06
534.654	225.06
534.868	223.06
535.083	195.06
535.297	211.06
535.511	239.06
535.726	231.06
535.94	227.06
536.154	218.06
536.369	204.06
536.583	211.06
536.797	222.06
537.011	242.06
537.225	226.06
537.44	225.06
537.654	203.06
537.868	203.06
538.082	221.06
538.296	219.06
538.51	213.06
538.724	230.06
538.938	220.06
539.153	215.06
539.367	207.06
539.581	220.06
539.795	199.06
540.009	230.06
540.222	212.06
540.436	201.06
540.65	212.06
540.864	211.06
541.078	233.06
541.292	230.06
541.506	223.06
541.72	214.06
541.934	205.06
542.147	221.06
542.361	220.06
542.575	226.06
542.789	205.06
543.002	208.06
543.216	221.06
543.43	221.06
543.644	210.06
543.857	218.06
544.071	212.06
544.285	228.06
544.498	224.06
544.712	207.06
544.925	210.06
545.139	211.06
545.352	214.06
545.566	222.06
545.779	212.06
545.993	218.06
546.206	225.06
546.42	211.06
546.633	209.06
546.847	203.06
547.06	202.06
547.274	231.06
547.487	213.06
547.7	219.06
547.914	199.06
548.127	202.06
548.34	205.06
548.554	198.06
548.767	220.06
548.98	216.06
549.193	229.06
549.407	206.06
549.62	214.06
549.833	207.06
550.046	226.06
550.259	231.06
550.473	232.06
550.686	196.06
550.899	223.06
551.112	209.06
551.325	211.06
551.538	194.06
551.751	212.06
551.964	204.06
552.177	212.06
552.39	207.06
552.603	211.06
552.816	208.06
553.029	210.06
553.242	207.06
553.455	210.06
553.667	224.06
553.88	228.06
554.093	227.06
554.306	227.06
554.519	222.06
554.732	212.06
554.944	214.06
555.157	211.06
555.37	194.06
555.583	210.06
555.795	186.06
556.008	210.06
556.221	194.06
556.433	200.06
556.646	204.06
556.859	194.06
557.071	191.06
557.284	192.06
557.496	208.06
557.709	196.06
557.921	190.06
558.134	206.06
558.346	189.06
558.559	198.06
558.771	202.06
558.984	208.06
559.196	198.06
559.409	176.06
559.621	194.06
559.833	183.06
560.046	179.06
560.258	197.06
560.47	184.06
560.683	191.06
560.895	198.06
561.107	203.06
561.32	178.06
561.532	189.06
561.744	208.06
561.956	190.06
562.168	189.06
562.381	196.06
562.593	195.06
562.805	193.06
563.017	201.06
563.229	199.06
563.441	199.06
563.653	192.06
563.865	192.06
564.077	183.06
564.289	188.06
564.501	186.06
564.713	203.06
564.925	190.06
565.137	220.06
565.349	198.06
565.561	202.06
565.773	211.06
565.985	202.06
566.197	196.06
566.408	208.06
566.62	217.06
566.832	222.06
567.044	216.06
567.255	226.06
567.467	227.06
567.679	228.06
567.891	223.06
568.102	239.06
568.314	233.06
568.526	216.06
568.737	210.06
568.949	214.06
569.161	196.06
569.372	186.06
569.584	186.06
569.795	201.06
570.007	200.06
570.218	217.06
570.43	221.06
570.641	176.06
570.853	174.06
571.064	182.06
571.276	196.06
571.487	177.06
571.698	169.06
571.91	174.06
572.121	172.06
572.333	178.06
572.544	167.06
572.755	168.06
572.966	164.06
573.178	174.06
573.389	172.06
573.6	161.06
573.811	159.06
574.023	155.06
574.234	163.06
574.445	161.06
574.656	162.06
574.867	169.06
575.078	159.06
575.289	167.06
575.501	171.06
575.712	163.06
575.923	181.06
576.134	162.06
576.345	155.06
576.556	155.06
576.767	150.06
576.978	183.06
577.188	155.06
577.399	166.06
577.61	167.06
577.821	167.06
578.032	177.06
578.243	186.06
578.454	314.06
578.665	223.06
578.875	168.06
579.086	155.06
579.297	166.06
579.508	167.06
579.718	173.06
579.929	163.06
580.14	165.06
580.35	164.06
580.561	151.06
580.772	151.06
580.982	155.06
581.193	157.06
581.403	150.06
581.614	155.06
581.825	168.06
582.035	164.06
582.246	160.06
582.456	156.06
582.667	148.06
582.877	164.06
583.087	150.06
583.298	135.06
583.508	162.06
583.719	159.06
583.929	168.06
584.139	166.06
584.35	153.06
584.56	159.06
584.77	153.06
584.981	149.06
585.191	133.06
585.401	156.06
585.611	155.06
585.821	143.06
586.032	159.06
586.242	156.06
586.452	166.06
586.662	147.06
586.872	171.06
587.082	150.06
587.292	154.06
587.502	146.06
587.713	166.06
587.923	161.06
588.133	152.06
588.343	154.06
588.553	149.06
588.762	145.06
588.972	152.06
589.182	180.06
589.392	174.06
589.602	156.06
589.812	167.06
590.022	165.06
590.232	148.06
590.441	153.06
590.651	155.06
590.861	149.06
591.071	163.06
591.281	148.06
591.49	157.06
591.7	157.06
591.91	154.06
592.119	140.06
592.329	169.06
592.539	144.06
592.748	165.06
592.958	152.06
593.167	155.06
593.377	151.06
593.587	144.06
593.796	164.06
594.006	123.06
594.215	152.06
594.424	159.06
594.634	168.06
594.843	156.06
595.053	152.06
595.262	159.06
595.472	167.06
595.681	147.06
595.89	152.06
596.1	155.06
596.309	133.06
596.518	149.06
596.727	155.06
596.937	152.06
597.146	132.06
597.355	138.06
597.564	128.06
597.774	128.06
597.983	143.06
598.192	139.06
598.401	139.06
598.61	148.06
598.819	119.06
599.028	151.06
599.237	146.06
599.446	154.06
599.655	137.06
599.864	152.06
600.073	138.06
600.282	139.06
600.491	136.06
600.7	128.06
600.909	126.06
601.118	143.06
601.327	149.06
601.536	144.06
601.745	146.06
601.953	135.06
602.162	143.06
602.371	154.06
602.58	152.06
602.789	124.06
602.997	139.06
603.206	138.06
603.415	138.06
603.623	151.06
603.832	148.06
604.041	144.06
604.249	145.06
604.458	130.06
604.666	130.06
604.875	135.06
605.084	138.06
605.292	126.06
605.501	134.06
605.709	136.06
605.918	124.06
606.126	138.06
606.334	135.06
606.543	139.06
606.751	140.06
606.96	147.06
607.168	145.06
607.376	134.06
607.585	148.06
607.793	134.06
608.001	122.06
608.21	138.06
608.418	133.06
608.626	138.06
608.834	141.06
609.043	153.06
609.251	128.06
609.459	143.06
609.667	135.06
609.875	134.06
610.083	138.06
610.291	137.06
610.499	134.06
610.707	150.06
610.916	144.06
611.124	127.06
611.332	160.06
611.54	148.06
611.748	154.06
611.955	124.06
612.163	130.06
612.371	142.06
612.579	142.06
612.787	134.06
612.995	135.06
613.203	141.06
613.411	131.06
613.618	144.06
613.826	139.06
614.034	136.06
614.242	133.06
614.449	131.06
614.657	135.06
614.865	148.06
615.072	140.06
615.28	130.06
615.488	131.06
615.695	137.06
615.903	132.06
616.111	145.06
616.318	132.06
616.526	114.06
616.733	141.06
616.941	132.06
617.148	138.06
617.356	128.06
617.563	136.06
617.771	117.06
617.978	138.06
618.185	154.06
618.393	140.06
618.6	138.06
618.807	129.06
619.015	140.06
619.222	130.06
619.429	131.06
619.637	122.06
619.844	132.06
620.051	126.06
620.258	132.06
620.466	124.06
620.673	130.06
620.88	139.06
621.087	121.06
621.294	150.06
621.501	120.06
621.708	137.06
621.915	130.06
622.122	128.06
622.329	141.06
622.536	139.06
622.743	140.06
622.95	126.06
623.157	126.06
623.364	131.06
623.571	137.06
623.778	128.06
623.985	124.06
624.192	130.06
624.399	126.06
624.606	125.06
624.812	123.06
625.019	119.06
625.226	122.06
625.433	127.06
625.639	149.06
625.846	119.06
626.053	120.06
626.259	122.06
626.466	139.06
626.673	123.06
626.879	123.06
627.086	126.06
627.293	123.06
627.499	112.06
627.706	122.06
627.912	120.06
628.119	123.06
628.325	110.06
628.532	113.06
628.738	128.06
628.945	126.06
629.151	119.06
629.357	126.06
629.564	124.06
629.77	112.06
629.976	129.06
630.183	123.06
630.389	115.06
630.595	121.06
630.802	124.06
631.008	121.06
631.214	114.06
631.42	114.06
631.627	127.06
631.833	107.06
632.039	124.06
632.245	122.06
632.451	123.06
632.657	111.06
632.863	125.06
633.069	116.06
633.275	113.06
633.481	108.06
633.688	111.06
633.893	122.06
634.099	117.06
634.305	120.06
634.511	114.06
634.717	130.06
634.923	115.06
635.129	115.06
635.335	111.06
635.541	120.06
635.747	112.06
635.952	124.06
636.158	117.06
636.364	125.06
636.57	108.06
636.775	118.06
636.981	100.06
637.187	100.06
637.392	107.06
637.598	116.06
637.804	122.06
638.009	116.06
638.215	106.06
638.421	110.06
638.626	124.06
638.832	120.06
639.037	106.06
639.243	120.06
639.448	110.06
639.654	120.06
639.859	105.06
640.065	98.06
640.27	119.06
640.475	117.06
640.681	112.06
640.886	115.06
641.091	118.06
641.297	108.06
641.502	112.06
641.707	122.06
641.913	123.06
642.118	114.06
642.323	105.06
642.528	118.06
642.733	95.06
642.939	106.06
643.144	110.06
643.349	120.06
643.554	107.06
643.759	103.06
643.964	96.06
644.169	113.06
644.374	116.06
644.579	112.06
644.784	108.06
644.989	105.06
645.194	96.06
645.399	125.06
645.604	114.06
645.809	108.06
646.014	98.06
646.219	119.06
646.423	121.06
646.628	121.06
646.833	105.06
647.038	103.06
647.243	111.06
647.447	115.06
647.652	112.06
647.857	110.06
648.062	112.06
648.266	111.06
648.471	113.06
648.676	106.06
648.88	114.06
649.085	114.06
649.289	128.06
649.494	131.06
649.698	123.06
649.903	116.06
650.107	117.06
650.312	106.06
650.516	119.06
650.721	105.06
650.925	107.06
651.13	98.06
651.334	118.06
651.539	100.06
651.743	106.06
651.947	97.06
652.152	99.06
652.356	117.06
652.56	115.06
652.764	115.06
652.969	114.06
653.173	111.06
653.377	102.06
653.581	100.06
653.785	108.06
653.99	99.06
654.194	115.06
654.398	104.06
654.602	108.06
654.806	108.06
655.01	109.06
655.214	110.06
655.418	110.06
655.622	101.06
655.826	103.06
656.03	111.06
656.234	113.06
656.438	103.06
656.642	98.06
656.846	104.06
657.049	101.06
657.253	98.06
657.457	100.06
657.661	88.06
657.865	94.06
658.068	112.06
658.272	98.06
658.476	89.06
658.68	89.06
658.883	79.06
659.087	89.06
659.291	97.06
659.494	89.06
659.698	91.06
659.901	88.06
660.105	90.06
660.309	73.06
660.512	79.06
660.716	93.06
660.919	90.06
661.123	74.06
661.326	74.06
661.53	89.06
661.733	85.06
661.936	100.06
662.14	84.06
662.343	87.06
662.546	75.06
662.75	89.06
662.953	92.06
663.156	87.06
663.36	72.06
663.563	76.06
663.766	74.06
663.969	81.06
664.173	78.06
664.376	82.06
664.579	58.06
664.782	75.06
664.985	79.06
665.188	78.06
665.391	86.06
665.594	77.06
665.797	75.06
666	71.06
666.203	78.06
666.406	87.06
666.609	84.06
666.812	80.06
667.015	80.06
667.218	74.06
667.421	83.06
667.624	82.06
667.827	81.06
668.03	90.06
668.232	84.06
668.435	76.06
668.638	91.06
668.841	57.06
669.043	75.06
669.246	68.06
669.449	70.06
669.651	82.06
669.854	69.06
670.057	73.06
670.259	84.06
670.462	86.06
670.665	71.06
670.867	87.06
671.07	90.06
671.272	76.06
671.475	80.06
671.677	94.06
671.88	77.06
672.082	74.06
672.284	81.06
672.487	80.06
672.689	74.06
672.892	70.06
