Data from 1966.PennyLincolnUp.Lamp.En5.5.200Scan.071719.P1._HRD10591_14-12-31-913.txt Node
Date: Thu Jul 18 14:12:31 EDT 2019
User: cochatt
Spectrometer: HR+D1059
Trigger mode: 1
Integration Time (sec): 1.000000E-1
Scans to average: 1
Electric dark correction enabled: true
Nonlinearity correction enabled: false
Boxcar width: 0
XAxis mode: Wavelengths
Number of Pixels in Spectrum: 2048
>>>>>Begin Spectral Data<<<<<
223.165	-11.62
223.4	-11.62
223.635	-11.62
223.869	-17.62
224.104	-5.62
224.338	-21.62
224.573	-10.62
224.808	-23.62
225.042	-14.62
225.277	-9.62
225.511	7.38
225.746	3.38
225.98	6.38
226.215	14.38
226.449	8.38
226.683	20.38
226.918	22.38
227.152	32.38
227.387	23.38
227.621	41.38
227.856	31.38
228.09	43.38
228.324	41.38
228.559	46.38
228.793	61.38
229.027	71.38
229.262	82.38
229.496	76.38
229.73	91.38
229.964	108.38
230.199	89.38
230.433	83.38
230.667	91.38
230.901	90.38
231.136	84.38
231.37	71.38
231.604	90.38
231.838	81.38
232.072	79.38
232.306	93.38
232.541	89.38
232.775	93.38
233.009	92.38
233.243	79.38
233.477	96.38
233.711	76.38
233.945	86.38
234.179	99.38
234.413	98.38
234.647	92.38
234.881	95.38
235.115	91.38
235.349	101.38
235.583	87.38
235.817	93.38
236.051	82.38
236.285	87.38
236.519	110.38
236.753	93.38
236.987	92.38
237.221	131.38
237.455	118.38
237.689	112.38
237.922	93.38
238.156	104.38
238.39	89.38
238.624	102.38
238.858	85.38
239.091	92.38
239.325	77.38
239.559	97.38
239.793	92.38
240.027	108.38
240.26	92.38
240.494	103.38
240.728	92.38
240.961	95.38
241.195	96.38
241.429	102.38
241.662	98.38
241.896	106.38
242.13	100.38
242.363	81.38
242.597	88.38
242.83	98.38
243.064	93.38
243.298	101.38
243.531	95.38
243.765	104.38
243.998	103.38
244.232	109.38
244.465	103.38
244.699	92.38
244.932	102.38
245.166	90.38
245.399	97.38
245.633	97.38
245.866	99.38
246.099	97.38
246.333	98.38
246.566	93.38
246.8	106.38
247.033	109.38
247.266	114.38
247.5	112.38
247.733	108.38
247.966	117.38
248.2	115.38
248.433	117.38
248.666	117.38
248.899	114.38
249.133	119.38
249.366	132.38
249.599	133.38
249.832	129.38
250.066	119.38
250.299	103.38
250.532	117.38
250.765	115.38
250.998	134.38
251.231	129.38
251.465	127.38
251.698	118.38
251.931	126.38
252.164	113.38
252.397	109.38
252.63	113.38
252.863	118.38
253.096	121.38
253.329	125.38
253.562	117.38
253.795	125.38
254.028	122.38
254.261	130.38
254.494	141.38
254.727	155.38
254.96	144.38
255.193	131.38
255.426	153.38
255.659	137.38
255.892	125.38
256.124	133.38
256.357	121.38
256.59	125.38
256.823	126.38
257.056	122.38
257.289	125.38
257.521	129.38
257.754	125.38
257.987	101.38
258.22	121.38
258.452	114.38
258.685	123.38
258.918	118.38
259.151	117.38
259.383	124.38
259.616	134.38
259.849	135.38
260.081	147.38
260.314	142.38
260.547	135.38
260.779	139.38
261.012	122.38
261.244	137.38
261.477	124.38
261.71	134.38
261.942	134.38
262.175	131.38
262.407	123.38
262.64	129.38
262.872	130.38
263.105	122.38
263.337	118.38
263.57	110.38
263.802	112.38
264.035	117.38
264.267	129.38
264.499	131.38
264.732	134.38
264.964	129.38
265.197	122.38
265.429	130.38
265.661	120.38
265.894	117.38
266.126	125.38
266.358	121.38
266.591	129.38
266.823	142.38
267.055	138.38
267.287	120.38
267.52	133.38
267.752	138.38
267.984	131.38
268.216	131.38
268.448	142.38
268.681	118.38
268.913	130.38
269.145	150.38
269.377	146.38
269.609	142.38
269.841	155.38
270.073	155.38
270.306	160.38
270.538	149.38
270.77	152.38
271.002	153.38
271.234	143.38
271.466	152.38
271.698	162.38
271.93	155.38
272.162	169.38
272.394	173.38
272.626	168.38
272.858	168.38
273.09	141.38
273.322	149.38
273.553	145.38
273.785	150.38
274.017	151.38
274.249	156.38
274.481	152.38
274.713	140.38
274.945	144.38
275.176	127.38
275.408	147.38
275.64	131.38
275.872	139.38
276.104	150.38
276.335	134.38
276.567	133.38
276.799	160.38
277.031	161.38
277.262	170.38
277.494	162.38
277.726	145.38
277.957	137.38
278.189	144.38
278.421	142.38
278.652	146.38
278.884	143.38
279.115	126.38
279.347	122.38
279.579	146.38
279.81	153.38
280.042	153.38
280.273	131.38
280.505	148.38
280.736	130.38
280.968	131.38
281.199	152.38
281.431	157.38
281.662	156.38
281.894	155.38
282.125	149.38
282.356	154.38
282.588	166.38
282.819	151.38
283.051	142.38
283.282	159.38
283.513	151.38
283.745	142.38
283.976	155.38
284.207	166.38
284.439	157.38
284.67	153.38
284.901	121.38
285.132	152.38
285.364	154.38
285.595	152.38
285.826	142.38
286.057	143.38
286.288	141.38
286.52	153.38
286.751	143.38
286.982	155.38
287.213	153.38
287.444	149.38
287.675	141.38
287.906	146.38
288.138	155.38
288.369	154.38
288.6	150.38
288.831	147.38
289.062	157.38
289.293	167.38
289.524	146.38
289.755	148.38
289.986	143.38
290.217	147.38
290.448	159.38
290.679	147.38
290.91	146.38
291.141	154.38
291.371	150.38
291.602	147.38
291.833	137.38
292.064	142.38
292.295	143.38
292.526	137.38
292.757	155.38
292.987	170.38
293.218	159.38
293.449	152.38
293.68	161.38
293.91	150.38
294.141	157.38
294.372	154.38
294.603	154.38
294.833	158.38
295.064	151.38
295.295	154.38
295.525	159.38
295.756	153.38
295.987	144.38
296.217	165.38
296.448	155.38
296.679	145.38
296.909	152.38
297.14	152.38
297.37	149.38
297.601	139.38
297.831	142.38
298.062	148.38
298.292	141.38
298.523	157.38
298.753	164.38
298.984	151.38
299.214	161.38
299.445	156.38
299.675	174.38
299.905	154.38
300.136	167.38
300.366	153.38
300.597	173.38
300.827	163.38
301.057	162.38
301.288	162.38
301.518	164.38
301.748	154.38
301.979	168.38
302.209	155.38
302.439	165.38
302.669	161.38
302.9	173.38
303.13	136.38
303.36	171.38
303.59	160.38
303.82	162.38
304.051	174.38
304.281	155.38
304.511	165.38
304.741	155.38
304.971	170.38
305.201	169.38
305.431	173.38
305.661	151.38
305.891	159.38
306.121	167.38
306.352	173.38
306.582	179.38
306.812	175.38
307.042	166.38
307.272	182.38
307.502	160.38
307.731	177.38
307.961	185.38
308.191	170.38
308.421	167.38
308.651	153.38
308.881	167.38
309.111	177.38
309.341	179.38
309.571	174.38
309.8	167.38
310.03	175.38
310.26	181.38
310.49	185.38
310.72	197.38
310.949	196.38
311.179	184.38
311.409	173.38
311.639	187.38
311.868	189.38
312.098	181.38
312.328	182.38
312.557	197.38
312.787	197.38
313.017	198.38
313.246	201.38
313.476	188.38
313.706	190.38
313.935	184.38
314.165	185.38
314.394	188.38
314.624	177.38
314.853	205.38
315.083	180.38
315.312	173.38
315.542	175.38
315.771	170.38
316.001	179.38
316.23	167.38
316.46	180.38
316.689	181.38
316.919	186.38
317.148	183.38
317.377	194.38
317.607	190.38
317.836	193.38
318.065	196.38
318.295	182.38
318.524	185.38
318.753	194.38
318.983	185.38
319.212	176.38
319.441	185.38
319.67	188.38
319.9	173.38
320.129	184.38
320.358	169.38
320.587	168.38
320.816	181.38
321.046	214.38
321.275	193.38
321.504	186.38
321.733	190.38
321.962	194.38
322.191	210.38
322.42	187.38
322.649	207.38
322.878	205.38
323.108	214.38
323.337	213.38
323.566	245.38
323.795	232.38
324.024	250.38
324.253	302.38
324.482	420.38
324.71	616.38
324.939	861.38
325.168	670.38
325.397	346.38
325.626	251.38
325.855	215.38
326.084	199.38
326.313	218.38
326.542	243.38
326.77	254.38
326.999	290.38
327.228	385.38
327.457	567.38
327.686	643.38
327.914	413.38
328.143	305.38
328.372	285.38
328.6	265.38
328.829	254.38
329.058	266.38
329.287	261.38
329.515	227.38
329.744	230.38
329.972	236.38
330.201	234.38
330.43	271.38
330.658	278.38
330.887	293.38
331.115	281.38
331.344	239.38
331.572	215.38
331.801	226.38
332.03	217.38
332.258	215.38
332.486	200.38
332.715	211.38
332.943	221.38
333.172	215.38
333.4	199.38
333.629	206.38
333.857	228.38
334.085	234.38
334.314	234.38
334.542	244.38
334.771	265.38
334.999	228.38
335.227	215.38
335.455	228.38
335.684	222.38
335.912	208.38
336.14	199.38
336.369	183.38
336.597	211.38
336.825	230.38
337.053	207.38
337.281	208.38
337.51	210.38
337.738	212.38
337.966	197.38
338.194	206.38
338.422	203.38
338.65	209.38
338.878	201.38
339.106	198.38
339.334	208.38
339.562	189.38
339.79	189.38
340.018	199.38
340.246	213.38
340.474	195.38
340.702	196.38
340.93	198.38
341.158	201.38
341.386	203.38
341.614	180.38
341.842	207.38
342.07	198.38
342.298	182.38
342.526	202.38
342.754	195.38
342.981	190.38
343.209	194.38
343.437	194.38
343.665	198.38
343.893	192.38
344.12	204.38
344.348	195.38
344.576	198.38
344.804	202.38
345.031	203.38
345.259	206.38
345.487	212.38
345.714	195.38
345.942	198.38
346.17	181.38
346.397	195.38
346.625	204.38
346.853	182.38
347.08	188.38
347.308	205.38
347.535	194.38
347.763	191.38
347.99	189.38
348.218	190.38
348.445	200.38
348.673	195.38
348.9	213.38
349.128	197.38
349.355	192.38
349.583	187.38
349.81	174.38
350.037	189.38
350.265	177.38
350.492	187.38
350.72	178.38
350.947	203.38
351.174	195.38
351.402	204.38
351.629	202.38
351.856	179.38
352.083	205.38
352.311	205.38
352.538	200.38
352.765	204.38
352.992	209.38
353.22	198.38
353.447	181.38
353.674	185.38
353.901	196.38
354.128	189.38
354.355	174.38
354.583	187.38
354.81	189.38
355.037	184.38
355.264	202.38
355.491	183.38
355.718	181.38
355.945	198.38
356.172	169.38
356.399	177.38
356.626	172.38
356.853	179.38
357.08	204.38
357.307	186.38
357.534	174.38
357.761	186.38
357.988	181.38
358.215	188.38
358.441	166.38
358.668	200.38
358.895	171.38
359.122	182.38
359.349	182.38
359.576	206.38
359.802	200.38
360.029	222.38
360.256	221.38
360.483	211.38
360.709	199.38
360.936	197.38
361.163	183.38
361.39	219.38
361.616	201.38
361.843	190.38
362.07	170.38
362.296	213.38
362.523	186.38
362.749	197.38
362.976	194.38
363.203	183.38
363.429	184.38
363.656	179.38
363.882	195.38
364.109	178.38
364.335	186.38
364.562	181.38
364.788	181.38
365.015	197.38
365.241	197.38
365.468	183.38
365.694	189.38
365.92	195.38
366.147	195.38
366.373	170.38
366.599	185.38
366.826	175.38
367.052	190.38
367.278	182.38
367.505	182.38
367.731	191.38
367.957	195.38
368.184	198.38
368.41	189.38
368.636	194.38
368.862	194.38
369.089	197.38
369.315	189.38
369.541	184.38
369.767	175.38
369.993	189.38
370.219	199.38
370.445	185.38
370.672	184.38
370.898	190.38
371.124	174.38
371.35	188.38
371.576	165.38
371.802	174.38
372.028	192.38
372.254	202.38
372.48	188.38
372.706	181.38
372.932	190.38
373.158	186.38
373.384	191.38
373.61	188.38
373.835	177.38
374.061	191.38
374.287	194.38
374.513	196.38
374.739	194.38
374.965	182.38
375.191	193.38
375.416	187.38
375.642	194.38
375.868	182.38
376.094	187.38
376.319	195.38
376.545	206.38
376.771	180.38
376.997	182.38
377.222	185.38
377.448	173.38
377.674	168.38
377.899	182.38
378.125	189.38
378.35	185.38
378.576	187.38
378.802	186.38
379.027	188.38
379.253	184.38
379.478	206.38
379.704	195.38
379.929	191.38
380.155	184.38
380.38	198.38
380.606	189.38
380.831	197.38
381.057	188.38
381.282	195.38
381.507	185.38
381.733	206.38
381.958	181.38
382.184	188.38
382.409	174.38
382.634	179.38
382.86	184.38
383.085	199.38
383.31	192.38
383.535	183.38
383.761	184.38
383.986	189.38
384.211	182.38
384.436	195.38
384.662	207.38
384.887	194.38
385.112	197.38
385.337	209.38
385.562	204.38
385.787	197.38
386.013	207.38
386.238	218.38
386.463	202.38
386.688	205.38
386.913	191.38
387.138	197.38
387.363	206.38
387.588	216.38
387.813	212.38
388.038	180.38
388.263	190.38
388.488	199.38
388.713	195.38
388.938	201.38
389.163	200.38
389.387	202.38
389.612	203.38
389.837	199.38
390.062	191.38
390.287	199.38
390.512	182.38
390.736	196.38
390.961	220.38
391.186	195.38
391.411	194.38
391.636	207.38
391.86	206.38
392.085	222.38
392.31	203.38
392.534	205.38
392.759	211.38
392.984	205.38
393.208	209.38
393.433	215.38
393.658	213.38
393.882	207.38
394.107	190.38
394.331	186.38
394.556	198.38
394.78	197.38
395.005	218.38
395.229	207.38
395.454	206.38
395.678	198.38
395.903	211.38
396.127	212.38
396.352	211.38
396.576	221.38
396.801	212.38
397.025	201.38
397.249	226.38
397.474	208.38
397.698	211.38
397.922	230.38
398.147	229.38
398.371	231.38
398.595	218.38
398.82	218.38
399.044	232.38
399.268	221.38
399.492	250.38
399.717	255.38
399.941	255.38
400.165	276.38
400.389	265.38
400.613	236.38
400.837	225.38
401.062	211.38
401.286	223.38
401.51	239.38
401.734	215.38
401.958	216.38
402.182	224.38
402.406	233.38
402.63	238.38
402.854	228.38
403.078	232.38
403.302	235.38
403.526	232.38
403.75	251.38
403.974	229.38
404.198	219.38
404.422	237.38
404.645	245.38
404.869	230.38
405.093	253.38
405.317	263.38
405.541	270.38
405.765	235.38
405.988	233.38
406.212	254.38
406.436	270.38
406.66	269.38
406.883	245.38
407.107	260.38
407.331	284.38
407.555	287.38
407.778	284.38
408.002	268.38
408.226	263.38
408.449	241.38
408.673	249.38
408.896	246.38
409.12	279.38
409.344	235.38
409.567	236.38
409.791	237.38
410.014	225.38
410.238	235.38
410.461	243.38
410.685	230.38
410.908	229.38
411.132	251.38
411.355	266.38
411.578	258.38
411.802	227.38
412.025	249.38
412.249	234.38
412.472	239.38
412.695	259.38
412.919	257.38
413.142	232.38
413.365	238.38
413.589	224.38
413.812	230.38
414.035	234.38
414.258	206.38
414.482	222.38
414.705	228.38
414.928	230.38
415.151	234.38
415.374	233.38
415.597	228.38
415.821	229.38
416.044	234.38
416.267	222.38
416.49	219.38
416.713	227.38
416.936	226.38
417.159	229.38
417.382	229.38
417.605	238.38
417.828	231.38
418.051	231.38
418.274	245.38
418.497	228.38
418.72	226.38
418.943	220.38
419.166	245.38
419.389	230.38
419.611	243.38
419.834	234.38
420.057	231.38
420.28	225.38
420.503	233.38
420.726	223.38
420.948	226.38
421.171	237.38
421.394	241.38
421.617	223.38
421.839	234.38
422.062	233.38
422.285	243.38
422.507	254.38
422.73	277.38
422.953	283.38
423.175	251.38
423.398	249.38
423.621	243.38
423.843	248.38
424.066	227.38
424.288	237.38
424.511	249.38
424.733	279.38
424.956	326.38
425.178	289.38
425.401	290.38
425.623	294.38
425.846	254.38
426.068	239.38
426.291	250.38
426.513	249.38
426.735	242.38
426.958	271.38
427.18	300.38
427.402	332.38
427.625	349.38
427.847	323.38
428.069	281.38
428.292	262.38
428.514	238.38
428.736	243.38
428.958	225.38
429.181	233.38
429.403	231.38
429.625	228.38
429.847	237.38
430.069	274.38
430.292	262.38
430.514	228.38
430.736	237.38
430.958	226.38
431.18	226.38
431.402	218.38
431.624	235.38
431.846	232.38
432.068	228.38
432.29	219.38
432.512	214.38
432.734	213.38
432.956	224.38
433.178	222.38
433.4	235.38
433.622	231.38
433.844	205.38
434.066	217.38
434.287	217.38
434.509	227.38
434.731	228.38
434.953	232.38
435.175	237.38
435.397	255.38
435.618	241.38
435.84	278.38
436.062	299.38
436.284	307.38
436.505	237.38
436.727	241.38
436.949	216.38
437.17	215.38
437.392	224.38
437.614	218.38
437.835	233.38
438.057	291.38
438.278	307.38
438.5	323.38
438.721	339.38
438.943	322.38
439.165	263.38
439.386	245.38
439.608	247.38
439.829	234.38
440.05	271.38
440.272	260.38
440.493	257.38
440.715	247.38
440.936	245.38
441.158	233.38
441.379	224.38
441.6	239.38
441.822	234.38
442.043	287.38
442.264	308.38
442.486	319.38
442.707	269.38
442.928	254.38
443.149	259.38
443.371	289.38
443.592	280.38
443.813	303.38
444.034	325.38
444.255	279.38
444.476	257.38
444.698	267.38
444.919	250.38
445.14	342.38
445.361	277.38
445.582	262.38
445.803	272.38
446.024	326.38
446.245	333.38
446.466	284.38
446.687	248.38
446.908	242.38
447.129	220.38
447.35	218.38
447.571	225.38
447.792	216.38
448.013	206.38
448.234	247.38
448.455	244.38
448.675	301.38
448.896	337.38
449.117	293.38
449.338	279.38
449.559	333.38
449.779	340.38
450	271.38
450.221	236.38
450.442	210.38
450.662	223.38
450.883	244.38
451.104	246.38
451.324	231.38
451.545	226.38
451.766	212.38
451.986	207.38
452.207	223.38
452.428	219.38
452.648	225.38
452.869	199.38
453.089	214.38
453.31	206.38
453.53	201.38
453.751	207.38
453.971	203.38
454.192	206.38
454.412	205.38
454.633	199.38
454.853	213.38
455.073	217.38
455.294	232.38
455.514	235.38
455.734	242.38
455.955	221.38
456.175	219.38
456.395	199.38
456.616	193.38
456.836	210.38
457.056	202.38
457.276	193.38
457.497	202.38
457.717	189.38
457.937	195.38
458.157	208.38
458.377	195.38
458.598	215.38
458.818	244.38
459.038	281.38
459.258	277.38
459.478	241.38
459.698	216.38
459.918	214.38
460.138	223.38
460.358	208.38
460.578	234.38
460.798	223.38
461.018	214.38
461.238	216.38
461.458	219.38
461.678	230.38
461.898	214.38
462.118	228.38
462.338	223.38
462.558	209.38
462.777	233.38
462.997	221.38
463.217	242.38
463.437	237.38
463.657	228.38
463.876	234.38
464.096	241.38
464.316	228.38
464.536	209.38
464.755	225.38
464.975	240.38
465.195	246.38
465.414	302.38
465.634	253.38
465.854	233.38
466.073	224.38
466.293	220.38
466.512	214.38
466.732	221.38
466.951	212.38
467.171	210.38
467.391	215.38
467.61	215.38
467.829	236.38
468.049	229.38
468.268	235.38
468.488	204.38
468.707	207.38
468.927	215.38
469.146	207.38
469.365	203.38
469.585	204.38
469.804	205.38
470.023	201.38
470.243	205.38
470.462	219.38
470.681	234.38
470.901	228.38
471.12	231.38
471.339	219.38
471.558	195.38
471.777	211.38
471.997	215.38
472.216	223.38
472.435	233.38
472.654	228.38
472.873	209.38
473.092	213.38
473.311	211.38
473.53	199.38
473.749	207.38
473.968	236.38
474.187	291.38
474.406	280.38
474.625	249.38
474.844	233.38
475.063	216.38
475.282	224.38
475.501	209.38
475.72	231.38
475.939	216.38
476.158	206.38
476.377	214.38
476.596	214.38
476.814	223.38
477.033	231.38
477.252	228.38
477.471	233.38
477.69	220.38
477.908	217.38
478.127	220.38
478.346	218.38
478.564	242.38
478.783	235.38
479.002	245.38
479.22	233.38
479.439	239.38
479.658	260.38
479.876	267.38
480.095	248.38
480.313	253.38
480.532	270.38
480.751	262.38
480.969	269.38
481.188	299.38
481.406	324.38
481.624	278.38
481.843	250.38
482.061	253.38
482.28	251.38
482.498	238.38
482.717	231.38
482.935	257.38
483.153	220.38
483.372	239.38
483.59	250.38
483.808	259.38
484.027	251.38
484.245	253.38
484.463	242.38
484.681	241.38
484.9	247.38
485.118	259.38
485.336	245.38
485.554	246.38
485.772	250.38
485.99	265.38
486.209	249.38
486.427	263.38
486.645	243.38
486.863	275.38
487.081	270.38
487.299	272.38
487.517	259.38
487.735	256.38
487.953	250.38
488.171	257.38
488.389	251.38
488.607	250.38
488.825	250.38
489.043	260.38
489.261	266.38
489.479	255.38
489.696	270.38
489.914	276.38
490.132	266.38
490.35	279.38
490.568	276.38
490.786	280.38
491.003	277.38
491.221	294.38
491.439	294.38
491.657	306.38
491.874	300.38
492.092	295.38
492.31	311.38
492.527	303.38
492.745	309.38
492.963	296.38
493.18	303.38
493.398	305.38
493.615	323.38
493.833	312.38
494.05	318.38
494.268	326.38
494.485	311.38
494.703	291.38
494.92	323.38
495.138	323.38
495.355	297.38
495.573	318.38
495.79	318.38
496.008	306.38
496.225	285.38
496.442	292.38
496.66	309.38
496.877	295.38
497.094	297.38
497.312	321.38
497.529	326.38
497.746	318.38
497.963	313.38
498.181	307.38
498.398	326.38
498.615	341.38
498.832	334.38
499.049	322.38
499.267	342.38
499.484	336.38
499.701	340.38
499.918	374.38
500.135	366.38
500.352	398.38
500.569	415.38
500.786	381.38
501.003	397.38
501.22	390.38
501.437	383.38
501.654	371.38
501.871	382.38
502.088	344.38
502.305	325.38
502.522	326.38
502.739	324.38
502.956	312.38
503.172	314.38
503.389	320.38
503.606	314.38
503.823	309.38
504.04	288.38
504.256	301.38
504.473	293.38
504.69	303.38
504.907	314.38
505.123	298.38
505.34	316.38
505.557	289.38
505.773	277.38
505.99	285.38
506.207	298.38
506.423	284.38
506.64	287.38
506.856	289.38
507.073	272.38
507.289	268.38
507.506	295.38
507.722	287.38
507.939	305.38
508.155	285.38
508.372	261.38
508.588	254.38
508.805	261.38
509.021	279.38
509.238	285.38
509.454	276.38
509.67	272.38
509.887	287.38
510.103	297.38
510.319	275.38
510.536	352.38
510.752	605.38
510.968	456.38
511.184	281.38
511.401	265.38
511.617	257.38
511.833	270.38
512.049	251.38
512.265	271.38
512.481	259.38
512.698	247.38
512.914	259.38
513.13	278.38
513.346	257.38
513.562	269.38
513.778	248.38
513.994	272.38
514.21	254.38
514.426	279.38
514.642	299.38
514.858	309.38
515.074	326.38
515.29	408.38
515.506	643.38
515.721	516.38
515.937	325.38
516.153	275.38
516.369	261.38
516.585	262.38
516.801	276.38
517.016	276.38
517.232	265.38
517.448	277.38
517.664	284.38
517.879	269.38
518.095	264.38
518.311	271.38
518.527	258.38
518.742	276.38
518.958	279.38
519.173	265.38
519.389	257.38
519.605	236.38
519.82	250.38
520.036	275.38
520.251	269.38
520.467	284.38
520.682	299.38
520.898	296.38
521.113	294.38
521.329	294.38
521.544	363.38
521.76	476.38
521.975	851.38
522.19	849.38
522.406	433.38
522.621	288.38
522.836	271.38
523.052	247.38
523.267	254.38
523.482	235.38
523.698	249.38
523.913	239.38
524.128	237.38
524.343	235.38
524.559	242.38
524.774	233.38
524.989	228.38
525.204	250.38
525.419	225.38
525.634	205.38
525.849	210.38
526.064	229.38
526.28	224.38
526.495	233.38
526.71	221.38
526.925	215.38
527.14	207.38
527.355	209.38
527.57	225.38
527.785	207.38
527.999	217.38
528.214	233.38
528.429	222.38
528.644	202.38
528.859	226.38
529.074	236.38
529.289	235.38
529.503	275.38
529.718	275.38
529.933	226.38
530.148	217.38
530.363	232.38
530.577	223.38
530.792	212.38
531.007	211.38
531.221	200.38
531.436	225.38
531.651	196.38
531.865	205.38
532.08	219.38
532.295	197.38
532.509	216.38
532.724	216.38
532.938	191.38
533.153	210.38
533.367	204.38
533.582	202.38
533.796	197.38
534.011	195.38
534.225	195.38
534.44	204.38
534.654	214.38
534.868	204.38
535.083	210.38
535.297	216.38
535.511	221.38
535.726	216.38
535.94	209.38
536.154	221.38
536.369	231.38
536.583	222.38
536.797	206.38
537.011	205.38
537.225	216.38
537.44	209.38
537.654	204.38
537.868	210.38
538.082	211.38
538.296	218.38
538.51	204.38
538.724	207.38
538.938	230.38
539.153	194.38
539.367	215.38
539.581	214.38
539.795	207.38
540.009	195.38
540.222	206.38
540.436	196.38
540.65	216.38
540.864	204.38
541.078	211.38
541.292	207.38
541.506	212.38
541.72	209.38
541.934	203.38
542.147	225.38
542.361	204.38
542.575	196.38
542.789	200.38
543.002	204.38
543.216	203.38
543.43	207.38
543.644	207.38
543.857	210.38
544.071	201.38
544.285	211.38
544.498	206.38
544.712	216.38
544.925	215.38
545.139	228.38
545.352	195.38
545.566	211.38
545.779	213.38
545.993	197.38
546.206	211.38
546.42	215.38
546.633	209.38
546.847	208.38
547.06	188.38
547.274	204.38
547.487	204.38
547.7	197.38
547.914	183.38
548.127	193.38
548.34	195.38
548.554	199.38
548.767	214.38
548.98	185.38
549.193	197.38
549.407	196.38
549.62	205.38
549.833	213.38
550.046	202.38
550.259	198.38
550.473	195.38
550.686	215.38
550.899	195.38
551.112	191.38
551.325	190.38
551.538	191.38
551.751	191.38
551.964	197.38
552.177	187.38
552.39	186.38
552.603	183.38
552.816	211.38
553.029	203.38
553.242	202.38
553.455	201.38
553.667	201.38
553.88	195.38
554.093	199.38
554.306	205.38
554.519	195.38
554.732	196.38
554.944	187.38
555.157	199.38
555.37	194.38
555.583	186.38
555.795	196.38
556.008	187.38
556.221	183.38
556.433	185.38
556.646	185.38
556.859	189.38
557.071	183.38
557.284	175.38
557.496	170.38
557.709	185.38
557.921	193.38
558.134	179.38
558.346	182.38
558.559	177.38
558.771	193.38
558.984	188.38
559.196	172.38
559.409	171.38
559.621	167.38
559.833	186.38
560.046	183.38
560.258	182.38
560.47	189.38
560.683	183.38
560.895	183.38
561.107	165.38
561.32	193.38
561.532	196.38
561.744	194.38
561.956	187.38
562.168	194.38
562.381	174.38
562.593	185.38
562.805	185.38
563.017	181.38
563.229	182.38
563.441	184.38
563.653	196.38
563.865	185.38
564.077	180.38
564.289	176.38
564.501	180.38
564.713	188.38
564.925	189.38
565.137	172.38
565.349	186.38
565.561	186.38
565.773	195.38
565.985	209.38
566.197	206.38
566.408	191.38
566.62	214.38
566.832	205.38
567.044	218.38
567.255	204.38
567.467	209.38
567.679	201.38
567.891	213.38
568.102	210.38
568.314	204.38
568.526	188.38
568.737	179.38
568.949	188.38
569.161	193.38
569.372	196.38
569.584	175.38
569.795	177.38
570.007	179.38
570.218	214.38
570.43	213.38
570.641	168.38
570.853	184.38
571.064	182.38
571.276	186.38
571.487	172.38
571.698	165.38
571.91	166.38
572.121	173.38
572.333	185.38
572.544	179.38
572.755	163.38
572.966	171.38
573.178	175.38
573.389	164.38
573.6	172.38
573.811	159.38
574.023	154.38
574.234	153.38
574.445	166.38
574.656	152.38
574.867	169.38
575.078	166.38
575.289	174.38
575.501	169.38
575.712	147.38
575.923	156.38
576.134	164.38
576.345	148.38
576.556	162.38
576.767	163.38
576.978	148.38
577.188	173.38
577.399	143.38
577.61	167.38
577.821	149.38
578.032	148.38
578.243	156.38
578.454	297.38
578.665	195.38
578.875	162.38
579.086	143.38
579.297	161.38
579.508	131.38
579.718	164.38
579.929	170.38
580.14	157.38
580.35	158.38
580.561	177.38
580.772	147.38
580.982	151.38
581.193	161.38
581.403	151.38
581.614	161.38
581.825	160.38
582.035	141.38
582.246	154.38
582.456	131.38
582.667	160.38
582.877	161.38
583.087	149.38
583.298	143.38
583.508	157.38
583.719	140.38
583.929	156.38
584.139	162.38
584.35	141.38
584.56	166.38
584.77	159.38
584.981	146.38
585.191	151.38
585.401	141.38
585.611	139.38
585.821	151.38
586.032	147.38
586.242	140.38
586.452	158.38
586.662	142.38
586.872	150.38
587.082	137.38
587.292	157.38
587.502	147.38
587.713	140.38
587.923	133.38
588.133	131.38
588.343	137.38
588.553	141.38
588.762	168.38
588.972	158.38
589.182	198.38
589.392	190.38
589.602	144.38
589.812	164.38
590.022	166.38
590.232	139.38
590.441	155.38
590.651	155.38
590.861	154.38
591.071	141.38
591.281	159.38
591.49	136.38
591.7	157.38
591.91	141.38
592.119	152.38
592.329	155.38
592.539	138.38
592.748	139.38
592.958	158.38
593.167	142.38
593.377	144.38
593.587	167.38
593.796	160.38
594.006	147.38
594.215	158.38
594.424	157.38
594.634	150.38
594.843	161.38
595.053	163.38
595.262	131.38
595.472	134.38
595.681	138.38
595.89	138.38
596.1	139.38
596.309	145.38
596.518	151.38
596.727	158.38
596.937	143.38
597.146	137.38
597.355	152.38
597.564	141.38
597.774	136.38
597.983	143.38
598.192	156.38
598.401	129.38
598.61	142.38
598.819	138.38
599.028	149.38
599.237	145.38
599.446	144.38
599.655	154.38
599.864	146.38
600.073	136.38
600.282	135.38
600.491	142.38
600.7	141.38
600.909	137.38
601.118	130.38
601.327	135.38
601.536	124.38
601.745	143.38
601.953	135.38
602.162	138.38
602.371	133.38
602.58	136.38
602.789	161.38
602.997	127.38
603.206	144.38
603.415	137.38
603.623	145.38
603.832	137.38
604.041	141.38
604.249	134.38
604.458	141.38
604.666	142.38
604.875	124.38
605.084	137.38
605.292	128.38
605.501	136.38
605.709	130.38
605.918	117.38
606.126	127.38
606.334	139.38
606.543	134.38
606.751	147.38
606.96	140.38
607.168	131.38
607.376	139.38
607.585	138.38
607.793	128.38
608.001	135.38
608.21	127.38
608.418	138.38
608.626	137.38
608.834	146.38
609.043	129.38
609.251	129.38
609.459	128.38
609.667	146.38
609.875	128.38
610.083	134.38
610.291	119.38
610.499	130.38
610.707	145.38
610.916	137.38
611.124	140.38
611.332	135.38
611.54	152.38
611.748	144.38
611.955	142.38
612.163	133.38
612.371	127.38
612.579	141.38
612.787	134.38
612.995	127.38
613.203	139.38
613.411	140.38
613.618	142.38
613.826	136.38
614.034	129.38
614.242	139.38
614.449	137.38
614.657	134.38
614.865	135.38
615.072	126.38
615.28	136.38
615.488	119.38
615.695	136.38
615.903	123.38
616.111	143.38
616.318	150.38
616.526	135.38
616.733	115.38
616.941	128.38
617.148	131.38
617.356	131.38
617.563	130.38
617.771	136.38
617.978	133.38
618.185	137.38
618.393	123.38
618.6	126.38
618.807	131.38
619.015	141.38
619.222	122.38
619.429	125.38
619.637	133.38
619.844	136.38
620.051	124.38
620.258	119.38
620.466	123.38
620.673	122.38
620.88	120.38
621.087	113.38
621.294	123.38
621.501	129.38
621.708	130.38
621.915	130.38
622.122	135.38
622.329	136.38
622.536	113.38
622.743	147.38
622.95	122.38
623.157	133.38
623.364	130.38
623.571	122.38
623.778	132.38
623.985	135.38
624.192	128.38
624.399	113.38
624.606	125.38
624.812	116.38
625.019	120.38
625.226	114.38
625.433	128.38
625.639	129.38
625.846	117.38
626.053	121.38
626.259	108.38
626.466	133.38
626.673	115.38
626.879	124.38
627.086	126.38
627.293	128.38
627.499	122.38
627.706	116.38
627.912	124.38
628.119	131.38
628.325	129.38
628.532	116.38
628.738	117.38
628.945	129.38
629.151	123.38
629.357	120.38
629.564	100.38
629.77	125.38
629.976	110.38
630.183	113.38
630.389	113.38
630.595	121.38
630.802	115.38
631.008	118.38
631.214	115.38
631.42	114.38
631.627	119.38
631.833	116.38
632.039	114.38
632.245	111.38
632.451	127.38
632.657	133.38
632.863	132.38
633.069	114.38
633.275	120.38
633.481	108.38
633.688	128.38
633.893	114.38
634.099	126.38
634.305	113.38
634.511	130.38
634.717	110.38
634.923	124.38
635.129	114.38
635.335	126.38
635.541	123.38
635.747	118.38
635.952	102.38
636.158	118.38
636.364	129.38
636.57	119.38
636.775	122.38
636.981	102.38
637.187	125.38
637.392	121.38
637.598	106.38
637.804	119.38
638.009	108.38
638.215	100.38
638.421	91.38
638.626	108.38
638.832	107.38
639.037	110.38
639.243	119.38
639.448	131.38
639.654	109.38
639.859	105.38
640.065	111.38
640.27	113.38
640.475	98.38
640.681	121.38
640.886	117.38
641.091	118.38
641.297	108.38
641.502	105.38
641.707	108.38
641.913	114.38
642.118	103.38
642.323	111.38
642.528	118.38
642.733	99.38
642.939	129.38
643.144	122.38
643.349	110.38
643.554	121.38
643.759	113.38
643.964	103.38
644.169	113.38
644.374	107.38
644.579	117.38
644.784	101.38
644.989	118.38
645.194	112.38
645.399	108.38
645.604	100.38
645.809	109.38
646.014	104.38
646.219	111.38
646.423	122.38
646.628	98.38
646.833	117.38
647.038	113.38
647.243	110.38
647.447	105.38
647.652	125.38
647.857	106.38
648.062	122.38
648.266	120.38
648.471	114.38
648.676	107.38
648.88	114.38
649.085	103.38
649.289	113.38
649.494	108.38
649.698	119.38
649.903	113.38
650.107	128.38
650.312	102.38
650.516	118.38
650.721	108.38
650.925	129.38
651.13	104.38
651.334	118.38
651.539	105.38
651.743	108.38
651.947	119.38
652.152	93.38
652.356	100.38
652.56	115.38
652.764	101.38
652.969	96.38
653.173	101.38
653.377	103.38
653.581	99.38
653.785	102.38
653.99	120.38
654.194	103.38
654.398	100.38
654.602	107.38
654.806	110.38
655.01	108.38
655.214	117.38
655.418	106.38
655.622	112.38
655.826	97.38
656.03	125.38
656.234	113.38
656.438	121.38
656.642	110.38
656.846	97.38
657.049	101.38
657.253	103.38
657.457	95.38
657.661	101.38
657.865	101.38
658.068	101.38
658.272	86.38
658.476	101.38
658.68	93.38
658.883	97.38
659.087	93.38
659.291	96.38
659.494	83.38
659.698	74.38
659.901	94.38
660.105	99.38
660.309	89.38
660.512	95.38
660.716	91.38
660.919	90.38
661.123	94.38
661.326	77.38
661.53	88.38
661.733	95.38
661.936	84.38
662.14	76.38
662.343	90.38
662.546	99.38
662.75	80.38
662.953	89.38
663.156	79.38
663.36	88.38
663.563	87.38
663.766	87.38
663.969	79.38
664.173	86.38
664.376	81.38
664.579	89.38
664.782	74.38
664.985	79.38
665.188	76.38
665.391	87.38
665.594	89.38
665.797	95.38
666	83.38
666.203	75.38
666.406	76.38
666.609	79.38
666.812	88.38
667.015	84.38
667.218	91.38
667.421	91.38
667.624	75.38
667.827	86.38
668.03	92.38
668.232	76.38
668.435	86.38
668.638	80.38
668.841	73.38
669.043	82.38
669.246	76.38
669.449	83.38
669.651	77.38
669.854	80.38
670.057	73.38
670.259	86.38
670.462	82.38
670.665	79.38
670.867	83.38
671.07	98.38
671.272	80.38
671.475	78.38
671.677	74.38
671.88	89.38
672.082	85.38
672.284	61.38
672.487	85.38
672.689	87.38
672.892	90.38
