Data from 1966.PennyLincolnUp.Lamp.En5.5.200Scan.071719.P1.Scan2.head_HRD10591_14-16-44-052.txt Node
Date: Thu Jul 18 14:16:44 EDT 2019
User: cochatt
Spectrometer: HR+D1059
Trigger mode: 1
Integration Time (sec): 1.000000E-1
Scans to average: 1
Electric dark correction enabled: true
Nonlinearity correction enabled: false
Boxcar width: 0
XAxis mode: Wavelengths
Number of Pixels in Spectrum: 2048
>>>>>Begin Spectral Data<<<<<
223.165	-17.5
223.4	-17.5
223.635	-17.5
223.869	-27.5
224.104	-12.5
224.338	-21.5
224.573	-17.5
224.808	-0.5
225.042	-4.5
225.277	-13.5
225.511	-0.5
225.746	-0.5
225.98	8.5
226.215	20.5
226.449	16.5
226.683	17.5
226.918	22.5
227.152	30.5
227.387	40.5
227.621	46.5
227.856	51.5
228.09	55.5
228.324	40.5
228.559	50.5
228.793	57.5
229.027	90.5
229.262	104.5
229.496	100.5
229.73	122.5
229.964	136.5
230.199	125.5
230.433	108.5
230.667	108.5
230.901	120.5
231.136	99.5
231.37	100.5
231.604	102.5
231.838	102.5
232.072	111.5
232.306	104.5
232.541	96.5
232.775	105.5
233.009	110.5
233.243	102.5
233.477	104.5
233.711	113.5
233.945	120.5
234.179	123.5
234.413	107.5
234.647	114.5
234.881	121.5
235.115	107.5
235.349	118.5
235.583	114.5
235.817	110.5
236.051	126.5
236.285	110.5
236.519	114.5
236.753	116.5
236.987	140.5
237.221	162.5
237.455	197.5
237.689	166.5
237.922	134.5
238.156	125.5
238.39	126.5
238.624	123.5
238.858	115.5
239.091	132.5
239.325	125.5
239.559	118.5
239.793	126.5
240.027	122.5
240.26	128.5
240.494	140.5
240.728	121.5
240.961	155.5
241.195	141.5
241.429	132.5
241.662	130.5
241.896	131.5
242.13	150.5
242.363	136.5
242.597	112.5
242.83	125.5
243.064	134.5
243.298	135.5
243.531	133.5
243.765	120.5
243.998	127.5
244.232	133.5
244.465	130.5
244.699	126.5
244.932	124.5
245.166	144.5
245.399	130.5
245.633	150.5
245.866	154.5
246.099	138.5
246.333	139.5
246.566	144.5
246.8	140.5
247.033	153.5
247.266	150.5
247.5	140.5
247.733	174.5
247.966	158.5
248.2	171.5
248.433	173.5
248.666	160.5
248.899	153.5
249.133	186.5
249.366	178.5
249.599	180.5
249.832	175.5
250.066	169.5
250.299	164.5
250.532	195.5
250.765	170.5
250.998	198.5
251.231	216.5
251.465	204.5
251.698	189.5
251.931	190.5
252.164	181.5
252.397	187.5
252.63	184.5
252.863	183.5
253.096	207.5
253.329	218.5
253.562	198.5
253.795	187.5
254.028	203.5
254.261	196.5
254.494	208.5
254.727	221.5
254.96	233.5
255.193	236.5
255.426	228.5
255.659	207.5
255.892	216.5
256.124	197.5
256.357	206.5
256.59	232.5
256.823	194.5
257.056	215.5
257.289	194.5
257.521	216.5
257.754	213.5
257.987	197.5
258.22	188.5
258.452	223.5
258.685	198.5
258.918	190.5
259.151	195.5
259.383	199.5
259.616	202.5
259.849	197.5
260.081	218.5
260.314	232.5
260.547	228.5
260.779	224.5
261.012	221.5
261.244	209.5
261.477	219.5
261.71	200.5
261.942	206.5
262.175	219.5
262.407	216.5
262.64	209.5
262.872	213.5
263.105	206.5
263.337	206.5
263.57	198.5
263.802	204.5
264.035	216.5
264.267	201.5
264.499	194.5
264.732	197.5
264.964	200.5
265.197	214.5
265.429	223.5
265.661	210.5
265.894	210.5
266.126	193.5
266.358	201.5
266.591	196.5
266.823	229.5
267.055	240.5
267.287	218.5
267.52	190.5
267.752	205.5
267.984	204.5
268.216	213.5
268.448	203.5
268.681	219.5
268.913	233.5
269.145	248.5
269.377	237.5
269.609	238.5
269.841	231.5
270.073	240.5
270.306	269.5
270.538	284.5
270.77	285.5
271.002	271.5
271.234	272.5
271.466	260.5
271.698	274.5
271.93	286.5
272.162	303.5
272.394	283.5
272.626	277.5
272.858	242.5
273.09	268.5
273.322	246.5
273.553	256.5
273.785	248.5
274.017	235.5
274.249	254.5
274.481	250.5
274.713	257.5
274.945	248.5
275.176	245.5
275.408	236.5
275.64	242.5
275.872	242.5
276.104	265.5
276.335	266.5
276.567	250.5
276.799	276.5
277.031	287.5
277.262	268.5
277.494	288.5
277.726	266.5
277.957	274.5
278.189	251.5
278.421	264.5
278.652	249.5
278.884	259.5
279.115	256.5
279.347	264.5
279.579	251.5
279.81	240.5
280.042	266.5
280.273	238.5
280.505	250.5
280.736	259.5
280.968	251.5
281.199	239.5
281.431	268.5
281.662	242.5
281.894	246.5
282.125	239.5
282.356	243.5
282.588	283.5
282.819	280.5
283.051	263.5
283.282	262.5
283.513	277.5
283.745	250.5
283.976	273.5
284.207	270.5
284.439	272.5
284.67	282.5
284.901	251.5
285.132	257.5
285.364	246.5
285.595	254.5
285.826	255.5
286.057	271.5
286.288	265.5
286.52	263.5
286.751	258.5
286.982	266.5
287.213	257.5
287.444	261.5
287.675	275.5
287.906	277.5
288.138	287.5
288.369	280.5
288.6	281.5
288.831	292.5
289.062	271.5
289.293	286.5
289.524	276.5
289.755	273.5
289.986	278.5
290.217	266.5
290.448	267.5
290.679	256.5
290.91	286.5
291.141	274.5
291.371	257.5
291.602	274.5
291.833	272.5
292.064	285.5
292.295	278.5
292.526	276.5
292.757	276.5
292.987	279.5
293.218	270.5
293.449	274.5
293.68	268.5
293.91	271.5
294.141	288.5
294.372	264.5
294.603	274.5
294.833	288.5
295.064	292.5
295.295	258.5
295.525	278.5
295.756	284.5
295.987	283.5
296.217	291.5
296.448	320.5
296.679	271.5
296.909	282.5
297.14	277.5
297.37	284.5
297.601	270.5
297.831	276.5
298.062	279.5
298.292	285.5
298.523	284.5
298.753	296.5
298.984	279.5
299.214	283.5
299.445	295.5
299.675	286.5
299.905	274.5
300.136	285.5
300.366	273.5
300.597	304.5
300.827	306.5
301.057	318.5
301.288	288.5
301.518	300.5
301.748	297.5
301.979	312.5
302.209	287.5
302.439	313.5
302.669	319.5
302.9	311.5
303.13	314.5
303.36	306.5
303.59	306.5
303.82	300.5
304.051	308.5
304.281	315.5
304.511	302.5
304.741	315.5
304.971	298.5
305.201	285.5
305.431	319.5
305.661	340.5
305.891	310.5
306.121	309.5
306.352	316.5
306.582	305.5
306.812	311.5
307.042	301.5
307.272	296.5
307.502	324.5
307.731	318.5
307.961	313.5
308.191	317.5
308.421	309.5
308.651	299.5
308.881	309.5
309.111	326.5
309.341	321.5
309.571	319.5
309.8	331.5
310.03	326.5
310.26	344.5
310.49	356.5
310.72	348.5
310.949	357.5
311.179	360.5
311.409	343.5
311.639	334.5
311.868	340.5
312.098	358.5
312.328	373.5
312.557	359.5
312.787	349.5
313.017	375.5
313.246	379.5
313.476	346.5
313.706	341.5
313.935	345.5
314.165	349.5
314.394	363.5
314.624	364.5
314.853	368.5
315.083	358.5
315.312	350.5
315.542	339.5
315.771	344.5
316.001	343.5
316.23	342.5
316.46	345.5
316.689	347.5
316.919	383.5
317.148	380.5
317.377	355.5
317.607	344.5
317.836	351.5
318.065	380.5
318.295	340.5
318.524	341.5
318.753	354.5
318.983	344.5
319.212	363.5
319.441	363.5
319.67	361.5
319.9	356.5
320.129	361.5
320.358	373.5
320.587	353.5
320.816	348.5
321.046	342.5
321.275	383.5
321.504	366.5
321.733	367.5
321.962	376.5
322.191	382.5
322.42	362.5
322.649	396.5
322.878	384.5
323.108	390.5
323.337	411.5
323.566	417.5
323.795	456.5
324.024	488.5
324.253	560.5
324.482	797.5
324.71	1193.5
324.939	1738.5
325.168	1486.5
325.397	766.5
325.626	530.5
325.855	463.5
326.084	442.5
326.313	432.5
326.542	454.5
326.77	460.5
326.999	532.5
327.228	718.5
327.457	1105.5
327.686	1326.5
327.914	866.5
328.143	606.5
328.372	522.5
328.6	486.5
328.829	480.5
329.058	491.5
329.287	507.5
329.515	476.5
329.744	436.5
329.972	441.5
330.201	441.5
330.43	491.5
330.658	501.5
330.887	514.5
331.115	518.5
331.344	474.5
331.572	452.5
331.801	430.5
332.03	447.5
332.258	408.5
332.486	400.5
332.715	409.5
332.943	397.5
333.172	438.5
333.4	426.5
333.629	448.5
333.857	447.5
334.085	449.5
334.314	463.5
334.542	480.5
334.771	489.5
334.999	468.5
335.227	450.5
335.455	452.5
335.684	441.5
335.912	436.5
336.14	402.5
336.369	420.5
336.597	413.5
336.825	425.5
337.053	408.5
337.281	424.5
337.51	429.5
337.738	404.5
337.966	414.5
338.194	427.5
338.422	422.5
338.65	430.5
338.878	420.5
339.106	413.5
339.334	406.5
339.562	420.5
339.79	381.5
340.018	418.5
340.246	396.5
340.474	411.5
340.702	409.5
340.93	415.5
341.158	413.5
341.386	405.5
341.614	394.5
341.842	394.5
342.07	416.5
342.298	423.5
342.526	419.5
342.754	407.5
342.981	406.5
343.209	412.5
343.437	404.5
343.665	394.5
343.893	412.5
344.12	418.5
344.348	429.5
344.576	424.5
344.804	416.5
345.031	419.5
345.259	418.5
345.487	420.5
345.714	424.5
345.942	424.5
346.17	393.5
346.397	405.5
346.625	386.5
346.853	389.5
347.08	381.5
347.308	383.5
347.535	408.5
347.763	412.5
347.99	406.5
348.218	403.5
348.445	390.5
348.673	380.5
348.9	386.5
349.128	398.5
349.355	383.5
349.583	377.5
349.81	379.5
350.037	382.5
350.265	382.5
350.492	423.5
350.72	398.5
350.947	389.5
351.174	384.5
351.402	405.5
351.629	392.5
351.856	382.5
352.083	389.5
352.311	401.5
352.538	422.5
352.765	426.5
352.992	389.5
353.22	389.5
353.447	392.5
353.674	390.5
353.901	387.5
354.128	388.5
354.355	386.5
354.583	387.5
354.81	372.5
355.037	374.5
355.264	379.5
355.491	378.5
355.718	398.5
355.945	378.5
356.172	380.5
356.399	373.5
356.626	391.5
356.853	394.5
357.08	386.5
357.307	384.5
357.534	386.5
357.761	366.5
357.988	390.5
358.215	392.5
358.441	370.5
358.668	398.5
358.895	383.5
359.122	401.5
359.349	397.5
359.576	403.5
359.802	425.5
360.029	411.5
360.256	417.5
360.483	414.5
360.709	419.5
360.936	406.5
361.163	414.5
361.39	411.5
361.616	399.5
361.843	404.5
362.07	386.5
362.296	412.5
362.523	393.5
362.749	410.5
362.976	409.5
363.203	400.5
363.429	396.5
363.656	414.5
363.882	402.5
364.109	401.5
364.335	379.5
364.562	408.5
364.788	376.5
365.015	394.5
365.241	409.5
365.468	389.5
365.694	393.5
365.92	393.5
366.147	387.5
366.373	400.5
366.599	383.5
366.826	404.5
367.052	382.5
367.278	390.5
367.505	395.5
367.731	395.5
367.957	408.5
368.184	390.5
368.41	411.5
368.636	400.5
368.862	415.5
369.089	420.5
369.315	411.5
369.541	399.5
369.767	425.5
369.993	407.5
370.219	412.5
370.445	396.5
370.672	395.5
370.898	410.5
371.124	389.5
371.35	420.5
371.576	390.5
371.802	394.5
372.028	412.5
372.254	411.5
372.48	394.5
372.706	388.5
372.932	403.5
373.158	405.5
373.384	403.5
373.61	398.5
373.835	418.5
374.061	418.5
374.287	409.5
374.513	398.5
374.739	407.5
374.965	422.5
375.191	413.5
375.416	408.5
375.642	400.5
375.868	416.5
376.094	410.5
376.319	388.5
376.545	411.5
376.771	403.5
376.997	419.5
377.222	403.5
377.448	408.5
377.674	413.5
377.899	401.5
378.125	420.5
378.35	421.5
378.576	426.5
378.802	420.5
379.027	409.5
379.253	395.5
379.478	408.5
379.704	394.5
379.929	404.5
380.155	406.5
380.38	406.5
380.606	427.5
380.831	438.5
381.057	422.5
381.282	412.5
381.507	418.5
381.733	407.5
381.958	413.5
382.184	414.5
382.409	409.5
382.634	419.5
382.86	420.5
383.085	411.5
383.31	412.5
383.535	443.5
383.761	418.5
383.986	424.5
384.211	428.5
384.436	469.5
384.662	458.5
384.887	446.5
385.112	441.5
385.337	451.5
385.562	461.5
385.787	442.5
386.013	433.5
386.238	419.5
386.463	459.5
386.688	458.5
386.913	439.5
387.138	450.5
387.363	460.5
387.588	463.5
387.813	457.5
388.038	436.5
388.263	468.5
388.488	440.5
388.713	467.5
388.938	459.5
389.163	446.5
389.387	446.5
389.612	459.5
389.837	450.5
390.062	440.5
390.287	450.5
390.512	442.5
390.736	461.5
390.961	460.5
391.186	455.5
391.411	446.5
391.636	481.5
391.86	450.5
392.085	479.5
392.31	470.5
392.534	477.5
392.759	474.5
392.984	486.5
393.208	493.5
393.433	506.5
393.658	481.5
393.882	470.5
394.107	455.5
394.331	459.5
394.556	465.5
394.78	470.5
395.005	476.5
395.229	469.5
395.454	475.5
395.678	481.5
395.903	480.5
396.127	506.5
396.352	511.5
396.576	486.5
396.801	475.5
397.025	485.5
397.249	491.5
397.474	503.5
397.698	495.5
397.922	486.5
398.147	501.5
398.371	541.5
398.595	522.5
398.82	519.5
399.044	536.5
399.268	541.5
399.492	582.5
399.717	602.5
399.941	648.5
400.165	652.5
400.389	640.5
400.613	595.5
400.837	591.5
401.062	558.5
401.286	555.5
401.51	532.5
401.734	528.5
401.958	507.5
402.182	529.5
402.406	538.5
402.63	515.5
402.854	515.5
403.078	527.5
403.302	532.5
403.526	550.5
403.75	546.5
403.974	556.5
404.198	537.5
404.422	539.5
404.645	552.5
404.869	592.5
405.093	596.5
405.317	633.5
405.541	655.5
405.765	607.5
405.988	568.5
406.212	592.5
406.436	587.5
406.66	588.5
406.883	572.5
407.107	624.5
407.331	653.5
407.555	707.5
407.778	719.5
408.002	623.5
408.226	617.5
408.449	604.5
408.673	590.5
408.896	622.5
409.12	667.5
409.344	626.5
409.567	552.5
409.791	546.5
410.014	572.5
410.238	566.5
410.461	546.5
410.685	550.5
410.908	559.5
411.132	590.5
411.355	629.5
411.578	628.5
411.802	575.5
412.025	543.5
412.249	537.5
412.472	581.5
412.695	597.5
412.919	621.5
413.142	570.5
413.365	534.5
413.589	540.5
413.812	545.5
414.035	548.5
414.258	528.5
414.482	518.5
414.705	524.5
414.928	521.5
415.151	536.5
415.374	515.5
415.597	514.5
415.821	518.5
416.044	512.5
416.267	501.5
416.49	534.5
416.713	494.5
416.936	514.5
417.159	510.5
417.382	527.5
417.605	523.5
417.828	535.5
418.051	552.5
418.274	546.5
418.497	532.5
418.72	526.5
418.943	526.5
419.166	546.5
419.389	572.5
419.611	548.5
419.834	566.5
420.057	542.5
420.28	563.5
420.503	550.5
420.726	554.5
420.948	547.5
421.171	593.5
421.394	611.5
421.617	567.5
421.839	564.5
422.062	559.5
422.285	538.5
422.507	618.5
422.73	681.5
422.953	665.5
423.175	585.5
423.398	565.5
423.621	554.5
423.843	573.5
424.066	586.5
424.288	593.5
424.511	590.5
424.733	651.5
424.956	700.5
425.178	683.5
425.401	684.5
425.623	720.5
425.846	624.5
426.068	563.5
426.291	558.5
426.513	576.5
426.735	570.5
426.958	624.5
427.18	680.5
427.402	847.5
427.625	896.5
427.847	759.5
428.069	664.5
428.292	593.5
428.514	556.5
428.736	551.5
428.958	550.5
429.181	535.5
429.403	533.5
429.625	546.5
429.847	559.5
430.069	623.5
430.292	614.5
430.514	545.5
430.736	496.5
430.958	534.5
431.18	520.5
431.402	493.5
431.624	496.5
431.846	520.5
432.068	502.5
432.29	496.5
432.512	487.5
432.734	489.5
432.956	510.5
433.178	528.5
433.4	525.5
433.622	494.5
433.844	530.5
434.066	525.5
434.287	532.5
434.509	513.5
434.731	550.5
434.953	547.5
435.175	550.5
435.397	568.5
435.618	555.5
435.84	606.5
436.062	724.5
436.284	776.5
436.505	642.5
436.727	595.5
436.949	551.5
437.17	538.5
437.392	532.5
437.614	548.5
437.835	575.5
438.057	651.5
438.278	749.5
438.5	774.5
438.721	834.5
438.943	804.5
439.165	655.5
439.386	596.5
439.608	582.5
439.829	560.5
440.05	582.5
440.272	639.5
440.493	584.5
440.715	550.5
440.936	560.5
441.158	556.5
441.379	515.5
441.6	528.5
441.822	558.5
442.043	626.5
442.264	683.5
442.486	741.5
442.707	620.5
442.928	591.5
443.149	593.5
443.371	591.5
443.592	633.5
443.813	740.5
444.034	819.5
444.255	687.5
444.476	598.5
444.698	602.5
444.919	581.5
445.14	678.5
445.361	616.5
445.582	619.5
445.803	662.5
446.024	772.5
446.245	771.5
446.466	703.5
446.687	608.5
446.908	551.5
447.129	528.5
447.35	547.5
447.571	524.5
447.792	492.5
448.013	544.5
448.234	540.5
448.455	575.5
448.675	695.5
448.896	825.5
449.117	683.5
449.338	646.5
449.559	758.5
449.779	872.5
450	693.5
450.221	572.5
450.442	528.5
450.662	535.5
450.883	510.5
451.104	527.5
451.324	515.5
451.545	503.5
451.766	483.5
451.986	477.5
452.207	471.5
452.428	469.5
452.648	475.5
452.869	474.5
453.089	477.5
453.31	496.5
453.53	456.5
453.751	475.5
453.971	464.5
454.192	483.5
454.412	453.5
454.633	466.5
454.853	469.5
455.073	465.5
455.294	511.5
455.514	550.5
455.734	529.5
455.955	475.5
456.175	462.5
456.395	453.5
456.616	439.5
456.836	431.5
457.056	453.5
457.276	450.5
457.497	476.5
457.717	471.5
457.937	474.5
458.157	467.5
458.377	471.5
458.598	476.5
458.818	524.5
459.038	601.5
459.258	632.5
459.478	548.5
459.698	502.5
459.918	496.5
460.138	520.5
460.358	499.5
460.578	523.5
460.798	512.5
461.018	539.5
461.238	519.5
461.458	539.5
461.678	537.5
461.898	529.5
462.118	548.5
462.338	549.5
462.558	552.5
462.777	575.5
462.997	582.5
463.217	618.5
463.437	606.5
463.657	574.5
463.876	574.5
464.096	564.5
464.316	571.5
464.536	568.5
464.755	576.5
464.975	566.5
465.195	582.5
465.414	604.5
465.634	567.5
465.854	537.5
466.073	541.5
466.293	507.5
466.512	511.5
466.732	490.5
466.951	480.5
467.171	490.5
467.391	506.5
467.61	491.5
467.829	499.5
468.049	498.5
468.268	492.5
468.488	485.5
468.707	447.5
468.927	466.5
469.146	478.5
469.365	496.5
469.585	485.5
469.804	491.5
470.023	522.5
470.243	504.5
470.462	492.5
470.681	520.5
470.901	522.5
471.12	494.5
471.339	487.5
471.558	499.5
471.777	524.5
471.997	499.5
472.216	478.5
472.435	534.5
472.654	523.5
472.873	485.5
473.092	519.5
473.311	499.5
473.53	503.5
473.749	516.5
473.968	559.5
474.187	640.5
474.406	658.5
474.625	552.5
474.844	531.5
475.063	500.5
475.282	515.5
475.501	500.5
475.72	536.5
475.939	509.5
476.158	520.5
476.377	514.5
476.596	514.5
476.814	538.5
477.033	522.5
477.252	528.5
477.471	538.5
477.69	533.5
477.908	550.5
478.127	533.5
478.346	565.5
478.564	549.5
478.783	566.5
479.002	574.5
479.22	566.5
479.439	598.5
479.658	596.5
479.876	613.5
480.095	586.5
480.313	641.5
480.532	630.5
480.751	618.5
480.969	626.5
481.188	644.5
481.406	687.5
481.624	616.5
481.843	619.5
482.061	603.5
482.28	615.5
482.498	561.5
482.717	587.5
482.935	594.5
483.153	591.5
483.372	566.5
483.59	602.5
483.808	597.5
484.027	604.5
484.245	600.5
484.463	601.5
484.681	601.5
484.9	588.5
485.118	616.5
485.336	626.5
485.554	596.5
485.772	628.5
485.99	621.5
486.209	608.5
486.427	613.5
486.645	618.5
486.863	631.5
487.081	638.5
487.299	671.5
487.517	640.5
487.735	605.5
487.953	638.5
488.171	616.5
488.389	648.5
488.607	640.5
488.825	623.5
489.043	637.5
489.261	632.5
489.479	639.5
489.696	646.5
489.914	636.5
490.132	663.5
490.35	648.5
490.568	648.5
490.786	679.5
491.003	659.5
491.221	719.5
491.439	704.5
491.657	692.5
491.874	705.5
492.092	722.5
492.31	713.5
492.527	705.5
492.745	740.5
492.963	725.5
493.18	688.5
493.398	731.5
493.615	738.5
493.833	740.5
494.05	730.5
494.268	739.5
494.485	727.5
494.703	724.5
494.92	742.5
495.138	722.5
495.355	728.5
495.573	730.5
495.79	728.5
496.008	756.5
496.225	761.5
496.442	738.5
496.66	729.5
496.877	755.5
497.094	780.5
497.312	756.5
497.529	732.5
497.746	783.5
497.963	776.5
498.181	818.5
498.398	821.5
498.615	816.5
498.832	860.5
499.049	896.5
499.267	898.5
499.484	951.5
499.701	942.5
499.918	980.5
500.135	1064.5
500.352	1111.5
500.569	1120.5
500.786	1118.5
501.003	1091.5
501.22	1080.5
501.437	992.5
501.654	991.5
501.871	966.5
502.088	965.5
502.305	912.5
502.522	862.5
502.739	840.5
502.956	824.5
503.172	840.5
503.389	807.5
503.606	756.5
503.823	784.5
504.04	781.5
504.256	762.5
504.473	782.5
504.69	747.5
504.907	778.5
505.123	726.5
505.34	735.5
505.557	724.5
505.773	704.5
505.99	706.5
506.207	704.5
506.423	712.5
506.64	683.5
506.856	675.5
507.073	695.5
507.289	672.5
507.506	666.5
507.722	698.5
507.939	694.5
508.155	712.5
508.372	667.5
508.588	664.5
508.805	656.5
509.021	641.5
509.238	682.5
509.454	696.5
509.67	657.5
509.887	659.5
510.103	647.5
510.319	660.5
510.536	719.5
510.752	1058.5
510.968	895.5
511.184	659.5
511.401	626.5
511.617	648.5
511.833	636.5
512.049	632.5
512.265	638.5
512.481	616.5
512.698	614.5
512.914	608.5
513.13	622.5
513.346	595.5
513.562	608.5
513.778	620.5
513.994	623.5
514.21	617.5
514.426	654.5
514.642	659.5
514.858	708.5
515.074	700.5
515.29	811.5
515.506	1045.5
515.721	920.5
515.937	752.5
516.153	639.5
516.369	670.5
516.585	638.5
516.801	659.5
517.016	646.5
517.232	686.5
517.448	677.5
517.664	674.5
517.879	665.5
518.095	679.5
518.311	664.5
518.527	649.5
518.742	661.5
518.958	634.5
519.173	638.5
519.389	646.5
519.605	634.5
519.82	608.5
520.036	648.5
520.251	662.5
520.467	652.5
520.682	666.5
520.898	649.5
521.113	674.5
521.329	670.5
521.544	732.5
521.76	857.5
521.975	1287.5
522.19	1284.5
522.406	804.5
522.621	661.5
522.836	637.5
523.052	608.5
523.267	592.5
523.482	573.5
523.698	566.5
523.913	563.5
524.128	557.5
524.343	570.5
524.559	566.5
524.774	552.5
524.989	531.5
525.204	566.5
525.419	548.5
525.634	557.5
525.849	545.5
526.064	555.5
526.28	537.5
526.495	524.5
526.71	527.5
526.925	532.5
527.14	546.5
527.355	552.5
527.57	528.5
527.785	544.5
527.999	520.5
528.214	518.5
528.429	518.5
528.644	533.5
528.859	540.5
529.074	544.5
529.289	557.5
529.503	579.5
529.718	595.5
529.933	553.5
530.148	543.5
530.363	527.5
530.577	524.5
530.792	522.5
531.007	520.5
531.221	552.5
531.436	527.5
531.651	535.5
531.865	512.5
532.08	492.5
532.295	524.5
532.509	501.5
532.724	532.5
532.938	514.5
533.153	504.5
533.367	487.5
533.582	494.5
533.796	505.5
534.011	512.5
534.225	496.5
534.44	506.5
534.654	489.5
534.868	501.5
535.083	524.5
535.297	509.5
535.511	508.5
535.726	500.5
535.94	531.5
536.154	481.5
536.369	502.5
536.583	488.5
536.797	509.5
537.011	492.5
537.225	514.5
537.44	480.5
537.654	478.5
537.868	471.5
538.082	454.5
538.296	489.5
538.51	496.5
538.724	473.5
538.938	477.5
539.153	483.5
539.367	495.5
539.581	487.5
539.795	469.5
540.009	482.5
540.222	476.5
540.436	494.5
540.65	495.5
540.864	506.5
541.078	494.5
541.292	478.5
541.506	464.5
541.72	494.5
541.934	461.5
542.147	482.5
542.361	503.5
542.575	492.5
542.789	457.5
543.002	473.5
543.216	506.5
543.43	490.5
543.644	495.5
543.857	462.5
544.071	489.5
544.285	479.5
544.498	454.5
544.712	473.5
544.925	465.5
545.139	484.5
545.352	491.5
545.566	473.5
545.779	475.5
545.993	487.5
546.206	482.5
546.42	482.5
546.633	470.5
546.847	470.5
547.06	484.5
547.274	472.5
547.487	468.5
547.7	446.5
547.914	469.5
548.127	476.5
548.34	474.5
548.554	461.5
548.767	487.5
548.98	456.5
549.193	450.5
549.407	464.5
549.62	473.5
549.833	474.5
550.046	485.5
550.259	483.5
550.473	467.5
550.686	478.5
550.899	461.5
551.112	479.5
551.325	468.5
551.538	442.5
551.751	459.5
551.964	438.5
552.177	457.5
552.39	444.5
552.603	463.5
552.816	459.5
553.029	493.5
553.242	468.5
553.455	476.5
553.667	500.5
553.88	486.5
554.093	483.5
554.306	483.5
554.519	479.5
554.732	444.5
554.944	474.5
555.157	454.5
555.37	462.5
555.583	450.5
555.795	463.5
556.008	447.5
556.221	422.5
556.433	434.5
556.646	419.5
556.859	415.5
557.071	422.5
557.284	420.5
557.496	441.5
557.709	428.5
557.921	424.5
558.134	434.5
558.346	416.5
558.559	410.5
558.771	427.5
558.984	430.5
559.196	418.5
559.409	416.5
559.621	417.5
559.833	432.5
560.046	429.5
560.258	421.5
560.47	403.5
560.683	410.5
560.895	414.5
561.107	431.5
561.32	404.5
561.532	409.5
561.744	440.5
561.956	419.5
562.168	398.5
562.381	431.5
562.593	421.5
562.805	428.5
563.017	440.5
563.229	431.5
563.441	419.5
563.653	422.5
563.865	419.5
564.077	439.5
564.289	442.5
564.501	442.5
564.713	435.5
564.925	450.5
565.137	449.5
565.349	472.5
565.561	461.5
565.773	471.5
565.985	498.5
566.197	498.5
566.408	501.5
566.62	515.5
566.832	531.5
567.044	536.5
567.255	534.5
567.467	528.5
567.679	555.5
567.891	546.5
568.102	557.5
568.314	522.5
568.526	544.5
568.737	529.5
568.949	490.5
569.161	456.5
569.372	447.5
569.584	460.5
569.795	438.5
570.007	442.5
570.218	451.5
570.43	458.5
570.641	415.5
570.853	423.5
571.064	418.5
571.276	414.5
571.487	412.5
571.698	427.5
571.91	406.5
572.121	393.5
572.333	394.5
572.544	388.5
572.755	379.5
572.966	363.5
573.178	374.5
573.389	367.5
573.6	367.5
573.811	385.5
574.023	364.5
574.234	376.5
574.445	375.5
574.656	370.5
574.867	350.5
575.078	359.5
575.289	361.5
575.501	367.5
575.712	367.5
575.923	374.5
576.134	352.5
576.345	352.5
576.556	359.5
576.767	347.5
576.978	341.5
577.188	367.5
577.399	345.5
577.61	358.5
577.821	344.5
578.032	340.5
578.243	359.5
578.454	519.5
578.665	411.5
578.875	350.5
579.086	335.5
579.297	344.5
579.508	356.5
579.718	339.5
579.929	338.5
580.14	324.5
580.35	317.5
580.561	350.5
580.772	332.5
580.982	310.5
581.193	340.5
581.403	317.5
581.614	327.5
581.825	327.5
582.035	320.5
582.246	323.5
582.456	325.5
582.667	346.5
582.877	318.5
583.087	320.5
583.298	350.5
583.508	311.5
583.719	319.5
583.929	328.5
584.139	333.5
584.35	310.5
584.56	304.5
584.77	321.5
584.981	324.5
585.191	331.5
585.401	309.5
585.611	324.5
585.821	339.5
586.032	338.5
586.242	324.5
586.452	323.5
586.662	324.5
586.872	320.5
587.082	296.5
587.292	319.5
587.502	316.5
587.713	327.5
587.923	319.5
588.133	328.5
588.343	326.5
588.553	335.5
588.762	324.5
588.972	336.5
589.182	345.5
589.392	357.5
589.602	330.5
589.812	358.5
590.022	333.5
590.232	302.5
590.441	319.5
590.651	315.5
590.861	318.5
591.071	306.5
591.281	322.5
591.49	325.5
591.7	335.5
591.91	337.5
592.119	339.5
592.329	332.5
592.539	328.5
592.748	352.5
592.958	358.5
593.167	341.5
593.377	351.5
593.587	347.5
593.796	334.5
594.006	339.5
594.215	345.5
594.424	348.5
594.634	341.5
594.843	332.5
595.053	336.5
595.262	330.5
595.472	302.5
595.681	325.5
595.89	306.5
596.1	334.5
596.309	308.5
596.518	312.5
596.727	295.5
596.937	293.5
597.146	307.5
597.355	310.5
597.564	309.5
597.774	289.5
597.983	302.5
598.192	310.5
598.401	308.5
598.61	284.5
598.819	291.5
599.028	292.5
599.237	281.5
599.446	268.5
599.655	274.5
599.864	285.5
600.073	278.5
600.282	267.5
600.491	271.5
600.7	300.5
600.909	284.5
601.118	292.5
601.327	282.5
601.536	281.5
601.745	299.5
601.953	297.5
602.162	279.5
602.371	271.5
602.58	262.5
602.789	283.5
602.997	283.5
603.206	287.5
603.415	264.5
603.623	260.5
603.832	277.5
604.041	287.5
604.249	257.5
604.458	263.5
604.666	258.5
604.875	254.5
605.084	273.5
605.292	241.5
605.501	250.5
605.709	258.5
605.918	278.5
606.126	282.5
606.334	269.5
606.543	285.5
606.751	268.5
606.96	265.5
607.168	262.5
607.376	262.5
607.585	248.5
607.793	264.5
608.001	265.5
608.21	268.5
608.418	264.5
608.626	262.5
608.834	260.5
609.043	276.5
609.251	261.5
609.459	246.5
609.667	255.5
609.875	270.5
610.083	249.5
610.291	275.5
610.499	262.5
610.707	274.5
610.916	274.5
611.124	248.5
611.332	270.5
611.54	263.5
611.748	279.5
611.955	260.5
612.163	258.5
612.371	275.5
612.579	287.5
612.787	277.5
612.995	257.5
613.203	260.5
613.411	265.5
613.618	259.5
613.826	259.5
614.034	248.5
614.242	242.5
614.449	234.5
614.657	234.5
614.865	255.5
615.072	253.5
615.28	244.5
615.488	247.5
615.695	240.5
615.903	254.5
616.111	245.5
616.318	260.5
616.526	256.5
616.733	258.5
616.941	252.5
617.148	262.5
617.356	251.5
617.563	248.5
617.771	247.5
617.978	244.5
618.185	238.5
618.393	240.5
618.6	277.5
618.807	232.5
619.015	249.5
619.222	247.5
619.429	243.5
619.637	248.5
619.844	240.5
620.051	237.5
620.258	238.5
620.466	239.5
620.673	237.5
620.88	252.5
621.087	244.5
621.294	241.5
621.501	234.5
621.708	226.5
621.915	257.5
622.122	244.5
622.329	239.5
622.536	243.5
622.743	250.5
622.95	232.5
623.157	226.5
623.364	230.5
623.571	229.5
623.778	235.5
623.985	231.5
624.192	233.5
624.399	235.5
624.606	227.5
624.812	221.5
625.019	231.5
625.226	228.5
625.433	236.5
625.639	227.5
625.846	213.5
626.053	222.5
626.259	215.5
626.466	214.5
626.673	228.5
626.879	231.5
627.086	228.5
627.293	218.5
627.499	218.5
627.706	221.5
627.912	234.5
628.119	214.5
628.325	206.5
628.532	210.5
628.738	209.5
628.945	211.5
629.151	212.5
629.357	206.5
629.564	212.5
629.77	228.5
629.976	214.5
630.183	212.5
630.389	214.5
630.595	200.5
630.802	205.5
631.008	208.5
631.214	203.5
631.42	219.5
631.627	218.5
631.833	214.5
632.039	203.5
632.245	194.5
632.451	212.5
632.657	208.5
632.863	202.5
633.069	205.5
633.275	198.5
633.481	202.5
633.688	210.5
633.893	182.5
634.099	200.5
634.305	205.5
634.511	218.5
634.717	185.5
634.923	209.5
635.129	186.5
635.335	194.5
635.541	199.5
635.747	198.5
635.952	189.5
636.158	188.5
636.364	201.5
636.57	200.5
636.775	221.5
636.981	182.5
637.187	182.5
637.392	183.5
637.598	184.5
637.804	194.5
638.009	195.5
638.215	180.5
638.421	181.5
638.626	189.5
638.832	175.5
639.037	199.5
639.243	190.5
639.448	162.5
639.654	184.5
639.859	178.5
640.065	172.5
640.27	206.5
640.475	170.5
640.681	180.5
640.886	194.5
641.091	186.5
641.297	180.5
641.502	183.5
641.707	176.5
641.913	198.5
642.118	171.5
642.323	163.5
642.528	189.5
642.733	189.5
642.939	198.5
643.144	176.5
643.349	180.5
643.554	185.5
643.759	199.5
643.964	164.5
644.169	156.5
644.374	163.5
644.579	176.5
644.784	181.5
644.989	179.5
645.194	192.5
645.399	184.5
645.604	176.5
645.809	192.5
646.014	176.5
646.219	162.5
646.423	169.5
646.628	174.5
646.833	167.5
647.038	190.5
647.243	187.5
647.447	173.5
647.652	184.5
647.857	171.5
648.062	180.5
648.266	179.5
648.471	167.5
648.676	174.5
648.88	169.5
649.085	172.5
649.289	175.5
649.494	186.5
649.698	199.5
649.903	178.5
650.107	170.5
650.312	181.5
650.516	170.5
650.721	164.5
650.925	155.5
651.13	172.5
651.334	151.5
651.539	160.5
651.743	165.5
651.947	175.5
652.152	152.5
652.356	141.5
652.56	143.5
652.764	150.5
652.969	156.5
653.173	141.5
653.377	153.5
653.581	134.5
653.785	140.5
653.99	144.5
654.194	152.5
654.398	146.5
654.602	147.5
654.806	158.5
655.01	149.5
655.214	152.5
655.418	148.5
655.622	144.5
655.826	143.5
656.03	153.5
656.234	137.5
656.438	152.5
656.642	156.5
656.846	130.5
657.049	132.5
657.253	144.5
657.457	126.5
657.661	132.5
657.865	138.5
658.068	110.5
658.272	130.5
658.476	126.5
658.68	121.5
658.883	124.5
659.087	107.5
659.291	92.5
659.494	99.5
659.698	106.5
659.901	86.5
660.105	90.5
660.309	83.5
660.512	94.5
660.716	110.5
660.919	88.5
661.123	96.5
661.326	93.5
661.53	80.5
661.733	101.5
661.936	84.5
662.14	84.5
662.343	84.5
662.546	82.5
662.75	85.5
662.953	80.5
663.156	78.5
663.36	83.5
663.563	82.5
663.766	86.5
663.969	75.5
664.173	84.5
664.376	75.5
664.579	80.5
664.782	78.5
664.985	87.5
665.188	85.5
665.391	81.5
665.594	74.5
665.797	87.5
666	80.5
666.203	77.5
666.406	75.5
666.609	86.5
666.812	78.5
667.015	83.5
667.218	68.5
667.421	82.5
667.624	90.5
667.827	76.5
668.03	74.5
668.232	84.5
668.435	93.5
668.638	78.5
668.841	81.5
669.043	82.5
669.246	83.5
669.449	85.5
669.651	81.5
669.854	87.5
670.057	84.5
670.259	92.5
670.462	78.5
670.665	92.5
670.867	86.5
671.07	88.5
671.272	84.5
671.475	84.5
671.677	79.5
671.88	88.5
672.082	89.5
672.284	87.5
672.487	98.5
672.689	87.5
672.892	78.5
