Data from 1966.PennyLincolnUp.Lamp.En5.5.200Scan.071719.P1.Scan2.head_HRD10591_14-17-29-112.txt Node
Date: Thu Jul 18 14:17:29 EDT 2019
User: cochatt
Spectrometer: HR+D1059
Trigger mode: 1
Integration Time (sec): 1.000000E-1
Scans to average: 1
Electric dark correction enabled: true
Nonlinearity correction enabled: false
Boxcar width: 0
XAxis mode: Wavelengths
Number of Pixels in Spectrum: 2048
>>>>>Begin Spectral Data<<<<<
223.165	-16.69
223.4	-16.69
223.635	-16.69
223.869	-24.69
224.104	-28.69
224.338	-18.69
224.573	-25.69
224.808	-5.69
225.042	-7.69
225.277	-10.69
225.511	3.31
225.746	10.31
225.98	7.31
226.215	24.31
226.449	14.31
226.683	21.31
226.918	20.31
227.152	37.31
227.387	27.31
227.621	31.31
227.856	28.31
228.09	42.31
228.324	46.31
228.559	53.31
228.793	67.31
229.027	90.31
229.262	103.31
229.496	123.31
229.73	131.31
229.964	152.31
230.199	124.31
230.433	118.31
230.667	111.31
230.901	116.31
231.136	109.31
231.37	126.31
231.604	100.31
231.838	121.31
232.072	108.31
232.306	100.31
232.541	118.31
232.775	110.31
233.009	115.31
233.243	110.31
233.477	112.31
233.711	116.31
233.945	122.31
234.179	125.31
234.413	134.31
234.647	118.31
234.881	105.31
235.115	125.31
235.349	125.31
235.583	126.31
235.817	133.31
236.051	128.31
236.285	114.31
236.519	120.31
236.753	120.31
236.987	157.31
237.221	173.31
237.455	225.31
237.689	181.31
237.922	131.31
238.156	132.31
238.39	120.31
238.624	132.31
238.858	129.31
239.091	126.31
239.325	133.31
239.559	137.31
239.793	152.31
240.027	130.31
240.26	133.31
240.494	160.31
240.728	146.31
240.961	140.31
241.195	150.31
241.429	129.31
241.662	136.31
241.896	143.31
242.13	125.31
242.363	142.31
242.597	138.31
242.83	126.31
243.064	148.31
243.298	139.31
243.531	130.31
243.765	122.31
243.998	134.31
244.232	147.31
244.465	125.31
244.699	137.31
244.932	156.31
245.166	143.31
245.399	148.31
245.633	171.31
245.866	147.31
246.099	143.31
246.333	135.31
246.566	146.31
246.8	150.31
247.033	141.31
247.266	151.31
247.5	155.31
247.733	162.31
247.966	170.31
248.2	167.31
248.433	169.31
248.666	155.31
248.899	178.31
249.133	207.31
249.366	196.31
249.599	179.31
249.832	195.31
250.066	187.31
250.299	182.31
250.532	185.31
250.765	213.31
250.998	214.31
251.231	221.31
251.465	235.31
251.698	205.31
251.931	192.31
252.164	187.31
252.397	197.31
252.63	186.31
252.863	202.31
253.096	221.31
253.329	236.31
253.562	218.31
253.795	222.31
254.028	202.31
254.261	204.31
254.494	206.31
254.727	248.31
254.96	255.31
255.193	256.31
255.426	246.31
255.659	214.31
255.892	229.31
256.124	227.31
256.357	219.31
256.59	221.31
256.823	220.31
257.056	186.31
257.289	208.31
257.521	221.31
257.754	209.31
257.987	200.31
258.22	200.31
258.452	211.31
258.685	190.31
258.918	186.31
259.151	212.31
259.383	219.31
259.616	235.31
259.849	216.31
260.081	230.31
260.314	242.31
260.547	244.31
260.779	239.31
261.012	228.31
261.244	222.31
261.477	229.31
261.71	203.31
261.942	227.31
262.175	215.31
262.407	224.31
262.64	214.31
262.872	200.31
263.105	211.31
263.337	224.31
263.57	210.31
263.802	209.31
264.035	199.31
264.267	210.31
264.499	220.31
264.732	212.31
264.964	219.31
265.197	226.31
265.429	219.31
265.661	203.31
265.894	223.31
266.126	217.31
266.358	220.31
266.591	223.31
266.823	233.31
267.055	214.31
267.287	231.31
267.52	224.31
267.752	224.31
267.984	232.31
268.216	219.31
268.448	242.31
268.681	239.31
268.913	254.31
269.145	234.31
269.377	266.31
269.609	272.31
269.841	264.31
270.073	255.31
270.306	300.31
270.538	295.31
270.77	293.31
271.002	294.31
271.234	291.31
271.466	276.31
271.698	311.31
271.93	322.31
272.162	301.31
272.394	306.31
272.626	292.31
272.858	271.31
273.09	278.31
273.322	278.31
273.553	272.31
273.785	265.31
274.017	261.31
274.249	273.31
274.481	240.31
274.713	261.31
274.945	276.31
275.176	271.31
275.408	285.31
275.64	272.31
275.872	267.31
276.104	269.31
276.335	278.31
276.567	264.31
276.799	266.31
277.031	296.31
277.262	328.31
277.494	309.31
277.726	295.31
277.957	268.31
278.189	271.31
278.421	251.31
278.652	279.31
278.884	270.31
279.115	274.31
279.347	258.31
279.579	249.31
279.81	263.31
280.042	266.31
280.273	253.31
280.505	266.31
280.736	277.31
280.968	267.31
281.199	272.31
281.431	273.31
281.662	281.31
281.894	281.31
282.125	270.31
282.356	308.31
282.588	303.31
282.819	311.31
283.051	288.31
283.282	272.31
283.513	279.31
283.745	283.31
283.976	280.31
284.207	267.31
284.439	288.31
284.67	287.31
284.901	269.31
285.132	264.31
285.364	271.31
285.595	279.31
285.826	260.31
286.057	283.31
286.288	292.31
286.52	290.31
286.751	287.31
286.982	267.31
287.213	275.31
287.444	283.31
287.675	280.31
287.906	297.31
288.138	300.31
288.369	302.31
288.6	323.31
288.831	312.31
289.062	295.31
289.293	300.31
289.524	291.31
289.755	282.31
289.986	302.31
290.217	287.31
290.448	286.31
290.679	294.31
290.91	307.31
291.141	298.31
291.371	287.31
291.602	283.31
291.833	300.31
292.064	273.31
292.295	296.31
292.526	291.31
292.757	295.31
292.987	285.31
293.218	287.31
293.449	288.31
293.68	292.31
293.91	296.31
294.141	290.31
294.372	300.31
294.603	308.31
294.833	295.31
295.064	302.31
295.295	279.31
295.525	286.31
295.756	310.31
295.987	309.31
296.217	312.31
296.448	328.31
296.679	313.31
296.909	302.31
297.14	290.31
297.37	295.31
297.601	288.31
297.831	292.31
298.062	286.31
298.292	312.31
298.523	303.31
298.753	320.31
298.984	313.31
299.214	328.31
299.445	288.31
299.675	302.31
299.905	318.31
300.136	288.31
300.366	317.31
300.597	299.31
300.827	315.31
301.057	319.31
301.288	333.31
301.518	326.31
301.748	332.31
301.979	355.31
302.209	334.31
302.439	345.31
302.669	323.31
302.9	342.31
303.13	319.31
303.36	337.31
303.59	328.31
303.82	354.31
304.051	349.31
304.281	344.31
304.511	322.31
304.741	337.31
304.971	335.31
305.201	326.31
305.431	313.31
305.661	328.31
305.891	326.31
306.121	324.31
306.352	344.31
306.582	352.31
306.812	316.31
307.042	326.31
307.272	349.31
307.502	329.31
307.731	340.31
307.961	337.31
308.191	336.31
308.421	337.31
308.651	356.31
308.881	316.31
309.111	345.31
309.341	341.31
309.571	347.31
309.8	357.31
310.03	373.31
310.26	375.31
310.49	356.31
310.72	370.31
310.949	408.31
311.179	390.31
311.409	364.31
311.639	377.31
311.868	382.31
312.098	358.31
312.328	370.31
312.557	382.31
312.787	401.31
313.017	410.31
313.246	395.31
313.476	384.31
313.706	397.31
313.935	382.31
314.165	390.31
314.394	381.31
314.624	381.31
314.853	386.31
315.083	376.31
315.312	390.31
315.542	366.31
315.771	365.31
316.001	379.31
316.23	367.31
316.46	371.31
316.689	375.31
316.919	382.31
317.148	382.31
317.377	394.31
317.607	380.31
317.836	382.31
318.065	378.31
318.295	366.31
318.524	363.31
318.753	384.31
318.983	367.31
319.212	347.31
319.441	384.31
319.67	383.31
319.9	382.31
320.129	384.31
320.358	388.31
320.587	386.31
320.816	396.31
321.046	399.31
321.275	398.31
321.504	409.31
321.733	397.31
321.962	391.31
322.191	384.31
322.42	430.31
322.649	424.31
322.878	440.31
323.108	450.31
323.337	470.31
323.566	473.31
323.795	500.31
324.024	542.31
324.253	638.31
324.482	910.31
324.71	1385.31
324.939	2058.31
325.168	1768.31
325.397	864.31
325.626	642.31
325.855	516.31
326.084	522.31
326.313	474.31
326.542	493.31
326.77	533.31
326.999	580.31
327.228	800.31
327.457	1243.31
327.686	1579.31
327.914	1020.31
328.143	680.31
328.372	612.31
328.6	563.31
328.829	514.31
329.058	550.31
329.287	542.31
329.515	536.31
329.744	529.31
329.972	478.31
330.201	509.31
330.43	558.31
330.658	548.31
330.887	586.31
331.115	586.31
331.344	505.31
331.572	464.31
331.801	492.31
332.03	490.31
332.258	478.31
332.486	446.31
332.715	468.31
332.943	463.31
333.172	466.31
333.4	472.31
333.629	477.31
333.857	487.31
334.085	492.31
334.314	492.31
334.542	565.31
334.771	551.31
334.999	515.31
335.227	490.31
335.455	491.31
335.684	460.31
335.912	450.31
336.14	460.31
336.369	438.31
336.597	470.31
336.825	485.31
337.053	475.31
337.281	454.31
337.51	460.31
337.738	454.31
337.966	448.31
338.194	441.31
338.422	457.31
338.65	456.31
338.878	439.31
339.106	442.31
339.334	436.31
339.562	454.31
339.79	431.31
340.018	430.31
340.246	445.31
340.474	441.31
340.702	431.31
340.93	440.31
341.158	442.31
341.386	429.31
341.614	429.31
341.842	451.31
342.07	459.31
342.298	435.31
342.526	440.31
342.754	422.31
342.981	440.31
343.209	438.31
343.437	424.31
343.665	427.31
343.893	461.31
344.12	452.31
344.348	467.31
344.576	471.31
344.804	450.31
345.031	453.31
345.259	445.31
345.487	445.31
345.714	442.31
345.942	440.31
346.17	429.31
346.397	442.31
346.625	428.31
346.853	440.31
347.08	422.31
347.308	438.31
347.535	434.31
347.763	454.31
347.99	433.31
348.218	456.31
348.445	445.31
348.673	426.31
348.9	414.31
349.128	439.31
349.355	413.31
349.583	402.31
349.81	399.31
350.037	408.31
350.265	372.31
350.492	399.31
350.72	417.31
350.947	434.31
351.174	424.31
351.402	465.31
351.629	445.31
351.856	434.31
352.083	412.31
352.311	447.31
352.538	435.31
352.765	478.31
352.992	449.31
353.22	441.31
353.447	439.31
353.674	421.31
353.901	418.31
354.128	419.31
354.355	428.31
354.583	409.31
354.81	425.31
355.037	409.31
355.264	418.31
355.491	420.31
355.718	399.31
355.945	422.31
356.172	414.31
356.399	410.31
356.626	402.31
356.853	389.31
357.08	414.31
357.307	405.31
357.534	417.31
357.761	396.31
357.988	406.31
358.215	409.31
358.441	388.31
358.668	409.31
358.895	418.31
359.122	428.31
359.349	422.31
359.576	431.31
359.802	444.31
360.029	480.31
360.256	507.31
360.483	460.31
360.709	462.31
360.936	451.31
361.163	415.31
361.39	430.31
361.616	431.31
361.843	416.31
362.07	454.31
362.296	428.31
362.523	435.31
362.749	421.31
362.976	410.31
363.203	433.31
363.429	440.31
363.656	417.31
363.882	424.31
364.109	430.31
364.335	443.31
364.562	427.31
364.788	426.31
365.015	422.31
365.241	421.31
365.468	426.31
365.694	409.31
365.92	430.31
366.147	419.31
366.373	428.31
366.599	407.31
366.826	427.31
367.052	421.31
367.278	415.31
367.505	429.31
367.731	426.31
367.957	432.31
368.184	427.31
368.41	427.31
368.636	443.31
368.862	458.31
369.089	423.31
369.315	440.31
369.541	445.31
369.767	420.31
369.993	417.31
370.219	436.31
370.445	417.31
370.672	418.31
370.898	421.31
371.124	408.31
371.35	435.31
371.576	434.31
371.802	411.31
372.028	415.31
372.254	412.31
372.48	418.31
372.706	454.31
372.932	444.31
373.158	430.31
373.384	444.31
373.61	430.31
373.835	422.31
374.061	444.31
374.287	436.31
374.513	429.31
374.739	458.31
374.965	455.31
375.191	438.31
375.416	443.31
375.642	431.31
375.868	447.31
376.094	434.31
376.319	452.31
376.545	420.31
376.771	424.31
376.997	422.31
377.222	444.31
377.448	427.31
377.674	444.31
377.899	414.31
378.125	418.31
378.35	430.31
378.576	428.31
378.802	419.31
379.027	436.31
379.253	431.31
379.478	420.31
379.704	424.31
379.929	438.31
380.155	444.31
380.38	435.31
380.606	445.31
380.831	430.31
381.057	444.31
381.282	429.31
381.507	438.31
381.733	438.31
381.958	452.31
382.184	435.31
382.409	437.31
382.634	452.31
382.86	447.31
383.085	443.31
383.31	453.31
383.535	465.31
383.761	458.31
383.986	470.31
384.211	450.31
384.436	482.31
384.662	472.31
384.887	462.31
385.112	467.31
385.337	477.31
385.562	494.31
385.787	454.31
386.013	476.31
386.238	481.31
386.463	500.31
386.688	489.31
386.913	474.31
387.138	487.31
387.363	490.31
387.588	493.31
387.813	472.31
388.038	469.31
388.263	480.31
388.488	475.31
388.713	478.31
388.938	488.31
389.163	491.31
389.387	488.31
389.612	482.31
389.837	479.31
390.062	486.31
390.287	483.31
390.512	491.31
390.736	473.31
390.961	483.31
391.186	479.31
391.411	490.31
391.636	487.31
391.86	496.31
392.085	519.31
392.31	506.31
392.534	500.31
392.759	518.31
392.984	493.31
393.208	491.31
393.433	501.31
393.658	522.31
393.882	487.31
394.107	487.31
394.331	492.31
394.556	520.31
394.78	487.31
395.005	498.31
395.229	491.31
395.454	511.31
395.678	467.31
395.903	530.31
396.127	548.31
396.352	538.31
396.576	521.31
396.801	530.31
397.025	493.31
397.249	510.31
397.474	520.31
397.698	526.31
397.922	527.31
398.147	544.31
398.371	550.31
398.595	556.31
398.82	556.31
399.044	565.31
399.268	592.31
399.492	622.31
399.717	641.31
399.941	675.31
400.165	703.31
400.389	715.31
400.613	651.31
400.837	592.31
401.062	580.31
401.286	591.31
401.51	548.31
401.734	550.31
401.958	574.31
402.182	573.31
402.406	595.31
402.63	569.31
402.854	558.31
403.078	570.31
403.302	564.31
403.526	591.31
403.75	575.31
403.974	583.31
404.198	558.31
404.422	608.31
404.645	590.31
404.869	593.31
405.093	638.31
405.317	666.31
405.541	685.31
405.765	644.31
405.988	623.31
406.212	632.31
406.436	632.31
406.66	661.31
406.883	626.31
407.107	648.31
407.331	715.31
407.555	773.31
407.778	754.31
408.002	696.31
408.226	662.31
408.449	638.31
408.673	635.31
408.896	655.31
409.12	720.31
409.344	692.31
409.567	615.31
409.791	610.31
410.014	600.31
410.238	580.31
410.461	591.31
410.685	607.31
410.908	590.31
411.132	636.31
411.355	670.31
411.578	621.31
411.802	608.31
412.025	591.31
412.249	589.31
412.472	600.31
412.695	642.31
412.919	692.31
413.142	607.31
413.365	582.31
413.589	585.31
413.812	552.31
414.035	571.31
414.258	552.31
414.482	556.31
414.705	547.31
414.928	541.31
415.151	572.31
415.374	554.31
415.597	544.31
415.821	547.31
416.044	569.31
416.267	570.31
416.49	554.31
416.713	558.31
416.936	549.31
417.159	559.31
417.382	555.31
417.605	575.31
417.828	583.31
418.051	562.31
418.274	583.31
418.497	538.31
418.72	556.31
418.943	535.31
419.166	558.31
419.389	605.31
419.611	592.31
419.834	599.31
420.057	593.31
420.28	603.31
420.503	567.31
420.726	587.31
420.948	610.31
421.171	638.31
421.394	683.31
421.617	624.31
421.839	587.31
422.062	559.31
422.285	608.31
422.507	651.31
422.73	740.31
422.953	690.31
423.175	635.31
423.398	613.31
423.621	611.31
423.843	610.31
424.066	610.31
424.288	647.31
424.511	617.31
424.733	694.31
424.956	764.31
425.178	713.31
425.401	735.31
425.623	755.31
425.846	644.31
426.068	632.31
426.291	613.31
426.513	630.31
426.735	628.31
426.958	670.31
427.18	742.31
427.402	901.31
427.625	982.31
427.847	831.31
428.069	720.31
428.292	675.31
428.514	608.31
428.736	588.31
428.958	592.31
429.181	584.31
429.403	580.31
429.625	590.31
429.847	612.31
430.069	677.31
430.292	670.31
430.514	591.31
430.736	557.31
430.958	565.31
431.18	562.31
431.402	544.31
431.624	585.31
431.846	528.31
432.068	536.31
432.29	567.31
432.512	571.31
432.734	561.31
432.956	544.31
433.178	555.31
433.4	565.31
433.622	549.31
433.844	532.31
434.066	557.31
434.287	557.31
434.509	547.31
434.731	568.31
434.953	585.31
435.175	598.31
435.397	594.31
435.618	627.31
435.84	668.31
436.062	750.31
436.284	841.31
436.505	694.31
436.727	634.31
436.949	593.31
437.17	575.31
437.392	583.31
437.614	588.31
437.835	615.31
438.057	716.31
438.278	828.31
438.5	821.31
438.721	888.31
438.943	866.31
439.165	717.31
439.386	637.31
439.608	612.31
439.829	617.31
440.05	660.31
440.272	702.31
440.493	678.31
440.715	617.31
440.936	589.31
441.158	557.31
441.379	583.31
441.6	591.31
441.822	639.31
442.043	686.31
442.264	748.31
442.486	786.31
442.707	663.31
442.928	630.31
443.149	644.31
443.371	667.31
443.592	701.31
443.813	811.31
444.034	898.31
444.255	748.31
444.476	653.31
444.698	654.31
444.919	648.31
445.14	742.31
445.361	674.31
445.582	657.31
445.803	713.31
446.024	845.31
446.245	859.31
446.466	801.31
446.687	651.31
446.908	614.31
447.129	588.31
447.35	576.31
447.571	567.31
447.792	552.31
448.013	573.31
448.234	577.31
448.455	623.31
448.675	764.31
448.896	881.31
449.117	748.31
449.338	722.31
449.559	823.31
449.779	919.31
450	744.31
450.221	611.31
450.442	588.31
450.662	549.31
450.883	581.31
451.104	571.31
451.324	579.31
451.545	527.31
451.766	526.31
451.986	514.31
452.207	516.31
452.428	513.31
452.648	526.31
452.869	513.31
453.089	512.31
453.31	533.31
453.53	511.31
453.751	487.31
453.971	532.31
454.192	537.31
454.412	493.31
454.633	512.31
454.853	510.31
455.073	499.31
455.294	519.31
455.514	605.31
455.734	601.31
455.955	526.31
456.175	500.31
456.395	479.31
456.616	474.31
456.836	486.31
457.056	478.31
457.276	479.31
457.497	479.31
457.717	473.31
457.937	482.31
458.157	485.31
458.377	500.31
458.598	503.31
458.818	565.31
459.038	639.31
459.258	692.31
459.478	590.31
459.698	540.31
459.918	541.31
460.138	563.31
460.358	567.31
460.578	563.31
460.798	574.31
461.018	575.31
461.238	554.31
461.458	581.31
461.678	574.31
461.898	579.31
462.118	563.31
462.338	590.31
462.558	589.31
462.777	598.31
462.997	617.31
463.217	623.31
463.437	634.31
463.657	609.31
463.876	610.31
464.096	640.31
464.316	586.31
464.536	628.31
464.755	640.31
464.975	585.31
465.195	620.31
465.414	687.31
465.634	617.31
465.854	611.31
466.073	570.31
466.293	566.31
466.512	528.31
466.732	515.31
466.951	528.31
467.171	509.31
467.391	512.31
467.61	539.31
467.829	543.31
468.049	551.31
468.268	538.31
468.488	526.31
468.707	524.31
468.927	510.31
469.146	535.31
469.365	492.31
469.585	516.31
469.804	528.31
470.023	524.31
470.243	534.31
470.462	546.31
470.681	548.31
470.901	564.31
471.12	529.31
471.339	554.31
471.558	543.31
471.777	554.31
471.997	543.31
472.216	536.31
472.435	575.31
472.654	558.31
472.873	534.31
473.092	532.31
473.311	528.31
473.53	523.31
473.749	554.31
473.968	587.31
474.187	678.31
474.406	704.31
474.625	617.31
474.844	559.31
475.063	555.31
475.282	518.31
475.501	550.31
475.72	546.31
475.939	540.31
476.158	544.31
476.377	554.31
476.596	555.31
476.814	556.31
477.033	564.31
477.252	552.31
477.471	581.31
477.69	547.31
477.908	584.31
478.127	576.31
478.346	583.31
478.564	617.31
478.783	620.31
479.002	621.31
479.22	626.31
479.439	648.31
479.658	646.31
479.876	658.31
480.095	656.31
480.313	686.31
480.532	686.31
480.751	648.31
480.969	679.31
481.188	732.31
481.406	757.31
481.624	686.31
481.843	669.31
482.061	651.31
482.28	644.31
482.498	620.31
482.717	631.31
482.935	630.31
483.153	642.31
483.372	605.31
483.59	650.31
483.808	628.31
484.027	642.31
484.245	631.31
484.463	620.31
484.681	630.31
484.9	668.31
485.118	635.31
485.336	652.31
485.554	656.31
485.772	648.31
485.99	648.31
486.209	676.31
486.427	669.31
486.645	660.31
486.863	684.31
487.081	701.31
487.299	686.31
487.517	662.31
487.735	648.31
487.953	669.31
488.171	664.31
488.389	671.31
488.607	669.31
488.825	668.31
489.043	690.31
489.261	660.31
489.479	684.31
489.696	680.31
489.914	715.31
490.132	711.31
490.35	726.31
490.568	708.31
490.786	715.31
491.003	716.31
491.221	758.31
491.439	772.31
491.657	759.31
491.874	774.31
492.092	782.31
492.31	774.31
492.527	762.31
492.745	756.31
492.963	778.31
493.18	778.31
493.398	765.31
493.615	774.31
493.833	764.31
494.05	774.31
494.268	802.31
494.485	782.31
494.703	770.31
494.92	797.31
495.138	786.31
495.355	830.31
495.573	790.31
495.79	794.31
496.008	830.31
496.225	826.31
496.442	795.31
496.66	822.31
496.877	770.31
497.094	822.31
497.312	820.31
497.529	836.31
497.746	853.31
497.963	832.31
498.181	867.31
498.398	901.31
498.615	926.31
498.832	917.31
499.049	956.31
499.267	970.31
499.484	989.31
499.701	1035.31
499.918	1092.31
500.135	1099.31
500.352	1156.31
500.569	1203.31
500.786	1206.31
501.003	1168.31
501.22	1180.31
501.437	1113.31
501.654	1058.31
501.871	1046.31
502.088	1026.31
502.305	972.31
502.522	936.31
502.739	900.31
502.956	867.31
503.172	867.31
503.389	851.31
503.606	846.31
503.823	846.31
504.04	829.31
504.256	831.31
504.473	819.31
504.69	826.31
504.907	808.31
505.123	811.31
505.34	793.31
505.557	798.31
505.773	775.31
505.99	772.31
506.207	780.31
506.423	756.31
506.64	744.31
506.856	753.31
507.073	746.31
507.289	750.31
507.506	723.31
507.722	740.31
507.939	751.31
508.155	740.31
508.372	698.31
508.588	703.31
508.805	718.31
509.021	702.31
509.238	726.31
509.454	730.31
509.67	726.31
509.887	711.31
510.103	712.31
510.319	718.31
510.536	807.31
510.752	1186.31
510.968	1045.31
511.184	731.31
511.401	699.31
511.617	686.31
511.833	671.31
512.049	684.31
512.265	691.31
512.481	668.31
512.698	686.31
512.914	675.31
513.13	663.31
513.346	660.31
513.562	652.31
513.778	678.31
513.994	682.31
514.21	676.31
514.426	710.31
514.642	770.31
514.858	775.31
515.074	783.31
515.29	896.31
515.506	1222.31
515.721	1066.31
515.937	818.31
516.153	739.31
516.369	698.31
516.585	692.31
516.801	708.31
517.016	723.31
517.232	698.31
517.448	719.31
517.664	721.31
517.879	691.31
518.095	722.31
518.311	724.31
518.527	694.31
518.742	697.31
518.958	684.31
519.173	717.31
519.389	679.31
519.605	694.31
519.82	674.31
520.036	669.31
520.251	699.31
520.467	715.31
520.682	720.31
520.898	710.31
521.113	721.31
521.329	760.31
521.544	846.31
521.76	982.31
521.975	1540.31
522.19	1564.31
522.406	940.31
522.621	758.31
522.836	680.31
523.052	637.31
523.267	634.31
523.482	635.31
523.698	625.31
523.913	626.31
524.128	609.31
524.343	611.31
524.559	613.31
524.774	609.31
524.989	597.31
525.204	597.31
525.419	600.31
525.634	585.31
525.849	583.31
526.064	572.31
526.28	557.31
526.495	558.31
526.71	582.31
526.925	591.31
527.14	569.31
527.355	559.31
527.57	582.31
527.785	581.31
527.999	590.31
528.214	554.31
528.429	551.31
528.644	553.31
528.859	581.31
529.074	579.31
529.289	568.31
529.503	655.31
529.718	639.31
529.933	589.31
530.148	584.31
530.363	575.31
530.577	555.31
530.792	554.31
531.007	527.31
531.221	550.31
531.436	555.31
531.651	520.31
531.865	542.31
532.08	576.31
532.295	538.31
532.509	547.31
532.724	536.31
532.938	555.31
533.153	554.31
533.367	532.31
533.582	523.31
533.796	552.31
534.011	551.31
534.225	531.31
534.44	520.31
534.654	549.31
534.868	527.31
535.083	542.31
535.297	548.31
535.511	551.31
535.726	559.31
535.94	552.31
536.154	536.31
536.369	531.31
536.583	511.31
536.797	541.31
537.011	520.31
537.225	535.31
537.44	523.31
537.654	521.31
537.868	504.31
538.082	511.31
538.296	504.31
538.51	513.31
538.724	532.31
538.938	511.31
539.153	527.31
539.367	543.31
539.581	534.31
539.795	525.31
540.009	517.31
540.222	503.31
540.436	491.31
540.65	497.31
540.864	500.31
541.078	521.31
541.292	536.31
541.506	530.31
541.72	502.31
541.934	523.31
542.147	495.31
542.361	520.31
542.575	517.31
542.789	501.31
543.002	506.31
543.216	537.31
543.43	510.31
543.644	516.31
543.857	498.31
544.071	542.31
544.285	524.31
544.498	503.31
544.712	511.31
544.925	507.31
545.139	515.31
545.352	497.31
545.566	500.31
545.779	492.31
545.993	494.31
546.206	494.31
546.42	484.31
546.633	492.31
546.847	472.31
547.06	509.31
547.274	516.31
547.487	501.31
547.7	486.31
547.914	496.31
548.127	492.31
548.34	483.31
548.554	500.31
548.767	494.31
548.98	494.31
549.193	511.31
549.407	500.31
549.62	490.31
549.833	482.31
550.046	511.31
550.259	491.31
550.473	461.31
550.686	481.31
550.899	507.31
551.112	474.31
551.325	512.31
551.538	495.31
551.751	512.31
551.964	481.31
552.177	493.31
552.39	461.31
552.603	494.31
552.816	494.31
553.029	514.31
553.242	507.31
553.455	536.31
553.667	515.31
553.88	512.31
554.093	520.31
554.306	522.31
554.519	515.31
554.732	487.31
554.944	480.31
555.157	486.31
555.37	448.31
555.583	464.31
555.795	473.31
556.008	468.31
556.221	446.31
556.433	456.31
556.646	467.31
556.859	444.31
557.071	457.31
557.284	455.31
557.496	459.31
557.709	444.31
557.921	447.31
558.134	447.31
558.346	429.31
558.559	447.31
558.771	455.31
558.984	440.31
559.196	454.31
559.409	438.31
559.621	446.31
559.833	450.31
560.046	422.31
560.258	437.31
560.47	442.31
560.683	462.31
560.895	428.31
561.107	428.31
561.32	427.31
561.532	434.31
561.744	441.31
561.956	447.31
562.168	447.31
562.381	439.31
562.593	447.31
562.805	431.31
563.017	447.31
563.229	447.31
563.441	455.31
563.653	440.31
563.865	433.31
564.077	454.31
564.289	439.31
564.501	468.31
564.713	463.31
564.925	473.31
565.137	480.31
565.349	483.31
565.561	476.31
565.773	499.31
565.985	490.31
566.197	514.31
566.408	519.31
566.62	537.31
566.832	571.31
567.044	553.31
567.255	575.31
567.467	580.31
567.679	582.31
567.891	601.31
568.102	586.31
568.314	592.31
568.526	548.31
568.737	530.31
568.949	526.31
569.161	486.31
569.372	496.31
569.584	462.31
569.795	476.31
570.007	466.31
570.218	483.31
570.43	471.31
570.641	445.31
570.853	448.31
571.064	449.31
571.276	434.31
571.487	455.31
571.698	418.31
571.91	431.31
572.121	407.31
572.333	416.31
572.544	427.31
572.755	401.31
572.966	386.31
573.178	388.31
573.389	390.31
573.6	411.31
573.811	396.31
574.023	409.31
574.234	379.31
574.445	378.31
574.656	396.31
574.867	391.31
575.078	400.31
575.289	392.31
575.501	372.31
575.712	376.31
575.923	377.31
576.134	383.31
576.345	387.31
576.556	378.31
576.767	370.31
576.978	370.31
577.188	374.31
577.399	359.31
577.61	365.31
577.821	378.31
578.032	334.31
578.243	368.31
578.454	588.31
578.665	460.31
578.875	376.31
579.086	372.31
579.297	377.31
579.508	352.31
579.718	348.31
579.929	351.31
580.14	339.31
580.35	345.31
580.561	360.31
580.772	365.31
580.982	359.31
581.193	353.31
581.403	365.31
581.614	360.31
581.825	339.31
582.035	346.31
582.246	348.31
582.456	337.31
582.667	346.31
582.877	344.31
583.087	343.31
583.298	361.31
583.508	329.31
583.719	331.31
583.929	352.31
584.139	340.31
584.35	329.31
584.56	345.31
584.77	334.31
584.981	347.31
585.191	340.31
585.401	339.31
585.611	343.31
585.821	343.31
586.032	336.31
586.242	341.31
586.452	338.31
586.662	323.31
586.872	332.31
587.082	337.31
587.292	333.31
587.502	330.31
587.713	333.31
587.923	334.31
588.133	338.31
588.343	332.31
588.553	340.31
588.762	324.31
588.972	339.31
589.182	355.31
589.392	346.31
589.602	328.31
589.812	342.31
590.022	339.31
590.232	321.31
590.441	339.31
590.651	336.31
590.861	345.31
591.071	326.31
591.281	329.31
591.49	342.31
591.7	351.31
591.91	349.31
592.119	358.31
592.329	355.31
592.539	363.31
592.748	355.31
592.958	340.31
593.167	377.31
593.377	335.31
593.587	345.31
593.796	343.31
594.006	355.31
594.215	343.31
594.424	360.31
594.634	359.31
594.843	359.31
595.053	350.31
595.262	334.31
595.472	333.31
595.681	328.31
595.89	349.31
596.1	326.31
596.309	333.31
596.518	315.31
596.727	333.31
596.937	333.31
597.146	316.31
597.355	315.31
597.564	325.31
597.774	300.31
597.983	297.31
598.192	301.31
598.401	300.31
598.61	286.31
598.819	291.31
599.028	293.31
599.237	302.31
599.446	293.31
599.655	301.31
599.864	279.31
600.073	273.31
600.282	300.31
600.491	309.31
600.7	297.31
600.909	306.31
601.118	290.31
601.327	301.31
601.536	286.31
601.745	298.31
601.953	287.31
602.162	283.31
602.371	289.31
602.58	288.31
602.789	270.31
602.997	276.31
603.206	286.31
603.415	281.31
603.623	286.31
603.832	284.31
604.041	279.31
604.249	294.31
604.458	280.31
604.666	278.31
604.875	283.31
605.084	276.31
605.292	270.31
605.501	268.31
605.709	260.31
605.918	287.31
606.126	266.31
606.334	262.31
606.543	271.31
606.751	278.31
606.96	260.31
607.168	278.31
607.376	260.31
607.585	280.31
607.793	270.31
608.001	285.31
608.21	251.31
608.418	262.31
608.626	266.31
608.834	276.31
609.043	274.31
609.251	267.31
609.459	260.31
609.667	262.31
609.875	259.31
610.083	256.31
610.291	268.31
610.499	262.31
610.707	287.31
610.916	260.31
611.124	284.31
611.332	275.31
611.54	276.31
611.748	277.31
611.955	269.31
612.163	254.31
612.371	280.31
612.579	271.31
612.787	258.31
612.995	273.31
613.203	273.31
613.411	265.31
613.618	262.31
613.826	250.31
614.034	243.31
614.242	273.31
614.449	265.31
614.657	262.31
614.865	266.31
615.072	258.31
615.28	272.31
615.488	255.31
615.695	271.31
615.903	269.31
616.111	263.31
616.318	277.31
616.526	264.31
616.733	269.31
616.941	270.31
617.148	263.31
617.356	251.31
617.563	235.31
617.771	260.31
617.978	278.31
618.185	239.31
618.393	260.31
618.6	258.31
618.807	263.31
619.015	262.31
619.222	248.31
619.429	263.31
619.637	236.31
619.844	254.31
620.051	239.31
620.258	253.31
620.466	269.31
620.673	234.31
620.88	251.31
621.087	252.31
621.294	250.31
621.501	261.31
621.708	242.31
621.915	270.31
622.122	255.31
622.329	260.31
622.536	266.31
622.743	246.31
622.95	229.31
623.157	238.31
623.364	250.31
623.571	224.31
623.778	226.31
623.985	233.31
624.192	239.31
624.399	237.31
624.606	232.31
624.812	247.31
625.019	248.31
625.226	231.31
625.433	240.31
625.639	232.31
625.846	223.31
626.053	231.31
626.259	257.31
626.466	225.31
626.673	234.31
626.879	217.31
627.086	226.31
627.293	219.31
627.499	220.31
627.706	235.31
627.912	232.31
628.119	219.31
628.325	224.31
628.532	233.31
628.738	213.31
628.945	223.31
629.151	224.31
629.357	229.31
629.564	208.31
629.77	215.31
629.976	220.31
630.183	220.31
630.389	231.31
630.595	214.31
630.802	220.31
631.008	222.31
631.214	215.31
631.42	225.31
631.627	227.31
631.833	208.31
632.039	215.31
632.245	208.31
632.451	206.31
632.657	208.31
632.863	225.31
633.069	207.31
633.275	218.31
633.481	212.31
633.688	186.31
633.893	214.31
634.099	206.31
634.305	198.31
634.511	198.31
634.717	208.31
634.923	196.31
635.129	196.31
635.335	199.31
635.541	213.31
635.747	203.31
635.952	203.31
636.158	195.31
636.364	205.31
636.57	203.31
636.775	208.31
636.981	203.31
637.187	192.31
637.392	194.31
637.598	200.31
637.804	191.31
638.009	194.31
638.215	186.31
638.421	188.31
638.626	194.31
638.832	185.31
639.037	190.31
639.243	197.31
639.448	186.31
639.654	186.31
639.859	213.31
640.065	180.31
640.27	190.31
640.475	183.31
640.681	180.31
640.886	190.31
641.091	192.31
641.297	182.31
641.502	187.31
641.707	191.31
641.913	183.31
642.118	172.31
642.323	186.31
642.528	207.31
642.733	174.31
642.939	191.31
643.144	182.31
643.349	182.31
643.554	169.31
643.759	192.31
643.964	182.31
644.169	181.31
644.374	178.31
644.579	184.31
644.784	190.31
644.989	180.31
645.194	192.31
645.399	188.31
645.604	180.31
645.809	184.31
646.014	173.31
646.219	188.31
646.423	187.31
646.628	189.31
646.833	184.31
647.038	184.31
647.243	172.31
647.447	188.31
647.652	183.31
647.857	203.31
648.062	178.31
648.266	180.31
648.471	183.31
648.676	196.31
648.88	189.31
649.085	194.31
649.289	188.31
649.494	181.31
649.698	194.31
649.903	184.31
650.107	187.31
650.312	185.31
650.516	175.31
650.721	163.31
650.925	174.31
651.13	173.31
651.334	166.31
651.539	159.31
651.743	158.31
651.947	152.31
652.152	144.31
652.356	150.31
652.56	163.31
652.764	149.31
652.969	164.31
653.173	153.31
653.377	136.31
653.581	154.31
653.785	156.31
653.99	157.31
654.194	160.31
654.398	144.31
654.602	139.31
654.806	141.31
655.01	143.31
655.214	143.31
655.418	129.31
655.622	142.31
655.826	136.31
656.03	134.31
656.234	137.31
656.438	142.31
656.642	147.31
656.846	139.31
657.049	140.31
657.253	142.31
657.457	132.31
657.661	111.31
657.865	130.31
658.068	130.31
658.272	111.31
658.476	110.31
658.68	117.31
658.883	102.31
659.087	115.31
659.291	104.31
659.494	115.31
659.698	104.31
659.901	103.31
660.105	94.31
660.309	90.31
660.512	99.31
660.716	102.31
660.919	81.31
661.123	91.31
661.326	92.31
661.53	95.31
661.733	106.31
661.936	88.31
662.14	96.31
662.343	85.31
662.546	84.31
662.75	88.31
662.953	95.31
663.156	74.31
663.36	90.31
663.563	79.31
663.766	78.31
663.969	98.31
664.173	94.31
664.376	84.31
664.579	84.31
664.782	87.31
664.985	79.31
665.188	93.31
665.391	79.31
665.594	85.31
665.797	86.31
666	68.31
666.203	72.31
666.406	83.31
666.609	88.31
666.812	86.31
667.015	92.31
667.218	87.31
667.421	85.31
667.624	67.31
667.827	79.31
668.03	86.31
668.232	97.31
668.435	87.31
668.638	91.31
668.841	78.31
669.043	81.31
669.246	80.31
669.449	83.31
669.651	86.31
669.854	83.31
670.057	78.31
670.259	78.31
670.462	90.31
670.665	89.31
670.867	77.31
671.07	79.31
671.272	70.31
671.475	105.31
671.677	78.31
671.88	77.31
672.082	97.31
672.284	85.31
672.487	90.31
672.689	87.31
672.892	88.31
