Data from 1966.PennyLincolnUp.Lamp.En5.5.200Scan.071719.P1._HRD10591_14-14-42-914.txt Node
Date: Thu Jul 18 14:14:42 EDT 2019
User: cochatt
Spectrometer: HR+D1059
Trigger mode: 1
Integration Time (sec): 1.000000E-1
Scans to average: 1
Electric dark correction enabled: true
Nonlinearity correction enabled: false
Boxcar width: 0
XAxis mode: Wavelengths
Number of Pixels in Spectrum: 2048
>>>>>Begin Spectral Data<<<<<
223.165	-9.06
223.4	-9.06
223.635	-9.06
223.869	-23.06
224.104	-22.06
224.338	-10.06
224.573	-11.06
224.808	-12.06
225.042	-23.06
225.277	-21.06
225.511	3.94
225.746	1.94
225.98	-0.06
226.215	6.94
226.449	33.94
226.683	22.94
226.918	25.94
227.152	35.94
227.387	17.94
227.621	28.94
227.856	29.94
228.09	44.94
228.324	56.94
228.559	61.94
228.793	68.94
229.027	80.94
229.262	71.94
229.496	91.94
229.73	109.94
229.964	105.94
230.199	100.94
230.433	83.94
230.667	93.94
230.901	100.94
231.136	95.94
231.37	87.94
231.604	98.94
231.838	93.94
232.072	84.94
232.306	96.94
232.541	82.94
232.775	100.94
233.009	105.94
233.243	90.94
233.477	90.94
233.711	91.94
233.945	89.94
234.179	77.94
234.413	89.94
234.647	85.94
234.881	85.94
235.115	94.94
235.349	89.94
235.583	86.94
235.817	94.94
236.051	93.94
236.285	82.94
236.519	100.94
236.753	101.94
236.987	100.94
237.221	115.94
237.455	142.94
237.689	123.94
237.922	94.94
238.156	94.94
238.39	90.94
238.624	73.94
238.858	87.94
239.091	84.94
239.325	94.94
239.559	91.94
239.793	95.94
240.027	106.94
240.26	112.94
240.494	102.94
240.728	109.94
240.961	113.94
241.195	108.94
241.429	92.94
241.662	95.94
241.896	92.94
242.13	101.94
242.363	91.94
242.597	94.94
242.83	101.94
243.064	102.94
243.298	98.94
243.531	107.94
243.765	92.94
243.998	94.94
244.232	104.94
244.465	101.94
244.699	90.94
244.932	101.94
245.166	101.94
245.399	97.94
245.633	106.94
245.866	91.94
246.099	94.94
246.333	119.94
246.566	105.94
246.8	102.94
247.033	98.94
247.266	99.94
247.5	93.94
247.733	117.94
247.966	99.94
248.2	115.94
248.433	117.94
248.666	122.94
248.899	112.94
249.133	128.94
249.366	144.94
249.599	124.94
249.832	106.94
250.066	124.94
250.299	124.94
250.532	119.94
250.765	132.94
250.998	149.94
251.231	152.94
251.465	127.94
251.698	129.94
251.931	130.94
252.164	131.94
252.397	122.94
252.63	126.94
252.863	118.94
253.096	132.94
253.329	146.94
253.562	141.94
253.795	136.94
254.028	128.94
254.261	129.94
254.494	150.94
254.727	152.94
254.96	146.94
255.193	150.94
255.426	160.94
255.659	147.94
255.892	150.94
256.124	146.94
256.357	148.94
256.59	136.94
256.823	129.94
257.056	125.94
257.289	132.94
257.521	117.94
257.754	135.94
257.987	128.94
258.22	132.94
258.452	132.94
258.685	113.94
258.918	126.94
259.151	136.94
259.383	125.94
259.616	125.94
259.849	129.94
260.081	148.94
260.314	142.94
260.547	154.94
260.779	148.94
261.012	141.94
261.244	125.94
261.477	126.94
261.71	131.94
261.942	140.94
262.175	141.94
262.407	141.94
262.64	127.94
262.872	148.94
263.105	124.94
263.337	139.94
263.57	120.94
263.802	127.94
264.035	130.94
264.267	135.94
264.499	125.94
264.732	138.94
264.964	136.94
265.197	123.94
265.429	126.94
265.661	132.94
265.894	138.94
266.126	142.94
266.358	143.94
266.591	147.94
266.823	139.94
267.055	140.94
267.287	155.94
267.52	126.94
267.752	133.94
267.984	130.94
268.216	143.94
268.448	132.94
268.681	131.94
268.913	155.94
269.145	160.94
269.377	164.94
269.609	157.94
269.841	142.94
270.073	144.94
270.306	173.94
270.538	177.94
270.77	176.94
271.002	164.94
271.234	157.94
271.466	176.94
271.698	168.94
271.93	190.94
272.162	182.94
272.394	181.94
272.626	169.94
272.858	172.94
273.09	151.94
273.322	148.94
273.553	140.94
273.785	155.94
274.017	149.94
274.249	147.94
274.481	154.94
274.713	157.94
274.945	153.94
275.176	158.94
275.408	145.94
275.64	170.94
275.872	147.94
276.104	162.94
276.335	155.94
276.567	176.94
276.799	161.94
277.031	170.94
277.262	191.94
277.494	181.94
277.726	177.94
277.957	164.94
278.189	166.94
278.421	134.94
278.652	161.94
278.884	146.94
279.115	166.94
279.347	160.94
279.579	166.94
279.81	154.94
280.042	148.94
280.273	149.94
280.505	160.94
280.736	153.94
280.968	156.94
281.199	160.94
281.431	168.94
281.662	142.94
281.894	165.94
282.125	161.94
282.356	154.94
282.588	170.94
282.819	158.94
283.051	155.94
283.282	155.94
283.513	180.94
283.745	162.94
283.976	166.94
284.207	173.94
284.439	177.94
284.67	161.94
284.901	154.94
285.132	138.94
285.364	159.94
285.595	161.94
285.826	174.94
286.057	153.94
286.288	154.94
286.52	167.94
286.751	165.94
286.982	138.94
287.213	162.94
287.444	163.94
287.675	166.94
287.906	178.94
288.138	172.94
288.369	172.94
288.6	168.94
288.831	169.94
289.062	182.94
289.293	173.94
289.524	181.94
289.755	164.94
289.986	160.94
290.217	172.94
290.448	163.94
290.679	168.94
290.91	170.94
291.141	162.94
291.371	171.94
291.602	173.94
291.833	151.94
292.064	166.94
292.295	152.94
292.526	166.94
292.757	152.94
292.987	156.94
293.218	165.94
293.449	167.94
293.68	160.94
293.91	160.94
294.141	152.94
294.372	181.94
294.603	177.94
294.833	154.94
295.064	171.94
295.295	171.94
295.525	164.94
295.756	157.94
295.987	176.94
296.217	171.94
296.448	171.94
296.679	174.94
296.909	166.94
297.14	175.94
297.37	160.94
297.601	165.94
297.831	169.94
298.062	158.94
298.292	180.94
298.523	166.94
298.753	171.94
298.984	173.94
299.214	171.94
299.445	169.94
299.675	168.94
299.905	174.94
300.136	173.94
300.366	156.94
300.597	173.94
300.827	173.94
301.057	179.94
301.288	181.94
301.518	170.94
301.748	170.94
301.979	168.94
302.209	205.94
302.439	187.94
302.669	176.94
302.9	187.94
303.13	165.94
303.36	176.94
303.59	170.94
303.82	186.94
304.051	183.94
304.281	153.94
304.511	174.94
304.741	188.94
304.971	189.94
305.201	178.94
305.431	192.94
305.661	165.94
305.891	179.94
306.121	186.94
306.352	189.94
306.582	180.94
306.812	194.94
307.042	176.94
307.272	187.94
307.502	184.94
307.731	179.94
307.961	176.94
308.191	187.94
308.421	182.94
308.651	185.94
308.881	191.94
309.111	203.94
309.341	198.94
309.571	200.94
309.8	194.94
310.03	206.94
310.26	206.94
310.49	201.94
310.72	202.94
310.949	211.94
311.179	222.94
311.409	181.94
311.639	216.94
311.868	210.94
312.098	192.94
312.328	213.94
312.557	216.94
312.787	210.94
313.017	217.94
313.246	205.94
313.476	203.94
313.706	206.94
313.935	229.94
314.165	209.94
314.394	217.94
314.624	213.94
314.853	205.94
315.083	207.94
315.312	189.94
315.542	203.94
315.771	198.94
316.001	206.94
316.23	199.94
316.46	193.94
316.689	201.94
316.919	208.94
317.148	210.94
317.377	213.94
317.607	198.94
317.836	201.94
318.065	207.94
318.295	197.94
318.524	200.94
318.753	216.94
318.983	199.94
319.212	205.94
319.441	205.94
319.67	202.94
319.9	197.94
320.129	203.94
320.358	196.94
320.587	219.94
320.816	221.94
321.046	197.94
321.275	197.94
321.504	204.94
321.733	204.94
321.962	214.94
322.191	227.94
322.42	218.94
322.649	220.94
322.878	226.94
323.108	244.94
323.337	256.94
323.566	241.94
323.795	282.94
324.024	296.94
324.253	366.94
324.482	509.94
324.71	756.94
324.939	1029.94
325.168	849.94
325.397	422.94
325.626	312.94
325.855	252.94
326.084	236.94
326.313	246.94
326.542	269.94
326.77	281.94
326.999	338.94
327.228	474.94
327.457	672.94
327.686	779.94
327.914	492.94
328.143	375.94
328.372	320.94
328.6	310.94
328.829	292.94
329.058	290.94
329.287	309.94
329.515	300.94
329.744	264.94
329.972	268.94
330.201	273.94
330.43	325.94
330.658	330.94
330.887	341.94
331.115	332.94
331.344	279.94
331.572	262.94
331.801	267.94
332.03	256.94
332.258	241.94
332.486	217.94
332.715	229.94
332.943	229.94
333.172	242.94
333.4	249.94
333.629	242.94
333.857	235.94
334.085	256.94
334.314	299.94
334.542	298.94
334.771	304.94
334.999	287.94
335.227	257.94
335.455	245.94
335.684	232.94
335.912	223.94
336.14	246.94
336.369	219.94
336.597	231.94
336.825	245.94
337.053	226.94
337.281	225.94
337.51	219.94
337.738	230.94
337.966	235.94
338.194	230.94
338.422	239.94
338.65	226.94
338.878	227.94
339.106	203.94
339.334	228.94
339.562	227.94
339.79	208.94
340.018	238.94
340.246	235.94
340.474	216.94
340.702	226.94
340.93	224.94
341.158	211.94
341.386	208.94
341.614	215.94
341.842	229.94
342.07	223.94
342.298	201.94
342.526	218.94
342.754	206.94
342.981	214.94
343.209	207.94
343.437	209.94
343.665	210.94
343.893	221.94
344.12	222.94
344.348	221.94
344.576	221.94
344.804	223.94
345.031	228.94
345.259	231.94
345.487	226.94
345.714	214.94
345.942	209.94
346.17	213.94
346.397	204.94
346.625	206.94
346.853	207.94
347.08	222.94
347.308	213.94
347.535	208.94
347.763	220.94
347.99	219.94
348.218	211.94
348.445	219.94
348.673	219.94
348.9	217.94
349.128	202.94
349.355	202.94
349.583	206.94
349.81	201.94
350.037	223.94
350.265	206.94
350.492	208.94
350.72	215.94
350.947	209.94
351.174	218.94
351.402	214.94
351.629	205.94
351.856	204.94
352.083	219.94
352.311	227.94
352.538	221.94
352.765	209.94
352.992	217.94
353.22	209.94
353.447	221.94
353.674	225.94
353.901	201.94
354.128	197.94
354.355	207.94
354.583	205.94
354.81	218.94
355.037	205.94
355.264	191.94
355.491	192.94
355.718	184.94
355.945	189.94
356.172	194.94
356.399	201.94
356.626	212.94
356.853	203.94
357.08	193.94
357.307	202.94
357.534	187.94
357.761	194.94
357.988	188.94
358.215	206.94
358.441	192.94
358.668	200.94
358.895	199.94
359.122	191.94
359.349	201.94
359.576	211.94
359.802	216.94
360.029	245.94
360.256	260.94
360.483	235.94
360.709	224.94
360.936	211.94
361.163	210.94
361.39	203.94
361.616	228.94
361.843	213.94
362.07	225.94
362.296	205.94
362.523	215.94
362.749	216.94
362.976	230.94
363.203	208.94
363.429	204.94
363.656	205.94
363.882	203.94
364.109	195.94
364.335	214.94
364.562	196.94
364.788	211.94
365.015	203.94
365.241	207.94
365.468	199.94
365.694	202.94
365.92	203.94
366.147	225.94
366.373	198.94
366.599	206.94
366.826	187.94
367.052	184.94
367.278	196.94
367.505	181.94
367.731	197.94
367.957	190.94
368.184	216.94
368.41	190.94
368.636	185.94
368.862	214.94
369.089	210.94
369.315	195.94
369.541	192.94
369.767	205.94
369.993	198.94
370.219	211.94
370.445	209.94
370.672	190.94
370.898	206.94
371.124	192.94
371.35	187.94
371.576	201.94
371.802	186.94
372.028	212.94
372.254	194.94
372.48	210.94
372.706	211.94
372.932	195.94
373.158	200.94
373.384	192.94
373.61	201.94
373.835	210.94
374.061	197.94
374.287	209.94
374.513	196.94
374.739	194.94
374.965	188.94
375.191	190.94
375.416	210.94
375.642	201.94
375.868	206.94
376.094	194.94
376.319	201.94
376.545	193.94
376.771	196.94
376.997	182.94
377.222	202.94
377.448	210.94
377.674	198.94
377.899	195.94
378.125	189.94
378.35	208.94
378.576	206.94
378.802	199.94
379.027	195.94
379.253	197.94
379.478	194.94
379.704	203.94
379.929	205.94
380.155	190.94
380.38	202.94
380.606	193.94
380.831	205.94
381.057	210.94
381.282	199.94
381.507	192.94
381.733	200.94
381.958	204.94
382.184	196.94
382.409	200.94
382.634	186.94
382.86	203.94
383.085	204.94
383.31	217.94
383.535	203.94
383.761	215.94
383.986	200.94
384.211	207.94
384.436	202.94
384.662	219.94
384.887	212.94
385.112	200.94
385.337	212.94
385.562	206.94
385.787	227.94
386.013	217.94
386.238	224.94
386.463	221.94
386.688	222.94
386.913	221.94
387.138	207.94
387.363	216.94
387.588	226.94
387.813	229.94
388.038	212.94
388.263	232.94
388.488	202.94
388.713	202.94
388.938	225.94
389.163	209.94
389.387	213.94
389.612	206.94
389.837	204.94
390.062	219.94
390.287	196.94
390.512	208.94
390.736	203.94
390.961	211.94
391.186	222.94
391.411	214.94
391.636	210.94
391.86	220.94
392.085	222.94
392.31	219.94
392.534	212.94
392.759	220.94
392.984	197.94
393.208	212.94
393.433	221.94
393.658	230.94
393.882	214.94
394.107	222.94
394.331	212.94
394.556	197.94
394.78	235.94
395.005	208.94
395.229	206.94
395.454	225.94
395.678	219.94
395.903	211.94
396.127	238.94
396.352	243.94
396.576	228.94
396.801	219.94
397.025	194.94
397.249	217.94
397.474	215.94
397.698	225.94
397.922	221.94
398.147	227.94
398.371	234.94
398.595	228.94
398.82	235.94
399.044	227.94
399.268	265.94
399.492	242.94
399.717	277.94
399.941	271.94
400.165	282.94
400.389	272.94
400.613	266.94
400.837	267.94
401.062	261.94
401.286	236.94
401.51	219.94
401.734	254.94
401.958	250.94
402.182	246.94
402.406	248.94
402.63	269.94
402.854	254.94
403.078	257.94
403.302	261.94
403.526	229.94
403.75	255.94
403.974	239.94
404.198	242.94
404.422	246.94
404.645	256.94
404.869	260.94
405.093	256.94
405.317	278.94
405.541	297.94
405.765	292.94
405.988	260.94
406.212	282.94
406.436	278.94
406.66	290.94
406.883	287.94
407.107	289.94
407.331	292.94
407.555	309.94
407.778	329.94
408.002	273.94
408.226	259.94
408.449	258.94
408.673	264.94
408.896	302.94
409.12	284.94
409.344	273.94
409.567	252.94
409.791	235.94
410.014	276.94
410.238	250.94
410.461	244.94
410.685	268.94
410.908	257.94
411.132	266.94
411.355	276.94
411.578	261.94
411.802	262.94
412.025	251.94
412.249	248.94
412.472	278.94
412.695	283.94
412.919	270.94
413.142	258.94
413.365	241.94
413.589	242.94
413.812	254.94
414.035	248.94
414.258	236.94
414.482	226.94
414.705	229.94
414.928	237.94
415.151	240.94
415.374	229.94
415.597	234.94
415.821	232.94
416.044	249.94
416.267	244.94
416.49	237.94
416.713	233.94
416.936	234.94
417.159	235.94
417.382	233.94
417.605	232.94
417.828	244.94
418.051	251.94
418.274	237.94
418.497	256.94
418.72	238.94
418.943	238.94
419.166	236.94
419.389	253.94
419.611	257.94
419.834	251.94
420.057	258.94
420.28	247.94
420.503	243.94
420.726	243.94
420.948	270.94
421.171	278.94
421.394	293.94
421.617	245.94
421.839	253.94
422.062	252.94
422.285	247.94
422.507	284.94
422.73	301.94
422.953	301.94
423.175	258.94
423.398	256.94
423.621	244.94
423.843	253.94
424.066	262.94
424.288	269.94
424.511	268.94
424.733	308.94
424.956	329.94
425.178	306.94
425.401	308.94
425.623	317.94
425.846	260.94
426.068	258.94
426.291	247.94
426.513	272.94
426.735	261.94
426.958	274.94
427.18	307.94
427.402	392.94
427.625	412.94
427.847	374.94
428.069	326.94
428.292	276.94
428.514	256.94
428.736	266.94
428.958	260.94
429.181	245.94
429.403	241.94
429.625	261.94
429.847	269.94
430.069	311.94
430.292	283.94
430.514	255.94
430.736	238.94
430.958	252.94
431.18	240.94
431.402	250.94
431.624	249.94
431.846	209.94
432.068	230.94
432.29	241.94
432.512	244.94
432.734	227.94
432.956	235.94
433.178	257.94
433.4	251.94
433.622	224.94
433.844	231.94
434.066	234.94
434.287	232.94
434.509	238.94
434.731	257.94
434.953	251.94
435.175	266.94
435.397	257.94
435.618	269.94
435.84	286.94
436.062	322.94
436.284	345.94
436.505	286.94
436.727	258.94
436.949	255.94
437.17	243.94
437.392	253.94
437.614	250.94
437.835	272.94
438.057	312.94
438.278	378.94
438.5	345.94
438.721	362.94
438.943	333.94
439.165	285.94
439.386	275.94
439.608	262.94
439.829	268.94
440.05	289.94
440.272	296.94
440.493	273.94
440.715	267.94
440.936	269.94
441.158	240.94
441.379	244.94
441.6	257.94
441.822	277.94
442.043	307.94
442.264	319.94
442.486	344.94
442.707	283.94
442.928	261.94
443.149	285.94
443.371	298.94
443.592	302.94
443.813	354.94
444.034	343.94
444.255	307.94
444.476	281.94
444.698	285.94
444.919	275.94
445.14	363.94
445.361	312.94
445.582	298.94
445.803	332.94
446.024	364.94
446.245	362.94
446.466	322.94
446.687	289.94
446.908	268.94
447.129	244.94
447.35	227.94
447.571	253.94
447.792	232.94
448.013	234.94
448.234	249.94
448.455	286.94
448.675	325.94
448.896	369.94
449.117	304.94
449.338	291.94
449.559	338.94
449.779	381.94
450	300.94
450.221	266.94
450.442	240.94
450.662	246.94
450.883	241.94
451.104	261.94
451.324	250.94
451.545	254.94
451.766	241.94
451.986	213.94
452.207	201.94
452.428	235.94
452.648	225.94
452.869	236.94
453.089	241.94
453.31	246.94
453.53	227.94
453.751	213.94
453.971	226.94
454.192	240.94
454.412	217.94
454.633	231.94
454.853	208.94
455.073	217.94
455.294	231.94
455.514	253.94
455.734	260.94
455.955	231.94
456.175	224.94
456.395	221.94
456.616	210.94
456.836	211.94
457.056	226.94
457.276	208.94
457.497	211.94
457.717	226.94
457.937	226.94
458.157	221.94
458.377	227.94
458.598	229.94
458.818	258.94
459.038	324.94
459.258	312.94
459.478	266.94
459.698	229.94
459.918	226.94
460.138	238.94
460.358	232.94
460.578	238.94
460.798	237.94
461.018	233.94
461.238	248.94
461.458	221.94
461.678	235.94
461.898	233.94
462.118	230.94
462.338	238.94
462.558	256.94
462.777	252.94
462.997	256.94
463.217	248.94
463.437	256.94
463.657	244.94
463.876	253.94
464.096	267.94
464.316	261.94
464.536	249.94
464.755	258.94
464.975	280.94
465.195	310.94
465.414	370.94
465.634	281.94
465.854	260.94
466.073	260.94
466.293	247.94
466.512	238.94
466.732	237.94
466.951	219.94
467.171	232.94
467.391	242.94
467.61	231.94
467.829	254.94
468.049	254.94
468.268	233.94
468.488	233.94
468.707	221.94
468.927	214.94
469.146	234.94
469.365	245.94
469.585	236.94
469.804	228.94
470.023	240.94
470.243	240.94
470.462	252.94
470.681	247.94
470.901	231.94
471.12	242.94
471.339	232.94
471.558	232.94
471.777	242.94
471.997	240.94
472.216	236.94
472.435	275.94
472.654	261.94
472.873	237.94
473.092	231.94
473.311	235.94
473.53	236.94
473.749	237.94
473.968	258.94
474.187	320.94
474.406	325.94
474.625	264.94
474.844	235.94
475.063	240.94
475.282	230.94
475.501	227.94
475.72	258.94
475.939	213.94
476.158	221.94
476.377	229.94
476.596	234.94
476.814	246.94
477.033	236.94
477.252	254.94
477.471	248.94
477.69	245.94
477.908	232.94
478.127	247.94
478.346	257.94
478.564	276.94
478.783	244.94
479.002	278.94
479.22	259.94
479.439	268.94
479.658	251.94
479.876	291.94
480.095	285.94
480.313	281.94
480.532	293.94
480.751	284.94
480.969	286.94
481.188	350.94
481.406	363.94
481.624	310.94
481.843	273.94
482.061	278.94
482.28	285.94
482.498	255.94
482.717	268.94
482.935	268.94
483.153	259.94
483.372	271.94
483.59	259.94
483.808	282.94
484.027	274.94
484.245	261.94
484.463	287.94
484.681	260.94
484.9	259.94
485.118	258.94
485.336	281.94
485.554	276.94
485.772	258.94
485.99	264.94
486.209	272.94
486.427	260.94
486.645	267.94
486.863	320.94
487.081	292.94
487.299	289.94
487.517	283.94
487.735	288.94
487.953	269.94
488.171	295.94
488.389	294.94
488.607	286.94
488.825	302.94
489.043	292.94
489.261	283.94
489.479	314.94
489.696	293.94
489.914	296.94
490.132	315.94
490.35	293.94
490.568	306.94
490.786	297.94
491.003	329.94
491.221	319.94
491.439	324.94
491.657	323.94
491.874	357.94
492.092	345.94
492.31	353.94
492.527	346.94
492.745	341.94
492.963	345.94
493.18	333.94
493.398	355.94
493.615	360.94
493.833	361.94
494.05	342.94
494.268	359.94
494.485	352.94
494.703	334.94
494.92	325.94
495.138	346.94
495.355	342.94
495.573	330.94
495.79	336.94
496.008	343.94
496.225	331.94
496.442	329.94
496.66	334.94
496.877	343.94
497.094	338.94
497.312	324.94
497.529	344.94
497.746	340.94
497.963	324.94
498.181	345.94
498.398	350.94
498.615	370.94
498.832	370.94
499.049	385.94
499.267	370.94
499.484	390.94
499.701	397.94
499.918	424.94
500.135	413.94
500.352	435.94
500.569	448.94
500.786	438.94
501.003	431.94
501.22	428.94
501.437	421.94
501.654	417.94
501.871	410.94
502.088	378.94
502.305	374.94
502.522	373.94
502.739	348.94
502.956	357.94
503.172	337.94
503.389	330.94
503.606	326.94
503.823	320.94
504.04	361.94
504.256	338.94
504.473	324.94
504.69	319.94
504.907	317.94
505.123	316.94
505.34	331.94
505.557	343.94
505.773	316.94
505.99	312.94
506.207	316.94
506.423	307.94
506.64	339.94
506.856	321.94
507.073	314.94
507.289	304.94
507.506	320.94
507.722	330.94
507.939	329.94
508.155	301.94
508.372	306.94
508.588	316.94
508.805	306.94
509.021	303.94
509.238	305.94
509.454	312.94
509.67	312.94
509.887	294.94
510.103	309.94
510.319	311.94
510.536	382.94
510.752	748.94
510.968	557.94
511.184	314.94
511.401	310.94
511.617	294.94
511.833	287.94
512.049	276.94
512.265	291.94
512.481	292.94
512.698	296.94
512.914	286.94
513.13	283.94
513.346	287.94
513.562	283.94
513.778	299.94
513.994	288.94
514.21	297.94
514.426	322.94
514.642	343.94
514.858	348.94
515.074	374.94
515.29	478.94
515.506	820.94
515.721	638.94
515.937	377.94
516.153	330.94
516.369	301.94
516.585	304.94
516.801	287.94
517.016	281.94
517.232	263.94
517.448	288.94
517.664	307.94
517.879	296.94
518.095	304.94
518.311	291.94
518.527	291.94
518.742	301.94
518.958	302.94
519.173	292.94
519.389	287.94
519.605	280.94
519.82	274.94
520.036	301.94
520.251	300.94
520.467	334.94
520.682	323.94
520.898	320.94
521.113	335.94
521.329	359.94
521.544	417.94
521.76	591.94
521.975	1136.94
522.19	1118.94
522.406	508.94
522.621	363.94
522.836	312.94
523.052	284.94
523.267	278.94
523.482	273.94
523.698	249.94
523.913	269.94
524.128	256.94
524.343	262.94
524.559	248.94
524.774	244.94
524.989	251.94
525.204	252.94
525.419	254.94
525.634	250.94
525.849	252.94
526.064	258.94
526.28	242.94
526.495	235.94
526.71	237.94
526.925	221.94
527.14	250.94
527.355	240.94
527.57	227.94
527.785	240.94
527.999	220.94
528.214	239.94
528.429	248.94
528.644	234.94
528.859	229.94
529.074	241.94
529.289	232.94
529.503	325.94
529.718	297.94
529.933	252.94
530.148	247.94
530.363	236.94
530.577	240.94
530.792	222.94
531.007	235.94
531.221	227.94
531.436	226.94
531.651	236.94
531.865	217.94
532.08	230.94
532.295	215.94
532.509	230.94
532.724	227.94
532.938	222.94
533.153	231.94
533.367	237.94
533.582	228.94
533.796	224.94
534.011	227.94
534.225	206.94
534.44	220.94
534.654	222.94
534.868	220.94
535.083	237.94
535.297	237.94
535.511	229.94
535.726	245.94
535.94	234.94
536.154	240.94
536.369	245.94
536.583	227.94
536.797	223.94
537.011	222.94
537.225	225.94
537.44	212.94
537.654	217.94
537.868	216.94
538.082	217.94
538.296	237.94
538.51	215.94
538.724	226.94
538.938	217.94
539.153	231.94
539.367	241.94
539.581	235.94
539.795	232.94
540.009	209.94
540.222	229.94
540.436	233.94
540.65	227.94
540.864	219.94
541.078	225.94
541.292	252.94
541.506	237.94
541.72	242.94
541.934	221.94
542.147	230.94
542.361	212.94
542.575	226.94
542.789	210.94
543.002	244.94
543.216	222.94
543.43	229.94
543.644	227.94
543.857	217.94
544.071	219.94
544.285	230.94
544.498	229.94
544.712	216.94
544.925	226.94
545.139	225.94
545.352	221.94
545.566	225.94
545.779	216.94
545.993	213.94
546.206	228.94
546.42	233.94
546.633	208.94
546.847	206.94
547.06	210.94
547.274	204.94
547.487	209.94
547.7	213.94
547.914	216.94
548.127	220.94
548.34	203.94
548.554	226.94
548.767	220.94
548.98	197.94
549.193	218.94
549.407	208.94
549.62	221.94
549.833	228.94
550.046	216.94
550.259	201.94
550.473	217.94
550.686	223.94
550.899	224.94
551.112	205.94
551.325	214.94
551.538	212.94
551.751	199.94
551.964	210.94
552.177	216.94
552.39	197.94
552.603	217.94
552.816	211.94
553.029	199.94
553.242	203.94
553.455	213.94
553.667	232.94
553.88	221.94
554.093	225.94
554.306	231.94
554.519	224.94
554.732	213.94
554.944	223.94
555.157	207.94
555.37	204.94
555.583	211.94
555.795	215.94
556.008	224.94
556.221	204.94
556.433	196.94
556.646	202.94
556.859	187.94
557.071	196.94
557.284	202.94
557.496	198.94
557.709	195.94
557.921	201.94
558.134	195.94
558.346	192.94
558.559	192.94
558.771	189.94
558.984	201.94
559.196	199.94
559.409	197.94
559.621	195.94
559.833	204.94
560.046	179.94
560.258	179.94
560.47	190.94
560.683	191.94
560.895	193.94
561.107	194.94
561.32	180.94
561.532	182.94
561.744	187.94
561.956	192.94
562.168	190.94
562.381	178.94
562.593	201.94
562.805	206.94
563.017	185.94
563.229	188.94
563.441	196.94
563.653	190.94
563.865	176.94
564.077	195.94
564.289	214.94
564.501	202.94
564.713	188.94
564.925	204.94
565.137	202.94
565.349	203.94
565.561	204.94
565.773	189.94
565.985	208.94
566.197	210.94
566.408	221.94
566.62	219.94
566.832	214.94
567.044	232.94
567.255	232.94
567.467	213.94
567.679	199.94
567.891	227.94
568.102	230.94
568.314	240.94
568.526	208.94
568.737	220.94
568.949	221.94
569.161	205.94
569.372	208.94
569.584	190.94
569.795	194.94
570.007	194.94
570.218	233.94
570.43	212.94
570.641	195.94
570.853	178.94
571.064	188.94
571.276	196.94
571.487	181.94
571.698	191.94
571.91	170.94
572.121	184.94
572.333	181.94
572.544	166.94
572.755	167.94
572.966	169.94
573.178	188.94
573.389	174.94
573.6	161.94
573.811	181.94
574.023	173.94
574.234	161.94
574.445	167.94
574.656	164.94
574.867	148.94
575.078	193.94
575.289	159.94
575.501	161.94
575.712	173.94
575.923	180.94
576.134	149.94
576.345	153.94
576.556	193.94
576.767	162.94
576.978	163.94
577.188	174.94
577.399	157.94
577.61	169.94
577.821	172.94
578.032	172.94
578.243	200.94
578.454	374.94
578.665	268.94
578.875	180.94
579.086	159.94
579.297	173.94
579.508	153.94
579.718	162.94
579.929	167.94
580.14	156.94
580.35	151.94
580.561	165.94
580.772	157.94
580.982	162.94
581.193	166.94
581.403	167.94
581.614	162.94
581.825	160.94
582.035	151.94
582.246	151.94
582.456	139.94
582.667	165.94
582.877	156.94
583.087	160.94
583.298	144.94
583.508	152.94
583.719	157.94
583.929	139.94
584.139	154.94
584.35	155.94
584.56	160.94
584.77	163.94
584.981	166.94
585.191	159.94
585.401	166.94
585.611	143.94
585.821	156.94
586.032	150.94
586.242	147.94
586.452	177.94
586.662	148.94
586.872	153.94
587.082	141.94
587.292	152.94
587.502	161.94
587.713	144.94
587.923	140.94
588.133	162.94
588.343	144.94
588.553	152.94
588.762	150.94
588.972	134.94
589.182	169.94
589.392	164.94
589.602	148.94
589.812	164.94
590.022	143.94
590.232	150.94
590.441	154.94
590.651	157.94
590.861	150.94
591.071	157.94
591.281	148.94
591.49	149.94
591.7	151.94
591.91	154.94
592.119	142.94
592.329	161.94
592.539	158.94
592.748	160.94
592.958	155.94
593.167	163.94
593.377	162.94
593.587	161.94
593.796	162.94
594.006	148.94
594.215	154.94
594.424	166.94
594.634	136.94
594.843	156.94
595.053	169.94
595.262	151.94
595.472	146.94
595.681	154.94
595.89	171.94
596.1	142.94
596.309	165.94
596.518	164.94
596.727	146.94
596.937	152.94
597.146	148.94
597.355	142.94
597.564	160.94
597.774	140.94
597.983	140.94
598.192	155.94
598.401	162.94
598.61	127.94
598.819	127.94
599.028	137.94
599.237	148.94
599.446	158.94
599.655	139.94
599.864	136.94
600.073	136.94
600.282	133.94
600.491	142.94
600.7	145.94
600.909	131.94
601.118	162.94
601.327	158.94
601.536	135.94
601.745	150.94
601.953	144.94
602.162	140.94
602.371	141.94
602.58	146.94
602.789	132.94
602.997	152.94
603.206	150.94
603.415	148.94
603.623	150.94
603.832	154.94
604.041	132.94
604.249	151.94
604.458	134.94
604.666	135.94
604.875	125.94
605.084	121.94
605.292	132.94
605.501	142.94
605.709	140.94
605.918	125.94
606.126	139.94
606.334	143.94
606.543	123.94
606.751	136.94
606.96	129.94
607.168	128.94
607.376	143.94
607.585	136.94
607.793	136.94
608.001	151.94
608.21	140.94
608.418	126.94
608.626	134.94
608.834	133.94
609.043	136.94
609.251	148.94
609.459	132.94
609.667	150.94
609.875	128.94
610.083	131.94
610.291	153.94
610.499	147.94
610.707	128.94
610.916	142.94
611.124	139.94
611.332	153.94
611.54	148.94
611.748	132.94
611.955	128.94
612.163	145.94
612.371	148.94
612.579	148.94
612.787	141.94
612.995	154.94
613.203	142.94
613.411	139.94
613.618	132.94
613.826	142.94
614.034	149.94
614.242	142.94
614.449	137.94
614.657	134.94
614.865	148.94
615.072	132.94
615.28	139.94
615.488	128.94
615.695	136.94
615.903	123.94
616.111	143.94
616.318	153.94
616.526	144.94
616.733	147.94
616.941	126.94
617.148	133.94
617.356	136.94
617.563	140.94
617.771	130.94
617.978	155.94
618.185	150.94
618.393	142.94
618.6	136.94
618.807	145.94
619.015	141.94
619.222	132.94
619.429	137.94
619.637	110.94
619.844	130.94
620.051	125.94
620.258	135.94
620.466	126.94
620.673	126.94
620.88	140.94
621.087	134.94
621.294	144.94
621.501	135.94
621.708	130.94
621.915	135.94
622.122	139.94
622.329	124.94
622.536	130.94
622.743	142.94
622.95	133.94
623.157	135.94
623.364	124.94
623.571	126.94
623.778	125.94
623.985	128.94
624.192	131.94
624.399	136.94
624.606	120.94
624.812	128.94
625.019	126.94
625.226	125.94
625.433	134.94
625.639	136.94
625.846	145.94
626.053	124.94
626.259	125.94
626.466	136.94
626.673	126.94
626.879	129.94
627.086	124.94
627.293	115.94
627.499	126.94
627.706	122.94
627.912	119.94
628.119	132.94
628.325	138.94
628.532	138.94
628.738	129.94
628.945	133.94
629.151	123.94
629.357	114.94
629.564	122.94
629.77	114.94
629.976	120.94
630.183	118.94
630.389	122.94
630.595	118.94
630.802	122.94
631.008	112.94
631.214	118.94
631.42	113.94
631.627	117.94
631.833	124.94
632.039	112.94
632.245	116.94
632.451	118.94
632.657	118.94
632.863	137.94
633.069	123.94
633.275	120.94
633.481	117.94
633.688	110.94
633.893	118.94
634.099	107.94
634.305	122.94
634.511	112.94
634.717	123.94
634.923	121.94
635.129	131.94
635.335	119.94
635.541	114.94
635.747	109.94
635.952	108.94
636.158	128.94
636.364	122.94
636.57	133.94
636.775	130.94
636.981	129.94
637.187	114.94
637.392	112.94
637.598	124.94
637.804	120.94
638.009	94.94
638.215	117.94
638.421	107.94
638.626	127.94
638.832	122.94
639.037	102.94
639.243	112.94
639.448	110.94
639.654	108.94
639.859	86.94
640.065	121.94
640.27	119.94
640.475	102.94
640.681	108.94
640.886	106.94
641.091	116.94
641.297	121.94
641.502	113.94
641.707	121.94
641.913	110.94
642.118	123.94
642.323	108.94
642.528	114.94
642.733	114.94
642.939	115.94
643.144	111.94
643.349	118.94
643.554	105.94
643.759	116.94
643.964	111.94
644.169	120.94
644.374	120.94
644.579	117.94
644.784	116.94
644.989	116.94
645.194	114.94
645.399	102.94
645.604	110.94
645.809	122.94
646.014	112.94
646.219	112.94
646.423	111.94
646.628	117.94
646.833	100.94
647.038	122.94
647.243	120.94
647.447	119.94
647.652	120.94
647.857	105.94
648.062	116.94
648.266	115.94
648.471	117.94
648.676	110.94
648.88	110.94
649.085	120.94
649.289	124.94
649.494	116.94
649.698	134.94
649.903	128.94
650.107	117.94
650.312	107.94
650.516	105.94
650.721	132.94
650.925	98.94
651.13	116.94
651.334	113.94
651.539	93.94
651.743	109.94
651.947	97.94
652.152	85.94
652.356	107.94
652.56	113.94
652.764	122.94
652.969	109.94
653.173	99.94
653.377	109.94
653.581	95.94
653.785	115.94
653.99	102.94
654.194	105.94
654.398	108.94
654.602	116.94
654.806	110.94
655.01	122.94
655.214	128.94
655.418	117.94
655.622	100.94
655.826	91.94
656.03	102.94
656.234	117.94
656.438	97.94
656.642	103.94
656.846	110.94
657.049	109.94
657.253	108.94
657.457	97.94
657.661	106.94
657.865	101.94
658.068	84.94
658.272	97.94
658.476	101.94
658.68	90.94
658.883	97.94
659.087	98.94
659.291	90.94
659.494	94.94
659.698	82.94
659.901	80.94
660.105	92.94
660.309	85.94
660.512	95.94
660.716	76.94
660.919	85.94
661.123	91.94
661.326	82.94
661.53	84.94
661.733	87.94
661.936	86.94
662.14	92.94
662.343	82.94
662.546	76.94
662.75	93.94
662.953	95.94
663.156	77.94
663.36	81.94
663.563	97.94
663.766	73.94
663.969	82.94
664.173	75.94
664.376	77.94
664.579	76.94
664.782	83.94
664.985	71.94
665.188	82.94
665.391	90.94
665.594	85.94
665.797	75.94
666	74.94
666.203	83.94
666.406	81.94
666.609	76.94
666.812	66.94
667.015	97.94
667.218	76.94
667.421	93.94
667.624	78.94
667.827	80.94
668.03	74.94
668.232	77.94
668.435	89.94
668.638	76.94
668.841	80.94
669.043	77.94
669.246	89.94
669.449	73.94
669.651	68.94
669.854	79.94
670.057	82.94
670.259	76.94
670.462	82.94
670.665	78.94
670.867	81.94
671.07	69.94
671.272	87.94
671.475	83.94
671.677	74.94
671.88	79.94
672.082	86.94
672.284	75.94
672.487	82.94
672.689	78.94
672.892	73.94
