Data from 1966.PennyLincolnUp.Lamp.En5.5.200Scan.071719.P1._HRD10591_14-13-19-914.txt Node
Date: Thu Jul 18 14:13:19 EDT 2019
User: cochatt
Spectrometer: HR+D1059
Trigger mode: 1
Integration Time (sec): 1.000000E-1
Scans to average: 1
Electric dark correction enabled: true
Nonlinearity correction enabled: false
Boxcar width: 0
XAxis mode: Wavelengths
Number of Pixels in Spectrum: 2048
>>>>>Begin Spectral Data<<<<<
223.165	-16.25
223.4	-16.25
223.635	-16.25
223.869	-34.25
224.104	-9.25
224.338	-23.25
224.573	-20.25
224.808	-7.25
225.042	-7.25
225.277	-15.25
225.511	-1.25
225.746	17.75
225.98	13.75
226.215	18.75
226.449	6.75
226.683	17.75
226.918	24.75
227.152	34.75
227.387	36.75
227.621	45.75
227.856	37.75
228.09	57.75
228.324	60.75
228.559	46.75
228.793	63.75
229.027	81.75
229.262	56.75
229.496	90.75
229.73	79.75
229.964	108.75
230.199	98.75
230.433	99.75
230.667	76.75
230.901	83.75
231.136	75.75
231.37	106.75
231.604	97.75
231.838	75.75
232.072	100.75
232.306	86.75
232.541	89.75
232.775	90.75
233.009	90.75
233.243	99.75
233.477	90.75
233.711	93.75
233.945	101.75
234.179	94.75
234.413	93.75
234.647	105.75
234.881	87.75
235.115	88.75
235.349	110.75
235.583	92.75
235.817	82.75
236.051	91.75
236.285	88.75
236.519	85.75
236.753	93.75
236.987	104.75
237.221	119.75
237.455	148.75
237.689	106.75
237.922	95.75
238.156	101.75
238.39	104.75
238.624	85.75
238.858	94.75
239.091	93.75
239.325	98.75
239.559	86.75
239.793	79.75
240.027	96.75
240.26	104.75
240.494	92.75
240.728	101.75
240.961	106.75
241.195	101.75
241.429	105.75
241.662	106.75
241.896	114.75
242.13	114.75
242.363	100.75
242.597	104.75
242.83	90.75
243.064	82.75
243.298	95.75
243.531	108.75
243.765	87.75
243.998	94.75
244.232	100.75
244.465	99.75
244.699	94.75
244.932	123.75
245.166	108.75
245.399	99.75
245.633	98.75
245.866	94.75
246.099	101.75
246.333	100.75
246.566	88.75
246.8	109.75
247.033	114.75
247.266	109.75
247.5	105.75
247.733	109.75
247.966	116.75
248.2	123.75
248.433	115.75
248.666	114.75
248.899	117.75
249.133	122.75
249.366	121.75
249.599	138.75
249.832	130.75
250.066	119.75
250.299	122.75
250.532	111.75
250.765	126.75
250.998	131.75
251.231	135.75
251.465	128.75
251.698	112.75
251.931	119.75
252.164	124.75
252.397	118.75
252.63	136.75
252.863	127.75
253.096	124.75
253.329	139.75
253.562	127.75
253.795	130.75
254.028	142.75
254.261	128.75
254.494	123.75
254.727	157.75
254.96	156.75
255.193	151.75
255.426	156.75
255.659	135.75
255.892	138.75
256.124	137.75
256.357	139.75
256.59	118.75
256.823	125.75
257.056	137.75
257.289	127.75
257.521	138.75
257.754	157.75
257.987	124.75
258.22	136.75
258.452	126.75
258.685	129.75
258.918	128.75
259.151	122.75
259.383	119.75
259.616	135.75
259.849	134.75
260.081	140.75
260.314	145.75
260.547	134.75
260.779	157.75
261.012	136.75
261.244	128.75
261.477	134.75
261.71	138.75
261.942	131.75
262.175	149.75
262.407	144.75
262.64	132.75
262.872	132.75
263.105	136.75
263.337	114.75
263.57	117.75
263.802	132.75
264.035	127.75
264.267	127.75
264.499	123.75
264.732	136.75
264.964	134.75
265.197	135.75
265.429	133.75
265.661	133.75
265.894	124.75
266.126	136.75
266.358	130.75
266.591	136.75
266.823	139.75
267.055	130.75
267.287	130.75
267.52	143.75
267.752	135.75
267.984	149.75
268.216	156.75
268.448	145.75
268.681	148.75
268.913	146.75
269.145	152.75
269.377	154.75
269.609	145.75
269.841	139.75
270.073	159.75
270.306	183.75
270.538	192.75
270.77	170.75
271.002	175.75
271.234	152.75
271.466	168.75
271.698	150.75
271.93	157.75
272.162	159.75
272.394	182.75
272.626	190.75
272.858	171.75
273.09	157.75
273.322	163.75
273.553	151.75
273.785	152.75
274.017	163.75
274.249	159.75
274.481	151.75
274.713	160.75
274.945	157.75
275.176	150.75
275.408	143.75
275.64	160.75
275.872	149.75
276.104	160.75
276.335	157.75
276.567	157.75
276.799	175.75
277.031	156.75
277.262	168.75
277.494	198.75
277.726	162.75
277.957	140.75
278.189	158.75
278.421	169.75
278.652	138.75
278.884	150.75
279.115	150.75
279.347	146.75
279.579	152.75
279.81	152.75
280.042	147.75
280.273	162.75
280.505	155.75
280.736	154.75
280.968	156.75
281.199	168.75
281.431	154.75
281.662	158.75
281.894	144.75
282.125	155.75
282.356	164.75
282.588	170.75
282.819	177.75
283.051	148.75
283.282	152.75
283.513	155.75
283.745	171.75
283.976	156.75
284.207	157.75
284.439	161.75
284.67	152.75
284.901	153.75
285.132	152.75
285.364	157.75
285.595	159.75
285.826	137.75
286.057	158.75
286.288	152.75
286.52	165.75
286.751	155.75
286.982	171.75
287.213	158.75
287.444	166.75
287.675	162.75
287.906	155.75
288.138	174.75
288.369	166.75
288.6	160.75
288.831	165.75
289.062	185.75
289.293	159.75
289.524	186.75
289.755	164.75
289.986	169.75
290.217	167.75
290.448	167.75
290.679	185.75
290.91	162.75
291.141	168.75
291.371	167.75
291.602	160.75
291.833	156.75
292.064	180.75
292.295	159.75
292.526	163.75
292.757	155.75
292.987	157.75
293.218	153.75
293.449	171.75
293.68	159.75
293.91	158.75
294.141	169.75
294.372	167.75
294.603	165.75
294.833	157.75
295.064	170.75
295.295	152.75
295.525	162.75
295.756	186.75
295.987	178.75
296.217	178.75
296.448	173.75
296.679	169.75
296.909	166.75
297.14	163.75
297.37	176.75
297.601	167.75
297.831	157.75
298.062	197.75
298.292	182.75
298.523	171.75
298.753	158.75
298.984	196.75
299.214	170.75
299.445	165.75
299.675	173.75
299.905	167.75
300.136	180.75
300.366	170.75
300.597	160.75
300.827	182.75
301.057	194.75
301.288	185.75
301.518	184.75
301.748	175.75
301.979	168.75
302.209	170.75
302.439	187.75
302.669	182.75
302.9	200.75
303.13	156.75
303.36	176.75
303.59	183.75
303.82	170.75
304.051	193.75
304.281	180.75
304.511	152.75
304.741	170.75
304.971	198.75
305.201	178.75
305.431	202.75
305.661	172.75
305.891	187.75
306.121	198.75
306.352	169.75
306.582	180.75
306.812	167.75
307.042	198.75
307.272	178.75
307.502	188.75
307.731	179.75
307.961	186.75
308.191	191.75
308.421	173.75
308.651	183.75
308.881	189.75
309.111	196.75
309.341	186.75
309.571	196.75
309.8	206.75
310.03	222.75
310.26	201.75
310.49	212.75
310.72	205.75
310.949	214.75
311.179	198.75
311.409	212.75
311.639	198.75
311.868	193.75
312.098	196.75
312.328	203.75
312.557	219.75
312.787	208.75
313.017	215.75
313.246	201.75
313.476	184.75
313.706	209.75
313.935	201.75
314.165	206.75
314.394	213.75
314.624	220.75
314.853	216.75
315.083	210.75
315.312	199.75
315.542	188.75
315.771	193.75
316.001	199.75
316.23	182.75
316.46	183.75
316.689	201.75
316.919	207.75
317.148	199.75
317.377	214.75
317.607	195.75
317.836	208.75
318.065	194.75
318.295	195.75
318.524	208.75
318.753	200.75
318.983	219.75
319.212	214.75
319.441	201.75
319.67	203.75
319.9	196.75
320.129	205.75
320.358	207.75
320.587	179.75
320.816	209.75
321.046	214.75
321.275	208.75
321.504	211.75
321.733	182.75
321.962	196.75
322.191	218.75
322.42	211.75
322.649	231.75
322.878	224.75
323.108	229.75
323.337	239.75
323.566	257.75
323.795	261.75
324.024	266.75
324.253	322.75
324.482	455.75
324.71	710.75
324.939	937.75
325.168	758.75
325.397	407.75
325.626	279.75
325.855	241.75
326.084	245.75
326.313	235.75
326.542	252.75
326.77	259.75
326.999	313.75
327.228	444.75
327.457	614.75
327.686	696.75
327.914	464.75
328.143	330.75
328.372	281.75
328.6	268.75
328.829	281.75
329.058	280.75
329.287	292.75
329.515	265.75
329.744	262.75
329.972	250.75
330.201	276.75
330.43	290.75
330.658	303.75
330.887	326.75
331.115	292.75
331.344	244.75
331.572	259.75
331.801	250.75
332.03	248.75
332.258	242.75
332.486	224.75
332.715	237.75
332.943	220.75
333.172	222.75
333.4	231.75
333.629	250.75
333.857	244.75
334.085	253.75
334.314	278.75
334.542	289.75
334.771	290.75
334.999	244.75
335.227	247.75
335.455	222.75
335.684	228.75
335.912	221.75
336.14	221.75
336.369	232.75
336.597	226.75
336.825	249.75
337.053	220.75
337.281	221.75
337.51	227.75
337.738	229.75
337.966	220.75
338.194	220.75
338.422	239.75
338.65	221.75
338.878	246.75
339.106	209.75
339.334	223.75
339.562	215.75
339.79	211.75
340.018	202.75
340.246	219.75
340.474	222.75
340.702	230.75
340.93	214.75
341.158	209.75
341.386	206.75
341.614	215.75
341.842	212.75
342.07	214.75
342.298	201.75
342.526	192.75
342.754	223.75
342.981	219.75
343.209	209.75
343.437	213.75
343.665	207.75
343.893	217.75
344.12	235.75
344.348	225.75
344.576	228.75
344.804	209.75
345.031	240.75
345.259	229.75
345.487	234.75
345.714	233.75
345.942	223.75
346.17	213.75
346.397	200.75
346.625	213.75
346.853	212.75
347.08	211.75
347.308	219.75
347.535	224.75
347.763	206.75
347.99	209.75
348.218	215.75
348.445	212.75
348.673	226.75
348.9	217.75
349.128	222.75
349.355	211.75
349.583	213.75
349.81	208.75
350.037	192.75
350.265	204.75
350.492	206.75
350.72	204.75
350.947	202.75
351.174	213.75
351.402	204.75
351.629	206.75
351.856	220.75
352.083	215.75
352.311	233.75
352.538	241.75
352.765	201.75
352.992	197.75
353.22	219.75
353.447	212.75
353.674	196.75
353.901	202.75
354.128	197.75
354.355	186.75
354.583	199.75
354.81	212.75
355.037	202.75
355.264	206.75
355.491	211.75
355.718	188.75
355.945	211.75
356.172	207.75
356.399	205.75
356.626	197.75
356.853	186.75
357.08	191.75
357.307	206.75
357.534	205.75
357.761	194.75
357.988	191.75
358.215	202.75
358.441	204.75
358.668	191.75
358.895	199.75
359.122	202.75
359.349	192.75
359.576	224.75
359.802	240.75
360.029	233.75
360.256	222.75
360.483	223.75
360.709	221.75
360.936	212.75
361.163	207.75
361.39	223.75
361.616	221.75
361.843	218.75
362.07	210.75
362.296	225.75
362.523	199.75
362.749	201.75
362.976	206.75
363.203	184.75
363.429	198.75
363.656	204.75
363.882	187.75
364.109	206.75
364.335	205.75
364.562	209.75
364.788	218.75
365.015	205.75
365.241	209.75
365.468	204.75
365.694	208.75
365.92	213.75
366.147	198.75
366.373	196.75
366.599	184.75
366.826	200.75
367.052	186.75
367.278	200.75
367.505	200.75
367.731	212.75
367.957	205.75
368.184	204.75
368.41	201.75
368.636	218.75
368.862	217.75
369.089	215.75
369.315	216.75
369.541	218.75
369.767	204.75
369.993	212.75
370.219	205.75
370.445	204.75
370.672	205.75
370.898	212.75
371.124	208.75
371.35	212.75
371.576	228.75
371.802	203.75
372.028	198.75
372.254	207.75
372.48	204.75
372.706	197.75
372.932	186.75
373.158	201.75
373.384	203.75
373.61	206.75
373.835	214.75
374.061	205.75
374.287	194.75
374.513	195.75
374.739	203.75
374.965	194.75
375.191	196.75
375.416	197.75
375.642	196.75
375.868	201.75
376.094	203.75
376.319	194.75
376.545	186.75
376.771	192.75
376.997	204.75
377.222	200.75
377.448	192.75
377.674	184.75
377.899	193.75
378.125	186.75
378.35	212.75
378.576	195.75
378.802	204.75
379.027	198.75
379.253	195.75
379.478	200.75
379.704	202.75
379.929	205.75
380.155	201.75
380.38	194.75
380.606	198.75
380.831	201.75
381.057	203.75
381.282	208.75
381.507	192.75
381.733	206.75
381.958	212.75
382.184	217.75
382.409	201.75
382.634	202.75
382.86	199.75
383.085	189.75
383.31	203.75
383.535	211.75
383.761	190.75
383.986	214.75
384.211	196.75
384.436	200.75
384.662	230.75
384.887	205.75
385.112	214.75
385.337	203.75
385.562	219.75
385.787	221.75
386.013	231.75
386.238	222.75
386.463	220.75
386.688	229.75
386.913	210.75
387.138	213.75
387.363	218.75
387.588	211.75
387.813	213.75
388.038	197.75
388.263	214.75
388.488	217.75
388.713	223.75
388.938	222.75
389.163	219.75
389.387	215.75
389.612	205.75
389.837	207.75
390.062	213.75
390.287	210.75
390.512	202.75
390.736	194.75
390.961	219.75
391.186	212.75
391.411	199.75
391.636	224.75
391.86	203.75
392.085	222.75
392.31	207.75
392.534	206.75
392.759	222.75
392.984	216.75
393.208	235.75
393.433	212.75
393.658	215.75
393.882	210.75
394.107	232.75
394.331	219.75
394.556	208.75
394.78	209.75
395.005	219.75
395.229	229.75
395.454	230.75
395.678	223.75
395.903	223.75
396.127	231.75
396.352	221.75
396.576	226.75
396.801	230.75
397.025	226.75
397.249	229.75
397.474	223.75
397.698	220.75
397.922	231.75
398.147	220.75
398.371	228.75
398.595	241.75
398.82	231.75
399.044	248.75
399.268	264.75
399.492	279.75
399.717	279.75
399.941	290.75
400.165	289.75
400.389	284.75
400.613	262.75
400.837	267.75
401.062	250.75
401.286	232.75
401.51	238.75
401.734	229.75
401.958	243.75
402.182	241.75
402.406	236.75
402.63	265.75
402.854	246.75
403.078	252.75
403.302	227.75
403.526	243.75
403.75	263.75
403.974	260.75
404.198	279.75
404.422	242.75
404.645	256.75
404.869	254.75
405.093	282.75
405.317	273.75
405.541	293.75
405.765	299.75
405.988	279.75
406.212	270.75
406.436	280.75
406.66	291.75
406.883	270.75
407.107	298.75
407.331	278.75
407.555	331.75
407.778	294.75
408.002	303.75
408.226	276.75
408.449	262.75
408.673	269.75
408.896	281.75
409.12	299.75
409.344	270.75
409.567	270.75
409.791	252.75
410.014	252.75
410.238	256.75
410.461	262.75
410.685	254.75
410.908	256.75
411.132	276.75
411.355	278.75
411.578	281.75
411.802	250.75
412.025	247.75
412.249	252.75
412.472	260.75
412.695	276.75
412.919	279.75
413.142	251.75
413.365	246.75
413.589	240.75
413.812	240.75
414.035	254.75
414.258	256.75
414.482	248.75
414.705	238.75
414.928	231.75
415.151	242.75
415.374	233.75
415.597	242.75
415.821	251.75
416.044	242.75
416.267	227.75
416.49	214.75
416.713	235.75
416.936	248.75
417.159	256.75
417.382	236.75
417.605	235.75
417.828	250.75
418.051	272.75
418.274	260.75
418.497	240.75
418.72	237.75
418.943	236.75
419.166	246.75
419.389	246.75
419.611	248.75
419.834	254.75
420.057	240.75
420.28	257.75
420.503	245.75
420.726	244.75
420.948	246.75
421.171	261.75
421.394	299.75
421.617	253.75
421.839	251.75
422.062	243.75
422.285	242.75
422.507	278.75
422.73	290.75
422.953	291.75
423.175	254.75
423.398	273.75
423.621	277.75
423.843	277.75
424.066	266.75
424.288	278.75
424.511	287.75
424.733	308.75
424.956	326.75
425.178	302.75
425.401	294.75
425.623	332.75
425.846	272.75
426.068	261.75
426.291	250.75
426.513	253.75
426.735	276.75
426.958	292.75
427.18	325.75
427.402	379.75
427.625	412.75
427.847	354.75
428.069	297.75
428.292	291.75
428.514	256.75
428.736	264.75
428.958	260.75
429.181	246.75
429.403	248.75
429.625	234.75
429.847	267.75
430.069	294.75
430.292	302.75
430.514	250.75
430.736	245.75
430.958	239.75
431.18	226.75
431.402	233.75
431.624	231.75
431.846	229.75
432.068	219.75
432.29	220.75
432.512	230.75
432.734	233.75
432.956	246.75
433.178	250.75
433.4	229.75
433.622	244.75
433.844	242.75
434.066	244.75
434.287	229.75
434.509	231.75
434.731	243.75
434.953	258.75
435.175	263.75
435.397	255.75
435.618	277.75
435.84	286.75
436.062	318.75
436.284	332.75
436.505	271.75
436.727	262.75
436.949	259.75
437.17	247.75
437.392	248.75
437.614	266.75
437.835	256.75
438.057	291.75
438.278	329.75
438.5	323.75
438.721	355.75
438.943	345.75
439.165	278.75
439.386	263.75
439.608	282.75
439.829	268.75
440.05	288.75
440.272	299.75
440.493	273.75
440.715	261.75
440.936	260.75
441.158	260.75
441.379	237.75
441.6	244.75
441.822	267.75
442.043	272.75
442.264	320.75
442.486	319.75
442.707	280.75
442.928	272.75
443.149	266.75
443.371	268.75
443.592	296.75
443.813	331.75
444.034	361.75
444.255	299.75
444.476	269.75
444.698	261.75
444.919	276.75
445.14	369.75
445.361	324.75
445.582	310.75
445.803	315.75
446.024	359.75
446.245	356.75
446.466	339.75
446.687	280.75
446.908	235.75
447.129	242.75
447.35	246.75
447.571	227.75
447.792	230.75
448.013	248.75
448.234	249.75
448.455	288.75
448.675	333.75
448.896	355.75
449.117	312.75
449.338	273.75
449.559	326.75
449.779	353.75
450	286.75
450.221	269.75
450.442	249.75
450.662	242.75
450.883	232.75
451.104	276.75
451.324	248.75
451.545	250.75
451.766	225.75
451.986	228.75
452.207	251.75
452.428	239.75
452.648	232.75
452.869	229.75
453.089	234.75
453.31	237.75
453.53	232.75
453.751	216.75
453.971	244.75
454.192	250.75
454.412	240.75
454.633	210.75
454.853	242.75
455.073	216.75
455.294	232.75
455.514	260.75
455.734	245.75
455.955	231.75
456.175	227.75
456.395	194.75
456.616	215.75
456.836	236.75
457.056	218.75
457.276	208.75
457.497	219.75
457.717	214.75
457.937	215.75
458.157	212.75
458.377	215.75
458.598	249.75
458.818	270.75
459.038	310.75
459.258	291.75
459.478	244.75
459.698	243.75
459.918	223.75
460.138	238.75
460.358	236.75
460.578	257.75
460.798	242.75
461.018	248.75
461.238	236.75
461.458	234.75
461.678	236.75
461.898	242.75
462.118	249.75
462.338	233.75
462.558	244.75
462.777	242.75
462.997	268.75
463.217	250.75
463.437	268.75
463.657	250.75
463.876	250.75
464.096	256.75
464.316	252.75
464.536	264.75
464.755	267.75
464.975	263.75
465.195	285.75
465.414	318.75
465.634	291.75
465.854	238.75
466.073	246.75
466.293	229.75
466.512	242.75
466.732	229.75
466.951	226.75
467.171	238.75
467.391	251.75
467.61	246.75
467.829	242.75
468.049	226.75
468.268	231.75
468.488	227.75
468.707	224.75
468.927	217.75
469.146	215.75
469.365	233.75
469.585	218.75
469.804	239.75
470.023	236.75
470.243	259.75
470.462	221.75
470.681	246.75
470.901	243.75
471.12	234.75
471.339	226.75
471.558	237.75
471.777	231.75
471.997	220.75
472.216	255.75
472.435	285.75
472.654	242.75
472.873	243.75
473.092	243.75
473.311	225.75
473.53	226.75
473.749	250.75
473.968	268.75
474.187	295.75
474.406	289.75
474.625	267.75
474.844	220.75
475.063	227.75
475.282	231.75
475.501	245.75
475.72	239.75
475.939	235.75
476.158	225.75
476.377	239.75
476.596	246.75
476.814	251.75
477.033	264.75
477.252	242.75
477.471	235.75
477.69	246.75
477.908	238.75
478.127	258.75
478.346	246.75
478.564	244.75
478.783	249.75
479.002	266.75
479.22	254.75
479.439	262.75
479.658	290.75
479.876	270.75
480.095	287.75
480.313	282.75
480.532	279.75
480.751	283.75
480.969	284.75
481.188	331.75
481.406	356.75
481.624	291.75
481.843	270.75
482.061	261.75
482.28	277.75
482.498	271.75
482.717	275.75
482.935	281.75
483.153	250.75
483.372	282.75
483.59	272.75
483.808	266.75
484.027	282.75
484.245	262.75
484.463	270.75
484.681	289.75
484.9	286.75
485.118	279.75
485.336	277.75
485.554	275.75
485.772	280.75
485.99	259.75
486.209	276.75
486.427	287.75
486.645	283.75
486.863	295.75
487.081	276.75
487.299	266.75
487.517	286.75
487.735	291.75
487.953	279.75
488.171	296.75
488.389	286.75
488.607	280.75
488.825	279.75
489.043	291.75
489.261	288.75
489.479	279.75
489.696	284.75
489.914	293.75
490.132	294.75
490.35	308.75
490.568	314.75
490.786	290.75
491.003	309.75
491.221	325.75
491.439	322.75
491.657	311.75
491.874	334.75
492.092	318.75
492.31	331.75
492.527	330.75
492.745	341.75
492.963	336.75
493.18	325.75
493.398	329.75
493.615	325.75
493.833	331.75
494.05	343.75
494.268	352.75
494.485	343.75
494.703	337.75
494.92	329.75
495.138	322.75
495.355	347.75
495.573	348.75
495.79	327.75
496.008	340.75
496.225	320.75
496.442	341.75
496.66	345.75
496.877	328.75
497.094	332.75
497.312	327.75
497.529	346.75
497.746	327.75
497.963	356.75
498.181	343.75
498.398	347.75
498.615	361.75
498.832	340.75
499.049	337.75
499.267	373.75
499.484	378.75
499.701	380.75
499.918	418.75
500.135	411.75
500.352	422.75
500.569	454.75
500.786	448.75
501.003	434.75
501.22	425.75
501.437	404.75
501.654	402.75
501.871	415.75
502.088	396.75
502.305	371.75
502.522	375.75
502.739	347.75
502.956	331.75
503.172	334.75
503.389	318.75
503.606	343.75
503.823	331.75
504.04	336.75
504.256	335.75
504.473	323.75
504.69	336.75
504.907	319.75
505.123	322.75
505.34	322.75
505.557	316.75
505.773	328.75
505.99	325.75
506.207	315.75
506.423	299.75
506.64	311.75
506.856	306.75
507.073	294.75
507.289	298.75
507.506	307.75
507.722	313.75
507.939	329.75
508.155	308.75
508.372	296.75
508.588	309.75
508.805	280.75
509.021	325.75
509.238	298.75
509.454	299.75
509.67	292.75
509.887	302.75
510.103	309.75
510.319	310.75
510.536	381.75
510.752	681.75
510.968	520.75
511.184	292.75
511.401	282.75
511.617	293.75
511.833	281.75
512.049	290.75
512.265	283.75
512.481	278.75
512.698	274.75
512.914	283.75
513.13	284.75
513.346	279.75
513.562	281.75
513.778	284.75
513.994	271.75
514.21	295.75
514.426	306.75
514.642	314.75
514.858	331.75
515.074	350.75
515.29	446.75
515.506	739.75
515.721	578.75
515.937	342.75
516.153	308.75
516.369	312.75
516.585	306.75
516.801	278.75
517.016	283.75
517.232	296.75
517.448	271.75
517.664	270.75
517.879	285.75
518.095	273.75
518.311	278.75
518.527	296.75
518.742	266.75
518.958	270.75
519.173	287.75
519.389	280.75
519.605	272.75
519.82	278.75
520.036	297.75
520.251	308.75
520.467	322.75
520.682	315.75
520.898	312.75
521.113	336.75
521.329	347.75
521.544	396.75
521.76	563.75
521.975	1004.75
522.19	982.75
522.406	477.75
522.621	343.75
522.836	312.75
523.052	294.75
523.267	284.75
523.482	276.75
523.698	276.75
523.913	249.75
524.128	276.75
524.343	267.75
524.559	245.75
524.774	248.75
524.989	255.75
525.204	256.75
525.419	258.75
525.634	234.75
525.849	236.75
526.064	239.75
526.28	229.75
526.495	254.75
526.71	228.75
526.925	235.75
527.14	235.75
527.355	242.75
527.57	239.75
527.785	229.75
527.999	227.75
528.214	229.75
528.429	240.75
528.644	238.75
528.859	244.75
529.074	239.75
529.289	266.75
529.503	318.75
529.718	288.75
529.933	271.75
530.148	230.75
530.363	232.75
530.577	238.75
530.792	237.75
531.007	226.75
531.221	231.75
531.436	221.75
531.651	223.75
531.865	224.75
532.08	233.75
532.295	252.75
532.509	218.75
532.724	222.75
532.938	232.75
533.153	218.75
533.367	225.75
533.582	227.75
533.796	225.75
534.011	224.75
534.225	220.75
534.44	224.75
534.654	224.75
534.868	233.75
535.083	236.75
535.297	216.75
535.511	216.75
535.726	224.75
535.94	246.75
536.154	224.75
536.369	213.75
536.583	210.75
536.797	221.75
537.011	221.75
537.225	224.75
537.44	215.75
537.654	220.75
537.868	214.75
538.082	237.75
538.296	223.75
538.51	236.75
538.724	236.75
538.938	223.75
539.153	239.75
539.367	242.75
539.581	223.75
539.795	212.75
540.009	219.75
540.222	231.75
540.436	219.75
540.65	230.75
540.864	229.75
541.078	247.75
541.292	242.75
541.506	222.75
541.72	223.75
541.934	228.75
542.147	216.75
542.361	220.75
542.575	239.75
542.789	227.75
543.002	212.75
543.216	231.75
543.43	218.75
543.644	216.75
543.857	224.75
544.071	224.75
544.285	231.75
544.498	216.75
544.712	250.75
544.925	203.75
545.139	230.75
545.352	228.75
545.566	207.75
545.779	209.75
545.993	212.75
546.206	231.75
546.42	224.75
546.633	206.75
546.847	214.75
547.06	216.75
547.274	214.75
547.487	229.75
547.7	222.75
547.914	207.75
548.127	219.75
548.34	216.75
548.554	216.75
548.767	216.75
548.98	221.75
549.193	213.75
549.407	218.75
549.62	216.75
549.833	233.75
550.046	214.75
550.259	207.75
550.473	207.75
550.686	220.75
550.899	204.75
551.112	199.75
551.325	215.75
551.538	214.75
551.751	219.75
551.964	215.75
552.177	203.75
552.39	216.75
552.603	218.75
552.816	212.75
553.029	221.75
553.242	218.75
553.455	209.75
553.667	226.75
553.88	218.75
554.093	238.75
554.306	223.75
554.519	215.75
554.732	220.75
554.944	218.75
555.157	187.75
555.37	209.75
555.583	210.75
555.795	193.75
556.008	207.75
556.221	188.75
556.433	198.75
556.646	218.75
556.859	207.75
557.071	189.75
557.284	205.75
557.496	198.75
557.709	186.75
557.921	182.75
558.134	201.75
558.346	198.75
558.559	199.75
558.771	188.75
558.984	176.75
559.196	194.75
559.409	171.75
559.621	182.75
559.833	180.75
560.046	198.75
560.258	181.75
560.47	191.75
560.683	182.75
560.895	195.75
561.107	190.75
561.32	200.75
561.532	178.75
561.744	185.75
561.956	179.75
562.168	202.75
562.381	198.75
562.593	203.75
562.805	189.75
563.017	196.75
563.229	198.75
563.441	201.75
563.653	192.75
563.865	194.75
564.077	204.75
564.289	204.75
564.501	186.75
564.713	214.75
564.925	212.75
565.137	211.75
565.349	203.75
565.561	216.75
565.773	194.75
565.985	213.75
566.197	212.75
566.408	217.75
566.62	209.75
566.832	218.75
567.044	214.75
567.255	205.75
567.467	230.75
567.679	236.75
567.891	232.75
568.102	248.75
568.314	228.75
568.526	200.75
568.737	230.75
568.949	212.75
569.161	210.75
569.372	203.75
569.584	198.75
569.795	187.75
570.007	201.75
570.218	211.75
570.43	226.75
570.641	192.75
570.853	180.75
571.064	186.75
571.276	185.75
571.487	170.75
571.698	172.75
571.91	162.75
572.121	168.75
572.333	166.75
572.544	164.75
572.755	171.75
572.966	186.75
573.178	189.75
573.389	156.75
573.6	178.75
573.811	174.75
574.023	156.75
574.234	173.75
574.445	171.75
574.656	163.75
574.867	171.75
575.078	186.75
575.289	167.75
575.501	164.75
575.712	178.75
575.923	162.75
576.134	189.75
576.345	166.75
576.556	166.75
576.767	166.75
576.978	145.75
577.188	167.75
577.399	176.75
577.61	168.75
577.821	162.75
578.032	159.75
578.243	189.75
578.454	347.75
578.665	237.75
578.875	162.75
579.086	158.75
579.297	166.75
579.508	162.75
579.718	189.75
579.929	156.75
580.14	159.75
580.35	166.75
580.561	165.75
580.772	158.75
580.982	164.75
581.193	164.75
581.403	175.75
581.614	159.75
581.825	159.75
582.035	145.75
582.246	174.75
582.456	160.75
582.667	164.75
582.877	158.75
583.087	156.75
583.298	158.75
583.508	159.75
583.719	162.75
583.929	154.75
584.139	150.75
584.35	139.75
584.56	142.75
584.77	158.75
584.981	159.75
585.191	154.75
585.401	162.75
585.611	162.75
585.821	153.75
586.032	168.75
586.242	155.75
586.452	155.75
586.662	150.75
586.872	143.75
587.082	155.75
587.292	144.75
587.502	158.75
587.713	140.75
587.923	128.75
588.133	157.75
588.343	156.75
588.553	149.75
588.762	157.75
588.972	163.75
589.182	178.75
589.392	165.75
589.602	154.75
589.812	180.75
590.022	170.75
590.232	153.75
590.441	155.75
590.651	175.75
590.861	159.75
591.071	153.75
591.281	167.75
591.49	162.75
591.7	152.75
591.91	152.75
592.119	161.75
592.329	150.75
592.539	168.75
592.748	165.75
592.958	166.75
593.167	163.75
593.377	160.75
593.587	160.75
593.796	157.75
594.006	147.75
594.215	168.75
594.424	166.75
594.634	162.75
594.843	155.75
595.053	172.75
595.262	158.75
595.472	139.75
595.681	150.75
595.89	165.75
596.1	153.75
596.309	163.75
596.518	156.75
596.727	157.75
596.937	156.75
597.146	145.75
597.355	141.75
597.564	142.75
597.774	143.75
597.983	153.75
598.192	148.75
598.401	148.75
598.61	150.75
598.819	144.75
599.028	140.75
599.237	148.75
599.446	158.75
599.655	158.75
599.864	147.75
600.073	142.75
600.282	150.75
600.491	143.75
600.7	134.75
600.909	152.75
601.118	144.75
601.327	134.75
601.536	140.75
601.745	159.75
601.953	143.75
602.162	137.75
602.371	163.75
602.58	154.75
602.789	152.75
602.997	144.75
603.206	140.75
603.415	148.75
603.623	143.75
603.832	138.75
604.041	138.75
604.249	130.75
604.458	128.75
604.666	148.75
604.875	156.75
605.084	146.75
605.292	140.75
605.501	134.75
605.709	148.75
605.918	135.75
606.126	136.75
606.334	150.75
606.543	143.75
606.751	137.75
606.96	147.75
607.168	148.75
607.376	135.75
607.585	158.75
607.793	142.75
608.001	141.75
608.21	143.75
608.418	134.75
608.626	148.75
608.834	152.75
609.043	126.75
609.251	131.75
609.459	138.75
609.667	120.75
609.875	148.75
610.083	142.75
610.291	145.75
610.499	141.75
610.707	127.75
610.916	139.75
611.124	140.75
611.332	138.75
611.54	150.75
611.748	140.75
611.955	138.75
612.163	137.75
612.371	137.75
612.579	134.75
612.787	144.75
612.995	150.75
613.203	141.75
613.411	143.75
613.618	133.75
613.826	130.75
614.034	143.75
614.242	137.75
614.449	145.75
614.657	146.75
614.865	139.75
615.072	145.75
615.28	146.75
615.488	145.75
615.695	148.75
615.903	145.75
616.111	154.75
616.318	146.75
616.526	126.75
616.733	151.75
616.941	130.75
617.148	136.75
617.356	144.75
617.563	142.75
617.771	131.75
617.978	120.75
618.185	135.75
618.393	139.75
618.6	128.75
618.807	133.75
619.015	134.75
619.222	149.75
619.429	136.75
619.637	150.75
619.844	139.75
620.051	128.75
620.258	130.75
620.466	135.75
620.673	142.75
620.88	135.75
621.087	126.75
621.294	141.75
621.501	132.75
621.708	137.75
621.915	143.75
622.122	150.75
622.329	133.75
622.536	131.75
622.743	124.75
622.95	128.75
623.157	121.75
623.364	128.75
623.571	144.75
623.778	127.75
623.985	134.75
624.192	138.75
624.399	126.75
624.606	128.75
624.812	120.75
625.019	134.75
625.226	128.75
625.433	135.75
625.639	119.75
625.846	136.75
626.053	123.75
626.259	123.75
626.466	136.75
626.673	142.75
626.879	117.75
627.086	141.75
627.293	127.75
627.499	132.75
627.706	123.75
627.912	142.75
628.119	130.75
628.325	140.75
628.532	123.75
628.738	117.75
628.945	116.75
629.151	111.75
629.357	118.75
629.564	132.75
629.77	122.75
629.976	119.75
630.183	120.75
630.389	122.75
630.595	123.75
630.802	130.75
631.008	118.75
631.214	127.75
631.42	124.75
631.627	125.75
631.833	128.75
632.039	132.75
632.245	118.75
632.451	132.75
632.657	134.75
632.863	113.75
633.069	109.75
633.275	126.75
633.481	106.75
633.688	126.75
633.893	124.75
634.099	117.75
634.305	124.75
634.511	126.75
634.717	114.75
634.923	106.75
635.129	104.75
635.335	122.75
635.541	121.75
635.747	120.75
635.952	116.75
636.158	127.75
636.364	126.75
636.57	126.75
636.775	118.75
636.981	103.75
637.187	111.75
637.392	122.75
637.598	112.75
637.804	130.75
638.009	124.75
638.215	115.75
638.421	136.75
638.626	119.75
638.832	107.75
639.037	128.75
639.243	110.75
639.448	126.75
639.654	118.75
639.859	120.75
640.065	114.75
640.27	120.75
640.475	111.75
640.681	116.75
640.886	112.75
641.091	115.75
641.297	123.75
641.502	120.75
641.707	117.75
641.913	110.75
642.118	129.75
642.323	116.75
642.528	113.75
642.733	122.75
642.939	107.75
643.144	98.75
643.349	115.75
643.554	112.75
643.759	108.75
643.964	119.75
644.169	111.75
644.374	108.75
644.579	103.75
644.784	114.75
644.989	116.75
645.194	100.75
645.399	116.75
645.604	104.75
645.809	124.75
646.014	121.75
646.219	126.75
646.423	104.75
646.628	121.75
646.833	116.75
647.038	109.75
647.243	99.75
647.447	118.75
647.652	128.75
647.857	123.75
648.062	101.75
648.266	116.75
648.471	115.75
648.676	119.75
648.88	120.75
649.085	131.75
649.289	91.75
649.494	122.75
649.698	117.75
649.903	128.75
650.107	110.75
650.312	103.75
650.516	119.75
650.721	118.75
650.925	118.75
651.13	112.75
651.334	104.75
651.539	120.75
651.743	120.75
651.947	122.75
652.152	107.75
652.356	114.75
652.56	111.75
652.764	108.75
652.969	121.75
653.173	103.75
653.377	107.75
653.581	113.75
653.785	107.75
653.99	113.75
654.194	117.75
654.398	103.75
654.602	101.75
654.806	100.75
655.01	102.75
655.214	107.75
655.418	111.75
655.622	116.75
655.826	114.75
656.03	108.75
656.234	123.75
656.438	108.75
656.642	111.75
656.846	112.75
657.049	101.75
657.253	103.75
657.457	94.75
657.661	114.75
657.865	91.75
658.068	80.75
658.272	93.75
658.476	90.75
658.68	88.75
658.883	86.75
659.087	98.75
659.291	88.75
659.494	91.75
659.698	93.75
659.901	82.75
660.105	89.75
660.309	96.75
660.512	81.75
660.716	90.75
660.919	79.75
661.123	90.75
661.326	74.75
661.53	73.75
661.733	81.75
661.936	94.75
662.14	88.75
662.343	70.75
662.546	81.75
662.75	63.75
662.953	93.75
663.156	87.75
663.36	81.75
663.563	78.75
663.766	77.75
663.969	90.75
664.173	77.75
664.376	94.75
664.579	83.75
664.782	88.75
664.985	77.75
665.188	71.75
665.391	70.75
665.594	74.75
665.797	84.75
666	75.75
666.203	80.75
666.406	95.75
666.609	90.75
666.812	85.75
667.015	79.75
667.218	80.75
667.421	75.75
667.624	89.75
667.827	95.75
668.03	93.75
668.232	82.75
668.435	82.75
668.638	72.75
668.841	86.75
669.043	85.75
669.246	78.75
669.449	88.75
669.651	77.75
669.854	81.75
670.057	71.75
670.259	71.75
670.462	85.75
670.665	72.75
670.867	73.75
671.07	97.75
671.272	92.75
671.475	87.75
671.677	92.75
671.88	86.75
672.082	66.75
672.284	79.75
672.487	86.75
672.689	82.75
672.892	91.75
