Data from 1966.PennyLincolnUp.Lamp.En5.5.200Scan.071719.P1._HRD10591_14-14-25-913.txt Node
Date: Thu Jul 18 14:14:25 EDT 2019
User: cochatt
Spectrometer: HR+D1059
Trigger mode: 1
Integration Time (sec): 1.000000E-1
Scans to average: 1
Electric dark correction enabled: true
Nonlinearity correction enabled: false
Boxcar width: 0
XAxis mode: Wavelengths
Number of Pixels in Spectrum: 2048
>>>>>Begin Spectral Data<<<<<
223.165	-27.31
223.4	-27.31
223.635	-27.31
223.869	-14.31
224.104	-26.31
224.338	-9.31
224.573	-15.31
224.808	-11.31
225.042	-4.31
225.277	-8.31
225.511	4.69
225.746	6.69
225.98	4.69
226.215	14.69
226.449	3.69
226.683	19.69
226.918	32.69
227.152	29.69
227.387	38.69
227.621	44.69
227.856	36.69
228.09	48.69
228.324	61.69
228.559	65.69
228.793	60.69
229.027	77.69
229.262	81.69
229.496	83.69
229.73	105.69
229.964	101.69
230.199	75.69
230.433	83.69
230.667	86.69
230.901	78.69
231.136	85.69
231.37	78.69
231.604	86.69
231.838	91.69
232.072	95.69
232.306	100.69
232.541	95.69
232.775	89.69
233.009	95.69
233.243	99.69
233.477	92.69
233.711	98.69
233.945	94.69
234.179	116.69
234.413	96.69
234.647	99.69
234.881	87.69
235.115	88.69
235.349	105.69
235.583	104.69
235.817	102.69
236.051	113.69
236.285	84.69
236.519	96.69
236.753	107.69
236.987	107.69
237.221	107.69
237.455	143.69
237.689	136.69
237.922	96.69
238.156	98.69
238.39	96.69
238.624	99.69
238.858	88.69
239.091	103.69
239.325	95.69
239.559	89.69
239.793	87.69
240.027	100.69
240.26	89.69
240.494	111.69
240.728	106.69
240.961	109.69
241.195	97.69
241.429	98.69
241.662	90.69
241.896	87.69
242.13	87.69
242.363	94.69
242.597	108.69
242.83	99.69
243.064	96.69
243.298	91.69
243.531	84.69
243.765	90.69
243.998	100.69
244.232	99.69
244.465	118.69
244.699	115.69
244.932	109.69
245.166	90.69
245.399	114.69
245.633	102.69
245.866	106.69
246.099	112.69
246.333	112.69
246.566	101.69
246.8	103.69
247.033	98.69
247.266	102.69
247.5	117.69
247.733	126.69
247.966	113.69
248.2	104.69
248.433	116.69
248.666	108.69
248.899	122.69
249.133	125.69
249.366	127.69
249.599	128.69
249.832	133.69
250.066	124.69
250.299	106.69
250.532	125.69
250.765	130.69
250.998	137.69
251.231	148.69
251.465	134.69
251.698	117.69
251.931	115.69
252.164	107.69
252.397	114.69
252.63	125.69
252.863	126.69
253.096	148.69
253.329	132.69
253.562	147.69
253.795	133.69
254.028	138.69
254.261	125.69
254.494	148.69
254.727	151.69
254.96	164.69
255.193	158.69
255.426	152.69
255.659	132.69
255.892	156.69
256.124	140.69
256.357	128.69
256.59	151.69
256.823	122.69
257.056	134.69
257.289	140.69
257.521	131.69
257.754	141.69
257.987	133.69
258.22	130.69
258.452	133.69
258.685	136.69
258.918	114.69
259.151	125.69
259.383	116.69
259.616	119.69
259.849	135.69
260.081	142.69
260.314	161.69
260.547	165.69
260.779	141.69
261.012	143.69
261.244	139.69
261.477	117.69
261.71	132.69
261.942	136.69
262.175	142.69
262.407	148.69
262.64	124.69
262.872	145.69
263.105	131.69
263.337	132.69
263.57	134.69
263.802	134.69
264.035	126.69
264.267	120.69
264.499	134.69
264.732	126.69
264.964	130.69
265.197	127.69
265.429	122.69
265.661	130.69
265.894	146.69
266.126	149.69
266.358	130.69
266.591	143.69
266.823	141.69
267.055	133.69
267.287	132.69
267.52	125.69
267.752	146.69
267.984	152.69
268.216	138.69
268.448	141.69
268.681	146.69
268.913	137.69
269.145	150.69
269.377	166.69
269.609	176.69
269.841	146.69
270.073	159.69
270.306	169.69
270.538	181.69
270.77	187.69
271.002	171.69
271.234	170.69
271.466	182.69
271.698	173.69
271.93	180.69
272.162	179.69
272.394	178.69
272.626	166.69
272.858	171.69
273.09	163.69
273.322	166.69
273.553	150.69
273.785	161.69
274.017	142.69
274.249	156.69
274.481	152.69
274.713	159.69
274.945	168.69
275.176	160.69
275.408	155.69
275.64	152.69
275.872	152.69
276.104	145.69
276.335	163.69
276.567	171.69
276.799	168.69
277.031	167.69
277.262	182.69
277.494	183.69
277.726	185.69
277.957	175.69
278.189	158.69
278.421	168.69
278.652	153.69
278.884	154.69
279.115	156.69
279.347	147.69
279.579	162.69
279.81	154.69
280.042	154.69
280.273	149.69
280.505	152.69
280.736	162.69
280.968	135.69
281.199	170.69
281.431	142.69
281.662	141.69
281.894	150.69
282.125	174.69
282.356	151.69
282.588	174.69
282.819	167.69
283.051	152.69
283.282	168.69
283.513	138.69
283.745	163.69
283.976	168.69
284.207	161.69
284.439	163.69
284.67	169.69
284.901	146.69
285.132	163.69
285.364	145.69
285.595	163.69
285.826	159.69
286.057	157.69
286.288	144.69
286.52	151.69
286.751	152.69
286.982	163.69
287.213	164.69
287.444	176.69
287.675	170.69
287.906	166.69
288.138	184.69
288.369	161.69
288.6	182.69
288.831	167.69
289.062	169.69
289.293	176.69
289.524	168.69
289.755	173.69
289.986	162.69
290.217	160.69
290.448	165.69
290.679	163.69
290.91	162.69
291.141	169.69
291.371	169.69
291.602	159.69
291.833	161.69
292.064	173.69
292.295	162.69
292.526	162.69
292.757	178.69
292.987	172.69
293.218	158.69
293.449	156.69
293.68	155.69
293.91	164.69
294.141	164.69
294.372	164.69
294.603	164.69
294.833	165.69
295.064	165.69
295.295	161.69
295.525	161.69
295.756	159.69
295.987	166.69
296.217	188.69
296.448	180.69
296.679	178.69
296.909	188.69
297.14	180.69
297.37	172.69
297.601	166.69
297.831	158.69
298.062	169.69
298.292	193.69
298.523	156.69
298.753	182.69
298.984	197.69
299.214	165.69
299.445	172.69
299.675	176.69
299.905	186.69
300.136	176.69
300.366	175.69
300.597	173.69
300.827	182.69
301.057	195.69
301.288	186.69
301.518	179.69
301.748	172.69
301.979	169.69
302.209	189.69
302.439	183.69
302.669	175.69
302.9	174.69
303.13	185.69
303.36	188.69
303.59	187.69
303.82	163.69
304.051	198.69
304.281	185.69
304.511	172.69
304.741	171.69
304.971	174.69
305.201	183.69
305.431	178.69
305.661	195.69
305.891	174.69
306.121	196.69
306.352	194.69
306.582	183.69
306.812	178.69
307.042	193.69
307.272	180.69
307.502	171.69
307.731	187.69
307.961	192.69
308.191	177.69
308.421	189.69
308.651	172.69
308.881	188.69
309.111	186.69
309.341	181.69
309.571	196.69
309.8	185.69
310.03	182.69
310.26	205.69
310.49	195.69
310.72	193.69
310.949	230.69
311.179	198.69
311.409	203.69
311.639	208.69
311.868	207.69
312.098	196.69
312.328	205.69
312.557	222.69
312.787	226.69
313.017	225.69
313.246	209.69
313.476	195.69
313.706	180.69
313.935	195.69
314.165	210.69
314.394	221.69
314.624	225.69
314.853	213.69
315.083	209.69
315.312	201.69
315.542	193.69
315.771	200.69
316.001	206.69
316.23	188.69
316.46	204.69
316.689	189.69
316.919	196.69
317.148	214.69
317.377	198.69
317.607	231.69
317.836	195.69
318.065	190.69
318.295	210.69
318.524	180.69
318.753	206.69
318.983	192.69
319.212	218.69
319.441	213.69
319.67	214.69
319.9	198.69
320.129	196.69
320.358	214.69
320.587	185.69
320.816	210.69
321.046	214.69
321.275	200.69
321.504	218.69
321.733	207.69
321.962	220.69
322.191	224.69
322.42	213.69
322.649	240.69
322.878	230.69
323.108	230.69
323.337	257.69
323.566	253.69
323.795	266.69
324.024	301.69
324.253	339.69
324.482	489.69
324.71	744.69
324.939	974.69
325.168	796.69
325.397	422.69
325.626	280.69
325.855	252.69
326.084	225.69
326.313	240.69
326.542	251.69
326.77	284.69
326.999	338.69
327.228	414.69
327.457	641.69
327.686	754.69
327.914	502.69
328.143	347.69
328.372	325.69
328.6	304.69
328.829	308.69
329.058	292.69
329.287	300.69
329.515	294.69
329.744	268.69
329.972	264.69
330.201	301.69
330.43	314.69
330.658	336.69
330.887	332.69
331.115	308.69
331.344	273.69
331.572	237.69
331.801	248.69
332.03	257.69
332.258	245.69
332.486	240.69
332.715	232.69
332.943	221.69
333.172	238.69
333.4	233.69
333.629	249.69
333.857	232.69
334.085	255.69
334.314	265.69
334.542	294.69
334.771	283.69
334.999	264.69
335.227	232.69
335.455	236.69
335.684	246.69
335.912	231.69
336.14	216.69
336.369	221.69
336.597	235.69
336.825	232.69
337.053	234.69
337.281	219.69
337.51	211.69
337.738	233.69
337.966	237.69
338.194	224.69
338.422	235.69
338.65	232.69
338.878	242.69
339.106	222.69
339.334	218.69
339.562	210.69
339.79	206.69
340.018	235.69
340.246	215.69
340.474	212.69
340.702	234.69
340.93	211.69
341.158	214.69
341.386	217.69
341.614	204.69
341.842	216.69
342.07	233.69
342.298	216.69
342.526	219.69
342.754	223.69
342.981	224.69
343.209	213.69
343.437	215.69
343.665	227.69
343.893	240.69
344.12	233.69
344.348	230.69
344.576	205.69
344.804	226.69
345.031	219.69
345.259	241.69
345.487	235.69
345.714	230.69
345.942	219.69
346.17	225.69
346.397	209.69
346.625	219.69
346.853	199.69
347.08	216.69
347.308	216.69
347.535	237.69
347.763	226.69
347.99	227.69
348.218	200.69
348.445	225.69
348.673	220.69
348.9	209.69
349.128	214.69
349.355	215.69
349.583	209.69
349.81	209.69
350.037	208.69
350.265	213.69
350.492	210.69
350.72	196.69
350.947	208.69
351.174	212.69
351.402	224.69
351.629	229.69
351.856	214.69
352.083	225.69
352.311	219.69
352.538	222.69
352.765	219.69
352.992	241.69
353.22	212.69
353.447	208.69
353.674	215.69
353.901	214.69
354.128	196.69
354.355	213.69
354.583	200.69
354.81	221.69
355.037	200.69
355.264	203.69
355.491	205.69
355.718	210.69
355.945	189.69
356.172	185.69
356.399	189.69
356.626	198.69
356.853	196.69
357.08	193.69
357.307	180.69
357.534	188.69
357.761	189.69
357.988	196.69
358.215	204.69
358.441	211.69
358.668	199.69
358.895	205.69
359.122	202.69
359.349	202.69
359.576	219.69
359.802	226.69
360.029	242.69
360.256	234.69
360.483	235.69
360.709	235.69
360.936	219.69
361.163	207.69
361.39	223.69
361.616	209.69
361.843	206.69
362.07	212.69
362.296	192.69
362.523	205.69
362.749	220.69
362.976	210.69
363.203	201.69
363.429	199.69
363.656	202.69
363.882	206.69
364.109	211.69
364.335	213.69
364.562	198.69
364.788	201.69
365.015	201.69
365.241	202.69
365.468	203.69
365.694	213.69
365.92	224.69
366.147	205.69
366.373	205.69
366.599	182.69
366.826	202.69
367.052	211.69
367.278	205.69
367.505	216.69
367.731	189.69
367.957	190.69
368.184	205.69
368.41	222.69
368.636	186.69
368.862	218.69
369.089	205.69
369.315	204.69
369.541	214.69
369.767	203.69
369.993	213.69
370.219	201.69
370.445	187.69
370.672	210.69
370.898	209.69
371.124	199.69
371.35	216.69
371.576	205.69
371.802	209.69
372.028	196.69
372.254	201.69
372.48	201.69
372.706	197.69
372.932	217.69
373.158	202.69
373.384	218.69
373.61	192.69
373.835	202.69
374.061	194.69
374.287	213.69
374.513	195.69
374.739	213.69
374.965	208.69
375.191	202.69
375.416	192.69
375.642	219.69
375.868	218.69
376.094	192.69
376.319	205.69
376.545	204.69
376.771	200.69
376.997	197.69
377.222	204.69
377.448	189.69
377.674	201.69
377.899	184.69
378.125	208.69
378.35	194.69
378.576	194.69
378.802	199.69
379.027	205.69
379.253	210.69
379.478	232.69
379.704	208.69
379.929	193.69
380.155	190.69
380.38	206.69
380.606	223.69
380.831	211.69
381.057	206.69
381.282	211.69
381.507	213.69
381.733	205.69
381.958	211.69
382.184	216.69
382.409	203.69
382.634	213.69
382.86	208.69
383.085	203.69
383.31	205.69
383.535	216.69
383.761	194.69
383.986	206.69
384.211	218.69
384.436	219.69
384.662	207.69
384.887	206.69
385.112	216.69
385.337	217.69
385.562	218.69
385.787	215.69
386.013	220.69
386.238	233.69
386.463	212.69
386.688	230.69
386.913	216.69
387.138	220.69
387.363	205.69
387.588	246.69
387.813	217.69
388.038	212.69
388.263	213.69
388.488	228.69
388.713	220.69
388.938	206.69
389.163	215.69
389.387	215.69
389.612	211.69
389.837	201.69
390.062	228.69
390.287	222.69
390.512	214.69
390.736	213.69
390.961	206.69
391.186	230.69
391.411	227.69
391.636	215.69
391.86	225.69
392.085	233.69
392.31	245.69
392.534	221.69
392.759	224.69
392.984	203.69
393.208	211.69
393.433	215.69
393.658	194.69
393.882	212.69
394.107	230.69
394.331	223.69
394.556	213.69
394.78	207.69
395.005	223.69
395.229	216.69
395.454	232.69
395.678	226.69
395.903	219.69
396.127	229.69
396.352	237.69
396.576	222.69
396.801	214.69
397.025	217.69
397.249	224.69
397.474	237.69
397.698	221.69
397.922	228.69
398.147	230.69
398.371	233.69
398.595	243.69
398.82	237.69
399.044	250.69
399.268	250.69
399.492	257.69
399.717	272.69
399.941	293.69
400.165	291.69
400.389	305.69
400.613	284.69
400.837	249.69
401.062	282.69
401.286	249.69
401.51	252.69
401.734	242.69
401.958	255.69
402.182	251.69
402.406	270.69
402.63	260.69
402.854	257.69
403.078	260.69
403.302	246.69
403.526	250.69
403.75	237.69
403.974	258.69
404.198	244.69
404.422	277.69
404.645	269.69
404.869	256.69
405.093	256.69
405.317	281.69
405.541	318.69
405.765	264.69
405.988	278.69
406.212	268.69
406.436	289.69
406.66	306.69
406.883	288.69
407.107	295.69
407.331	318.69
407.555	300.69
407.778	310.69
408.002	315.69
408.226	280.69
408.449	265.69
408.673	267.69
408.896	288.69
409.12	302.69
409.344	290.69
409.567	243.69
409.791	261.69
410.014	249.69
410.238	237.69
410.461	263.69
410.685	246.69
410.908	263.69
411.132	278.69
411.355	294.69
411.578	294.69
411.802	271.69
412.025	246.69
412.249	254.69
412.472	265.69
412.695	284.69
412.919	271.69
413.142	251.69
413.365	249.69
413.589	227.69
413.812	248.69
414.035	254.69
414.258	258.69
414.482	252.69
414.705	236.69
414.928	244.69
415.151	246.69
415.374	234.69
415.597	229.69
415.821	250.69
416.044	232.69
416.267	243.69
416.49	228.69
416.713	244.69
416.936	257.69
417.159	246.69
417.382	222.69
417.605	234.69
417.828	246.69
418.051	266.69
418.274	258.69
418.497	230.69
418.72	234.69
418.943	259.69
419.166	253.69
419.389	255.69
419.611	264.69
419.834	226.69
420.057	265.69
420.28	245.69
420.503	245.69
420.726	257.69
420.948	271.69
421.171	277.69
421.394	296.69
421.617	260.69
421.839	235.69
422.062	254.69
422.285	268.69
422.507	284.69
422.73	305.69
422.953	300.69
423.175	271.69
423.398	257.69
423.621	277.69
423.843	277.69
424.066	268.69
424.288	270.69
424.511	285.69
424.733	310.69
424.956	310.69
425.178	320.69
425.401	310.69
425.623	312.69
425.846	279.69
426.068	265.69
426.291	268.69
426.513	258.69
426.735	268.69
426.958	306.69
427.18	329.69
427.402	371.69
427.625	404.69
427.847	349.69
428.069	306.69
428.292	264.69
428.514	265.69
428.736	263.69
428.958	265.69
429.181	229.69
429.403	234.69
429.625	252.69
429.847	272.69
430.069	295.69
430.292	297.69
430.514	255.69
430.736	243.69
430.958	249.69
431.18	225.69
431.402	246.69
431.624	240.69
431.846	225.69
432.068	228.69
432.29	234.69
432.512	232.69
432.734	242.69
432.956	240.69
433.178	242.69
433.4	247.69
433.622	258.69
433.844	227.69
434.066	221.69
434.287	230.69
434.509	243.69
434.731	247.69
434.953	254.69
435.175	233.69
435.397	292.69
435.618	265.69
435.84	297.69
436.062	315.69
436.284	346.69
436.505	275.69
436.727	264.69
436.949	242.69
437.17	250.69
437.392	242.69
437.614	276.69
437.835	290.69
438.057	331.69
438.278	345.69
438.5	340.69
438.721	371.69
438.943	358.69
439.165	283.69
439.386	290.69
439.608	271.69
439.829	265.69
440.05	282.69
440.272	298.69
440.493	285.69
440.715	269.69
440.936	285.69
441.158	248.69
441.379	234.69
441.6	260.69
441.822	277.69
442.043	290.69
442.264	325.69
442.486	343.69
442.707	296.69
442.928	273.69
443.149	282.69
443.371	282.69
443.592	320.69
443.813	368.69
444.034	361.69
444.255	298.69
444.476	273.69
444.698	281.69
444.919	282.69
445.14	370.69
445.361	332.69
445.582	298.69
445.803	325.69
446.024	365.69
446.245	359.69
446.466	318.69
446.687	284.69
446.908	254.69
447.129	248.69
447.35	262.69
447.571	238.69
447.792	235.69
448.013	242.69
448.234	250.69
448.455	282.69
448.675	342.69
448.896	373.69
449.117	305.69
449.338	292.69
449.559	340.69
449.779	372.69
450	304.69
450.221	268.69
450.442	246.69
450.662	242.69
450.883	241.69
451.104	268.69
451.324	242.69
451.545	243.69
451.766	217.69
451.986	215.69
452.207	226.69
452.428	216.69
452.648	221.69
452.869	232.69
453.089	257.69
453.31	251.69
453.53	222.69
453.751	232.69
453.971	230.69
454.192	231.69
454.412	244.69
454.633	220.69
454.853	210.69
455.073	239.69
455.294	242.69
455.514	276.69
455.734	261.69
455.955	215.69
456.175	200.69
456.395	212.69
456.616	220.69
456.836	207.69
457.056	210.69
457.276	210.69
457.497	200.69
457.717	209.69
457.937	220.69
458.157	208.69
458.377	228.69
458.598	237.69
458.818	251.69
459.038	348.69
459.258	306.69
459.478	278.69
459.698	248.69
459.918	229.69
460.138	229.69
460.358	246.69
460.578	252.69
460.798	251.69
461.018	259.69
461.238	235.69
461.458	226.69
461.678	252.69
461.898	263.69
462.118	261.69
462.338	249.69
462.558	242.69
462.777	279.69
462.997	264.69
463.217	254.69
463.437	263.69
463.657	247.69
463.876	258.69
464.096	246.69
464.316	256.69
464.536	280.69
464.755	271.69
464.975	280.69
465.195	284.69
465.414	333.69
465.634	286.69
465.854	274.69
466.073	243.69
466.293	241.69
466.512	219.69
466.732	233.69
466.951	230.69
467.171	237.69
467.391	213.69
467.61	228.69
467.829	248.69
468.049	255.69
468.268	240.69
468.488	225.69
468.707	240.69
468.927	222.69
469.146	228.69
469.365	233.69
469.585	233.69
469.804	241.69
470.023	252.69
470.243	242.69
470.462	255.69
470.681	247.69
470.901	259.69
471.12	234.69
471.339	235.69
471.558	250.69
471.777	214.69
471.997	249.69
472.216	244.69
472.435	288.69
472.654	275.69
472.873	243.69
473.092	221.69
473.311	236.69
473.53	241.69
473.749	252.69
473.968	266.69
474.187	319.69
474.406	326.69
474.625	257.69
474.844	240.69
475.063	237.69
475.282	227.69
475.501	230.69
475.72	241.69
475.939	235.69
476.158	256.69
476.377	242.69
476.596	245.69
476.814	244.69
477.033	268.69
477.252	252.69
477.471	271.69
477.69	253.69
477.908	243.69
478.127	259.69
478.346	247.69
478.564	243.69
478.783	249.69
479.002	283.69
479.22	270.69
479.439	275.69
479.658	277.69
479.876	288.69
480.095	291.69
480.313	298.69
480.532	280.69
480.751	265.69
480.969	291.69
481.188	357.69
481.406	377.69
481.624	323.69
481.843	280.69
482.061	274.69
482.28	266.69
482.498	256.69
482.717	255.69
482.935	277.69
483.153	279.69
483.372	270.69
483.59	277.69
483.808	273.69
484.027	258.69
484.245	274.69
484.463	268.69
484.681	271.69
484.9	260.69
485.118	274.69
485.336	290.69
485.554	280.69
485.772	296.69
485.99	285.69
486.209	284.69
486.427	284.69
486.645	286.69
486.863	304.69
487.081	296.69
487.299	291.69
487.517	296.69
487.735	276.69
487.953	275.69
488.171	296.69
488.389	275.69
488.607	285.69
488.825	281.69
489.043	296.69
489.261	309.69
489.479	285.69
489.696	296.69
489.914	290.69
490.132	306.69
490.35	301.69
490.568	302.69
490.786	311.69
491.003	317.69
491.221	324.69
491.439	318.69
491.657	345.69
491.874	337.69
492.092	336.69
492.31	326.69
492.527	321.69
492.745	346.69
492.963	325.69
493.18	356.69
493.398	340.69
493.615	359.69
493.833	323.69
494.05	337.69
494.268	339.69
494.485	352.69
494.703	340.69
494.92	333.69
495.138	330.69
495.355	341.69
495.573	332.69
495.79	337.69
496.008	340.69
496.225	339.69
496.442	322.69
496.66	347.69
496.877	334.69
497.094	343.69
497.312	334.69
497.529	340.69
497.746	340.69
497.963	343.69
498.181	340.69
498.398	356.69
498.615	357.69
498.832	368.69
499.049	376.69
499.267	363.69
499.484	388.69
499.701	424.69
499.918	411.69
500.135	434.69
500.352	437.69
500.569	443.69
500.786	453.69
501.003	451.69
501.22	440.69
501.437	425.69
501.654	434.69
501.871	424.69
502.088	392.69
502.305	378.69
502.522	364.69
502.739	348.69
502.956	339.69
503.172	359.69
503.389	351.69
503.606	356.69
503.823	325.69
504.04	336.69
504.256	322.69
504.473	321.69
504.69	330.69
504.907	326.69
505.123	323.69
505.34	330.69
505.557	325.69
505.773	333.69
505.99	324.69
506.207	316.69
506.423	324.69
506.64	321.69
506.856	307.69
507.073	325.69
507.289	319.69
507.506	333.69
507.722	326.69
507.939	321.69
508.155	317.69
508.372	318.69
508.588	294.69
508.805	288.69
509.021	292.69
509.238	320.69
509.454	307.69
509.67	325.69
509.887	305.69
510.103	291.69
510.319	300.69
510.536	395.69
510.752	723.69
510.968	524.69
511.184	323.69
511.401	302.69
511.617	280.69
511.833	277.69
512.049	278.69
512.265	290.69
512.481	280.69
512.698	290.69
512.914	286.69
513.13	288.69
513.346	287.69
513.562	283.69
513.778	297.69
513.994	313.69
514.21	302.69
514.426	312.69
514.642	329.69
514.858	366.69
515.074	380.69
515.29	487.69
515.506	766.69
515.721	626.69
515.937	364.69
516.153	334.69
516.369	314.69
516.585	303.69
516.801	300.69
517.016	300.69
517.232	308.69
517.448	280.69
517.664	298.69
517.879	290.69
518.095	292.69
518.311	318.69
518.527	299.69
518.742	269.69
518.958	293.69
519.173	277.69
519.389	295.69
519.605	270.69
519.82	278.69
520.036	302.69
520.251	304.69
520.467	329.69
520.682	319.69
520.898	316.69
521.113	339.69
521.329	366.69
521.544	419.69
521.76	586.69
521.975	1075.69
522.19	1045.69
522.406	493.69
522.621	355.69
522.836	308.69
523.052	292.69
523.267	286.69
523.482	276.69
523.698	265.69
523.913	300.69
524.128	254.69
524.343	250.69
524.559	273.69
524.774	237.69
524.989	242.69
525.204	268.69
525.419	274.69
525.634	256.69
525.849	257.69
526.064	246.69
526.28	233.69
526.495	237.69
526.71	263.69
526.925	259.69
527.14	231.69
527.355	217.69
527.57	228.69
527.785	236.69
527.999	247.69
528.214	237.69
528.429	234.69
528.644	241.69
528.859	245.69
529.074	253.69
529.289	254.69
529.503	318.69
529.718	316.69
529.933	244.69
530.148	233.69
530.363	253.69
530.577	247.69
530.792	245.69
531.007	235.69
531.221	229.69
531.436	245.69
531.651	250.69
531.865	228.69
532.08	241.69
532.295	234.69
532.509	219.69
532.724	229.69
532.938	228.69
533.153	238.69
533.367	224.69
533.582	229.69
533.796	228.69
534.011	224.69
534.225	225.69
534.44	224.69
534.654	221.69
534.868	235.69
535.083	235.69
535.297	233.69
535.511	235.69
535.726	234.69
535.94	226.69
536.154	222.69
536.369	230.69
536.583	215.69
536.797	217.69
537.011	223.69
537.225	222.69
537.44	250.69
537.654	240.69
537.868	233.69
538.082	222.69
538.296	215.69
538.51	214.69
538.724	227.69
538.938	226.69
539.153	227.69
539.367	250.69
539.581	241.69
539.795	226.69
540.009	220.69
540.222	222.69
540.436	233.69
540.65	216.69
540.864	219.69
541.078	240.69
541.292	240.69
541.506	228.69
541.72	227.69
541.934	226.69
542.147	247.69
542.361	218.69
542.575	244.69
542.789	235.69
543.002	230.69
543.216	221.69
543.43	238.69
543.644	236.69
543.857	225.69
544.071	224.69
544.285	234.69
544.498	229.69
544.712	210.69
544.925	225.69
545.139	221.69
545.352	230.69
545.566	213.69
545.779	223.69
545.993	212.69
546.206	206.69
546.42	223.69
546.633	227.69
546.847	221.69
547.06	217.69
547.274	218.69
547.487	214.69
547.7	233.69
547.914	229.69
548.127	217.69
548.34	232.69
548.554	204.69
548.767	215.69
548.98	220.69
549.193	203.69
549.407	210.69
549.62	221.69
549.833	206.69
550.046	210.69
550.259	209.69
550.473	228.69
550.686	223.69
550.899	219.69
551.112	220.69
551.325	218.69
551.538	222.69
551.751	215.69
551.964	200.69
552.177	223.69
552.39	222.69
552.603	214.69
552.816	194.69
553.029	224.69
553.242	213.69
553.455	212.69
553.667	212.69
553.88	232.69
554.093	217.69
554.306	233.69
554.519	223.69
554.732	217.69
554.944	206.69
555.157	214.69
555.37	213.69
555.583	196.69
555.795	212.69
556.008	197.69
556.221	218.69
556.433	197.69
556.646	204.69
556.859	190.69
557.071	201.69
557.284	188.69
557.496	206.69
557.709	198.69
557.921	170.69
558.134	186.69
558.346	172.69
558.559	202.69
558.771	197.69
558.984	194.69
559.196	195.69
559.409	192.69
559.621	198.69
559.833	181.69
560.046	196.69
560.258	172.69
560.47	182.69
560.683	188.69
560.895	206.69
561.107	209.69
561.32	193.69
561.532	199.69
561.744	184.69
561.956	198.69
562.168	185.69
562.381	189.69
562.593	198.69
562.805	196.69
563.017	188.69
563.229	202.69
563.441	204.69
563.653	206.69
563.865	193.69
564.077	192.69
564.289	196.69
564.501	198.69
564.713	205.69
564.925	179.69
565.137	205.69
565.349	204.69
565.561	220.69
565.773	221.69
565.985	194.69
566.197	211.69
566.408	242.69
566.62	213.69
566.832	221.69
567.044	234.69
567.255	221.69
567.467	208.69
567.679	223.69
567.891	244.69
568.102	239.69
568.314	224.69
568.526	213.69
568.737	211.69
568.949	225.69
569.161	202.69
569.372	198.69
569.584	206.69
569.795	208.69
570.007	186.69
570.218	241.69
570.43	213.69
570.641	197.69
570.853	197.69
571.064	196.69
571.276	177.69
571.487	194.69
571.698	183.69
571.91	181.69
572.121	186.69
572.333	186.69
572.544	170.69
572.755	179.69
572.966	166.69
573.178	192.69
573.389	188.69
573.6	176.69
573.811	178.69
574.023	168.69
574.234	172.69
574.445	164.69
574.656	162.69
574.867	164.69
575.078	164.69
575.289	178.69
575.501	186.69
575.712	177.69
575.923	163.69
576.134	186.69
576.345	178.69
576.556	174.69
576.767	162.69
576.978	169.69
577.188	163.69
577.399	150.69
577.61	165.69
577.821	176.69
578.032	185.69
578.243	199.69
578.454	356.69
578.665	239.69
578.875	166.69
579.086	160.69
579.297	166.69
579.508	164.69
579.718	187.69
579.929	167.69
580.14	169.69
580.35	142.69
580.561	178.69
580.772	163.69
580.982	166.69
581.193	155.69
581.403	154.69
581.614	165.69
581.825	166.69
582.035	172.69
582.246	160.69
582.456	162.69
582.667	157.69
582.877	135.69
583.087	146.69
583.298	154.69
583.508	173.69
583.719	162.69
583.929	156.69
584.139	155.69
584.35	163.69
584.56	165.69
584.77	163.69
584.981	146.69
585.191	144.69
585.401	167.69
585.611	149.69
585.821	157.69
586.032	152.69
586.242	168.69
586.452	161.69
586.662	158.69
586.872	162.69
587.082	151.69
587.292	151.69
587.502	157.69
587.713	157.69
587.923	168.69
588.133	165.69
588.343	151.69
588.553	153.69
588.762	155.69
588.972	151.69
589.182	161.69
589.392	152.69
589.602	152.69
589.812	162.69
590.022	158.69
590.232	141.69
590.441	146.69
590.651	160.69
590.861	171.69
591.071	162.69
591.281	148.69
591.49	145.69
591.7	161.69
591.91	139.69
592.119	166.69
592.329	162.69
592.539	149.69
592.748	148.69
592.958	160.69
593.167	144.69
593.377	167.69
593.587	163.69
593.796	161.69
594.006	154.69
594.215	169.69
594.424	155.69
594.634	171.69
594.843	170.69
595.053	148.69
595.262	152.69
595.472	146.69
595.681	140.69
595.89	154.69
596.1	149.69
596.309	176.69
596.518	151.69
596.727	151.69
596.937	159.69
597.146	146.69
597.355	153.69
597.564	139.69
597.774	157.69
597.983	148.69
598.192	145.69
598.401	136.69
598.61	150.69
598.819	145.69
599.028	147.69
599.237	156.69
599.446	150.69
599.655	152.69
599.864	154.69
600.073	141.69
600.282	140.69
600.491	141.69
600.7	145.69
600.909	149.69
601.118	143.69
601.327	146.69
601.536	139.69
601.745	136.69
601.953	124.69
602.162	154.69
602.371	143.69
602.58	146.69
602.789	132.69
602.997	140.69
603.206	156.69
603.415	147.69
603.623	138.69
603.832	135.69
604.041	150.69
604.249	142.69
604.458	146.69
604.666	149.69
604.875	137.69
605.084	141.69
605.292	134.69
605.501	142.69
605.709	144.69
605.918	150.69
606.126	144.69
606.334	155.69
606.543	142.69
606.751	148.69
606.96	148.69
607.168	139.69
607.376	146.69
607.585	141.69
607.793	133.69
608.001	138.69
608.21	143.69
608.418	139.69
608.626	146.69
608.834	128.69
609.043	147.69
609.251	151.69
609.459	141.69
609.667	142.69
609.875	139.69
610.083	140.69
610.291	139.69
610.499	138.69
610.707	132.69
610.916	134.69
611.124	141.69
611.332	136.69
611.54	149.69
611.748	148.69
611.955	155.69
612.163	148.69
612.371	144.69
612.579	139.69
612.787	148.69
612.995	133.69
613.203	155.69
613.411	146.69
613.618	115.69
613.826	147.69
614.034	122.69
614.242	135.69
614.449	132.69
614.657	150.69
614.865	138.69
615.072	145.69
615.28	126.69
615.488	133.69
615.695	148.69
615.903	141.69
616.111	129.69
616.318	142.69
616.526	136.69
616.733	130.69
616.941	140.69
617.148	143.69
617.356	136.69
617.563	148.69
617.771	136.69
617.978	138.69
618.185	121.69
618.393	132.69
618.6	140.69
618.807	140.69
619.015	137.69
619.222	154.69
619.429	147.69
619.637	139.69
619.844	154.69
620.051	128.69
620.258	136.69
620.466	136.69
620.673	120.69
620.88	141.69
621.087	126.69
621.294	136.69
621.501	130.69
621.708	142.69
621.915	140.69
622.122	150.69
622.329	149.69
622.536	126.69
622.743	130.69
622.95	136.69
623.157	120.69
623.364	140.69
623.571	126.69
623.778	132.69
623.985	141.69
624.192	125.69
624.399	138.69
624.606	131.69
624.812	131.69
625.019	128.69
625.226	105.69
625.433	134.69
625.639	128.69
625.846	142.69
626.053	125.69
626.259	137.69
626.466	132.69
626.673	117.69
626.879	128.69
627.086	134.69
627.293	137.69
627.499	127.69
627.706	116.69
627.912	132.69
628.119	146.69
628.325	132.69
628.532	120.69
628.738	119.69
628.945	109.69
629.151	116.69
629.357	126.69
629.564	128.69
629.77	132.69
629.976	114.69
630.183	120.69
630.389	112.69
630.595	128.69
630.802	126.69
631.008	134.69
631.214	123.69
631.42	119.69
631.627	119.69
631.833	121.69
632.039	120.69
632.245	130.69
632.451	126.69
632.657	123.69
632.863	90.69
633.069	111.69
633.275	126.69
633.481	98.69
633.688	120.69
633.893	120.69
634.099	116.69
634.305	103.69
634.511	118.69
634.717	119.69
634.923	134.69
635.129	130.69
635.335	106.69
635.541	117.69
635.747	130.69
635.952	106.69
636.158	121.69
636.364	125.69
636.57	123.69
636.775	115.69
636.981	125.69
637.187	123.69
637.392	123.69
637.598	110.69
637.804	101.69
638.009	112.69
638.215	124.69
638.421	116.69
638.626	108.69
638.832	124.69
639.037	113.69
639.243	121.69
639.448	126.69
639.654	115.69
639.859	108.69
640.065	113.69
640.27	117.69
640.475	117.69
640.681	117.69
640.886	110.69
641.091	119.69
641.297	136.69
641.502	113.69
641.707	117.69
641.913	109.69
642.118	109.69
642.323	121.69
642.528	111.69
642.733	112.69
642.939	124.69
643.144	105.69
643.349	116.69
643.554	112.69
643.759	115.69
643.964	100.69
644.169	121.69
644.374	116.69
644.579	124.69
644.784	115.69
644.989	128.69
645.194	114.69
645.399	117.69
645.604	116.69
645.809	110.69
646.014	127.69
646.219	110.69
646.423	122.69
646.628	122.69
646.833	110.69
647.038	113.69
647.243	108.69
647.447	114.69
647.652	109.69
647.857	112.69
648.062	102.69
648.266	107.69
648.471	113.69
648.676	116.69
648.88	115.69
649.085	112.69
649.289	114.69
649.494	131.69
649.698	122.69
649.903	126.69
650.107	120.69
650.312	107.69
650.516	104.69
650.721	121.69
650.925	109.69
651.13	105.69
651.334	105.69
651.539	115.69
651.743	107.69
651.947	106.69
652.152	106.69
652.356	104.69
652.56	95.69
652.764	100.69
652.969	120.69
653.173	105.69
653.377	95.69
653.581	97.69
653.785	102.69
653.99	122.69
654.194	120.69
654.398	95.69
654.602	97.69
654.806	89.69
655.01	124.69
655.214	105.69
655.418	118.69
655.622	112.69
655.826	107.69
656.03	105.69
656.234	105.69
656.438	112.69
656.642	101.69
656.846	112.69
657.049	105.69
657.253	97.69
657.457	86.69
657.661	96.69
657.865	99.69
658.068	88.69
658.272	88.69
658.476	92.69
658.68	85.69
658.883	101.69
659.087	95.69
659.291	78.69
659.494	82.69
659.698	87.69
659.901	101.69
660.105	98.69
660.309	86.69
660.512	77.69
660.716	76.69
660.919	86.69
661.123	87.69
661.326	87.69
661.53	92.69
661.733	87.69
661.936	81.69
662.14	82.69
662.343	91.69
662.546	72.69
662.75	73.69
662.953	78.69
663.156	82.69
663.36	88.69
663.563	93.69
663.766	82.69
663.969	94.69
664.173	81.69
664.376	88.69
664.579	91.69
664.782	79.69
664.985	83.69
665.188	82.69
665.391	92.69
665.594	89.69
665.797	86.69
666	68.69
666.203	75.69
666.406	84.69
666.609	64.69
666.812	80.69
667.015	99.69
667.218	86.69
667.421	72.69
667.624	70.69
667.827	78.69
668.03	80.69
668.232	89.69
668.435	91.69
668.638	85.69
668.841	86.69
669.043	64.69
669.246	94.69
669.449	88.69
669.651	92.69
669.854	83.69
670.057	83.69
670.259	78.69
670.462	76.69
670.665	72.69
670.867	82.69
671.07	68.69
671.272	78.69
671.475	86.69
671.677	90.69
671.88	90.69
672.082	77.69
672.284	100.69
672.487	82.69
672.689	82.69
672.892	67.69
