Data from 1968.PennyLincolnUp.Lamp.En5.5.200Scan.071719.P1._HRD10591_14-50-44-969.txt Node
Date: Thu Jul 18 14:50:44 EDT 2019
User: cochatt
Spectrometer: HR+D1059
Trigger mode: 1
Integration Time (sec): 1.000000E-1
Scans to average: 1
Electric dark correction enabled: true
Nonlinearity correction enabled: false
Boxcar width: 0
XAxis mode: Wavelengths
Number of Pixels in Spectrum: 2048
>>>>>Begin Spectral Data<<<<<
223.165	-15.06
223.4	-15.06
223.635	-15.06
223.869	-10.06
224.104	-22.06
224.338	-15.06
224.573	-14.06
224.808	-0.06
225.042	1.94
225.277	-10.06
225.511	-5.06
225.746	-1.06
225.98	-2.06
226.215	11.94
226.449	9.94
226.683	16.94
226.918	35.94
227.152	17.94
227.387	12.94
227.621	47.94
227.856	36.94
228.09	46.94
228.324	54.94
228.559	37.94
228.793	48.94
229.027	72.94
229.262	70.94
229.496	71.94
229.73	60.94
229.964	77.94
230.199	73.94
230.433	70.94
230.667	67.94
230.901	80.94
231.136	71.94
231.37	71.94
231.604	75.94
231.838	66.94
232.072	67.94
232.306	70.94
232.541	80.94
232.775	73.94
233.009	82.94
233.243	85.94
233.477	91.94
233.711	86.94
233.945	83.94
234.179	75.94
234.413	84.94
234.647	88.94
234.881	87.94
235.115	86.94
235.349	87.94
235.583	85.94
235.817	72.94
236.051	56.94
236.285	72.94
236.519	70.94
236.753	81.94
236.987	79.94
237.221	66.94
237.455	83.94
237.689	84.94
237.922	74.94
238.156	50.94
238.39	90.94
238.624	65.94
238.858	75.94
239.091	70.94
239.325	71.94
239.559	89.94
239.793	87.94
240.027	72.94
240.26	69.94
240.494	77.94
240.728	72.94
240.961	77.94
241.195	75.94
241.429	81.94
241.662	78.94
241.896	85.94
242.13	72.94
242.363	90.94
242.597	86.94
242.83	94.94
243.064	96.94
243.298	87.94
243.531	87.94
243.765	68.94
243.998	82.94
244.232	69.94
244.465	82.94
244.699	72.94
244.932	74.94
245.166	73.94
245.399	86.94
245.633	88.94
245.866	83.94
246.099	75.94
246.333	81.94
246.566	85.94
246.8	80.94
247.033	87.94
247.266	90.94
247.5	78.94
247.733	94.94
247.966	81.94
248.2	88.94
248.433	82.94
248.666	94.94
248.899	77.94
249.133	103.94
249.366	81.94
249.599	88.94
249.832	94.94
250.066	90.94
250.299	97.94
250.532	78.94
250.765	85.94
250.998	73.94
251.231	84.94
251.465	81.94
251.698	88.94
251.931	98.94
252.164	65.94
252.397	88.94
252.63	94.94
252.863	93.94
253.096	78.94
253.329	84.94
253.562	95.94
253.795	86.94
254.028	93.94
254.261	87.94
254.494	73.94
254.727	80.94
254.96	97.94
255.193	90.94
255.426	85.94
255.659	82.94
255.892	111.94
256.124	87.94
256.357	90.94
256.59	82.94
256.823	72.94
257.056	87.94
257.289	91.94
257.521	98.94
257.754	85.94
257.987	105.94
258.22	88.94
258.452	97.94
258.685	87.94
258.918	75.94
259.151	81.94
259.383	89.94
259.616	77.94
259.849	87.94
260.081	86.94
260.314	88.94
260.547	75.94
260.779	73.94
261.012	76.94
261.244	88.94
261.477	71.94
261.71	85.94
261.942	95.94
262.175	90.94
262.407	104.94
262.64	86.94
262.872	91.94
263.105	98.94
263.337	96.94
263.57	100.94
263.802	96.94
264.035	96.94
264.267	93.94
264.499	100.94
264.732	104.94
264.964	95.94
265.197	91.94
265.429	91.94
265.661	71.94
265.894	93.94
266.126	98.94
266.358	96.94
266.591	90.94
266.823	87.94
267.055	88.94
267.287	80.94
267.52	80.94
267.752	81.94
267.984	101.94
268.216	110.94
268.448	84.94
268.681	90.94
268.913	95.94
269.145	105.94
269.377	97.94
269.609	93.94
269.841	102.94
270.073	82.94
270.306	95.94
270.538	99.94
270.77	87.94
271.002	98.94
271.234	86.94
271.466	94.94
271.698	89.94
271.93	89.94
272.162	98.94
272.394	103.94
272.626	85.94
272.858	96.94
273.09	93.94
273.322	98.94
273.553	96.94
273.785	98.94
274.017	86.94
274.249	95.94
274.481	83.94
274.713	84.94
274.945	89.94
275.176	105.94
275.408	104.94
275.64	104.94
275.872	113.94
276.104	112.94
276.335	103.94
276.567	105.94
276.799	89.94
277.031	103.94
277.262	94.94
277.494	92.94
277.726	99.94
277.957	105.94
278.189	96.94
278.421	98.94
278.652	84.94
278.884	94.94
279.115	83.94
279.347	88.94
279.579	89.94
279.81	93.94
280.042	111.94
280.273	97.94
280.505	101.94
280.736	88.94
280.968	119.94
281.199	105.94
281.431	100.94
281.662	93.94
281.894	93.94
282.125	94.94
282.356	96.94
282.588	93.94
282.819	95.94
283.051	95.94
283.282	90.94
283.513	91.94
283.745	93.94
283.976	100.94
284.207	95.94
284.439	89.94
284.67	92.94
284.901	106.94
285.132	105.94
285.364	104.94
285.595	91.94
285.826	111.94
286.057	89.94
286.288	90.94
286.52	82.94
286.751	97.94
286.982	101.94
287.213	98.94
287.444	106.94
287.675	87.94
287.906	100.94
288.138	93.94
288.369	93.94
288.6	106.94
288.831	99.94
289.062	100.94
289.293	86.94
289.524	100.94
289.755	101.94
289.986	90.94
290.217	113.94
290.448	95.94
290.679	98.94
290.91	85.94
291.141	96.94
291.371	93.94
291.602	105.94
291.833	102.94
292.064	103.94
292.295	99.94
292.526	97.94
292.757	106.94
292.987	94.94
293.218	97.94
293.449	101.94
293.68	100.94
293.91	103.94
294.141	89.94
294.372	86.94
294.603	99.94
294.833	93.94
295.064	110.94
295.295	98.94
295.525	98.94
295.756	110.94
295.987	86.94
296.217	105.94
296.448	106.94
296.679	98.94
296.909	104.94
297.14	113.94
297.37	88.94
297.601	103.94
297.831	104.94
298.062	114.94
298.292	97.94
298.523	109.94
298.753	112.94
298.984	101.94
299.214	98.94
299.445	99.94
299.675	101.94
299.905	91.94
300.136	100.94
300.366	95.94
300.597	91.94
300.827	113.94
301.057	103.94
301.288	109.94
301.518	106.94
301.748	101.94
301.979	100.94
302.209	96.94
302.439	112.94
302.669	116.94
302.9	101.94
303.13	109.94
303.36	117.94
303.59	97.94
303.82	121.94
304.051	97.94
304.281	95.94
304.511	106.94
304.741	104.94
304.971	111.94
305.201	113.94
305.431	109.94
305.661	102.94
305.891	101.94
306.121	98.94
306.352	99.94
306.582	98.94
306.812	97.94
307.042	102.94
307.272	99.94
307.502	101.94
307.731	86.94
307.961	113.94
308.191	105.94
308.421	105.94
308.651	102.94
308.881	100.94
309.111	105.94
309.341	106.94
309.571	97.94
309.8	115.94
310.03	103.94
310.26	106.94
310.49	106.94
310.72	101.94
310.949	119.94
311.179	111.94
311.409	103.94
311.639	106.94
311.868	93.94
312.098	104.94
312.328	112.94
312.557	101.94
312.787	94.94
313.017	100.94
313.246	111.94
313.476	119.94
313.706	99.94
313.935	105.94
314.165	105.94
314.394	106.94
314.624	90.94
314.853	100.94
315.083	107.94
315.312	99.94
315.542	107.94
315.771	111.94
316.001	100.94
316.23	97.94
316.46	96.94
316.689	115.94
316.919	97.94
317.148	101.94
317.377	101.94
317.607	102.94
317.836	85.94
318.065	113.94
318.295	100.94
318.524	112.94
318.753	117.94
318.983	109.94
319.212	99.94
319.441	106.94
319.67	130.94
319.9	106.94
320.129	105.94
320.358	104.94
320.587	96.94
320.816	99.94
321.046	96.94
321.275	105.94
321.504	115.94
321.733	114.94
321.962	102.94
322.191	109.94
322.42	111.94
322.649	117.94
322.878	111.94
323.108	125.94
323.337	104.94
323.566	113.94
323.795	100.94
324.024	115.94
324.253	123.94
324.482	134.94
324.71	146.94
324.939	177.94
325.168	160.94
325.397	122.94
325.626	110.94
325.855	110.94
326.084	95.94
326.313	125.94
326.542	116.94
326.77	116.94
326.999	123.94
327.228	119.94
327.457	143.94
327.686	154.94
327.914	131.94
328.143	135.94
328.372	111.94
328.6	112.94
328.829	99.94
329.058	106.94
329.287	117.94
329.515	119.94
329.744	97.94
329.972	109.94
330.201	117.94
330.43	103.94
330.658	116.94
330.887	114.94
331.115	119.94
331.344	107.94
331.572	126.94
331.801	111.94
332.03	125.94
332.258	107.94
332.486	105.94
332.715	115.94
332.943	121.94
333.172	125.94
333.4	103.94
333.629	111.94
333.857	121.94
334.085	124.94
334.314	113.94
334.542	117.94
334.771	135.94
334.999	117.94
335.227	116.94
335.455	113.94
335.684	106.94
335.912	113.94
336.14	104.94
336.369	117.94
336.597	113.94
336.825	113.94
337.053	114.94
337.281	122.94
337.51	116.94
337.738	114.94
337.966	101.94
338.194	117.94
338.422	117.94
338.65	104.94
338.878	102.94
339.106	107.94
339.334	123.94
339.562	109.94
339.79	96.94
340.018	95.94
340.246	111.94
340.474	111.94
340.702	118.94
340.93	105.94
341.158	117.94
341.386	94.94
341.614	103.94
341.842	90.94
342.07	100.94
342.298	104.94
342.526	103.94
342.754	105.94
342.981	112.94
343.209	114.94
343.437	104.94
343.665	109.94
343.893	117.94
344.12	119.94
344.348	113.94
344.576	128.94
344.804	110.94
345.031	118.94
345.259	113.94
345.487	106.94
345.714	103.94
345.942	105.94
346.17	112.94
346.397	117.94
346.625	110.94
346.853	91.94
347.08	109.94
347.308	119.94
347.535	102.94
347.763	107.94
347.99	97.94
348.218	106.94
348.445	115.94
348.673	113.94
348.9	105.94
349.128	112.94
349.355	103.94
349.583	123.94
349.81	113.94
350.037	105.94
350.265	87.94
350.492	92.94
350.72	109.94
350.947	103.94
351.174	113.94
351.402	110.94
351.629	102.94
351.856	99.94
352.083	94.94
352.311	103.94
352.538	106.94
352.765	109.94
352.992	106.94
353.22	113.94
353.447	112.94
353.674	114.94
353.901	99.94
354.128	96.94
354.355	94.94
354.583	100.94
354.81	99.94
355.037	119.94
355.264	121.94
355.491	113.94
355.718	96.94
355.945	98.94
356.172	104.94
356.399	106.94
356.626	118.94
356.853	97.94
357.08	100.94
357.307	111.94
357.534	109.94
357.761	116.94
357.988	107.94
358.215	111.94
358.441	106.94
358.668	99.94
358.895	107.94
359.122	99.94
359.349	91.94
359.576	119.94
359.802	112.94
360.029	101.94
360.256	105.94
360.483	117.94
360.709	120.94
360.936	110.94
361.163	114.94
361.39	96.94
361.616	109.94
361.843	112.94
362.07	110.94
362.296	115.94
362.523	114.94
362.749	109.94
362.976	111.94
363.203	124.94
363.429	110.94
363.656	96.94
363.882	109.94
364.109	109.94
364.335	106.94
364.562	114.94
364.788	118.94
365.015	110.94
365.241	113.94
365.468	119.94
365.694	94.94
365.92	109.94
366.147	114.94
366.373	109.94
366.599	93.94
366.826	103.94
367.052	110.94
367.278	107.94
367.505	111.94
367.731	109.94
367.957	107.94
368.184	112.94
368.41	115.94
368.636	112.94
368.862	115.94
369.089	120.94
369.315	106.94
369.541	121.94
369.767	111.94
369.993	101.94
370.219	95.94
370.445	101.94
370.672	102.94
370.898	105.94
371.124	111.94
371.35	99.94
371.576	101.94
371.802	119.94
372.028	121.94
372.254	88.94
372.48	108.94
372.706	103.94
372.932	107.94
373.158	106.94
373.384	111.94
373.61	119.94
373.835	114.94
374.061	109.94
374.287	123.94
374.513	110.94
374.739	117.94
374.965	115.94
375.191	119.94
375.416	130.94
375.642	103.94
375.868	108.94
376.094	109.94
376.319	104.94
376.545	112.94
376.771	116.94
376.997	106.94
377.222	109.94
377.448	115.94
377.674	105.94
377.899	97.94
378.125	114.94
378.35	100.94
378.576	103.94
378.802	109.94
379.027	114.94
379.253	97.94
379.478	104.94
379.704	114.94
379.929	107.94
380.155	111.94
380.38	95.94
380.606	109.94
380.831	105.94
381.057	99.94
381.282	105.94
381.507	94.94
381.733	91.94
381.958	117.94
382.184	111.94
382.409	105.94
382.634	105.94
382.86	108.94
383.085	109.94
383.31	101.94
383.535	131.94
383.761	121.94
383.986	114.94
384.211	118.94
384.436	109.94
384.662	101.94
384.887	105.94
385.112	118.94
385.337	104.94
385.562	123.94
385.787	109.94
386.013	111.94
386.238	127.94
386.463	115.94
386.688	107.94
386.913	115.94
387.138	109.94
387.363	106.94
387.588	119.94
387.813	105.94
388.038	105.94
388.263	115.94
388.488	119.94
388.713	110.94
388.938	120.94
389.163	109.94
389.387	118.94
389.612	114.94
389.837	114.94
390.062	110.94
390.287	116.94
390.512	105.94
390.736	114.94
390.961	105.94
391.186	111.94
391.411	121.94
391.636	104.94
391.86	116.94
392.085	135.94
392.31	123.94
392.534	122.94
392.759	102.94
392.984	122.94
393.208	107.94
393.433	101.94
393.658	119.94
393.882	120.94
394.107	118.94
394.331	128.94
394.556	93.94
394.78	104.94
395.005	128.94
395.229	114.94
395.454	104.94
395.678	99.94
395.903	106.94
396.127	128.94
396.352	101.94
396.576	117.94
396.801	127.94
397.025	98.94
397.249	120.94
397.474	111.94
397.698	135.94
397.922	123.94
398.147	122.94
398.371	115.94
398.595	121.94
398.82	110.94
399.044	117.94
399.268	131.94
399.492	131.94
399.717	132.94
399.941	149.94
400.165	139.94
400.389	126.94
400.613	124.94
400.837	123.94
401.062	117.94
401.286	117.94
401.51	119.94
401.734	105.94
401.958	123.94
402.182	127.94
402.406	124.94
402.63	128.94
402.854	140.94
403.078	145.94
403.302	141.94
403.526	117.94
403.75	128.94
403.974	133.94
404.198	135.94
404.422	128.94
404.645	124.94
404.869	133.94
405.093	122.94
405.317	135.94
405.541	137.94
405.765	129.94
405.988	120.94
406.212	115.94
406.436	132.94
406.66	131.94
406.883	123.94
407.107	131.94
407.331	126.94
407.555	126.94
407.778	150.94
408.002	139.94
408.226	139.94
408.449	140.94
408.673	123.94
408.896	152.94
409.12	141.94
409.344	121.94
409.567	105.94
409.791	130.94
410.014	129.94
410.238	148.94
410.461	129.94
410.685	117.94
410.908	109.94
411.132	132.94
411.355	129.94
411.578	142.94
411.802	121.94
412.025	117.94
412.249	117.94
412.472	118.94
412.695	129.94
412.919	129.94
413.142	127.94
413.365	112.94
413.589	106.94
413.812	123.94
414.035	123.94
414.258	122.94
414.482	131.94
414.705	117.94
414.928	117.94
415.151	139.94
415.374	131.94
415.597	118.94
415.821	131.94
416.044	127.94
416.267	137.94
416.49	128.94
416.713	116.94
416.936	111.94
417.159	126.94
417.382	112.94
417.605	109.94
417.828	113.94
418.051	119.94
418.274	118.94
418.497	115.94
418.72	112.94
418.943	121.94
419.166	121.94
419.389	121.94
419.611	125.94
419.834	115.94
420.057	132.94
420.28	125.94
420.503	134.94
420.726	131.94
420.948	125.94
421.171	125.94
421.394	128.94
421.617	119.94
421.839	118.94
422.062	111.94
422.285	129.94
422.507	134.94
422.73	124.94
422.953	122.94
423.175	121.94
423.398	137.94
423.621	125.94
423.843	147.94
424.066	122.94
424.288	125.94
424.511	137.94
424.733	120.94
424.956	129.94
425.178	143.94
425.401	130.94
425.623	125.94
425.846	123.94
426.068	122.94
426.291	128.94
426.513	129.94
426.735	121.94
426.958	128.94
427.18	118.94
427.402	123.94
427.625	143.94
427.847	137.94
428.069	134.94
428.292	135.94
428.514	122.94
428.736	123.94
428.958	139.94
429.181	113.94
429.403	115.94
429.625	116.94
429.847	137.94
430.069	127.94
430.292	125.94
430.514	122.94
430.736	122.94
430.958	128.94
431.18	119.94
431.402	122.94
431.624	121.94
431.846	123.94
432.068	121.94
432.29	120.94
432.512	127.94
432.734	125.94
432.956	118.94
433.178	122.94
433.4	114.94
433.622	116.94
433.844	113.94
434.066	125.94
434.287	124.94
434.509	127.94
434.731	124.94
434.953	125.94
435.175	124.94
435.397	135.94
435.618	123.94
435.84	130.94
436.062	145.94
436.284	139.94
436.505	125.94
436.727	129.94
436.949	123.94
437.17	128.94
437.392	110.94
437.614	115.94
437.835	130.94
438.057	131.94
438.278	121.94
438.5	135.94
438.721	129.94
438.943	139.94
439.165	140.94
439.386	123.94
439.608	130.94
439.829	130.94
440.05	125.94
440.272	134.94
440.493	109.94
440.715	120.94
440.936	126.94
441.158	133.94
441.379	122.94
441.6	133.94
441.822	139.94
442.043	135.94
442.264	131.94
442.486	125.94
442.707	135.94
442.928	143.94
443.149	118.94
443.371	131.94
443.592	136.94
443.813	118.94
444.034	141.94
444.255	131.94
444.476	122.94
444.698	124.94
444.919	133.94
445.14	224.94
445.361	166.94
445.582	127.94
445.803	130.94
446.024	135.94
446.245	140.94
446.466	147.94
446.687	134.94
446.908	128.94
447.129	135.94
447.35	122.94
447.571	120.94
447.792	125.94
448.013	123.94
448.234	129.94
448.455	124.94
448.675	134.94
448.896	134.94
449.117	138.94
449.338	124.94
449.559	125.94
449.779	135.94
450	133.94
450.221	121.94
450.442	123.94
450.662	127.94
450.883	126.94
451.104	136.94
451.324	102.94
451.545	104.94
451.766	117.94
451.986	117.94
452.207	113.94
452.428	114.94
452.648	115.94
452.869	119.94
453.089	114.94
453.31	111.94
453.53	107.94
453.751	115.94
453.971	123.94
454.192	119.94
454.412	120.94
454.633	109.94
454.853	114.94
455.073	121.94
455.294	119.94
455.514	127.94
455.734	102.94
455.955	105.94
456.175	121.94
456.395	99.94
456.616	119.94
456.836	107.94
457.056	100.94
457.276	93.94
457.497	117.94
457.717	101.94
457.937	104.94
458.157	117.94
458.377	107.94
458.598	106.94
458.818	110.94
459.038	123.94
459.258	121.94
459.478	127.94
459.698	124.94
459.918	127.94
460.138	126.94
460.358	115.94
460.578	115.94
460.798	129.94
461.018	120.94
461.238	139.94
461.458	130.94
461.678	123.94
461.898	123.94
462.118	117.94
462.338	120.94
462.558	120.94
462.777	135.94
462.997	140.94
463.217	140.94
463.437	118.94
463.657	126.94
463.876	125.94
464.096	147.94
464.316	142.94
464.536	132.94
464.755	139.94
464.975	133.94
465.195	132.94
465.414	137.94
465.634	114.94
465.854	114.94
466.073	122.94
466.293	117.94
466.512	121.94
466.732	119.94
466.951	129.94
467.171	113.94
467.391	117.94
467.61	125.94
467.829	116.94
468.049	130.94
468.268	114.94
468.488	111.94
468.707	133.94
468.927	122.94
469.146	118.94
469.365	125.94
469.585	121.94
469.804	114.94
470.023	113.94
470.243	118.94
470.462	115.94
470.681	118.94
470.901	114.94
471.12	119.94
471.339	141.94
471.558	119.94
471.777	115.94
471.997	113.94
472.216	126.94
472.435	114.94
472.654	119.94
472.873	127.94
473.092	133.94
473.311	113.94
473.53	107.94
473.749	119.94
473.968	133.94
474.187	130.94
474.406	130.94
474.625	134.94
474.844	125.94
475.063	141.94
475.282	127.94
475.501	129.94
475.72	120.94
475.939	122.94
476.158	121.94
476.377	134.94
476.596	121.94
476.814	126.94
477.033	117.94
477.252	117.94
477.471	118.94
477.69	129.94
477.908	123.94
478.127	132.94
478.346	127.94
478.564	125.94
478.783	129.94
479.002	138.94
479.22	145.94
479.439	135.94
479.658	144.94
479.876	131.94
480.095	111.94
480.313	142.94
480.532	139.94
480.751	119.94
480.969	126.94
481.188	137.94
481.406	132.94
481.624	115.94
481.843	146.94
482.061	125.94
482.28	117.94
482.498	137.94
482.717	121.94
482.935	123.94
483.153	127.94
483.372	129.94
483.59	127.94
483.808	106.94
484.027	116.94
484.245	131.94
484.463	138.94
484.681	142.94
484.9	116.94
485.118	128.94
485.336	129.94
485.554	124.94
485.772	123.94
485.99	146.94
486.209	125.94
486.427	112.94
486.645	125.94
486.863	127.94
487.081	132.94
487.299	132.94
487.517	134.94
487.735	119.94
487.953	133.94
488.171	139.94
488.389	121.94
488.607	135.94
488.825	127.94
489.043	140.94
489.261	145.94
489.479	149.94
489.696	134.94
489.914	129.94
490.132	130.94
490.35	144.94
490.568	139.94
490.786	145.94
491.003	128.94
491.221	119.94
491.439	133.94
491.657	130.94
491.874	123.94
492.092	118.94
492.31	131.94
492.527	127.94
492.745	152.94
492.963	133.94
493.18	145.94
493.398	138.94
493.615	134.94
493.833	137.94
494.05	146.94
494.268	149.94
494.485	161.94
494.703	140.94
494.92	120.94
495.138	130.94
495.355	133.94
495.573	129.94
495.79	142.94
496.008	122.94
496.225	133.94
496.442	129.94
496.66	146.94
496.877	143.94
497.094	157.94
497.312	142.94
497.529	146.94
497.746	142.94
497.963	131.94
498.181	137.94
498.398	139.94
498.615	158.94
498.832	148.94
499.049	164.94
499.267	173.94
499.484	158.94
499.701	180.94
499.918	191.94
500.135	183.94
500.352	206.94
500.569	215.94
500.786	214.94
501.003	180.94
501.22	200.94
501.437	182.94
501.654	159.94
501.871	164.94
502.088	166.94
502.305	137.94
502.522	147.94
502.739	137.94
502.956	146.94
503.172	149.94
503.389	141.94
503.606	132.94
503.823	138.94
504.04	146.94
504.256	154.94
504.473	155.94
504.69	149.94
504.907	132.94
505.123	137.94
505.34	140.94
505.557	140.94
505.773	129.94
505.99	145.94
506.207	136.94
506.423	145.94
506.64	134.94
506.856	131.94
507.073	133.94
507.289	124.94
507.506	118.94
507.722	142.94
507.939	135.94
508.155	125.94
508.372	119.94
508.588	121.94
508.805	122.94
509.021	121.94
509.238	121.94
509.454	125.94
509.67	132.94
509.887	124.94
510.103	136.94
510.319	138.94
510.536	128.94
510.752	170.94
510.968	121.94
511.184	123.94
511.401	125.94
511.617	119.94
511.833	133.94
512.049	115.94
512.265	143.94
512.481	129.94
512.698	111.94
512.914	120.94
513.13	135.94
513.346	127.94
513.562	127.94
513.778	123.94
513.994	119.94
514.21	126.94
514.426	129.94
514.642	129.94
514.858	121.94
515.074	131.94
515.29	140.94
515.506	162.94
515.721	140.94
515.937	132.94
516.153	130.94
516.369	133.94
516.585	130.94
516.801	133.94
517.016	131.94
517.232	137.94
517.448	137.94
517.664	133.94
517.879	138.94
518.095	142.94
518.311	125.94
518.527	133.94
518.742	139.94
518.958	137.94
519.173	144.94
519.389	141.94
519.605	122.94
519.82	127.94
520.036	118.94
520.251	133.94
520.467	117.94
520.682	129.94
520.898	135.94
521.113	126.94
521.329	123.94
521.544	129.94
521.76	146.94
521.975	176.94
522.19	187.94
522.406	140.94
522.621	119.94
522.836	124.94
523.052	137.94
523.267	129.94
523.482	118.94
523.698	126.94
523.913	125.94
524.128	129.94
524.343	121.94
524.559	122.94
524.774	113.94
524.989	115.94
525.204	120.94
525.419	132.94
525.634	120.94
525.849	105.94
526.064	121.94
526.28	105.94
526.495	125.94
526.71	109.94
526.925	93.94
527.14	116.94
527.355	119.94
527.57	125.94
527.785	128.94
527.999	125.94
528.214	123.94
528.429	118.94
528.644	109.94
528.859	119.94
529.074	114.94
529.289	123.94
529.503	113.94
529.718	121.94
529.933	107.94
530.148	102.94
530.363	103.94
530.577	122.94
530.792	133.94
531.007	112.94
531.221	124.94
531.436	129.94
531.651	120.94
531.865	106.94
532.08	120.94
532.295	110.94
532.509	115.94
532.724	118.94
532.938	103.94
533.153	122.94
533.367	124.94
533.582	123.94
533.796	98.94
534.011	123.94
534.225	111.94
534.44	106.94
534.654	119.94
534.868	123.94
535.083	111.94
535.297	122.94
535.511	123.94
535.726	117.94
535.94	125.94
536.154	109.94
536.369	114.94
536.583	113.94
536.797	125.94
537.011	102.94
537.225	109.94
537.44	113.94
537.654	130.94
537.868	118.94
538.082	114.94
538.296	114.94
538.51	114.94
538.724	106.94
538.938	104.94
539.153	125.94
539.367	121.94
539.581	121.94
539.795	111.94
540.009	101.94
540.222	112.94
540.436	131.94
540.65	118.94
540.864	122.94
541.078	123.94
541.292	125.94
541.506	118.94
541.72	113.94
541.934	122.94
542.147	132.94
542.361	140.94
542.575	124.94
542.789	125.94
543.002	119.94
543.216	113.94
543.43	123.94
543.644	129.94
543.857	137.94
544.071	128.94
544.285	134.94
544.498	131.94
544.712	133.94
544.925	138.94
545.139	139.94
545.352	121.94
545.566	106.94
545.779	133.94
545.993	125.94
546.206	134.94
546.42	149.94
546.633	121.94
546.847	126.94
547.06	143.94
547.274	111.94
547.487	134.94
547.7	120.94
547.914	122.94
548.127	118.94
548.34	125.94
548.554	117.94
548.767	122.94
548.98	123.94
549.193	123.94
549.407	126.94
549.62	111.94
549.833	112.94
550.046	120.94
550.259	127.94
550.473	139.94
550.686	132.94
550.899	130.94
551.112	123.94
551.325	140.94
551.538	119.94
551.751	117.94
551.964	115.94
552.177	112.94
552.39	111.94
552.603	113.94
552.816	119.94
553.029	115.94
553.242	119.94
553.455	120.94
553.667	125.94
553.88	116.94
554.093	123.94
554.306	119.94
554.519	142.94
554.732	132.94
554.944	109.94
555.157	124.94
555.37	118.94
555.583	121.94
555.795	125.94
556.008	115.94
556.221	102.94
556.433	118.94
556.646	121.94
556.859	111.94
557.071	110.94
557.284	115.94
557.496	122.94
557.709	115.94
557.921	113.94
558.134	117.94
558.346	123.94
558.559	113.94
558.771	119.94
558.984	108.94
559.196	113.94
559.409	113.94
559.621	100.94
559.833	105.94
560.046	108.94
560.258	117.94
560.47	119.94
560.683	103.94
560.895	114.94
561.107	113.94
561.32	117.94
561.532	108.94
561.744	109.94
561.956	119.94
562.168	119.94
562.381	114.94
562.593	110.94
562.805	124.94
563.017	134.94
563.229	120.94
563.441	113.94
563.653	119.94
563.865	119.94
564.077	103.94
564.289	113.94
564.501	121.94
564.713	117.94
564.925	108.94
565.137	123.94
565.349	116.94
565.561	114.94
565.773	121.94
565.985	116.94
566.197	120.94
566.408	126.94
566.62	133.94
566.832	128.94
567.044	126.94
567.255	122.94
567.467	119.94
567.679	122.94
567.891	134.94
568.102	138.94
568.314	134.94
568.526	119.94
568.737	123.94
568.949	122.94
569.161	119.94
569.372	107.94
569.584	120.94
569.795	118.94
570.007	103.94
570.218	125.94
570.43	117.94
570.641	126.94
570.853	101.94
571.064	109.94
571.276	114.94
571.487	109.94
571.698	101.94
571.91	105.94
572.121	99.94
572.333	99.94
572.544	116.94
572.755	101.94
572.966	118.94
573.178	111.94
573.389	108.94
573.6	103.94
573.811	99.94
574.023	114.94
574.234	111.94
574.445	111.94
574.656	112.94
574.867	92.94
575.078	111.94
575.289	106.94
575.501	115.94
575.712	108.94
575.923	94.94
576.134	99.94
576.345	106.94
576.556	105.94
576.767	122.94
576.978	106.94
577.188	105.94
577.399	112.94
577.61	109.94
577.821	106.94
578.032	101.94
578.243	103.94
578.454	123.94
578.665	94.94
578.875	109.94
579.086	116.94
579.297	119.94
579.508	105.94
579.718	97.94
579.929	123.94
580.14	113.94
580.35	105.94
580.561	112.94
580.772	106.94
580.982	94.94
581.193	103.94
581.403	104.94
581.614	92.94
581.825	115.94
582.035	112.94
582.246	101.94
582.456	104.94
582.667	105.94
582.877	114.94
583.087	93.94
583.298	100.94
583.508	103.94
583.719	104.94
583.929	99.94
584.139	95.94
584.35	106.94
584.56	104.94
584.77	104.94
584.981	109.94
585.191	117.94
585.401	90.94
585.611	118.94
585.821	113.94
586.032	116.94
586.242	118.94
586.452	101.94
586.662	115.94
586.872	84.94
587.082	88.94
587.292	102.94
587.502	99.94
587.713	109.94
587.923	106.94
588.133	109.94
588.343	114.94
588.553	116.94
588.762	105.94
588.972	117.94
589.182	90.94
589.392	100.94
589.602	111.94
589.812	105.94
590.022	112.94
590.232	83.94
590.441	103.94
590.651	111.94
590.861	113.94
591.071	82.94
591.281	109.94
591.49	114.94
591.7	99.94
591.91	109.94
592.119	109.94
592.329	106.94
592.539	115.94
592.748	109.94
592.958	111.94
593.167	108.94
593.377	121.94
593.587	112.94
593.796	127.94
594.006	106.94
594.215	100.94
594.424	115.94
594.634	102.94
594.843	119.94
595.053	115.94
595.262	91.94
595.472	125.94
595.681	111.94
595.89	105.94
596.1	98.94
596.309	94.94
596.518	100.94
596.727	102.94
596.937	106.94
597.146	90.94
597.355	97.94
597.564	94.94
597.774	101.94
597.983	95.94
598.192	83.94
598.401	93.94
598.61	91.94
598.819	94.94
599.028	97.94
599.237	111.94
599.446	95.94
599.655	96.94
599.864	104.94
600.073	93.94
600.282	114.94
600.491	98.94
600.7	109.94
600.909	101.94
601.118	95.94
601.327	88.94
601.536	95.94
601.745	91.94
601.953	101.94
602.162	101.94
602.371	95.94
602.58	96.94
602.789	102.94
602.997	94.94
603.206	95.94
603.415	102.94
603.623	90.94
603.832	96.94
604.041	82.94
604.249	90.94
604.458	87.94
604.666	97.94
604.875	84.94
605.084	95.94
605.292	97.94
605.501	100.94
605.709	96.94
605.918	89.94
606.126	108.94
606.334	93.94
606.543	101.94
606.751	95.94
606.96	90.94
607.168	88.94
607.376	111.94
607.585	95.94
607.793	103.94
608.001	89.94
608.21	105.94
608.418	95.94
608.626	102.94
608.834	89.94
609.043	97.94
609.251	107.94
609.459	104.94
609.667	114.94
609.875	96.94
610.083	91.94
610.291	96.94
610.499	98.94
610.707	97.94
610.916	96.94
611.124	97.94
611.332	109.94
611.54	113.94
611.748	129.94
611.955	99.94
612.163	104.94
612.371	101.94
612.579	93.94
612.787	113.94
612.995	114.94
613.203	109.94
613.411	86.94
613.618	107.94
613.826	90.94
614.034	112.94
614.242	108.94
614.449	109.94
614.657	102.94
614.865	97.94
615.072	107.94
615.28	98.94
615.488	104.94
615.695	92.94
615.903	111.94
616.111	101.94
616.318	112.94
616.526	88.94
616.733	104.94
616.941	93.94
617.148	97.94
617.356	105.94
617.563	83.94
617.771	103.94
617.978	77.94
618.185	101.94
618.393	90.94
618.6	94.94
618.807	92.94
619.015	98.94
619.222	100.94
619.429	110.94
619.637	100.94
619.844	85.94
620.051	106.94
620.258	86.94
620.466	105.94
620.673	87.94
620.88	87.94
621.087	101.94
621.294	88.94
621.501	95.94
621.708	93.94
621.915	91.94
622.122	83.94
622.329	115.94
622.536	102.94
622.743	97.94
622.95	102.94
623.157	90.94
623.364	85.94
623.571	90.94
623.778	101.94
623.985	93.94
624.192	84.94
624.399	80.94
624.606	106.94
624.812	87.94
625.019	97.94
625.226	105.94
625.433	95.94
625.639	105.94
625.846	86.94
626.053	99.94
626.259	89.94
626.466	98.94
626.673	97.94
626.879	90.94
627.086	93.94
627.293	101.94
627.499	95.94
627.706	84.94
627.912	95.94
628.119	98.94
628.325	106.94
628.532	92.94
628.738	86.94
628.945	92.94
629.151	88.94
629.357	102.94
629.564	92.94
629.77	93.94
629.976	79.94
630.183	85.94
630.389	79.94
630.595	98.94
630.802	93.94
631.008	89.94
631.214	96.94
631.42	93.94
631.627	83.94
631.833	103.94
632.039	98.94
632.245	106.94
632.451	85.94
632.657	97.94
632.863	97.94
633.069	95.94
633.275	97.94
633.481	79.94
633.688	90.94
633.893	98.94
634.099	90.94
634.305	88.94
634.511	78.94
634.717	105.94
634.923	94.94
635.129	95.94
635.335	102.94
635.541	89.94
635.747	95.94
635.952	98.94
636.158	79.94
636.364	82.94
636.57	93.94
636.775	89.94
636.981	80.94
637.187	104.94
637.392	86.94
637.598	100.94
637.804	95.94
638.009	101.94
638.215	76.94
638.421	83.94
638.626	97.94
638.832	89.94
639.037	84.94
639.243	84.94
639.448	93.94
639.654	85.94
639.859	93.94
640.065	88.94
640.27	89.94
640.475	72.94
640.681	84.94
640.886	80.94
641.091	95.94
641.297	97.94
641.502	82.94
641.707	90.94
641.913	87.94
642.118	87.94
642.323	83.94
642.528	104.94
642.733	99.94
642.939	105.94
643.144	89.94
643.349	98.94
643.554	91.94
643.759	85.94
643.964	84.94
644.169	87.94
644.374	80.94
644.579	86.94
644.784	86.94
644.989	81.94
645.194	88.94
645.399	93.94
645.604	90.94
645.809	87.94
646.014	91.94
646.219	84.94
646.423	92.94
646.628	97.94
646.833	95.94
647.038	87.94
647.243	94.94
647.447	89.94
647.652	83.94
647.857	79.94
648.062	96.94
648.266	94.94
648.471	88.94
648.676	96.94
648.88	80.94
649.085	93.94
649.289	97.94
649.494	84.94
649.698	86.94
649.903	77.94
650.107	84.94
650.312	73.94
650.516	87.94
650.721	79.94
650.925	91.94
651.13	92.94
651.334	74.94
651.539	86.94
651.743	84.94
651.947	94.94
652.152	85.94
652.356	83.94
652.56	89.94
652.764	80.94
652.969	95.94
653.173	80.94
653.377	75.94
653.581	78.94
653.785	97.94
653.99	76.94
654.194	87.94
654.398	87.94
654.602	72.94
654.806	85.94
655.01	95.94
655.214	94.94
655.418	100.94
655.622	82.94
655.826	79.94
656.03	82.94
656.234	74.94
656.438	83.94
656.642	95.94
656.846	85.94
657.049	97.94
657.253	89.94
657.457	85.94
657.661	89.94
657.865	96.94
658.068	87.94
658.272	74.94
658.476	81.94
658.68	80.94
658.883	72.94
659.087	84.94
659.291	86.94
659.494	96.94
659.698	80.94
659.901	79.94
660.105	80.94
660.309	88.94
660.512	79.94
660.716	75.94
660.919	74.94
661.123	92.94
661.326	97.94
661.53	81.94
661.733	91.94
661.936	89.94
662.14	69.94
662.343	92.94
662.546	82.94
662.75	88.94
662.953	81.94
663.156	88.94
663.36	82.94
663.563	93.94
663.766	71.94
663.969	74.94
664.173	72.94
664.376	82.94
664.579	80.94
664.782	88.94
664.985	77.94
665.188	80.94
665.391	80.94
665.594	82.94
665.797	66.94
666	66.94
666.203	71.94
666.406	80.94
666.609	72.94
666.812	72.94
667.015	87.94
667.218	68.94
667.421	83.94
667.624	72.94
667.827	85.94
668.03	72.94
668.232	65.94
668.435	74.94
668.638	77.94
668.841	90.94
669.043	82.94
669.246	81.94
669.449	82.94
669.651	79.94
669.854	85.94
670.057	83.94
670.259	76.94
670.462	79.94
670.665	77.94
670.867	85.94
671.07	78.94
671.272	81.94
671.475	65.94
671.677	76.94
671.88	95.94
672.082	74.94
672.284	79.94
672.487	83.94
672.689	82.94
672.892	73.94
