Data from 1968.PennyLincolnUp.Lamp.En5.5.200Scan.071719.P1._HRD10591_14-49-13-968.txt Node
Date: Thu Jul 18 14:49:13 EDT 2019
User: cochatt
Spectrometer: HR+D1059
Trigger mode: 1
Integration Time (sec): 1.000000E-1
Scans to average: 1
Electric dark correction enabled: true
Nonlinearity correction enabled: false
Boxcar width: 0
XAxis mode: Wavelengths
Number of Pixels in Spectrum: 2048
>>>>>Begin Spectral Data<<<<<
223.165	-17.38
223.4	-17.38
223.635	-17.38
223.869	-15.38
224.104	-22.38
224.338	-16.38
224.573	-20.38
224.808	-17.38
225.042	-11.38
225.277	2.62
225.511	-7.38
225.746	-1.38
225.98	4.62
226.215	17.62
226.449	22.62
226.683	25.62
226.918	28.62
227.152	27.62
227.387	33.62
227.621	34.62
227.856	40.62
228.09	47.62
228.324	52.62
228.559	45.62
228.793	51.62
229.027	71.62
229.262	63.62
229.496	58.62
229.73	69.62
229.964	64.62
230.199	70.62
230.433	89.62
230.667	75.62
230.901	76.62
231.136	83.62
231.37	88.62
231.604	75.62
231.838	80.62
232.072	81.62
232.306	61.62
232.541	79.62
232.775	83.62
233.009	90.62
233.243	84.62
233.477	80.62
233.711	87.62
233.945	81.62
234.179	86.62
234.413	80.62
234.647	84.62
234.881	82.62
235.115	79.62
235.349	67.62
235.583	75.62
235.817	74.62
236.051	76.62
236.285	88.62
236.519	99.62
236.753	70.62
236.987	72.62
237.221	83.62
237.455	77.62
237.689	69.62
237.922	74.62
238.156	84.62
238.39	72.62
238.624	79.62
238.858	72.62
239.091	83.62
239.325	88.62
239.559	76.62
239.793	72.62
240.027	83.62
240.26	73.62
240.494	74.62
240.728	77.62
240.961	76.62
241.195	72.62
241.429	82.62
241.662	75.62
241.896	67.62
242.13	82.62
242.363	71.62
242.597	75.62
242.83	90.62
243.064	54.62
243.298	89.62
243.531	75.62
243.765	86.62
243.998	94.62
244.232	65.62
244.465	73.62
244.699	88.62
244.932	87.62
245.166	87.62
245.399	97.62
245.633	83.62
245.866	92.62
246.099	83.62
246.333	83.62
246.566	79.62
246.8	69.62
247.033	82.62
247.266	89.62
247.5	81.62
247.733	90.62
247.966	75.62
248.2	74.62
248.433	80.62
248.666	82.62
248.899	81.62
249.133	70.62
249.366	86.62
249.599	83.62
249.832	78.62
250.066	83.62
250.299	82.62
250.532	86.62
250.765	94.62
250.998	92.62
251.231	79.62
251.465	90.62
251.698	90.62
251.931	86.62
252.164	84.62
252.397	77.62
252.63	79.62
252.863	83.62
253.096	88.62
253.329	101.62
253.562	76.62
253.795	82.62
254.028	85.62
254.261	86.62
254.494	86.62
254.727	83.62
254.96	70.62
255.193	90.62
255.426	88.62
255.659	79.62
255.892	77.62
256.124	85.62
256.357	65.62
256.59	100.62
256.823	89.62
257.056	105.62
257.289	82.62
257.521	81.62
257.754	81.62
257.987	89.62
258.22	79.62
258.452	76.62
258.685	93.62
258.918	84.62
259.151	87.62
259.383	81.62
259.616	91.62
259.849	79.62
260.081	96.62
260.314	84.62
260.547	89.62
260.779	85.62
261.012	91.62
261.244	100.62
261.477	101.62
261.71	96.62
261.942	94.62
262.175	98.62
262.407	91.62
262.64	69.62
262.872	91.62
263.105	83.62
263.337	86.62
263.57	86.62
263.802	85.62
264.035	92.62
264.267	77.62
264.499	83.62
264.732	98.62
264.964	88.62
265.197	90.62
265.429	88.62
265.661	76.62
265.894	83.62
266.126	99.62
266.358	84.62
266.591	95.62
266.823	81.62
267.055	79.62
267.287	88.62
267.52	95.62
267.752	106.62
267.984	101.62
268.216	75.62
268.448	86.62
268.681	90.62
268.913	115.62
269.145	84.62
269.377	100.62
269.609	77.62
269.841	98.62
270.073	92.62
270.306	97.62
270.538	88.62
270.77	103.62
271.002	92.62
271.234	81.62
271.466	84.62
271.698	107.62
271.93	103.62
272.162	105.62
272.394	98.62
272.626	92.62
272.858	96.62
273.09	91.62
273.322	96.62
273.553	79.62
273.785	85.62
274.017	89.62
274.249	83.62
274.481	83.62
274.713	76.62
274.945	102.62
275.176	91.62
275.408	104.62
275.64	90.62
275.872	113.62
276.104	95.62
276.335	84.62
276.567	95.62
276.799	87.62
277.031	88.62
277.262	82.62
277.494	97.62
277.726	91.62
277.957	90.62
278.189	100.62
278.421	78.62
278.652	100.62
278.884	83.62
279.115	98.62
279.347	98.62
279.579	101.62
279.81	115.62
280.042	88.62
280.273	88.62
280.505	89.62
280.736	86.62
280.968	84.62
281.199	92.62
281.431	99.62
281.662	97.62
281.894	107.62
282.125	97.62
282.356	95.62
282.588	104.62
282.819	89.62
283.051	98.62
283.282	80.62
283.513	86.62
283.745	96.62
283.976	104.62
284.207	104.62
284.439	108.62
284.67	94.62
284.901	106.62
285.132	93.62
285.364	100.62
285.595	78.62
285.826	80.62
286.057	95.62
286.288	96.62
286.52	101.62
286.751	87.62
286.982	96.62
287.213	106.62
287.444	105.62
287.675	92.62
287.906	107.62
288.138	98.62
288.369	105.62
288.6	100.62
288.831	103.62
289.062	114.62
289.293	108.62
289.524	99.62
289.755	92.62
289.986	98.62
290.217	88.62
290.448	117.62
290.679	98.62
290.91	98.62
291.141	92.62
291.371	94.62
291.602	106.62
291.833	96.62
292.064	98.62
292.295	91.62
292.526	99.62
292.757	98.62
292.987	110.62
293.218	92.62
293.449	107.62
293.68	104.62
293.91	106.62
294.141	105.62
294.372	111.62
294.603	112.62
294.833	89.62
295.064	80.62
295.295	91.62
295.525	99.62
295.756	113.62
295.987	95.62
296.217	113.62
296.448	96.62
296.679	98.62
296.909	97.62
297.14	93.62
297.37	98.62
297.601	106.62
297.831	102.62
298.062	93.62
298.292	100.62
298.523	99.62
298.753	103.62
298.984	105.62
299.214	103.62
299.445	102.62
299.675	111.62
299.905	106.62
300.136	106.62
300.366	96.62
300.597	88.62
300.827	104.62
301.057	105.62
301.288	104.62
301.518	101.62
301.748	101.62
301.979	100.62
302.209	104.62
302.439	97.62
302.669	100.62
302.9	110.62
303.13	113.62
303.36	114.62
303.59	112.62
303.82	94.62
304.051	100.62
304.281	97.62
304.511	114.62
304.741	102.62
304.971	98.62
305.201	106.62
305.431	97.62
305.661	114.62
305.891	110.62
306.121	116.62
306.352	97.62
306.582	94.62
306.812	100.62
307.042	108.62
307.272	110.62
307.502	94.62
307.731	105.62
307.961	101.62
308.191	90.62
308.421	104.62
308.651	103.62
308.881	104.62
309.111	113.62
309.341	96.62
309.571	107.62
309.8	106.62
310.03	106.62
310.26	94.62
310.49	94.62
310.72	84.62
310.949	100.62
311.179	107.62
311.409	110.62
311.639	107.62
311.868	99.62
312.098	90.62
312.328	98.62
312.557	111.62
312.787	89.62
313.017	106.62
313.246	104.62
313.476	104.62
313.706	111.62
313.935	114.62
314.165	98.62
314.394	110.62
314.624	110.62
314.853	113.62
315.083	105.62
315.312	101.62
315.542	96.62
315.771	105.62
316.001	100.62
316.23	107.62
316.46	101.62
316.689	99.62
316.919	98.62
317.148	109.62
317.377	82.62
317.607	105.62
317.836	100.62
318.065	103.62
318.295	100.62
318.524	111.62
318.753	96.62
318.983	112.62
319.212	106.62
319.441	93.62
319.67	103.62
319.9	94.62
320.129	95.62
320.358	103.62
320.587	112.62
320.816	97.62
321.046	112.62
321.275	101.62
321.504	106.62
321.733	105.62
321.962	118.62
322.191	107.62
322.42	103.62
322.649	113.62
322.878	100.62
323.108	121.62
323.337	95.62
323.566	100.62
323.795	104.62
324.024	105.62
324.253	109.62
324.482	122.62
324.71	139.62
324.939	145.62
325.168	131.62
325.397	116.62
325.626	106.62
325.855	122.62
326.084	97.62
326.313	103.62
326.542	116.62
326.77	114.62
326.999	110.62
327.228	118.62
327.457	121.62
327.686	118.62
327.914	118.62
328.143	131.62
328.372	116.62
328.6	107.62
328.829	95.62
329.058	104.62
329.287	110.62
329.515	111.62
329.744	129.62
329.972	104.62
330.201	118.62
330.43	104.62
330.658	116.62
330.887	97.62
331.115	105.62
331.344	102.62
331.572	103.62
331.801	111.62
332.03	106.62
332.258	107.62
332.486	118.62
332.715	102.62
332.943	122.62
333.172	116.62
333.4	107.62
333.629	118.62
333.857	119.62
334.085	119.62
334.314	128.62
334.542	120.62
334.771	119.62
334.999	117.62
335.227	112.62
335.455	126.62
335.684	107.62
335.912	108.62
336.14	97.62
336.369	112.62
336.597	111.62
336.825	125.62
337.053	100.62
337.281	114.62
337.51	107.62
337.738	106.62
337.966	100.62
338.194	104.62
338.422	95.62
338.65	112.62
338.878	116.62
339.106	109.62
339.334	99.62
339.562	99.62
339.79	112.62
340.018	111.62
340.246	99.62
340.474	126.62
340.702	105.62
340.93	97.62
341.158	119.62
341.386	101.62
341.614	107.62
341.842	102.62
342.07	118.62
342.298	93.62
342.526	105.62
342.754	103.62
342.981	101.62
343.209	110.62
343.437	120.62
343.665	111.62
343.893	114.62
344.12	118.62
344.348	114.62
344.576	107.62
344.804	114.62
345.031	122.62
345.259	98.62
345.487	108.62
345.714	97.62
345.942	110.62
346.17	107.62
346.397	108.62
346.625	122.62
346.853	120.62
347.08	110.62
347.308	85.62
347.535	116.62
347.763	107.62
347.99	105.62
348.218	114.62
348.445	116.62
348.673	107.62
348.9	99.62
349.128	89.62
349.355	95.62
349.583	110.62
349.81	102.62
350.037	106.62
350.265	121.62
350.492	100.62
350.72	104.62
350.947	118.62
351.174	107.62
351.402	117.62
351.629	110.62
351.856	98.62
352.083	100.62
352.311	105.62
352.538	106.62
352.765	103.62
352.992	113.62
353.22	99.62
353.447	110.62
353.674	111.62
353.901	111.62
354.128	116.62
354.355	120.62
354.583	112.62
354.81	103.62
355.037	105.62
355.264	103.62
355.491	105.62
355.718	98.62
355.945	120.62
356.172	114.62
356.399	116.62
356.626	106.62
356.853	112.62
357.08	116.62
357.307	106.62
357.534	114.62
357.761	100.62
357.988	113.62
358.215	112.62
358.441	102.62
358.668	97.62
358.895	118.62
359.122	112.62
359.349	112.62
359.576	101.62
359.802	100.62
360.029	115.62
360.256	112.62
360.483	113.62
360.709	110.62
360.936	103.62
361.163	106.62
361.39	92.62
361.616	116.62
361.843	95.62
362.07	118.62
362.296	112.62
362.523	109.62
362.749	102.62
362.976	116.62
363.203	109.62
363.429	104.62
363.656	98.62
363.882	99.62
364.109	99.62
364.335	111.62
364.562	110.62
364.788	95.62
365.015	98.62
365.241	100.62
365.468	123.62
365.694	106.62
365.92	98.62
366.147	107.62
366.373	111.62
366.599	102.62
366.826	102.62
367.052	107.62
367.278	108.62
367.505	113.62
367.731	107.62
367.957	104.62
368.184	111.62
368.41	119.62
368.636	126.62
368.862	100.62
369.089	86.62
369.315	118.62
369.541	119.62
369.767	122.62
369.993	91.62
370.219	108.62
370.445	110.62
370.672	114.62
370.898	106.62
371.124	110.62
371.35	108.62
371.576	112.62
371.802	98.62
372.028	115.62
372.254	115.62
372.48	119.62
372.706	124.62
372.932	110.62
373.158	104.62
373.384	116.62
373.61	115.62
373.835	114.62
374.061	109.62
374.287	107.62
374.513	117.62
374.739	109.62
374.965	111.62
375.191	110.62
375.416	116.62
375.642	130.62
375.868	112.62
376.094	113.62
376.319	111.62
376.545	106.62
376.771	108.62
376.997	116.62
377.222	118.62
377.448	103.62
377.674	111.62
377.899	105.62
378.125	115.62
378.35	111.62
378.576	98.62
378.802	104.62
379.027	102.62
379.253	107.62
379.478	107.62
379.704	106.62
379.929	106.62
380.155	108.62
380.38	120.62
380.606	111.62
380.831	126.62
381.057	120.62
381.282	119.62
381.507	115.62
381.733	115.62
381.958	122.62
382.184	112.62
382.409	121.62
382.634	116.62
382.86	99.62
383.085	104.62
383.31	116.62
383.535	107.62
383.761	111.62
383.986	116.62
384.211	115.62
384.436	127.62
384.662	111.62
384.887	129.62
385.112	120.62
385.337	105.62
385.562	106.62
385.787	130.62
386.013	129.62
386.238	117.62
386.463	107.62
386.688	116.62
386.913	125.62
387.138	127.62
387.363	124.62
387.588	124.62
387.813	131.62
388.038	120.62
388.263	110.62
388.488	119.62
388.713	127.62
388.938	116.62
389.163	110.62
389.387	120.62
389.612	112.62
389.837	105.62
390.062	111.62
390.287	122.62
390.512	110.62
390.736	122.62
390.961	107.62
391.186	117.62
391.411	128.62
391.636	117.62
391.86	105.62
392.085	112.62
392.31	112.62
392.534	126.62
392.759	114.62
392.984	111.62
393.208	115.62
393.433	119.62
393.658	120.62
393.882	119.62
394.107	106.62
394.331	105.62
394.556	116.62
394.78	123.62
395.005	119.62
395.229	119.62
395.454	115.62
395.678	130.62
395.903	119.62
396.127	118.62
396.352	119.62
396.576	118.62
396.801	116.62
397.025	116.62
397.249	106.62
397.474	115.62
397.698	120.62
397.922	105.62
398.147	109.62
398.371	114.62
398.595	123.62
398.82	122.62
399.044	137.62
399.268	140.62
399.492	146.62
399.717	155.62
399.941	150.62
400.165	123.62
400.389	130.62
400.613	126.62
400.837	139.62
401.062	130.62
401.286	135.62
401.51	134.62
401.734	117.62
401.958	135.62
402.182	132.62
402.406	133.62
402.63	126.62
402.854	120.62
403.078	113.62
403.302	127.62
403.526	119.62
403.75	139.62
403.974	123.62
404.198	146.62
404.422	128.62
404.645	126.62
404.869	131.62
405.093	130.62
405.317	141.62
405.541	130.62
405.765	136.62
405.988	136.62
406.212	125.62
406.436	128.62
406.66	144.62
406.883	116.62
407.107	143.62
407.331	128.62
407.555	142.62
407.778	138.62
408.002	138.62
408.226	133.62
408.449	129.62
408.673	133.62
408.896	120.62
409.12	141.62
409.344	133.62
409.567	112.62
409.791	122.62
410.014	134.62
410.238	132.62
410.461	120.62
410.685	121.62
410.908	111.62
411.132	121.62
411.355	140.62
411.578	143.62
411.802	119.62
412.025	115.62
412.249	148.62
412.472	137.62
412.695	139.62
412.919	138.62
413.142	132.62
413.365	121.62
413.589	121.62
413.812	102.62
414.035	122.62
414.258	120.62
414.482	132.62
414.705	130.62
414.928	115.62
415.151	127.62
415.374	132.62
415.597	130.62
415.821	119.62
416.044	119.62
416.267	124.62
416.49	121.62
416.713	127.62
416.936	118.62
417.159	110.62
417.382	118.62
417.605	129.62
417.828	137.62
418.051	124.62
418.274	121.62
418.497	124.62
418.72	134.62
418.943	128.62
419.166	139.62
419.389	137.62
419.611	134.62
419.834	120.62
420.057	137.62
420.28	124.62
420.503	126.62
420.726	129.62
420.948	128.62
421.171	124.62
421.394	128.62
421.617	131.62
421.839	126.62
422.062	135.62
422.285	126.62
422.507	140.62
422.73	130.62
422.953	125.62
423.175	129.62
423.398	142.62
423.621	129.62
423.843	117.62
424.066	121.62
424.288	124.62
424.511	122.62
424.733	128.62
424.956	128.62
425.178	121.62
425.401	132.62
425.623	126.62
425.846	121.62
426.068	138.62
426.291	126.62
426.513	121.62
426.735	121.62
426.958	125.62
427.18	132.62
427.402	134.62
427.625	139.62
427.847	119.62
428.069	113.62
428.292	124.62
428.514	128.62
428.736	115.62
428.958	120.62
429.181	133.62
429.403	115.62
429.625	115.62
429.847	122.62
430.069	120.62
430.292	133.62
430.514	115.62
430.736	122.62
430.958	128.62
431.18	103.62
431.402	119.62
431.624	138.62
431.846	98.62
432.068	109.62
432.29	119.62
432.512	123.62
432.734	120.62
432.956	131.62
433.178	128.62
433.4	126.62
433.622	128.62
433.844	110.62
434.066	127.62
434.287	112.62
434.509	107.62
434.731	126.62
434.953	144.62
435.175	115.62
435.397	138.62
435.618	128.62
435.84	126.62
436.062	130.62
436.284	117.62
436.505	128.62
436.727	128.62
436.949	136.62
437.17	107.62
437.392	128.62
437.614	117.62
437.835	115.62
438.057	129.62
438.278	123.62
438.5	124.62
438.721	144.62
438.943	140.62
439.165	124.62
439.386	134.62
439.608	137.62
439.829	126.62
440.05	138.62
440.272	124.62
440.493	148.62
440.715	126.62
440.936	119.62
441.158	127.62
441.379	111.62
441.6	127.62
441.822	128.62
442.043	146.62
442.264	129.62
442.486	126.62
442.707	116.62
442.928	124.62
443.149	127.62
443.371	137.62
443.592	139.62
443.813	140.62
444.034	138.62
444.255	132.62
444.476	126.62
444.698	150.62
444.919	150.62
445.14	264.62
445.361	182.62
445.582	132.62
445.803	138.62
446.024	131.62
446.245	140.62
446.466	123.62
446.687	123.62
446.908	115.62
447.129	122.62
447.35	119.62
447.571	122.62
447.792	127.62
448.013	123.62
448.234	128.62
448.455	114.62
448.675	127.62
448.896	144.62
449.117	128.62
449.338	117.62
449.559	124.62
449.779	143.62
450	134.62
450.221	120.62
450.442	127.62
450.662	118.62
450.883	119.62
451.104	116.62
451.324	130.62
451.545	117.62
451.766	112.62
451.986	110.62
452.207	103.62
452.428	130.62
452.648	116.62
452.869	122.62
453.089	106.62
453.31	114.62
453.53	117.62
453.751	110.62
453.971	104.62
454.192	103.62
454.412	122.62
454.633	130.62
454.853	118.62
455.073	115.62
455.294	134.62
455.514	118.62
455.734	130.62
455.955	119.62
456.175	116.62
456.395	122.62
456.616	110.62
456.836	100.62
457.056	121.62
457.276	114.62
457.497	112.62
457.717	109.62
457.937	96.62
458.157	122.62
458.377	122.62
458.598	117.62
458.818	130.62
459.038	120.62
459.258	112.62
459.478	129.62
459.698	126.62
459.918	118.62
460.138	121.62
460.358	115.62
460.578	138.62
460.798	122.62
461.018	120.62
461.238	120.62
461.458	128.62
461.678	136.62
461.898	130.62
462.118	126.62
462.338	120.62
462.558	131.62
462.777	127.62
462.997	130.62
463.217	141.62
463.437	150.62
463.657	121.62
463.876	146.62
464.096	137.62
464.316	128.62
464.536	124.62
464.755	128.62
464.975	127.62
465.195	120.62
465.414	110.62
465.634	129.62
465.854	134.62
466.073	136.62
466.293	121.62
466.512	119.62
466.732	103.62
466.951	124.62
467.171	126.62
467.391	112.62
467.61	134.62
467.829	131.62
468.049	120.62
468.268	120.62
468.488	127.62
468.707	130.62
468.927	126.62
469.146	133.62
469.365	130.62
469.585	128.62
469.804	119.62
470.023	122.62
470.243	115.62
470.462	120.62
470.681	115.62
470.901	117.62
471.12	120.62
471.339	120.62
471.558	112.62
471.777	118.62
471.997	119.62
472.216	100.62
472.435	108.62
472.654	116.62
472.873	124.62
473.092	121.62
473.311	122.62
473.53	129.62
473.749	114.62
473.968	133.62
474.187	126.62
474.406	128.62
474.625	115.62
474.844	120.62
475.063	115.62
475.282	114.62
475.501	114.62
475.72	132.62
475.939	121.62
476.158	123.62
476.377	127.62
476.596	122.62
476.814	133.62
477.033	125.62
477.252	143.62
477.471	123.62
477.69	133.62
477.908	131.62
478.127	132.62
478.346	129.62
478.564	132.62
478.783	133.62
479.002	136.62
479.22	128.62
479.439	122.62
479.658	141.62
479.876	135.62
480.095	134.62
480.313	124.62
480.532	136.62
480.751	150.62
480.969	139.62
481.188	141.62
481.406	129.62
481.624	126.62
481.843	114.62
482.061	121.62
482.28	116.62
482.498	131.62
482.717	114.62
482.935	119.62
483.153	120.62
483.372	130.62
483.59	136.62
483.808	129.62
484.027	122.62
484.245	138.62
484.463	138.62
484.681	124.62
484.9	125.62
485.118	156.62
485.336	148.62
485.554	135.62
485.772	134.62
485.99	138.62
486.209	135.62
486.427	130.62
486.645	126.62
486.863	129.62
487.081	129.62
487.299	130.62
487.517	127.62
487.735	129.62
487.953	134.62
488.171	144.62
488.389	128.62
488.607	146.62
488.825	132.62
489.043	130.62
489.261	138.62
489.479	135.62
489.696	141.62
489.914	133.62
490.132	136.62
490.35	146.62
490.568	139.62
490.786	130.62
491.003	128.62
491.221	147.62
491.439	152.62
491.657	138.62
491.874	136.62
492.092	154.62
492.31	146.62
492.527	133.62
492.745	146.62
492.963	133.62
493.18	145.62
493.398	141.62
493.615	145.62
493.833	128.62
494.05	134.62
494.268	127.62
494.485	134.62
494.703	139.62
494.92	144.62
495.138	154.62
495.355	146.62
495.573	141.62
495.79	148.62
496.008	140.62
496.225	131.62
496.442	141.62
496.66	155.62
496.877	134.62
497.094	154.62
497.312	154.62
497.529	149.62
497.746	152.62
497.963	147.62
498.181	147.62
498.398	146.62
498.615	157.62
498.832	156.62
499.049	156.62
499.267	154.62
499.484	177.62
499.701	182.62
499.918	195.62
500.135	192.62
500.352	215.62
500.569	219.62
500.786	214.62
501.003	195.62
501.22	200.62
501.437	167.62
501.654	174.62
501.871	163.62
502.088	170.62
502.305	170.62
502.522	144.62
502.739	160.62
502.956	158.62
503.172	133.62
503.389	147.62
503.606	156.62
503.823	134.62
504.04	159.62
504.256	157.62
504.473	146.62
504.69	152.62
504.907	146.62
505.123	144.62
505.34	152.62
505.557	123.62
505.773	140.62
505.99	146.62
506.207	148.62
506.423	127.62
506.64	156.62
506.856	133.62
507.073	132.62
507.289	132.62
507.506	131.62
507.722	142.62
507.939	138.62
508.155	119.62
508.372	122.62
508.588	137.62
508.805	121.62
509.021	139.62
509.238	123.62
509.454	118.62
509.67	127.62
509.887	138.62
510.103	118.62
510.319	126.62
510.536	130.62
510.752	147.62
510.968	134.62
511.184	122.62
511.401	140.62
511.617	120.62
511.833	124.62
512.049	124.62
512.265	120.62
512.481	123.62
512.698	125.62
512.914	127.62
513.13	121.62
513.346	127.62
513.562	133.62
513.778	124.62
513.994	118.62
514.21	130.62
514.426	123.62
514.642	122.62
514.858	131.62
515.074	132.62
515.29	126.62
515.506	145.62
515.721	134.62
515.937	140.62
516.153	133.62
516.369	138.62
516.585	127.62
516.801	136.62
517.016	144.62
517.232	139.62
517.448	140.62
517.664	134.62
517.879	130.62
518.095	140.62
518.311	141.62
518.527	124.62
518.742	128.62
518.958	128.62
519.173	122.62
519.389	132.62
519.605	154.62
519.82	137.62
520.036	132.62
520.251	122.62
520.467	121.62
520.682	135.62
520.898	135.62
521.113	123.62
521.329	126.62
521.544	134.62
521.76	124.62
521.975	144.62
522.19	158.62
522.406	121.62
522.621	121.62
522.836	131.62
523.052	112.62
523.267	102.62
523.482	122.62
523.698	117.62
523.913	131.62
524.128	115.62
524.343	126.62
524.559	128.62
524.774	127.62
524.989	123.62
525.204	115.62
525.419	119.62
525.634	128.62
525.849	139.62
526.064	120.62
526.28	129.62
526.495	111.62
526.71	132.62
526.925	108.62
527.14	110.62
527.355	116.62
527.57	121.62
527.785	126.62
527.999	114.62
528.214	101.62
528.429	102.62
528.644	117.62
528.859	139.62
529.074	121.62
529.289	123.62
529.503	103.62
529.718	134.62
529.933	111.62
530.148	128.62
530.363	121.62
530.577	131.62
530.792	111.62
531.007	110.62
531.221	126.62
531.436	112.62
531.651	122.62
531.865	116.62
532.08	126.62
532.295	129.62
532.509	120.62
532.724	126.62
532.938	122.62
533.153	124.62
533.367	119.62
533.582	131.62
533.796	134.62
534.011	118.62
534.225	121.62
534.44	137.62
534.654	120.62
534.868	123.62
535.083	108.62
535.297	122.62
535.511	122.62
535.726	114.62
535.94	118.62
536.154	129.62
536.369	98.62
536.583	118.62
536.797	126.62
537.011	127.62
537.225	122.62
537.44	117.62
537.654	119.62
537.868	120.62
538.082	116.62
538.296	118.62
538.51	118.62
538.724	136.62
538.938	130.62
539.153	119.62
539.367	117.62
539.581	126.62
539.795	118.62
540.009	119.62
540.222	112.62
540.436	110.62
540.65	123.62
540.864	131.62
541.078	135.62
541.292	115.62
541.506	146.62
541.72	138.62
541.934	116.62
542.147	127.62
542.361	130.62
542.575	138.62
542.789	131.62
543.002	136.62
543.216	127.62
543.43	118.62
543.644	141.62
543.857	125.62
544.071	132.62
544.285	135.62
544.498	126.62
544.712	137.62
544.925	134.62
545.139	131.62
545.352	130.62
545.566	133.62
545.779	123.62
545.993	135.62
546.206	155.62
546.42	140.62
546.633	124.62
546.847	139.62
547.06	133.62
547.274	132.62
547.487	134.62
547.7	120.62
547.914	122.62
548.127	137.62
548.34	138.62
548.554	128.62
548.767	113.62
548.98	136.62
549.193	132.62
549.407	132.62
549.62	124.62
549.833	108.62
550.046	126.62
550.259	116.62
550.473	113.62
550.686	140.62
550.899	127.62
551.112	130.62
551.325	123.62
551.538	118.62
551.751	111.62
551.964	110.62
552.177	135.62
552.39	136.62
552.603	128.62
552.816	114.62
553.029	107.62
553.242	122.62
553.455	137.62
553.667	133.62
553.88	140.62
554.093	123.62
554.306	124.62
554.519	119.62
554.732	126.62
554.944	123.62
555.157	121.62
555.37	133.62
555.583	122.62
555.795	105.62
556.008	106.62
556.221	110.62
556.433	104.62
556.646	119.62
556.859	117.62
557.071	111.62
557.284	98.62
557.496	102.62
557.709	122.62
557.921	121.62
558.134	111.62
558.346	114.62
558.559	113.62
558.771	109.62
558.984	110.62
559.196	119.62
559.409	114.62
559.621	118.62
559.833	112.62
560.046	117.62
560.258	118.62
560.47	99.62
560.683	116.62
560.895	122.62
561.107	117.62
561.32	111.62
561.532	110.62
561.744	118.62
561.956	103.62
562.168	134.62
562.381	100.62
562.593	115.62
562.805	116.62
563.017	122.62
563.229	107.62
563.441	114.62
563.653	136.62
563.865	115.62
564.077	101.62
564.289	128.62
564.501	129.62
564.713	118.62
564.925	99.62
565.137	122.62
565.349	123.62
565.561	120.62
565.773	144.62
565.985	121.62
566.197	125.62
566.408	113.62
566.62	124.62
566.832	115.62
567.044	119.62
567.255	128.62
567.467	129.62
567.679	134.62
567.891	142.62
568.102	133.62
568.314	124.62
568.526	132.62
568.737	134.62
568.949	135.62
569.161	121.62
569.372	114.62
569.584	113.62
569.795	127.62
570.007	106.62
570.218	99.62
570.43	128.62
570.641	123.62
570.853	116.62
571.064	110.62
571.276	113.62
571.487	128.62
571.698	122.62
571.91	114.62
572.121	95.62
572.333	113.62
572.544	111.62
572.755	118.62
572.966	114.62
573.178	98.62
573.389	120.62
573.6	113.62
573.811	97.62
574.023	117.62
574.234	96.62
574.445	108.62
574.656	107.62
574.867	107.62
575.078	105.62
575.289	96.62
575.501	113.62
575.712	102.62
575.923	102.62
576.134	117.62
576.345	103.62
576.556	120.62
576.767	99.62
576.978	114.62
577.188	99.62
577.399	99.62
577.61	112.62
577.821	107.62
578.032	105.62
578.243	100.62
578.454	121.62
578.665	117.62
578.875	106.62
579.086	102.62
579.297	117.62
579.508	104.62
579.718	102.62
579.929	115.62
580.14	102.62
580.35	105.62
580.561	118.62
580.772	119.62
580.982	105.62
581.193	96.62
581.403	105.62
581.614	99.62
581.825	118.62
582.035	102.62
582.246	81.62
582.456	114.62
582.667	120.62
582.877	93.62
583.087	107.62
583.298	118.62
583.508	92.62
583.719	102.62
583.929	101.62
584.139	106.62
584.35	88.62
584.56	110.62
584.77	106.62
584.981	102.62
585.191	96.62
585.401	106.62
585.611	110.62
585.821	97.62
586.032	101.62
586.242	107.62
586.452	102.62
586.662	97.62
586.872	109.62
587.082	100.62
587.292	108.62
587.502	102.62
587.713	118.62
587.923	97.62
588.133	103.62
588.343	104.62
588.553	100.62
588.762	114.62
588.972	99.62
589.182	107.62
589.392	101.62
589.602	109.62
589.812	111.62
590.022	106.62
590.232	96.62
590.441	88.62
590.651	106.62
590.861	99.62
591.071	111.62
591.281	128.62
591.49	104.62
591.7	96.62
591.91	122.62
592.119	107.62
592.329	107.62
592.539	98.62
592.748	113.62
592.958	110.62
593.167	116.62
593.377	112.62
593.587	113.62
593.796	109.62
594.006	99.62
594.215	115.62
594.424	120.62
594.634	105.62
594.843	103.62
595.053	105.62
595.262	114.62
595.472	120.62
595.681	118.62
595.89	110.62
596.1	106.62
596.309	105.62
596.518	98.62
596.727	105.62
596.937	106.62
597.146	110.62
597.355	109.62
597.564	114.62
597.774	105.62
597.983	96.62
598.192	105.62
598.401	93.62
598.61	107.62
598.819	89.62
599.028	100.62
599.237	100.62
599.446	110.62
599.655	106.62
599.864	106.62
600.073	99.62
600.282	96.62
600.491	98.62
600.7	100.62
600.909	108.62
601.118	112.62
601.327	105.62
601.536	103.62
601.745	95.62
601.953	95.62
602.162	100.62
602.371	103.62
602.58	105.62
602.789	106.62
602.997	106.62
603.206	102.62
603.415	102.62
603.623	97.62
603.832	110.62
604.041	98.62
604.249	94.62
604.458	90.62
604.666	94.62
604.875	83.62
605.084	88.62
605.292	99.62
605.501	96.62
605.709	96.62
605.918	111.62
606.126	110.62
606.334	107.62
606.543	110.62
606.751	96.62
606.96	100.62
607.168	105.62
607.376	86.62
607.585	94.62
607.793	117.62
608.001	84.62
608.21	107.62
608.418	113.62
608.626	115.62
608.834	108.62
609.043	108.62
609.251	96.62
609.459	96.62
609.667	116.62
609.875	97.62
610.083	98.62
610.291	107.62
610.499	102.62
610.707	116.62
610.916	120.62
611.124	123.62
611.332	110.62
611.54	122.62
611.748	112.62
611.955	115.62
612.163	104.62
612.371	113.62
612.579	101.62
612.787	99.62
612.995	104.62
613.203	92.62
613.411	96.62
613.618	83.62
613.826	116.62
614.034	111.62
614.242	101.62
614.449	106.62
614.657	123.62
614.865	101.62
615.072	105.62
615.28	103.62
615.488	83.62
615.695	101.62
615.903	98.62
616.111	91.62
616.318	108.62
616.526	105.62
616.733	112.62
616.941	88.62
617.148	106.62
617.356	90.62
617.563	95.62
617.771	99.62
617.978	95.62
618.185	107.62
618.393	114.62
618.6	98.62
618.807	113.62
619.015	104.62
619.222	96.62
619.429	98.62
619.637	103.62
619.844	98.62
620.051	93.62
620.258	94.62
620.466	95.62
620.673	87.62
620.88	87.62
621.087	86.62
621.294	91.62
621.501	89.62
621.708	100.62
621.915	103.62
622.122	100.62
622.329	101.62
622.536	84.62
622.743	90.62
622.95	108.62
623.157	98.62
623.364	79.62
623.571	92.62
623.778	111.62
623.985	99.62
624.192	87.62
624.399	96.62
624.606	87.62
624.812	93.62
625.019	88.62
625.226	94.62
625.433	110.62
625.639	96.62
625.846	95.62
626.053	94.62
626.259	94.62
626.466	113.62
626.673	107.62
626.879	100.62
627.086	97.62
627.293	104.62
627.499	82.62
627.706	89.62
627.912	86.62
628.119	91.62
628.325	85.62
628.532	114.62
628.738	99.62
628.945	84.62
629.151	102.62
629.357	91.62
629.564	78.62
629.77	107.62
629.976	92.62
630.183	93.62
630.389	94.62
630.595	94.62
630.802	100.62
631.008	93.62
631.214	100.62
631.42	102.62
631.627	92.62
631.833	91.62
632.039	104.62
632.245	97.62
632.451	105.62
632.657	80.62
632.863	91.62
633.069	97.62
633.275	83.62
633.481	84.62
633.688	86.62
633.893	103.62
634.099	95.62
634.305	83.62
634.511	100.62
634.717	80.62
634.923	94.62
635.129	87.62
635.335	82.62
635.541	102.62
635.747	91.62
635.952	95.62
636.158	99.62
636.364	88.62
636.57	90.62
636.775	95.62
636.981	98.62
637.187	107.62
637.392	88.62
637.598	87.62
637.804	94.62
638.009	86.62
638.215	86.62
638.421	90.62
638.626	83.62
638.832	85.62
639.037	94.62
639.243	90.62
639.448	98.62
639.654	113.62
639.859	85.62
640.065	80.62
640.27	100.62
640.475	88.62
640.681	82.62
640.886	82.62
641.091	85.62
641.297	90.62
641.502	77.62
641.707	79.62
641.913	89.62
642.118	92.62
642.323	87.62
642.528	108.62
642.733	98.62
642.939	116.62
643.144	88.62
643.349	101.62
643.554	84.62
643.759	84.62
643.964	85.62
644.169	93.62
644.374	82.62
644.579	94.62
644.784	84.62
644.989	86.62
645.194	81.62
645.399	98.62
645.604	91.62
645.809	91.62
646.014	89.62
646.219	101.62
646.423	93.62
646.628	100.62
646.833	83.62
647.038	86.62
647.243	86.62
647.447	87.62
647.652	89.62
647.857	90.62
648.062	69.62
648.266	91.62
648.471	85.62
648.676	82.62
648.88	87.62
649.085	84.62
649.289	82.62
649.494	67.62
649.698	94.62
649.903	84.62
650.107	91.62
650.312	77.62
650.516	105.62
650.721	87.62
650.925	84.62
651.13	103.62
651.334	91.62
651.539	97.62
651.743	100.62
651.947	80.62
652.152	94.62
652.356	103.62
652.56	95.62
652.764	84.62
652.969	87.62
653.173	84.62
653.377	86.62
653.581	73.62
653.785	87.62
653.99	87.62
654.194	85.62
654.398	91.62
654.602	79.62
654.806	80.62
655.01	90.62
655.214	82.62
655.418	92.62
655.622	95.62
655.826	90.62
656.03	88.62
656.234	107.62
656.438	87.62
656.642	96.62
656.846	95.62
657.049	91.62
657.253	75.62
657.457	95.62
657.661	80.62
657.865	83.62
658.068	81.62
658.272	69.62
658.476	85.62
658.68	95.62
658.883	87.62
659.087	72.62
659.291	81.62
659.494	89.62
659.698	91.62
659.901	94.62
660.105	75.62
660.309	84.62
660.512	100.62
660.716	82.62
660.919	82.62
661.123	78.62
661.326	76.62
661.53	67.62
661.733	80.62
661.936	83.62
662.14	79.62
662.343	80.62
662.546	75.62
662.75	71.62
662.953	83.62
663.156	78.62
663.36	82.62
663.563	79.62
663.766	85.62
663.969	86.62
664.173	84.62
664.376	68.62
664.579	62.62
664.782	71.62
664.985	85.62
665.188	71.62
665.391	89.62
665.594	79.62
665.797	90.62
666	79.62
666.203	80.62
666.406	77.62
666.609	74.62
666.812	80.62
667.015	71.62
667.218	73.62
667.421	76.62
667.624	92.62
667.827	88.62
668.03	70.62
668.232	74.62
668.435	81.62
668.638	81.62
668.841	83.62
669.043	66.62
669.246	63.62
669.449	80.62
669.651	83.62
669.854	94.62
670.057	86.62
670.259	86.62
670.462	66.62
670.665	81.62
670.867	80.62
671.07	71.62
671.272	70.62
671.475	88.62
671.677	62.62
671.88	73.62
672.082	67.62
672.284	93.62
672.487	88.62
672.689	83.62
672.892	75.62
