Data from 1968.PennyLincolnUp.Lamp.En5.5.200Scan.071719.P1._HRD10591_14-50-40-970.txt Node
Date: Thu Jul 18 14:50:40 EDT 2019
User: cochatt
Spectrometer: HR+D1059
Trigger mode: 1
Integration Time (sec): 1.000000E-1
Scans to average: 1
Electric dark correction enabled: true
Nonlinearity correction enabled: false
Boxcar width: 0
XAxis mode: Wavelengths
Number of Pixels in Spectrum: 2048
>>>>>Begin Spectral Data<<<<<
223.165	-13.88
223.4	-13.88
223.635	-13.88
223.869	-11.88
224.104	-8.88
224.338	-11.88
224.573	-15.88
224.808	-17.88
225.042	-7.88
225.277	3.12
225.511	-9.88
225.746	-0.88
225.98	-0.88
226.215	9.12
226.449	12.12
226.683	14.12
226.918	29.12
227.152	32.12
227.387	39.12
227.621	35.12
227.856	35.12
228.09	44.12
228.324	55.12
228.559	57.12
228.793	47.12
229.027	71.12
229.262	70.12
229.496	73.12
229.73	75.12
229.964	76.12
230.199	99.12
230.433	76.12
230.667	87.12
230.901	86.12
231.136	78.12
231.37	92.12
231.604	80.12
231.838	83.12
232.072	100.12
232.306	89.12
232.541	79.12
232.775	69.12
233.009	91.12
233.243	85.12
233.477	84.12
233.711	86.12
233.945	94.12
234.179	76.12
234.413	99.12
234.647	79.12
234.881	97.12
235.115	75.12
235.349	82.12
235.583	78.12
235.817	90.12
236.051	70.12
236.285	84.12
236.519	90.12
236.753	72.12
236.987	80.12
237.221	88.12
237.455	80.12
237.689	77.12
237.922	82.12
238.156	90.12
238.39	93.12
238.624	81.12
238.858	86.12
239.091	80.12
239.325	82.12
239.559	79.12
239.793	83.12
240.027	92.12
240.26	83.12
240.494	88.12
240.728	77.12
240.961	86.12
241.195	67.12
241.429	87.12
241.662	79.12
241.896	82.12
242.13	79.12
242.363	75.12
242.597	74.12
242.83	78.12
243.064	73.12
243.298	90.12
243.531	91.12
243.765	72.12
243.998	93.12
244.232	91.12
244.465	82.12
244.699	91.12
244.932	82.12
245.166	79.12
245.399	92.12
245.633	99.12
245.866	78.12
246.099	91.12
246.333	87.12
246.566	92.12
246.8	84.12
247.033	85.12
247.266	93.12
247.5	84.12
247.733	100.12
247.966	92.12
248.2	83.12
248.433	86.12
248.666	76.12
248.899	77.12
249.133	98.12
249.366	92.12
249.599	79.12
249.832	86.12
250.066	83.12
250.299	94.12
250.532	81.12
250.765	91.12
250.998	70.12
251.231	87.12
251.465	95.12
251.698	94.12
251.931	88.12
252.164	93.12
252.397	106.12
252.63	80.12
252.863	79.12
253.096	79.12
253.329	92.12
253.562	92.12
253.795	91.12
254.028	104.12
254.261	100.12
254.494	105.12
254.727	96.12
254.96	85.12
255.193	88.12
255.426	80.12
255.659	92.12
255.892	86.12
256.124	98.12
256.357	103.12
256.59	81.12
256.823	96.12
257.056	94.12
257.289	99.12
257.521	92.12
257.754	90.12
257.987	77.12
258.22	96.12
258.452	97.12
258.685	104.12
258.918	97.12
259.151	80.12
259.383	92.12
259.616	92.12
259.849	94.12
260.081	93.12
260.314	105.12
260.547	90.12
260.779	91.12
261.012	85.12
261.244	91.12
261.477	80.12
261.71	95.12
261.942	80.12
262.175	89.12
262.407	90.12
262.64	120.12
262.872	90.12
263.105	87.12
263.337	93.12
263.57	95.12
263.802	86.12
264.035	97.12
264.267	89.12
264.499	95.12
264.732	92.12
264.964	87.12
265.197	93.12
265.429	93.12
265.661	91.12
265.894	93.12
266.126	88.12
266.358	90.12
266.591	101.12
266.823	96.12
267.055	97.12
267.287	102.12
267.52	99.12
267.752	102.12
267.984	98.12
268.216	99.12
268.448	101.12
268.681	91.12
268.913	97.12
269.145	99.12
269.377	110.12
269.609	101.12
269.841	101.12
270.073	98.12
270.306	84.12
270.538	91.12
270.77	95.12
271.002	102.12
271.234	116.12
271.466	86.12
271.698	90.12
271.93	92.12
272.162	96.12
272.394	100.12
272.626	90.12
272.858	104.12
273.09	109.12
273.322	96.12
273.553	95.12
273.785	78.12
274.017	96.12
274.249	98.12
274.481	101.12
274.713	91.12
274.945	99.12
275.176	96.12
275.408	102.12
275.64	120.12
275.872	98.12
276.104	116.12
276.335	96.12
276.567	106.12
276.799	102.12
277.031	98.12
277.262	92.12
277.494	114.12
277.726	91.12
277.957	114.12
278.189	100.12
278.421	98.12
278.652	101.12
278.884	89.12
279.115	105.12
279.347	96.12
279.579	105.12
279.81	109.12
280.042	102.12
280.273	94.12
280.505	88.12
280.736	102.12
280.968	102.12
281.199	102.12
281.431	97.12
281.662	105.12
281.894	106.12
282.125	97.12
282.356	104.12
282.588	107.12
282.819	104.12
283.051	109.12
283.282	96.12
283.513	103.12
283.745	98.12
283.976	109.12
284.207	118.12
284.439	93.12
284.67	106.12
284.901	103.12
285.132	83.12
285.364	96.12
285.595	104.12
285.826	94.12
286.057	99.12
286.288	102.12
286.52	102.12
286.751	111.12
286.982	106.12
287.213	85.12
287.444	98.12
287.675	102.12
287.906	89.12
288.138	111.12
288.369	100.12
288.6	94.12
288.831	112.12
289.062	93.12
289.293	95.12
289.524	94.12
289.755	108.12
289.986	109.12
290.217	99.12
290.448	97.12
290.679	102.12
290.91	103.12
291.141	104.12
291.371	113.12
291.602	109.12
291.833	109.12
292.064	94.12
292.295	117.12
292.526	96.12
292.757	93.12
292.987	103.12
293.218	104.12
293.449	111.12
293.68	102.12
293.91	92.12
294.141	94.12
294.372	115.12
294.603	94.12
294.833	100.12
295.064	107.12
295.295	104.12
295.525	92.12
295.756	102.12
295.987	107.12
296.217	108.12
296.448	98.12
296.679	108.12
296.909	109.12
297.14	110.12
297.37	112.12
297.601	113.12
297.831	98.12
298.062	104.12
298.292	123.12
298.523	97.12
298.753	95.12
298.984	100.12
299.214	105.12
299.445	104.12
299.675	100.12
299.905	117.12
300.136	105.12
300.366	99.12
300.597	106.12
300.827	102.12
301.057	114.12
301.288	100.12
301.518	104.12
301.748	109.12
301.979	106.12
302.209	106.12
302.439	98.12
302.669	103.12
302.9	104.12
303.13	108.12
303.36	117.12
303.59	111.12
303.82	116.12
304.051	97.12
304.281	112.12
304.511	107.12
304.741	106.12
304.971	92.12
305.201	97.12
305.431	94.12
305.661	108.12
305.891	119.12
306.121	114.12
306.352	113.12
306.582	114.12
306.812	118.12
307.042	103.12
307.272	106.12
307.502	91.12
307.731	122.12
307.961	111.12
308.191	101.12
308.421	116.12
308.651	94.12
308.881	107.12
309.111	102.12
309.341	113.12
309.571	102.12
309.8	104.12
310.03	106.12
310.26	94.12
310.49	109.12
310.72	107.12
310.949	105.12
311.179	107.12
311.409	99.12
311.639	110.12
311.868	107.12
312.098	99.12
312.328	102.12
312.557	110.12
312.787	122.12
313.017	106.12
313.246	110.12
313.476	107.12
313.706	107.12
313.935	98.12
314.165	101.12
314.394	99.12
314.624	124.12
314.853	123.12
315.083	118.12
315.312	98.12
315.542	122.12
315.771	106.12
316.001	108.12
316.23	106.12
316.46	103.12
316.689	124.12
316.919	112.12
317.148	100.12
317.377	128.12
317.607	118.12
317.836	122.12
318.065	119.12
318.295	119.12
318.524	104.12
318.753	96.12
318.983	108.12
319.212	102.12
319.441	106.12
319.67	101.12
319.9	110.12
320.129	104.12
320.358	114.12
320.587	116.12
320.816	102.12
321.046	117.12
321.275	126.12
321.504	125.12
321.733	114.12
321.962	104.12
322.191	120.12
322.42	124.12
322.649	121.12
322.878	104.12
323.108	114.12
323.337	116.12
323.566	108.12
323.795	110.12
324.024	115.12
324.253	128.12
324.482	136.12
324.71	176.12
324.939	187.12
325.168	166.12
325.397	130.12
325.626	118.12
325.855	118.12
326.084	102.12
326.313	106.12
326.542	115.12
326.77	112.12
326.999	118.12
327.228	138.12
327.457	170.12
327.686	170.12
327.914	137.12
328.143	117.12
328.372	118.12
328.6	104.12
328.829	116.12
329.058	117.12
329.287	116.12
329.515	98.12
329.744	116.12
329.972	114.12
330.201	117.12
330.43	110.12
330.658	119.12
330.887	114.12
331.115	111.12
331.344	122.12
331.572	119.12
331.801	111.12
332.03	118.12
332.258	119.12
332.486	126.12
332.715	108.12
332.943	121.12
333.172	118.12
333.4	110.12
333.629	116.12
333.857	111.12
334.085	118.12
334.314	129.12
334.542	134.12
334.771	122.12
334.999	110.12
335.227	112.12
335.455	118.12
335.684	130.12
335.912	108.12
336.14	127.12
336.369	118.12
336.597	110.12
336.825	114.12
337.053	108.12
337.281	101.12
337.51	111.12
337.738	127.12
337.966	108.12
338.194	124.12
338.422	116.12
338.65	126.12
338.878	117.12
339.106	122.12
339.334	118.12
339.562	109.12
339.79	101.12
340.018	118.12
340.246	114.12
340.474	117.12
340.702	124.12
340.93	102.12
341.158	112.12
341.386	107.12
341.614	115.12
341.842	107.12
342.07	109.12
342.298	111.12
342.526	121.12
342.754	110.12
342.981	122.12
343.209	104.12
343.437	116.12
343.665	124.12
343.893	123.12
344.12	119.12
344.348	110.12
344.576	122.12
344.804	118.12
345.031	114.12
345.259	110.12
345.487	120.12
345.714	106.12
345.942	98.12
346.17	105.12
346.397	103.12
346.625	121.12
346.853	100.12
347.08	114.12
347.308	103.12
347.535	112.12
347.763	114.12
347.99	109.12
348.218	114.12
348.445	117.12
348.673	127.12
348.9	106.12
349.128	107.12
349.355	124.12
349.583	114.12
349.81	102.12
350.037	109.12
350.265	110.12
350.492	116.12
350.72	111.12
350.947	112.12
351.174	125.12
351.402	109.12
351.629	118.12
351.856	123.12
352.083	119.12
352.311	116.12
352.538	114.12
352.765	110.12
352.992	118.12
353.22	111.12
353.447	112.12
353.674	112.12
353.901	120.12
354.128	107.12
354.355	114.12
354.583	101.12
354.81	114.12
355.037	115.12
355.264	112.12
355.491	103.12
355.718	100.12
355.945	112.12
356.172	115.12
356.399	104.12
356.626	103.12
356.853	109.12
357.08	114.12
357.307	101.12
357.534	104.12
357.761	110.12
357.988	121.12
358.215	115.12
358.441	116.12
358.668	115.12
358.895	105.12
359.122	109.12
359.349	108.12
359.576	110.12
359.802	98.12
360.029	114.12
360.256	116.12
360.483	107.12
360.709	122.12
360.936	116.12
361.163	114.12
361.39	114.12
361.616	108.12
361.843	115.12
362.07	93.12
362.296	98.12
362.523	128.12
362.749	106.12
362.976	112.12
363.203	127.12
363.429	122.12
363.656	98.12
363.882	119.12
364.109	132.12
364.335	114.12
364.562	99.12
364.788	119.12
365.015	110.12
365.241	109.12
365.468	123.12
365.694	116.12
365.92	110.12
366.147	110.12
366.373	123.12
366.599	108.12
366.826	93.12
367.052	111.12
367.278	120.12
367.505	111.12
367.731	107.12
367.957	98.12
368.184	105.12
368.41	116.12
368.636	114.12
368.862	118.12
369.089	100.12
369.315	112.12
369.541	117.12
369.767	108.12
369.993	107.12
370.219	107.12
370.445	124.12
370.672	92.12
370.898	109.12
371.124	114.12
371.35	111.12
371.576	106.12
371.802	115.12
372.028	109.12
372.254	114.12
372.48	114.12
372.706	116.12
372.932	121.12
373.158	120.12
373.384	125.12
373.61	117.12
373.835	115.12
374.061	121.12
374.287	120.12
374.513	125.12
374.739	126.12
374.965	118.12
375.191	114.12
375.416	104.12
375.642	108.12
375.868	126.12
376.094	118.12
376.319	102.12
376.545	118.12
376.771	108.12
376.997	116.12
377.222	99.12
377.448	114.12
377.674	98.12
377.899	104.12
378.125	105.12
378.35	110.12
378.576	112.12
378.802	123.12
379.027	107.12
379.253	116.12
379.478	105.12
379.704	103.12
379.929	117.12
380.155	88.12
380.38	107.12
380.606	106.12
380.831	100.12
381.057	111.12
381.282	129.12
381.507	118.12
381.733	104.12
381.958	102.12
382.184	107.12
382.409	122.12
382.634	117.12
382.86	118.12
383.085	103.12
383.31	118.12
383.535	101.12
383.761	105.12
383.986	119.12
384.211	114.12
384.436	112.12
384.662	110.12
384.887	132.12
385.112	126.12
385.337	134.12
385.562	111.12
385.787	117.12
386.013	117.12
386.238	111.12
386.463	128.12
386.688	117.12
386.913	119.12
387.138	108.12
387.363	118.12
387.588	125.12
387.813	124.12
388.038	127.12
388.263	100.12
388.488	126.12
388.713	116.12
388.938	124.12
389.163	107.12
389.387	121.12
389.612	107.12
389.837	119.12
390.062	124.12
390.287	114.12
390.512	115.12
390.736	109.12
390.961	128.12
391.186	114.12
391.411	117.12
391.636	119.12
391.86	114.12
392.085	123.12
392.31	142.12
392.534	107.12
392.759	132.12
392.984	124.12
393.208	112.12
393.433	126.12
393.658	123.12
393.882	122.12
394.107	134.12
394.331	125.12
394.556	124.12
394.78	112.12
395.005	116.12
395.229	114.12
395.454	119.12
395.678	120.12
395.903	117.12
396.127	124.12
396.352	129.12
396.576	119.12
396.801	134.12
397.025	118.12
397.249	139.12
397.474	126.12
397.698	116.12
397.922	133.12
398.147	130.12
398.371	131.12
398.595	129.12
398.82	126.12
399.044	111.12
399.268	124.12
399.492	134.12
399.717	140.12
399.941	146.12
400.165	150.12
400.389	131.12
400.613	128.12
400.837	122.12
401.062	118.12
401.286	107.12
401.51	128.12
401.734	131.12
401.958	126.12
402.182	127.12
402.406	116.12
402.63	139.12
402.854	132.12
403.078	137.12
403.302	132.12
403.526	147.12
403.75	134.12
403.974	130.12
404.198	123.12
404.422	130.12
404.645	125.12
404.869	119.12
405.093	127.12
405.317	126.12
405.541	150.12
405.765	141.12
405.988	143.12
406.212	143.12
406.436	138.12
406.66	126.12
406.883	123.12
407.107	137.12
407.331	134.12
407.555	144.12
407.778	144.12
408.002	162.12
408.226	146.12
408.449	131.12
408.673	134.12
408.896	133.12
409.12	132.12
409.344	134.12
409.567	135.12
409.791	120.12
410.014	125.12
410.238	136.12
410.461	130.12
410.685	129.12
410.908	141.12
411.132	121.12
411.355	135.12
411.578	142.12
411.802	137.12
412.025	119.12
412.249	130.12
412.472	130.12
412.695	127.12
412.919	130.12
413.142	121.12
413.365	137.12
413.589	130.12
413.812	134.12
414.035	112.12
414.258	137.12
414.482	124.12
414.705	129.12
414.928	125.12
415.151	147.12
415.374	132.12
415.597	120.12
415.821	119.12
416.044	133.12
416.267	110.12
416.49	124.12
416.713	134.12
416.936	128.12
417.159	125.12
417.382	125.12
417.605	130.12
417.828	137.12
418.051	121.12
418.274	131.12
418.497	123.12
418.72	123.12
418.943	138.12
419.166	136.12
419.389	129.12
419.611	120.12
419.834	135.12
420.057	120.12
420.28	128.12
420.503	126.12
420.726	128.12
420.948	134.12
421.171	144.12
421.394	128.12
421.617	127.12
421.839	136.12
422.062	126.12
422.285	139.12
422.507	126.12
422.73	145.12
422.953	152.12
423.175	146.12
423.398	131.12
423.621	138.12
423.843	138.12
424.066	142.12
424.288	143.12
424.511	141.12
424.733	130.12
424.956	142.12
425.178	119.12
425.401	140.12
425.623	118.12
425.846	119.12
426.068	126.12
426.291	111.12
426.513	116.12
426.735	130.12
426.958	148.12
427.18	137.12
427.402	130.12
427.625	158.12
427.847	136.12
428.069	127.12
428.292	134.12
428.514	126.12
428.736	129.12
428.958	127.12
429.181	122.12
429.403	122.12
429.625	117.12
429.847	120.12
430.069	142.12
430.292	130.12
430.514	122.12
430.736	130.12
430.958	121.12
431.18	115.12
431.402	115.12
431.624	123.12
431.846	135.12
432.068	128.12
432.29	121.12
432.512	121.12
432.734	133.12
432.956	128.12
433.178	134.12
433.4	133.12
433.622	114.12
433.844	134.12
434.066	130.12
434.287	121.12
434.509	127.12
434.731	121.12
434.953	125.12
435.175	123.12
435.397	127.12
435.618	127.12
435.84	121.12
436.062	136.12
436.284	148.12
436.505	138.12
436.727	107.12
436.949	130.12
437.17	121.12
437.392	124.12
437.614	125.12
437.835	128.12
438.057	131.12
438.278	141.12
438.5	136.12
438.721	152.12
438.943	134.12
439.165	121.12
439.386	129.12
439.608	129.12
439.829	126.12
440.05	128.12
440.272	127.12
440.493	130.12
440.715	134.12
440.936	127.12
441.158	125.12
441.379	121.12
441.6	135.12
441.822	124.12
442.043	127.12
442.264	140.12
442.486	128.12
442.707	132.12
442.928	132.12
443.149	129.12
443.371	145.12
443.592	125.12
443.813	137.12
444.034	158.12
444.255	133.12
444.476	129.12
444.698	128.12
444.919	136.12
445.14	235.12
445.361	156.12
445.582	140.12
445.803	140.12
446.024	137.12
446.245	135.12
446.466	138.12
446.687	142.12
446.908	122.12
447.129	128.12
447.35	126.12
447.571	108.12
447.792	140.12
448.013	116.12
448.234	130.12
448.455	123.12
448.675	130.12
448.896	130.12
449.117	137.12
449.338	129.12
449.559	150.12
449.779	141.12
450	138.12
450.221	126.12
450.442	142.12
450.662	109.12
450.883	111.12
451.104	128.12
451.324	109.12
451.545	126.12
451.766	111.12
451.986	128.12
452.207	118.12
452.428	124.12
452.648	132.12
452.869	115.12
453.089	114.12
453.31	115.12
453.53	127.12
453.751	104.12
453.971	122.12
454.192	125.12
454.412	116.12
454.633	115.12
454.853	121.12
455.073	115.12
455.294	125.12
455.514	130.12
455.734	121.12
455.955	123.12
456.175	122.12
456.395	127.12
456.616	136.12
456.836	132.12
457.056	115.12
457.276	99.12
457.497	108.12
457.717	116.12
457.937	132.12
458.157	125.12
458.377	128.12
458.598	114.12
458.818	130.12
459.038	126.12
459.258	145.12
459.478	126.12
459.698	114.12
459.918	118.12
460.138	127.12
460.358	137.12
460.578	129.12
460.798	115.12
461.018	136.12
461.238	134.12
461.458	127.12
461.678	130.12
461.898	139.12
462.118	150.12
462.338	122.12
462.558	127.12
462.777	133.12
462.997	138.12
463.217	150.12
463.437	145.12
463.657	130.12
463.876	156.12
464.096	142.12
464.316	136.12
464.536	138.12
464.755	125.12
464.975	120.12
465.195	127.12
465.414	140.12
465.634	135.12
465.854	121.12
466.073	122.12
466.293	116.12
466.512	111.12
466.732	121.12
466.951	128.12
467.171	136.12
467.391	118.12
467.61	123.12
467.829	118.12
468.049	115.12
468.268	126.12
468.488	114.12
468.707	117.12
468.927	105.12
469.146	123.12
469.365	124.12
469.585	94.12
469.804	120.12
470.023	111.12
470.243	122.12
470.462	138.12
470.681	132.12
470.901	122.12
471.12	127.12
471.339	120.12
471.558	129.12
471.777	122.12
471.997	125.12
472.216	134.12
472.435	130.12
472.654	118.12
472.873	126.12
473.092	120.12
473.311	122.12
473.53	118.12
473.749	117.12
473.968	121.12
474.187	123.12
474.406	135.12
474.625	120.12
474.844	130.12
475.063	123.12
475.282	118.12
475.501	114.12
475.72	106.12
475.939	117.12
476.158	122.12
476.377	112.12
476.596	114.12
476.814	123.12
477.033	127.12
477.252	125.12
477.471	115.12
477.69	137.12
477.908	130.12
478.127	133.12
478.346	125.12
478.564	134.12
478.783	124.12
479.002	141.12
479.22	132.12
479.439	131.12
479.658	144.12
479.876	133.12
480.095	132.12
480.313	148.12
480.532	124.12
480.751	136.12
480.969	127.12
481.188	123.12
481.406	142.12
481.624	130.12
481.843	127.12
482.061	120.12
482.28	138.12
482.498	132.12
482.717	111.12
482.935	130.12
483.153	136.12
483.372	139.12
483.59	132.12
483.808	137.12
484.027	130.12
484.245	140.12
484.463	128.12
484.681	130.12
484.9	139.12
485.118	134.12
485.336	135.12
485.554	142.12
485.772	132.12
485.99	127.12
486.209	154.12
486.427	133.12
486.645	112.12
486.863	134.12
487.081	124.12
487.299	128.12
487.517	135.12
487.735	142.12
487.953	147.12
488.171	137.12
488.389	138.12
488.607	125.12
488.825	125.12
489.043	138.12
489.261	127.12
489.479	127.12
489.696	133.12
489.914	141.12
490.132	130.12
490.35	132.12
490.568	134.12
490.786	139.12
491.003	128.12
491.221	150.12
491.439	144.12
491.657	154.12
491.874	139.12
492.092	140.12
492.31	146.12
492.527	154.12
492.745	138.12
492.963	147.12
493.18	142.12
493.398	143.12
493.615	139.12
493.833	133.12
494.05	154.12
494.268	151.12
494.485	125.12
494.703	141.12
494.92	138.12
495.138	134.12
495.355	134.12
495.573	161.12
495.79	150.12
496.008	140.12
496.225	136.12
496.442	144.12
496.66	148.12
496.877	153.12
497.094	159.12
497.312	149.12
497.529	170.12
497.746	151.12
497.963	155.12
498.181	152.12
498.398	157.12
498.615	146.12
498.832	155.12
499.049	152.12
499.267	162.12
499.484	181.12
499.701	191.12
499.918	201.12
500.135	189.12
500.352	220.12
500.569	211.12
500.786	201.12
501.003	194.12
501.22	192.12
501.437	188.12
501.654	163.12
501.871	163.12
502.088	165.12
502.305	157.12
502.522	147.12
502.739	164.12
502.956	164.12
503.172	148.12
503.389	164.12
503.606	150.12
503.823	142.12
504.04	164.12
504.256	157.12
504.473	133.12
504.69	143.12
504.907	159.12
505.123	137.12
505.34	156.12
505.557	125.12
505.773	144.12
505.99	133.12
506.207	141.12
506.423	123.12
506.64	146.12
506.856	134.12
507.073	130.12
507.289	143.12
507.506	136.12
507.722	151.12
507.939	133.12
508.155	150.12
508.372	147.12
508.588	131.12
508.805	141.12
509.021	122.12
509.238	134.12
509.454	136.12
509.67	120.12
509.887	142.12
510.103	144.12
510.319	134.12
510.536	140.12
510.752	140.12
510.968	141.12
511.184	116.12
511.401	126.12
511.617	130.12
511.833	142.12
512.049	125.12
512.265	120.12
512.481	131.12
512.698	133.12
512.914	142.12
513.13	137.12
513.346	129.12
513.562	126.12
513.778	138.12
513.994	118.12
514.21	120.12
514.426	142.12
514.642	138.12
514.858	124.12
515.074	127.12
515.29	154.12
515.506	151.12
515.721	138.12
515.937	126.12
516.153	130.12
516.369	134.12
516.585	137.12
516.801	140.12
517.016	139.12
517.232	139.12
517.448	140.12
517.664	152.12
517.879	134.12
518.095	144.12
518.311	144.12
518.527	146.12
518.742	148.12
518.958	145.12
519.173	148.12
519.389	151.12
519.605	120.12
519.82	130.12
520.036	132.12
520.251	139.12
520.467	127.12
520.682	139.12
520.898	122.12
521.113	121.12
521.329	148.12
521.544	125.12
521.76	154.12
521.975	185.12
522.19	167.12
522.406	139.12
522.621	135.12
522.836	128.12
523.052	137.12
523.267	118.12
523.482	123.12
523.698	126.12
523.913	128.12
524.128	142.12
524.343	136.12
524.559	122.12
524.774	136.12
524.989	132.12
525.204	136.12
525.419	127.12
525.634	114.12
525.849	101.12
526.064	123.12
526.28	122.12
526.495	118.12
526.71	119.12
526.925	120.12
527.14	115.12
527.355	118.12
527.57	122.12
527.785	119.12
527.999	130.12
528.214	122.12
528.429	114.12
528.644	126.12
528.859	140.12
529.074	124.12
529.289	120.12
529.503	134.12
529.718	132.12
529.933	124.12
530.148	121.12
530.363	138.12
530.577	139.12
530.792	126.12
531.007	122.12
531.221	115.12
531.436	116.12
531.651	122.12
531.865	127.12
532.08	127.12
532.295	144.12
532.509	125.12
532.724	111.12
532.938	118.12
533.153	111.12
533.367	125.12
533.582	126.12
533.796	124.12
534.011	142.12
534.225	138.12
534.44	118.12
534.654	136.12
534.868	120.12
535.083	135.12
535.297	125.12
535.511	123.12
535.726	117.12
535.94	128.12
536.154	114.12
536.369	117.12
536.583	124.12
536.797	130.12
537.011	120.12
537.225	109.12
537.44	122.12
537.654	122.12
537.868	106.12
538.082	111.12
538.296	105.12
538.51	124.12
538.724	128.12
538.938	125.12
539.153	118.12
539.367	103.12
539.581	124.12
539.795	110.12
540.009	112.12
540.222	117.12
540.436	112.12
540.65	132.12
540.864	127.12
541.078	111.12
541.292	125.12
541.506	126.12
541.72	128.12
541.934	142.12
542.147	143.12
542.361	130.12
542.575	128.12
542.789	128.12
543.002	128.12
543.216	143.12
543.43	137.12
543.644	142.12
543.857	135.12
544.071	123.12
544.285	132.12
544.498	138.12
544.712	133.12
544.925	130.12
545.139	159.12
545.352	145.12
545.566	125.12
545.779	143.12
545.993	130.12
546.206	148.12
546.42	154.12
546.633	121.12
546.847	121.12
547.06	131.12
547.274	145.12
547.487	140.12
547.7	119.12
547.914	131.12
548.127	140.12
548.34	115.12
548.554	130.12
548.767	140.12
548.98	126.12
549.193	117.12
549.407	114.12
549.62	118.12
549.833	134.12
550.046	132.12
550.259	125.12
550.473	128.12
550.686	125.12
550.899	136.12
551.112	122.12
551.325	131.12
551.538	123.12
551.751	111.12
551.964	126.12
552.177	128.12
552.39	132.12
552.603	128.12
552.816	154.12
553.029	152.12
553.242	125.12
553.455	126.12
553.667	136.12
553.88	134.12
554.093	135.12
554.306	126.12
554.519	130.12
554.732	119.12
554.944	128.12
555.157	117.12
555.37	118.12
555.583	131.12
555.795	114.12
556.008	115.12
556.221	114.12
556.433	117.12
556.646	110.12
556.859	118.12
557.071	133.12
557.284	127.12
557.496	115.12
557.709	120.12
557.921	119.12
558.134	145.12
558.346	132.12
558.559	115.12
558.771	134.12
558.984	120.12
559.196	127.12
559.409	127.12
559.621	129.12
559.833	136.12
560.046	123.12
560.258	114.12
560.47	102.12
560.683	95.12
560.895	124.12
561.107	122.12
561.32	113.12
561.532	118.12
561.744	129.12
561.956	116.12
562.168	116.12
562.381	113.12
562.593	123.12
562.805	139.12
563.017	120.12
563.229	137.12
563.441	124.12
563.653	122.12
563.865	111.12
564.077	128.12
564.289	98.12
564.501	127.12
564.713	111.12
564.925	127.12
565.137	111.12
565.349	123.12
565.561	135.12
565.773	143.12
565.985	130.12
566.197	115.12
566.408	134.12
566.62	138.12
566.832	143.12
567.044	139.12
567.255	147.12
567.467	139.12
567.679	131.12
567.891	150.12
568.102	141.12
568.314	154.12
568.526	140.12
568.737	130.12
568.949	120.12
569.161	136.12
569.372	111.12
569.584	122.12
569.795	109.12
570.007	112.12
570.218	125.12
570.43	130.12
570.641	112.12
570.853	104.12
571.064	120.12
571.276	117.12
571.487	112.12
571.698	121.12
571.91	131.12
572.121	124.12
572.333	121.12
572.544	118.12
572.755	105.12
572.966	106.12
573.178	112.12
573.389	118.12
573.6	110.12
573.811	107.12
574.023	107.12
574.234	105.12
574.445	107.12
574.656	81.12
574.867	103.12
575.078	116.12
575.289	109.12
575.501	116.12
575.712	111.12
575.923	112.12
576.134	106.12
576.345	103.12
576.556	102.12
576.767	122.12
576.978	126.12
577.188	116.12
577.399	109.12
577.61	111.12
577.821	108.12
578.032	116.12
578.243	98.12
578.454	116.12
578.665	111.12
578.875	104.12
579.086	117.12
579.297	105.12
579.508	93.12
579.718	111.12
579.929	110.12
580.14	119.12
580.35	110.12
580.561	111.12
580.772	111.12
580.982	98.12
581.193	94.12
581.403	92.12
581.614	111.12
581.825	95.12
582.035	105.12
582.246	115.12
582.456	109.12
582.667	98.12
582.877	107.12
583.087	107.12
583.298	116.12
583.508	120.12
583.719	108.12
583.929	104.12
584.139	109.12
584.35	113.12
584.56	116.12
584.77	114.12
584.981	116.12
585.191	104.12
585.401	103.12
585.611	114.12
585.821	130.12
586.032	124.12
586.242	106.12
586.452	120.12
586.662	105.12
586.872	99.12
587.082	112.12
587.292	114.12
587.502	111.12
587.713	119.12
587.923	100.12
588.133	105.12
588.343	102.12
588.553	102.12
588.762	100.12
588.972	113.12
589.182	90.12
589.392	106.12
589.602	123.12
589.812	99.12
590.022	118.12
590.232	114.12
590.441	107.12
590.651	112.12
590.861	106.12
591.071	108.12
591.281	103.12
591.49	102.12
591.7	96.12
591.91	101.12
592.119	102.12
592.329	124.12
592.539	96.12
592.748	111.12
592.958	110.12
593.167	111.12
593.377	108.12
593.587	124.12
593.796	116.12
594.006	114.12
594.215	118.12
594.424	121.12
594.634	122.12
594.843	105.12
595.053	99.12
595.262	106.12
595.472	114.12
595.681	100.12
595.89	110.12
596.1	114.12
596.309	114.12
596.518	94.12
596.727	98.12
596.937	110.12
597.146	109.12
597.355	107.12
597.564	106.12
597.774	109.12
597.983	108.12
598.192	107.12
598.401	111.12
598.61	106.12
598.819	111.12
599.028	101.12
599.237	112.12
599.446	84.12
599.655	105.12
599.864	100.12
600.073	86.12
600.282	105.12
600.491	102.12
600.7	97.12
600.909	108.12
601.118	90.12
601.327	118.12
601.536	111.12
601.745	88.12
601.953	113.12
602.162	102.12
602.371	100.12
602.58	110.12
602.789	100.12
602.997	114.12
603.206	110.12
603.415	108.12
603.623	101.12
603.832	93.12
604.041	100.12
604.249	109.12
604.458	111.12
604.666	105.12
604.875	93.12
605.084	101.12
605.292	108.12
605.501	99.12
605.709	96.12
605.918	91.12
606.126	94.12
606.334	104.12
606.543	96.12
606.751	98.12
606.96	114.12
607.168	102.12
607.376	100.12
607.585	119.12
607.793	102.12
608.001	112.12
608.21	119.12
608.418	106.12
608.626	98.12
608.834	111.12
609.043	94.12
609.251	114.12
609.459	101.12
609.667	91.12
609.875	126.12
610.083	108.12
610.291	116.12
610.499	96.12
610.707	95.12
610.916	114.12
611.124	109.12
611.332	109.12
611.54	123.12
611.748	125.12
611.955	117.12
612.163	113.12
612.371	105.12
612.579	117.12
612.787	106.12
612.995	103.12
613.203	120.12
613.411	100.12
613.618	106.12
613.826	115.12
614.034	105.12
614.242	96.12
614.449	111.12
614.657	109.12
614.865	106.12
615.072	114.12
615.28	106.12
615.488	106.12
615.695	105.12
615.903	89.12
616.111	99.12
616.318	105.12
616.526	105.12
616.733	104.12
616.941	95.12
617.148	110.12
617.356	103.12
617.563	106.12
617.771	98.12
617.978	99.12
618.185	109.12
618.393	95.12
618.6	95.12
618.807	95.12
619.015	116.12
619.222	98.12
619.429	110.12
619.637	96.12
619.844	105.12
620.051	106.12
620.258	110.12
620.466	102.12
620.673	97.12
620.88	106.12
621.087	94.12
621.294	103.12
621.501	99.12
621.708	106.12
621.915	92.12
622.122	97.12
622.329	95.12
622.536	98.12
622.743	93.12
622.95	99.12
623.157	105.12
623.364	83.12
623.571	107.12
623.778	93.12
623.985	100.12
624.192	91.12
624.399	115.12
624.606	116.12
624.812	107.12
625.019	100.12
625.226	86.12
625.433	109.12
625.639	96.12
625.846	92.12
626.053	104.12
626.259	89.12
626.466	93.12
626.673	100.12
626.879	102.12
627.086	101.12
627.293	95.12
627.499	91.12
627.706	110.12
627.912	99.12
628.119	99.12
628.325	105.12
628.532	89.12
628.738	105.12
628.945	87.12
629.151	101.12
629.357	106.12
629.564	106.12
629.77	107.12
629.976	94.12
630.183	93.12
630.389	81.12
630.595	102.12
630.802	84.12
631.008	81.12
631.214	92.12
631.42	94.12
631.627	96.12
631.833	112.12
632.039	99.12
632.245	103.12
632.451	97.12
632.657	96.12
632.863	98.12
633.069	96.12
633.275	102.12
633.481	90.12
633.688	82.12
633.893	100.12
634.099	92.12
634.305	86.12
634.511	90.12
634.717	93.12
634.923	91.12
635.129	91.12
635.335	106.12
635.541	92.12
635.747	109.12
635.952	115.12
636.158	97.12
636.364	84.12
636.57	91.12
636.775	109.12
636.981	85.12
637.187	93.12
637.392	101.12
637.598	96.12
637.804	106.12
638.009	90.12
638.215	96.12
638.421	95.12
638.626	88.12
638.832	109.12
639.037	87.12
639.243	70.12
639.448	93.12
639.654	93.12
639.859	86.12
640.065	94.12
640.27	94.12
640.475	89.12
640.681	96.12
640.886	101.12
641.091	93.12
641.297	86.12
641.502	93.12
641.707	101.12
641.913	107.12
642.118	98.12
642.323	107.12
642.528	110.12
642.733	78.12
642.939	98.12
643.144	98.12
643.349	96.12
643.554	95.12
643.759	90.12
643.964	96.12
644.169	83.12
644.374	101.12
644.579	101.12
644.784	108.12
644.989	93.12
645.194	104.12
645.399	83.12
645.604	79.12
645.809	97.12
646.014	103.12
646.219	86.12
646.423	92.12
646.628	79.12
646.833	96.12
647.038	97.12
647.243	101.12
647.447	88.12
647.652	92.12
647.857	103.12
648.062	107.12
648.266	92.12
648.471	108.12
648.676	93.12
648.88	101.12
649.085	87.12
649.289	91.12
649.494	98.12
649.698	92.12
649.903	93.12
650.107	103.12
650.312	106.12
650.516	83.12
650.721	92.12
650.925	95.12
651.13	95.12
651.334	92.12
651.539	101.12
651.743	99.12
651.947	91.12
652.152	98.12
652.356	86.12
652.56	92.12
652.764	88.12
652.969	101.12
653.173	82.12
653.377	88.12
653.581	91.12
653.785	90.12
653.99	83.12
654.194	87.12
654.398	100.12
654.602	90.12
654.806	98.12
655.01	79.12
655.214	97.12
655.418	87.12
655.622	82.12
655.826	76.12
656.03	79.12
656.234	89.12
656.438	100.12
656.642	84.12
656.846	77.12
657.049	98.12
657.253	84.12
657.457	90.12
657.661	87.12
657.865	97.12
658.068	88.12
658.272	85.12
658.476	89.12
658.68	93.12
658.883	75.12
659.087	83.12
659.291	107.12
659.494	102.12
659.698	96.12
659.901	82.12
660.105	86.12
660.309	83.12
660.512	87.12
660.716	75.12
660.919	93.12
661.123	84.12
661.326	89.12
661.53	78.12
661.733	81.12
661.936	78.12
662.14	84.12
662.343	88.12
662.546	79.12
662.75	85.12
662.953	75.12
663.156	74.12
663.36	83.12
663.563	82.12
663.766	79.12
663.969	78.12
664.173	86.12
664.376	92.12
664.579	79.12
664.782	88.12
664.985	78.12
665.188	80.12
665.391	77.12
665.594	78.12
665.797	86.12
666	93.12
666.203	73.12
666.406	72.12
666.609	80.12
666.812	89.12
667.015	82.12
667.218	78.12
667.421	63.12
667.624	89.12
667.827	99.12
668.03	76.12
668.232	86.12
668.435	88.12
668.638	80.12
668.841	81.12
669.043	78.12
669.246	84.12
669.449	74.12
669.651	84.12
669.854	79.12
670.057	90.12
670.259	86.12
670.462	79.12
670.665	79.12
670.867	75.12
671.07	67.12
671.272	86.12
671.475	84.12
671.677	78.12
671.88	80.12
672.082	83.12
672.284	87.12
672.487	94.12
672.689	80.12
672.892	72.12
