Data from 1968.PennyLincolnUp.Lamp.En5.5.200Scan.071719.P1._HRD10591_14-51-34-970.txt Node
Date: Thu Jul 18 14:51:34 EDT 2019
User: cochatt
Spectrometer: HR+D1059
Trigger mode: 1
Integration Time (sec): 1.000000E-1
Scans to average: 1
Electric dark correction enabled: true
Nonlinearity correction enabled: false
Boxcar width: 0
XAxis mode: Wavelengths
Number of Pixels in Spectrum: 2048
>>>>>Begin Spectral Data<<<<<
223.165	-27.38
223.4	-27.38
223.635	-27.38
223.869	-7.38
224.104	-16.38
224.338	-12.38
224.573	-13.38
224.808	-5.38
225.042	-3.38
225.277	3.62
225.511	-5.38
225.746	1.62
225.98	3.62
226.215	5.62
226.449	13.62
226.683	13.62
226.918	21.62
227.152	27.62
227.387	26.62
227.621	58.62
227.856	56.62
228.09	46.62
228.324	42.62
228.559	52.62
228.793	71.62
229.027	69.62
229.262	66.62
229.496	67.62
229.73	74.62
229.964	83.62
230.199	75.62
230.433	72.62
230.667	81.62
230.901	58.62
231.136	79.62
231.37	72.62
231.604	77.62
231.838	67.62
232.072	89.62
232.306	84.62
232.541	93.62
232.775	101.62
233.009	91.62
233.243	73.62
233.477	82.62
233.711	85.62
233.945	91.62
234.179	77.62
234.413	87.62
234.647	88.62
234.881	89.62
235.115	88.62
235.349	71.62
235.583	91.62
235.817	69.62
236.051	84.62
236.285	95.62
236.519	85.62
236.753	83.62
236.987	82.62
237.221	87.62
237.455	84.62
237.689	83.62
237.922	84.62
238.156	81.62
238.39	75.62
238.624	84.62
238.858	76.62
239.091	81.62
239.325	79.62
239.559	92.62
239.793	76.62
240.027	82.62
240.26	77.62
240.494	75.62
240.728	77.62
240.961	92.62
241.195	93.62
241.429	83.62
241.662	84.62
241.896	84.62
242.13	75.62
242.363	78.62
242.597	84.62
242.83	84.62
243.064	86.62
243.298	86.62
243.531	83.62
243.765	82.62
243.998	83.62
244.232	87.62
244.465	96.62
244.699	91.62
244.932	77.62
245.166	88.62
245.399	89.62
245.633	83.62
245.866	82.62
246.099	84.62
246.333	76.62
246.566	86.62
246.8	82.62
247.033	77.62
247.266	77.62
247.5	70.62
247.733	88.62
247.966	77.62
248.2	85.62
248.433	98.62
248.666	87.62
248.899	86.62
249.133	91.62
249.366	72.62
249.599	91.62
249.832	81.62
250.066	97.62
250.299	85.62
250.532	83.62
250.765	85.62
250.998	95.62
251.231	90.62
251.465	92.62
251.698	82.62
251.931	67.62
252.164	80.62
252.397	83.62
252.63	88.62
252.863	74.62
253.096	84.62
253.329	76.62
253.562	74.62
253.795	82.62
254.028	78.62
254.261	97.62
254.494	95.62
254.727	90.62
254.96	84.62
255.193	97.62
255.426	100.62
255.659	84.62
255.892	84.62
256.124	80.62
256.357	98.62
256.59	91.62
256.823	97.62
257.056	92.62
257.289	107.62
257.521	89.62
257.754	87.62
257.987	93.62
258.22	95.62
258.452	83.62
258.685	92.62
258.918	77.62
259.151	81.62
259.383	100.62
259.616	87.62
259.849	91.62
260.081	87.62
260.314	103.62
260.547	89.62
260.779	93.62
261.012	84.62
261.244	67.62
261.477	98.62
261.71	97.62
261.942	92.62
262.175	92.62
262.407	95.62
262.64	102.62
262.872	103.62
263.105	87.62
263.337	101.62
263.57	104.62
263.802	89.62
264.035	85.62
264.267	88.62
264.499	91.62
264.732	89.62
264.964	100.62
265.197	82.62
265.429	95.62
265.661	105.62
265.894	92.62
266.126	99.62
266.358	81.62
266.591	91.62
266.823	86.62
267.055	84.62
267.287	100.62
267.52	99.62
267.752	98.62
267.984	86.62
268.216	79.62
268.448	81.62
268.681	108.62
268.913	97.62
269.145	107.62
269.377	97.62
269.609	107.62
269.841	95.62
270.073	87.62
270.306	97.62
270.538	101.62
270.77	103.62
271.002	104.62
271.234	111.62
271.466	102.62
271.698	105.62
271.93	101.62
272.162	94.62
272.394	98.62
272.626	88.62
272.858	93.62
273.09	105.62
273.322	96.62
273.553	94.62
273.785	93.62
274.017	89.62
274.249	99.62
274.481	91.62
274.713	84.62
274.945	87.62
275.176	117.62
275.408	105.62
275.64	86.62
275.872	100.62
276.104	100.62
276.335	93.62
276.567	111.62
276.799	101.62
277.031	97.62
277.262	92.62
277.494	104.62
277.726	88.62
277.957	104.62
278.189	109.62
278.421	93.62
278.652	107.62
278.884	112.62
279.115	96.62
279.347	103.62
279.579	95.62
279.81	107.62
280.042	98.62
280.273	98.62
280.505	100.62
280.736	106.62
280.968	91.62
281.199	90.62
281.431	100.62
281.662	82.62
281.894	92.62
282.125	99.62
282.356	88.62
282.588	96.62
282.819	106.62
283.051	100.62
283.282	107.62
283.513	100.62
283.745	100.62
283.976	88.62
284.207	103.62
284.439	96.62
284.67	103.62
284.901	98.62
285.132	97.62
285.364	106.62
285.595	94.62
285.826	97.62
286.057	112.62
286.288	99.62
286.52	95.62
286.751	83.62
286.982	98.62
287.213	102.62
287.444	103.62
287.675	89.62
287.906	91.62
288.138	113.62
288.369	108.62
288.6	89.62
288.831	99.62
289.062	96.62
289.293	112.62
289.524	85.62
289.755	108.62
289.986	86.62
290.217	113.62
290.448	99.62
290.679	89.62
290.91	93.62
291.141	108.62
291.371	111.62
291.602	98.62
291.833	102.62
292.064	112.62
292.295	104.62
292.526	101.62
292.757	98.62
292.987	90.62
293.218	91.62
293.449	99.62
293.68	104.62
293.91	111.62
294.141	101.62
294.372	95.62
294.603	104.62
294.833	111.62
295.064	110.62
295.295	96.62
295.525	89.62
295.756	107.62
295.987	99.62
296.217	93.62
296.448	94.62
296.679	94.62
296.909	116.62
297.14	99.62
297.37	95.62
297.601	111.62
297.831	100.62
298.062	104.62
298.292	105.62
298.523	102.62
298.753	105.62
298.984	103.62
299.214	94.62
299.445	99.62
299.675	108.62
299.905	107.62
300.136	88.62
300.366	107.62
300.597	100.62
300.827	108.62
301.057	103.62
301.288	97.62
301.518	99.62
301.748	108.62
301.979	96.62
302.209	102.62
302.439	108.62
302.669	106.62
302.9	95.62
303.13	104.62
303.36	90.62
303.59	92.62
303.82	100.62
304.051	119.62
304.281	122.62
304.511	102.62
304.741	109.62
304.971	98.62
305.201	92.62
305.431	91.62
305.661	99.62
305.891	104.62
306.121	99.62
306.352	118.62
306.582	103.62
306.812	105.62
307.042	102.62
307.272	99.62
307.502	93.62
307.731	104.62
307.961	112.62
308.191	105.62
308.421	99.62
308.651	125.62
308.881	111.62
309.111	89.62
309.341	90.62
309.571	95.62
309.8	106.62
310.03	100.62
310.26	127.62
310.49	116.62
310.72	103.62
310.949	122.62
311.179	118.62
311.409	105.62
311.639	106.62
311.868	115.62
312.098	117.62
312.328	107.62
312.557	110.62
312.787	107.62
313.017	114.62
313.246	108.62
313.476	107.62
313.706	119.62
313.935	109.62
314.165	96.62
314.394	104.62
314.624	92.62
314.853	102.62
315.083	108.62
315.312	118.62
315.542	115.62
315.771	105.62
316.001	101.62
316.23	109.62
316.46	105.62
316.689	108.62
316.919	108.62
317.148	105.62
317.377	116.62
317.607	107.62
317.836	116.62
318.065	107.62
318.295	105.62
318.524	108.62
318.753	109.62
318.983	107.62
319.212	92.62
319.441	96.62
319.67	115.62
319.9	103.62
320.129	115.62
320.358	101.62
320.587	106.62
320.816	115.62
321.046	95.62
321.275	118.62
321.504	107.62
321.733	93.62
321.962	108.62
322.191	98.62
322.42	108.62
322.649	122.62
322.878	108.62
323.108	100.62
323.337	103.62
323.566	113.62
323.795	115.62
324.024	121.62
324.253	124.62
324.482	131.62
324.71	164.62
324.939	157.62
325.168	168.62
325.397	125.62
325.626	123.62
325.855	116.62
326.084	107.62
326.313	106.62
326.542	114.62
326.77	135.62
326.999	113.62
327.228	137.62
327.457	153.62
327.686	171.62
327.914	118.62
328.143	113.62
328.372	114.62
328.6	114.62
328.829	105.62
329.058	100.62
329.287	124.62
329.515	119.62
329.744	122.62
329.972	116.62
330.201	108.62
330.43	119.62
330.658	124.62
330.887	127.62
331.115	121.62
331.344	100.62
331.572	91.62
331.801	116.62
332.03	104.62
332.258	116.62
332.486	103.62
332.715	93.62
332.943	120.62
333.172	129.62
333.4	116.62
333.629	116.62
333.857	114.62
334.085	123.62
334.314	107.62
334.542	115.62
334.771	124.62
334.999	116.62
335.227	111.62
335.455	113.62
335.684	119.62
335.912	115.62
336.14	107.62
336.369	119.62
336.597	92.62
336.825	124.62
337.053	115.62
337.281	119.62
337.51	104.62
337.738	114.62
337.966	115.62
338.194	99.62
338.422	116.62
338.65	113.62
338.878	128.62
339.106	111.62
339.334	108.62
339.562	106.62
339.79	119.62
340.018	112.62
340.246	123.62
340.474	111.62
340.702	116.62
340.93	116.62
341.158	113.62
341.386	111.62
341.614	102.62
341.842	106.62
342.07	106.62
342.298	120.62
342.526	111.62
342.754	108.62
342.981	115.62
343.209	114.62
343.437	107.62
343.665	116.62
343.893	120.62
344.12	125.62
344.348	119.62
344.576	118.62
344.804	108.62
345.031	121.62
345.259	104.62
345.487	109.62
345.714	108.62
345.942	90.62
346.17	97.62
346.397	104.62
346.625	101.62
346.853	133.62
347.08	111.62
347.308	114.62
347.535	100.62
347.763	110.62
347.99	101.62
348.218	111.62
348.445	123.62
348.673	113.62
348.9	106.62
349.128	109.62
349.355	120.62
349.583	120.62
349.81	113.62
350.037	103.62
350.265	103.62
350.492	129.62
350.72	117.62
350.947	109.62
351.174	111.62
351.402	97.62
351.629	111.62
351.856	118.62
352.083	96.62
352.311	109.62
352.538	105.62
352.765	122.62
352.992	110.62
353.22	120.62
353.447	110.62
353.674	105.62
353.901	123.62
354.128	103.62
354.355	107.62
354.583	99.62
354.81	105.62
355.037	96.62
355.264	117.62
355.491	119.62
355.718	92.62
355.945	102.62
356.172	106.62
356.399	92.62
356.626	103.62
356.853	97.62
357.08	112.62
357.307	121.62
357.534	112.62
357.761	122.62
357.988	108.62
358.215	112.62
358.441	102.62
358.668	101.62
358.895	99.62
359.122	97.62
359.349	116.62
359.576	108.62
359.802	113.62
360.029	111.62
360.256	123.62
360.483	120.62
360.709	103.62
360.936	115.62
361.163	121.62
361.39	92.62
361.616	117.62
361.843	108.62
362.07	92.62
362.296	115.62
362.523	93.62
362.749	101.62
362.976	124.62
363.203	116.62
363.429	90.62
363.656	113.62
363.882	103.62
364.109	127.62
364.335	96.62
364.562	98.62
364.788	97.62
365.015	105.62
365.241	116.62
365.468	128.62
365.694	112.62
365.92	103.62
366.147	105.62
366.373	106.62
366.599	106.62
366.826	103.62
367.052	107.62
367.278	112.62
367.505	113.62
367.731	105.62
367.957	100.62
368.184	102.62
368.41	114.62
368.636	103.62
368.862	131.62
369.089	104.62
369.315	90.62
369.541	120.62
369.767	121.62
369.993	111.62
370.219	106.62
370.445	113.62
370.672	100.62
370.898	116.62
371.124	117.62
371.35	103.62
371.576	105.62
371.802	103.62
372.028	97.62
372.254	106.62
372.48	120.62
372.706	121.62
372.932	115.62
373.158	114.62
373.384	105.62
373.61	105.62
373.835	103.62
374.061	102.62
374.287	105.62
374.513	99.62
374.739	121.62
374.965	99.62
375.191	122.62
375.416	122.62
375.642	115.62
375.868	107.62
376.094	116.62
376.319	112.62
376.545	108.62
376.771	111.62
376.997	115.62
377.222	112.62
377.448	114.62
377.674	117.62
377.899	106.62
378.125	123.62
378.35	112.62
378.576	109.62
378.802	110.62
379.027	97.62
379.253	117.62
379.478	103.62
379.704	104.62
379.929	85.62
380.155	119.62
380.38	124.62
380.606	108.62
380.831	115.62
381.057	105.62
381.282	108.62
381.507	105.62
381.733	120.62
381.958	117.62
382.184	112.62
382.409	105.62
382.634	105.62
382.86	99.62
383.085	124.62
383.31	131.62
383.535	114.62
383.761	115.62
383.986	122.62
384.211	109.62
384.436	117.62
384.662	121.62
384.887	118.62
385.112	128.62
385.337	130.62
385.562	117.62
385.787	128.62
386.013	107.62
386.238	121.62
386.463	108.62
386.688	129.62
386.913	129.62
387.138	120.62
387.363	105.62
387.588	110.62
387.813	120.62
388.038	117.62
388.263	122.62
388.488	122.62
388.713	125.62
388.938	120.62
389.163	119.62
389.387	120.62
389.612	115.62
389.837	111.62
390.062	126.62
390.287	126.62
390.512	136.62
390.736	120.62
390.961	120.62
391.186	148.62
391.411	113.62
391.636	104.62
391.86	111.62
392.085	112.62
392.31	120.62
392.534	114.62
392.759	116.62
392.984	118.62
393.208	111.62
393.433	126.62
393.658	116.62
393.882	96.62
394.107	122.62
394.331	123.62
394.556	124.62
394.78	125.62
395.005	130.62
395.229	113.62
395.454	113.62
395.678	115.62
395.903	120.62
396.127	117.62
396.352	132.62
396.576	118.62
396.801	120.62
397.025	127.62
397.249	111.62
397.474	128.62
397.698	119.62
397.922	120.62
398.147	123.62
398.371	134.62
398.595	137.62
398.82	115.62
399.044	140.62
399.268	129.62
399.492	147.62
399.717	155.62
399.941	163.62
400.165	147.62
400.389	136.62
400.613	125.62
400.837	127.62
401.062	133.62
401.286	129.62
401.51	125.62
401.734	132.62
401.958	129.62
402.182	125.62
402.406	129.62
402.63	119.62
402.854	122.62
403.078	129.62
403.302	129.62
403.526	138.62
403.75	138.62
403.974	131.62
404.198	122.62
404.422	128.62
404.645	143.62
404.869	120.62
405.093	119.62
405.317	125.62
405.541	137.62
405.765	132.62
405.988	143.62
406.212	125.62
406.436	137.62
406.66	127.62
406.883	148.62
407.107	151.62
407.331	131.62
407.555	147.62
407.778	133.62
408.002	140.62
408.226	126.62
408.449	121.62
408.673	136.62
408.896	133.62
409.12	125.62
409.344	129.62
409.567	123.62
409.791	141.62
410.014	127.62
410.238	135.62
410.461	105.62
410.685	139.62
410.908	122.62
411.132	134.62
411.355	139.62
411.578	132.62
411.802	119.62
412.025	127.62
412.249	133.62
412.472	148.62
412.695	131.62
412.919	121.62
413.142	113.62
413.365	131.62
413.589	121.62
413.812	128.62
414.035	136.62
414.258	125.62
414.482	139.62
414.705	143.62
414.928	142.62
415.151	139.62
415.374	120.62
415.597	125.62
415.821	123.62
416.044	115.62
416.267	131.62
416.49	119.62
416.713	119.62
416.936	140.62
417.159	130.62
417.382	118.62
417.605	129.62
417.828	142.62
418.051	125.62
418.274	136.62
418.497	126.62
418.72	140.62
418.943	127.62
419.166	132.62
419.389	131.62
419.611	130.62
419.834	123.62
420.057	139.62
420.28	139.62
420.503	133.62
420.726	137.62
420.948	134.62
421.171	121.62
421.394	139.62
421.617	123.62
421.839	139.62
422.062	132.62
422.285	125.62
422.507	134.62
422.73	159.62
422.953	134.62
423.175	121.62
423.398	130.62
423.621	125.62
423.843	136.62
424.066	129.62
424.288	144.62
424.511	143.62
424.733	140.62
424.956	140.62
425.178	142.62
425.401	124.62
425.623	137.62
425.846	120.62
426.068	138.62
426.291	127.62
426.513	120.62
426.735	142.62
426.958	140.62
427.18	139.62
427.402	135.62
427.625	148.62
427.847	145.62
428.069	134.62
428.292	133.62
428.514	133.62
428.736	134.62
428.958	119.62
429.181	135.62
429.403	129.62
429.625	124.62
429.847	119.62
430.069	125.62
430.292	130.62
430.514	151.62
430.736	130.62
430.958	133.62
431.18	129.62
431.402	140.62
431.624	138.62
431.846	131.62
432.068	129.62
432.29	117.62
432.512	136.62
432.734	121.62
432.956	134.62
433.178	106.62
433.4	131.62
433.622	127.62
433.844	140.62
434.066	133.62
434.287	127.62
434.509	121.62
434.731	108.62
434.953	122.62
435.175	128.62
435.397	139.62
435.618	133.62
435.84	124.62
436.062	136.62
436.284	138.62
436.505	126.62
436.727	134.62
436.949	111.62
437.17	122.62
437.392	124.62
437.614	122.62
437.835	130.62
438.057	126.62
438.278	139.62
438.5	131.62
438.721	122.62
438.943	146.62
439.165	124.62
439.386	133.62
439.608	135.62
439.829	114.62
440.05	131.62
440.272	132.62
440.493	121.62
440.715	118.62
440.936	137.62
441.158	140.62
441.379	135.62
441.6	122.62
441.822	122.62
442.043	134.62
442.264	130.62
442.486	123.62
442.707	127.62
442.928	134.62
443.149	144.62
443.371	136.62
443.592	135.62
443.813	130.62
444.034	140.62
444.255	148.62
444.476	148.62
444.698	146.62
444.919	146.62
445.14	272.62
445.361	186.62
445.582	129.62
445.803	147.62
446.024	133.62
446.245	136.62
446.466	134.62
446.687	135.62
446.908	137.62
447.129	141.62
447.35	120.62
447.571	128.62
447.792	123.62
448.013	126.62
448.234	141.62
448.455	135.62
448.675	133.62
448.896	141.62
449.117	129.62
449.338	124.62
449.559	132.62
449.779	151.62
450	120.62
450.221	127.62
450.442	125.62
450.662	105.62
450.883	109.62
451.104	132.62
451.324	131.62
451.545	128.62
451.766	121.62
451.986	117.62
452.207	102.62
452.428	116.62
452.648	121.62
452.869	113.62
453.089	111.62
453.31	129.62
453.53	120.62
453.751	124.62
453.971	105.62
454.192	127.62
454.412	121.62
454.633	122.62
454.853	108.62
455.073	99.62
455.294	116.62
455.514	148.62
455.734	116.62
455.955	134.62
456.175	115.62
456.395	125.62
456.616	125.62
456.836	117.62
457.056	92.62
457.276	115.62
457.497	113.62
457.717	108.62
457.937	111.62
458.157	122.62
458.377	118.62
458.598	112.62
458.818	116.62
459.038	121.62
459.258	141.62
459.478	123.62
459.698	130.62
459.918	128.62
460.138	129.62
460.358	131.62
460.578	127.62
460.798	142.62
461.018	134.62
461.238	123.62
461.458	121.62
461.678	141.62
461.898	128.62
462.118	123.62
462.338	143.62
462.558	140.62
462.777	146.62
462.997	147.62
463.217	135.62
463.437	137.62
463.657	122.62
463.876	133.62
464.096	135.62
464.316	131.62
464.536	132.62
464.755	128.62
464.975	121.62
465.195	128.62
465.414	146.62
465.634	121.62
465.854	129.62
466.073	130.62
466.293	124.62
466.512	128.62
466.732	132.62
466.951	117.62
467.171	128.62
467.391	126.62
467.61	108.62
467.829	119.62
468.049	121.62
468.268	114.62
468.488	132.62
468.707	128.62
468.927	111.62
469.146	129.62
469.365	134.62
469.585	133.62
469.804	118.62
470.023	118.62
470.243	120.62
470.462	119.62
470.681	128.62
470.901	120.62
471.12	118.62
471.339	133.62
471.558	120.62
471.777	124.62
471.997	111.62
472.216	122.62
472.435	119.62
472.654	129.62
472.873	114.62
473.092	119.62
473.311	125.62
473.53	114.62
473.749	133.62
473.968	128.62
474.187	116.62
474.406	138.62
474.625	121.62
474.844	114.62
475.063	118.62
475.282	118.62
475.501	122.62
475.72	135.62
475.939	108.62
476.158	127.62
476.377	112.62
476.596	122.62
476.814	122.62
477.033	120.62
477.252	122.62
477.471	113.62
477.69	122.62
477.908	125.62
478.127	137.62
478.346	134.62
478.564	129.62
478.783	148.62
479.002	127.62
479.22	133.62
479.439	146.62
479.658	145.62
479.876	129.62
480.095	135.62
480.313	133.62
480.532	138.62
480.751	140.62
480.969	131.62
481.188	127.62
481.406	123.62
481.624	122.62
481.843	131.62
482.061	118.62
482.28	121.62
482.498	120.62
482.717	120.62
482.935	127.62
483.153	137.62
483.372	139.62
483.59	138.62
483.808	126.62
484.027	135.62
484.245	121.62
484.463	137.62
484.681	141.62
484.9	157.62
485.118	126.62
485.336	125.62
485.554	136.62
485.772	130.62
485.99	137.62
486.209	136.62
486.427	125.62
486.645	133.62
486.863	121.62
487.081	131.62
487.299	147.62
487.517	113.62
487.735	149.62
487.953	139.62
488.171	136.62
488.389	142.62
488.607	151.62
488.825	120.62
489.043	137.62
489.261	145.62
489.479	137.62
489.696	147.62
489.914	138.62
490.132	127.62
490.35	134.62
490.568	140.62
490.786	128.62
491.003	136.62
491.221	129.62
491.439	124.62
491.657	142.62
491.874	152.62
492.092	148.62
492.31	148.62
492.527	148.62
492.745	148.62
492.963	148.62
493.18	137.62
493.398	155.62
493.615	154.62
493.833	151.62
494.05	145.62
494.268	138.62
494.485	149.62
494.703	163.62
494.92	161.62
495.138	132.62
495.355	138.62
495.573	140.62
495.79	134.62
496.008	146.62
496.225	151.62
496.442	138.62
496.66	144.62
496.877	135.62
497.094	155.62
497.312	148.62
497.529	131.62
497.746	144.62
497.963	153.62
498.181	147.62
498.398	151.62
498.615	164.62
498.832	167.62
499.049	154.62
499.267	159.62
499.484	178.62
499.701	175.62
499.918	180.62
500.135	181.62
500.352	205.62
500.569	225.62
500.786	216.62
501.003	180.62
501.22	183.62
501.437	185.62
501.654	187.62
501.871	179.62
502.088	148.62
502.305	157.62
502.522	140.62
502.739	150.62
502.956	157.62
503.172	167.62
503.389	143.62
503.606	149.62
503.823	151.62
504.04	145.62
504.256	163.62
504.473	139.62
504.69	151.62
504.907	165.62
505.123	148.62
505.34	138.62
505.557	142.62
505.773	125.62
505.99	127.62
506.207	133.62
506.423	119.62
506.64	127.62
506.856	141.62
507.073	138.62
507.289	140.62
507.506	121.62
507.722	126.62
507.939	136.62
508.155	133.62
508.372	129.62
508.588	123.62
508.805	132.62
509.021	134.62
509.238	130.62
509.454	119.62
509.67	133.62
509.887	136.62
510.103	125.62
510.319	129.62
510.536	139.62
510.752	170.62
510.968	149.62
511.184	125.62
511.401	107.62
511.617	143.62
511.833	129.62
512.049	127.62
512.265	137.62
512.481	132.62
512.698	123.62
512.914	108.62
513.13	123.62
513.346	108.62
513.562	138.62
513.778	137.62
513.994	129.62
514.21	127.62
514.426	125.62
514.642	131.62
514.858	142.62
515.074	130.62
515.29	149.62
515.506	159.62
515.721	140.62
515.937	131.62
516.153	137.62
516.369	122.62
516.585	138.62
516.801	133.62
517.016	137.62
517.232	133.62
517.448	151.62
517.664	145.62
517.879	155.62
518.095	134.62
518.311	144.62
518.527	141.62
518.742	136.62
518.958	140.62
519.173	136.62
519.389	122.62
519.605	136.62
519.82	138.62
520.036	139.62
520.251	125.62
520.467	132.62
520.682	131.62
520.898	132.62
521.113	122.62
521.329	113.62
521.544	143.62
521.76	141.62
521.975	170.62
522.19	173.62
522.406	127.62
522.621	120.62
522.836	131.62
523.052	127.62
523.267	125.62
523.482	136.62
523.698	123.62
523.913	124.62
524.128	125.62
524.343	129.62
524.559	124.62
524.774	119.62
524.989	129.62
525.204	132.62
525.419	143.62
525.634	108.62
525.849	131.62
526.064	128.62
526.28	122.62
526.495	120.62
526.71	123.62
526.925	120.62
527.14	132.62
527.355	123.62
527.57	120.62
527.785	105.62
527.999	116.62
528.214	123.62
528.429	112.62
528.644	108.62
528.859	124.62
529.074	133.62
529.289	141.62
529.503	125.62
529.718	137.62
529.933	130.62
530.148	122.62
530.363	127.62
530.577	121.62
530.792	113.62
531.007	117.62
531.221	115.62
531.436	122.62
531.651	117.62
531.865	137.62
532.08	124.62
532.295	119.62
532.509	107.62
532.724	110.62
532.938	118.62
533.153	122.62
533.367	114.62
533.582	131.62
533.796	121.62
534.011	118.62
534.225	107.62
534.44	106.62
534.654	133.62
534.868	111.62
535.083	127.62
535.297	120.62
535.511	123.62
535.726	116.62
535.94	124.62
536.154	117.62
536.369	102.62
536.583	113.62
536.797	118.62
537.011	117.62
537.225	120.62
537.44	111.62
537.654	122.62
537.868	125.62
538.082	123.62
538.296	134.62
538.51	116.62
538.724	106.62
538.938	122.62
539.153	108.62
539.367	111.62
539.581	119.62
539.795	122.62
540.009	121.62
540.222	117.62
540.436	107.62
540.65	113.62
540.864	111.62
541.078	140.62
541.292	131.62
541.506	123.62
541.72	135.62
541.934	127.62
542.147	129.62
542.361	137.62
542.575	137.62
542.789	138.62
543.002	140.62
543.216	138.62
543.43	127.62
543.644	132.62
543.857	129.62
544.071	137.62
544.285	146.62
544.498	127.62
544.712	127.62
544.925	145.62
545.139	139.62
545.352	126.62
545.566	137.62
545.779	127.62
545.993	145.62
546.206	160.62
546.42	159.62
546.633	132.62
546.847	152.62
547.06	125.62
547.274	142.62
547.487	114.62
547.7	117.62
547.914	128.62
548.127	117.62
548.34	120.62
548.554	121.62
548.767	137.62
548.98	144.62
549.193	135.62
549.407	127.62
549.62	130.62
549.833	120.62
550.046	115.62
550.259	120.62
550.473	124.62
550.686	130.62
550.899	119.62
551.112	119.62
551.325	120.62
551.538	130.62
551.751	128.62
551.964	119.62
552.177	122.62
552.39	144.62
552.603	120.62
552.816	124.62
553.029	139.62
553.242	118.62
553.455	125.62
553.667	133.62
553.88	124.62
554.093	114.62
554.306	127.62
554.519	116.62
554.732	117.62
554.944	122.62
555.157	130.62
555.37	121.62
555.583	122.62
555.795	122.62
556.008	126.62
556.221	120.62
556.433	116.62
556.646	126.62
556.859	115.62
557.071	107.62
557.284	122.62
557.496	114.62
557.709	118.62
557.921	128.62
558.134	126.62
558.346	126.62
558.559	120.62
558.771	116.62
558.984	133.62
559.196	127.62
559.409	105.62
559.621	121.62
559.833	112.62
560.046	120.62
560.258	122.62
560.47	111.62
560.683	114.62
560.895	113.62
561.107	120.62
561.32	115.62
561.532	108.62
561.744	118.62
561.956	115.62
562.168	104.62
562.381	123.62
562.593	122.62
562.805	109.62
563.017	126.62
563.229	127.62
563.441	123.62
563.653	119.62
563.865	117.62
564.077	116.62
564.289	118.62
564.501	122.62
564.713	120.62
564.925	112.62
565.137	121.62
565.349	115.62
565.561	129.62
565.773	126.62
565.985	118.62
566.197	136.62
566.408	129.62
566.62	129.62
566.832	135.62
567.044	138.62
567.255	141.62
567.467	128.62
567.679	139.62
567.891	141.62
568.102	136.62
568.314	137.62
568.526	121.62
568.737	139.62
568.949	120.62
569.161	121.62
569.372	120.62
569.584	122.62
569.795	107.62
570.007	127.62
570.218	109.62
570.43	121.62
570.641	110.62
570.853	115.62
571.064	117.62
571.276	118.62
571.487	117.62
571.698	120.62
571.91	116.62
572.121	112.62
572.333	105.62
572.544	102.62
572.755	111.62
572.966	112.62
573.178	115.62
573.389	116.62
573.6	103.62
573.811	105.62
574.023	104.62
574.234	95.62
574.445	118.62
574.656	105.62
574.867	113.62
575.078	112.62
575.289	105.62
575.501	120.62
575.712	114.62
575.923	101.62
576.134	123.62
576.345	107.62
576.556	104.62
576.767	110.62
576.978	106.62
577.188	112.62
577.399	107.62
577.61	100.62
577.821	114.62
578.032	113.62
578.243	106.62
578.454	129.62
578.665	117.62
578.875	96.62
579.086	99.62
579.297	100.62
579.508	105.62
579.718	99.62
579.929	120.62
580.14	115.62
580.35	104.62
580.561	113.62
580.772	100.62
580.982	127.62
581.193	99.62
581.403	100.62
581.614	111.62
581.825	113.62
582.035	105.62
582.246	101.62
582.456	108.62
582.667	94.62
582.877	93.62
583.087	96.62
583.298	111.62
583.508	104.62
583.719	95.62
583.929	111.62
584.139	111.62
584.35	88.62
584.56	95.62
584.77	100.62
584.981	96.62
585.191	99.62
585.401	100.62
585.611	101.62
585.821	112.62
586.032	99.62
586.242	107.62
586.452	107.62
586.662	95.62
586.872	113.62
587.082	112.62
587.292	93.62
587.502	93.62
587.713	105.62
587.923	115.62
588.133	115.62
588.343	103.62
588.553	109.62
588.762	116.62
588.972	111.62
589.182	120.62
589.392	100.62
589.602	115.62
589.812	92.62
590.022	107.62
590.232	108.62
590.441	113.62
590.651	95.62
590.861	91.62
591.071	113.62
591.281	97.62
591.49	108.62
591.7	121.62
591.91	107.62
592.119	113.62
592.329	112.62
592.539	116.62
592.748	99.62
592.958	112.62
593.167	123.62
593.377	109.62
593.587	111.62
593.796	95.62
594.006	115.62
594.215	120.62
594.424	113.62
594.634	106.62
594.843	99.62
595.053	108.62
595.262	108.62
595.472	114.62
595.681	97.62
595.89	111.62
596.1	83.62
596.309	104.62
596.518	103.62
596.727	92.62
596.937	111.62
597.146	98.62
597.355	93.62
597.564	103.62
597.774	108.62
597.983	106.62
598.192	89.62
598.401	87.62
598.61	104.62
598.819	103.62
599.028	92.62
599.237	109.62
599.446	83.62
599.655	101.62
599.864	92.62
600.073	107.62
600.282	107.62
600.491	99.62
600.7	109.62
600.909	103.62
601.118	107.62
601.327	102.62
601.536	110.62
601.745	108.62
601.953	91.62
602.162	98.62
602.371	99.62
602.58	112.62
602.789	111.62
602.997	98.62
603.206	103.62
603.415	113.62
603.623	106.62
603.832	98.62
604.041	96.62
604.249	87.62
604.458	108.62
604.666	99.62
604.875	105.62
605.084	99.62
605.292	96.62
605.501	103.62
605.709	99.62
605.918	98.62
606.126	100.62
606.334	98.62
606.543	103.62
606.751	108.62
606.96	96.62
607.168	95.62
607.376	92.62
607.585	89.62
607.793	103.62
608.001	96.62
608.21	113.62
608.418	108.62
608.626	111.62
608.834	89.62
609.043	95.62
609.251	116.62
609.459	98.62
609.667	121.62
609.875	111.62
610.083	106.62
610.291	115.62
610.499	108.62
610.707	111.62
610.916	113.62
611.124	97.62
611.332	113.62
611.54	127.62
611.748	123.62
611.955	121.62
612.163	102.62
612.371	100.62
612.579	99.62
612.787	100.62
612.995	103.62
613.203	128.62
613.411	103.62
613.618	109.62
613.826	101.62
614.034	88.62
614.242	105.62
614.449	112.62
614.657	110.62
614.865	104.62
615.072	87.62
615.28	97.62
615.488	113.62
615.695	99.62
615.903	99.62
616.111	117.62
616.318	96.62
616.526	101.62
616.733	101.62
616.941	98.62
617.148	98.62
617.356	102.62
617.563	111.62
617.771	108.62
617.978	101.62
618.185	96.62
618.393	94.62
618.6	106.62
618.807	86.62
619.015	99.62
619.222	104.62
619.429	102.62
619.637	111.62
619.844	95.62
620.051	105.62
620.258	109.62
620.466	98.62
620.673	95.62
620.88	92.62
621.087	105.62
621.294	102.62
621.501	88.62
621.708	93.62
621.915	97.62
622.122	96.62
622.329	91.62
622.536	95.62
622.743	94.62
622.95	74.62
623.157	100.62
623.364	114.62
623.571	89.62
623.778	85.62
623.985	111.62
624.192	93.62
624.399	110.62
624.606	99.62
624.812	101.62
625.019	108.62
625.226	95.62
625.433	82.62
625.639	90.62
625.846	92.62
626.053	89.62
626.259	96.62
626.466	88.62
626.673	95.62
626.879	89.62
627.086	107.62
627.293	96.62
627.499	103.62
627.706	101.62
627.912	109.62
628.119	95.62
628.325	103.62
628.532	92.62
628.738	83.62
628.945	92.62
629.151	103.62
629.357	95.62
629.564	94.62
629.77	99.62
629.976	103.62
630.183	92.62
630.389	96.62
630.595	95.62
630.802	86.62
631.008	98.62
631.214	100.62
631.42	101.62
631.627	94.62
631.833	95.62
632.039	85.62
632.245	92.62
632.451	91.62
632.657	80.62
632.863	85.62
633.069	91.62
633.275	88.62
633.481	96.62
633.688	108.62
633.893	79.62
634.099	92.62
634.305	100.62
634.511	103.62
634.717	86.62
634.923	101.62
635.129	67.62
635.335	84.62
635.541	100.62
635.747	83.62
635.952	105.62
636.158	87.62
636.364	81.62
636.57	88.62
636.775	85.62
636.981	100.62
637.187	94.62
637.392	101.62
637.598	108.62
637.804	93.62
638.009	80.62
638.215	87.62
638.421	82.62
638.626	93.62
638.832	86.62
639.037	87.62
639.243	82.62
639.448	98.62
639.654	84.62
639.859	70.62
640.065	95.62
640.27	97.62
640.475	89.62
640.681	65.62
640.886	105.62
641.091	88.62
641.297	89.62
641.502	92.62
641.707	99.62
641.913	97.62
642.118	98.62
642.323	83.62
642.528	100.62
642.733	96.62
642.939	92.62
643.144	96.62
643.349	87.62
643.554	103.62
643.759	97.62
643.964	83.62
644.169	81.62
644.374	88.62
644.579	105.62
644.784	84.62
644.989	81.62
645.194	97.62
645.399	87.62
645.604	96.62
645.809	77.62
646.014	80.62
646.219	93.62
646.423	98.62
646.628	101.62
646.833	85.62
647.038	93.62
647.243	87.62
647.447	88.62
647.652	106.62
647.857	88.62
648.062	87.62
648.266	94.62
648.471	92.62
648.676	105.62
648.88	81.62
649.085	95.62
649.289	87.62
649.494	100.62
649.698	94.62
649.903	98.62
650.107	81.62
650.312	94.62
650.516	88.62
650.721	91.62
650.925	89.62
651.13	95.62
651.334	74.62
651.539	89.62
651.743	102.62
651.947	87.62
652.152	108.62
652.356	83.62
652.56	87.62
652.764	100.62
652.969	79.62
653.173	90.62
653.377	88.62
653.581	84.62
653.785	88.62
653.99	96.62
654.194	78.62
654.398	83.62
654.602	84.62
654.806	103.62
655.01	73.62
655.214	94.62
655.418	106.62
655.622	90.62
655.826	90.62
656.03	85.62
656.234	95.62
656.438	78.62
656.642	90.62
656.846	95.62
657.049	88.62
657.253	92.62
657.457	96.62
657.661	91.62
657.865	95.62
658.068	85.62
658.272	85.62
658.476	82.62
658.68	83.62
658.883	73.62
659.087	85.62
659.291	76.62
659.494	91.62
659.698	88.62
659.901	90.62
660.105	102.62
660.309	105.62
660.512	85.62
660.716	71.62
660.919	74.62
661.123	75.62
661.326	86.62
661.53	91.62
661.733	80.62
661.936	89.62
662.14	87.62
662.343	78.62
662.546	88.62
662.75	78.62
662.953	85.62
663.156	67.62
663.36	80.62
663.563	89.62
663.766	76.62
663.969	85.62
664.173	95.62
664.376	75.62
664.579	76.62
664.782	83.62
664.985	83.62
665.188	77.62
665.391	69.62
665.594	71.62
665.797	91.62
666	79.62
666.203	88.62
666.406	69.62
666.609	76.62
666.812	83.62
667.015	71.62
667.218	81.62
667.421	96.62
667.624	62.62
667.827	84.62
668.03	79.62
668.232	86.62
668.435	76.62
668.638	79.62
668.841	82.62
669.043	73.62
669.246	73.62
669.449	79.62
669.651	74.62
669.854	78.62
670.057	79.62
670.259	80.62
670.462	76.62
670.665	79.62
670.867	88.62
671.07	75.62
671.272	78.62
671.475	87.62
671.677	87.62
671.88	87.62
672.082	83.62
672.284	87.62
672.487	85.62
672.689	77.62
672.892	71.62
