Data from 1968.PennyLincolnUp.Lamp.En5.5.200Scan.071719.P1._HRD10591_14-52-19-970.txt Node
Date: Thu Jul 18 14:52:19 EDT 2019
User: cochatt
Spectrometer: HR+D1059
Trigger mode: 1
Integration Time (sec): 1.000000E-1
Scans to average: 1
Electric dark correction enabled: true
Nonlinearity correction enabled: false
Boxcar width: 0
XAxis mode: Wavelengths
Number of Pixels in Spectrum: 2048
>>>>>Begin Spectral Data<<<<<
223.165	-15.12
223.4	-15.12
223.635	-15.12
223.869	-18.12
224.104	-6.12
224.338	-15.12
224.573	-11.12
224.808	-2.12
225.042	-10.12
225.277	-19.12
225.511	3.88
225.746	-13.12
225.98	15.88
226.215	7.88
226.449	4.88
226.683	13.88
226.918	26.88
227.152	36.88
227.387	31.88
227.621	31.88
227.856	34.88
228.09	34.88
228.324	37.88
228.559	55.88
228.793	57.88
229.027	53.88
229.262	65.88
229.496	66.88
229.73	75.88
229.964	75.88
230.199	74.88
230.433	70.88
230.667	89.88
230.901	86.88
231.136	82.88
231.37	75.88
231.604	72.88
231.838	81.88
232.072	82.88
232.306	80.88
232.541	93.88
232.775	87.88
233.009	86.88
233.243	101.88
233.477	75.88
233.711	80.88
233.945	72.88
234.179	87.88
234.413	84.88
234.647	81.88
234.881	77.88
235.115	83.88
235.349	93.88
235.583	82.88
235.817	72.88
236.051	98.88
236.285	90.88
236.519	80.88
236.753	81.88
236.987	75.88
237.221	77.88
237.455	96.88
237.689	84.88
237.922	79.88
238.156	86.88
238.39	75.88
238.624	83.88
238.858	73.88
239.091	81.88
239.325	61.88
239.559	80.88
239.793	69.88
240.027	80.88
240.26	81.88
240.494	91.88
240.728	77.88
240.961	88.88
241.195	74.88
241.429	84.88
241.662	83.88
241.896	82.88
242.13	91.88
242.363	73.88
242.597	75.88
242.83	90.88
243.064	69.88
243.298	89.88
243.531	75.88
243.765	74.88
243.998	87.88
244.232	86.88
244.465	67.88
244.699	76.88
244.932	74.88
245.166	80.88
245.399	84.88
245.633	70.88
245.866	81.88
246.099	77.88
246.333	77.88
246.566	71.88
246.8	79.88
247.033	77.88
247.266	80.88
247.5	69.88
247.733	87.88
247.966	84.88
248.2	81.88
248.433	80.88
248.666	84.88
248.899	90.88
249.133	78.88
249.366	81.88
249.599	102.88
249.832	96.88
250.066	82.88
250.299	85.88
250.532	87.88
250.765	86.88
250.998	97.88
251.231	97.88
251.465	85.88
251.698	86.88
251.931	81.88
252.164	88.88
252.397	85.88
252.63	94.88
252.863	99.88
253.096	92.88
253.329	81.88
253.562	84.88
253.795	86.88
254.028	95.88
254.261	88.88
254.494	87.88
254.727	87.88
254.96	96.88
255.193	77.88
255.426	99.88
255.659	92.88
255.892	96.88
256.124	83.88
256.357	93.88
256.59	82.88
256.823	73.88
257.056	79.88
257.289	84.88
257.521	89.88
257.754	82.88
257.987	95.88
258.22	97.88
258.452	93.88
258.685	92.88
258.918	92.88
259.151	84.88
259.383	86.88
259.616	104.88
259.849	90.88
260.081	97.88
260.314	91.88
260.547	101.88
260.779	103.88
261.012	85.88
261.244	88.88
261.477	98.88
261.71	93.88
261.942	98.88
262.175	85.88
262.407	97.88
262.64	79.88
262.872	92.88
263.105	88.88
263.337	91.88
263.57	93.88
263.802	87.88
264.035	97.88
264.267	80.88
264.499	99.88
264.732	89.88
264.964	77.88
265.197	96.88
265.429	89.88
265.661	106.88
265.894	94.88
266.126	88.88
266.358	90.88
266.591	92.88
266.823	79.88
267.055	97.88
267.287	90.88
267.52	69.88
267.752	89.88
267.984	89.88
268.216	77.88
268.448	98.88
268.681	100.88
268.913	93.88
269.145	100.88
269.377	111.88
269.609	101.88
269.841	98.88
270.073	107.88
270.306	83.88
270.538	103.88
270.77	92.88
271.002	84.88
271.234	95.88
271.466	101.88
271.698	98.88
271.93	106.88
272.162	97.88
272.394	93.88
272.626	86.88
272.858	86.88
273.09	82.88
273.322	98.88
273.553	97.88
273.785	90.88
274.017	99.88
274.249	103.88
274.481	88.88
274.713	98.88
274.945	91.88
275.176	89.88
275.408	104.88
275.64	99.88
275.872	84.88
276.104	74.88
276.335	87.88
276.567	110.88
276.799	99.88
277.031	97.88
277.262	100.88
277.494	101.88
277.726	99.88
277.957	96.88
278.189	92.88
278.421	109.88
278.652	97.88
278.884	103.88
279.115	102.88
279.347	101.88
279.579	94.88
279.81	92.88
280.042	109.88
280.273	82.88
280.505	95.88
280.736	90.88
280.968	98.88
281.199	92.88
281.431	120.88
281.662	103.88
281.894	106.88
282.125	102.88
282.356	93.88
282.588	100.88
282.819	97.88
283.051	102.88
283.282	95.88
283.513	92.88
283.745	103.88
283.976	99.88
284.207	108.88
284.439	100.88
284.67	88.88
284.901	93.88
285.132	100.88
285.364	108.88
285.595	106.88
285.826	87.88
286.057	106.88
286.288	89.88
286.52	104.88
286.751	87.88
286.982	114.88
287.213	107.88
287.444	111.88
287.675	93.88
287.906	107.88
288.138	95.88
288.369	101.88
288.6	90.88
288.831	99.88
289.062	107.88
289.293	94.88
289.524	76.88
289.755	107.88
289.986	98.88
290.217	95.88
290.448	98.88
290.679	97.88
290.91	99.88
291.141	99.88
291.371	100.88
291.602	96.88
291.833	104.88
292.064	95.88
292.295	104.88
292.526	104.88
292.757	95.88
292.987	97.88
293.218	100.88
293.449	107.88
293.68	102.88
293.91	101.88
294.141	98.88
294.372	97.88
294.603	109.88
294.833	105.88
295.064	108.88
295.295	100.88
295.525	114.88
295.756	105.88
295.987	100.88
296.217	104.88
296.448	98.88
296.679	86.88
296.909	111.88
297.14	106.88
297.37	98.88
297.601	107.88
297.831	99.88
298.062	91.88
298.292	105.88
298.523	96.88
298.753	100.88
298.984	94.88
299.214	106.88
299.445	112.88
299.675	85.88
299.905	100.88
300.136	99.88
300.366	114.88
300.597	103.88
300.827	92.88
301.057	116.88
301.288	108.88
301.518	113.88
301.748	98.88
301.979	97.88
302.209	115.88
302.439	120.88
302.669	106.88
302.9	107.88
303.13	116.88
303.36	119.88
303.59	105.88
303.82	97.88
304.051	99.88
304.281	114.88
304.511	100.88
304.741	102.88
304.971	94.88
305.201	99.88
305.431	95.88
305.661	116.88
305.891	111.88
306.121	102.88
306.352	104.88
306.582	88.88
306.812	113.88
307.042	101.88
307.272	113.88
307.502	80.88
307.731	87.88
307.961	106.88
308.191	108.88
308.421	104.88
308.651	123.88
308.881	101.88
309.111	103.88
309.341	108.88
309.571	115.88
309.8	92.88
310.03	114.88
310.26	92.88
310.49	103.88
310.72	103.88
310.949	104.88
311.179	105.88
311.409	102.88
311.639	108.88
311.868	102.88
312.098	113.88
312.328	116.88
312.557	104.88
312.787	109.88
313.017	104.88
313.246	100.88
313.476	106.88
313.706	111.88
313.935	109.88
314.165	104.88
314.394	96.88
314.624	105.88
314.853	111.88
315.083	99.88
315.312	107.88
315.542	107.88
315.771	121.88
316.001	103.88
316.23	102.88
316.46	108.88
316.689	95.88
316.919	116.88
317.148	111.88
317.377	105.88
317.607	106.88
317.836	108.88
318.065	101.88
318.295	104.88
318.524	103.88
318.753	90.88
318.983	101.88
319.212	101.88
319.441	101.88
319.67	100.88
319.9	113.88
320.129	120.88
320.358	100.88
320.587	97.88
320.816	97.88
321.046	108.88
321.275	102.88
321.504	111.88
321.733	109.88
321.962	104.88
322.191	99.88
322.42	97.88
322.649	127.88
322.878	103.88
323.108	122.88
323.337	111.88
323.566	120.88
323.795	108.88
324.024	115.88
324.253	125.88
324.482	120.88
324.71	169.88
324.939	194.88
325.168	163.88
325.397	122.88
325.626	119.88
325.855	110.88
326.084	106.88
326.313	119.88
326.542	117.88
326.77	126.88
326.999	117.88
327.228	137.88
327.457	156.88
327.686	153.88
327.914	128.88
328.143	121.88
328.372	107.88
328.6	118.88
328.829	129.88
329.058	127.88
329.287	115.88
329.515	105.88
329.744	121.88
329.972	112.88
330.201	108.88
330.43	120.88
330.658	108.88
330.887	121.88
331.115	122.88
331.344	113.88
331.572	123.88
331.801	119.88
332.03	113.88
332.258	104.88
332.486	115.88
332.715	124.88
332.943	106.88
333.172	113.88
333.4	103.88
333.629	118.88
333.857	115.88
334.085	117.88
334.314	99.88
334.542	115.88
334.771	114.88
334.999	123.88
335.227	114.88
335.455	111.88
335.684	113.88
335.912	117.88
336.14	124.88
336.369	105.88
336.597	106.88
336.825	115.88
337.053	119.88
337.281	118.88
337.51	117.88
337.738	115.88
337.966	106.88
338.194	121.88
338.422	111.88
338.65	117.88
338.878	120.88
339.106	105.88
339.334	113.88
339.562	114.88
339.79	114.88
340.018	109.88
340.246	103.88
340.474	109.88
340.702	116.88
340.93	99.88
341.158	124.88
341.386	115.88
341.614	92.88
341.842	101.88
342.07	111.88
342.298	102.88
342.526	111.88
342.754	122.88
342.981	121.88
343.209	120.88
343.437	112.88
343.665	113.88
343.893	126.88
344.12	119.88
344.348	121.88
344.576	117.88
344.804	116.88
345.031	122.88
345.259	106.88
345.487	104.88
345.714	100.88
345.942	98.88
346.17	112.88
346.397	108.88
346.625	98.88
346.853	111.88
347.08	99.88
347.308	99.88
347.535	113.88
347.763	116.88
347.99	116.88
348.218	102.88
348.445	119.88
348.673	108.88
348.9	103.88
349.128	100.88
349.355	100.88
349.583	103.88
349.81	104.88
350.037	114.88
350.265	113.88
350.492	111.88
350.72	109.88
350.947	107.88
351.174	120.88
351.402	106.88
351.629	113.88
351.856	121.88
352.083	96.88
352.311	100.88
352.538	102.88
352.765	105.88
352.992	123.88
353.22	111.88
353.447	108.88
353.674	115.88
353.901	119.88
354.128	120.88
354.355	96.88
354.583	111.88
354.81	119.88
355.037	120.88
355.264	100.88
355.491	115.88
355.718	118.88
355.945	108.88
356.172	110.88
356.399	106.88
356.626	105.88
356.853	114.88
357.08	107.88
357.307	93.88
357.534	96.88
357.761	113.88
357.988	107.88
358.215	106.88
358.441	114.88
358.668	99.88
358.895	121.88
359.122	120.88
359.349	107.88
359.576	115.88
359.802	99.88
360.029	113.88
360.256	114.88
360.483	113.88
360.709	117.88
360.936	104.88
361.163	113.88
361.39	108.88
361.616	124.88
361.843	130.88
362.07	108.88
362.296	118.88
362.523	108.88
362.749	104.88
362.976	105.88
363.203	106.88
363.429	107.88
363.656	114.88
363.882	121.88
364.109	121.88
364.335	113.88
364.562	111.88
364.788	106.88
365.015	89.88
365.241	95.88
365.468	93.88
365.694	125.88
365.92	119.88
366.147	107.88
366.373	104.88
366.599	110.88
366.826	119.88
367.052	103.88
367.278	92.88
367.505	99.88
367.731	108.88
367.957	94.88
368.184	103.88
368.41	89.88
368.636	93.88
368.862	98.88
369.089	115.88
369.315	106.88
369.541	115.88
369.767	107.88
369.993	115.88
370.219	106.88
370.445	116.88
370.672	113.88
370.898	101.88
371.124	109.88
371.35	115.88
371.576	104.88
371.802	106.88
372.028	109.88
372.254	122.88
372.48	108.88
372.706	103.88
372.932	104.88
373.158	111.88
373.384	102.88
373.61	109.88
373.835	109.88
374.061	102.88
374.287	99.88
374.513	112.88
374.739	105.88
374.965	116.88
375.191	123.88
375.416	111.88
375.642	112.88
375.868	109.88
376.094	117.88
376.319	121.88
376.545	108.88
376.771	105.88
376.997	118.88
377.222	116.88
377.448	114.88
377.674	124.88
377.899	109.88
378.125	115.88
378.35	107.88
378.576	103.88
378.802	114.88
379.027	110.88
379.253	108.88
379.478	106.88
379.704	95.88
379.929	106.88
380.155	114.88
380.38	103.88
380.606	101.88
380.831	99.88
381.057	121.88
381.282	115.88
381.507	119.88
381.733	108.88
381.958	104.88
382.184	103.88
382.409	113.88
382.634	118.88
382.86	105.88
383.085	107.88
383.31	116.88
383.535	102.88
383.761	109.88
383.986	119.88
384.211	123.88
384.436	127.88
384.662	111.88
384.887	115.88
385.112	119.88
385.337	114.88
385.562	132.88
385.787	123.88
386.013	129.88
386.238	113.88
386.463	103.88
386.688	123.88
386.913	121.88
387.138	113.88
387.363	124.88
387.588	121.88
387.813	124.88
388.038	123.88
388.263	118.88
388.488	120.88
388.713	116.88
388.938	110.88
389.163	123.88
389.387	100.88
389.612	113.88
389.837	118.88
390.062	107.88
390.287	129.88
390.512	106.88
390.736	113.88
390.961	115.88
391.186	130.88
391.411	116.88
391.636	134.88
391.86	116.88
392.085	123.88
392.31	118.88
392.534	117.88
392.759	114.88
392.984	121.88
393.208	122.88
393.433	126.88
393.658	111.88
393.882	127.88
394.107	123.88
394.331	128.88
394.556	117.88
394.78	108.88
395.005	127.88
395.229	118.88
395.454	118.88
395.678	128.88
395.903	127.88
396.127	104.88
396.352	139.88
396.576	123.88
396.801	113.88
397.025	116.88
397.249	132.88
397.474	130.88
397.698	124.88
397.922	127.88
398.147	122.88
398.371	124.88
398.595	118.88
398.82	119.88
399.044	116.88
399.268	128.88
399.492	135.88
399.717	148.88
399.941	117.88
400.165	131.88
400.389	145.88
400.613	125.88
400.837	123.88
401.062	123.88
401.286	130.88
401.51	122.88
401.734	120.88
401.958	123.88
402.182	111.88
402.406	121.88
402.63	133.88
402.854	108.88
403.078	127.88
403.302	129.88
403.526	124.88
403.75	126.88
403.974	129.88
404.198	124.88
404.422	121.88
404.645	131.88
404.869	123.88
405.093	131.88
405.317	127.88
405.541	136.88
405.765	130.88
405.988	118.88
406.212	127.88
406.436	117.88
406.66	144.88
406.883	126.88
407.107	126.88
407.331	135.88
407.555	142.88
407.778	130.88
408.002	135.88
408.226	130.88
408.449	131.88
408.673	137.88
408.896	141.88
409.12	129.88
409.344	131.88
409.567	144.88
409.791	129.88
410.014	127.88
410.238	126.88
410.461	142.88
410.685	122.88
410.908	122.88
411.132	134.88
411.355	129.88
411.578	126.88
411.802	134.88
412.025	118.88
412.249	128.88
412.472	133.88
412.695	122.88
412.919	137.88
413.142	127.88
413.365	120.88
413.589	136.88
413.812	123.88
414.035	123.88
414.258	127.88
414.482	127.88
414.705	132.88
414.928	122.88
415.151	119.88
415.374	107.88
415.597	110.88
415.821	123.88
416.044	121.88
416.267	129.88
416.49	132.88
416.713	111.88
416.936	124.88
417.159	116.88
417.382	128.88
417.605	118.88
417.828	125.88
418.051	121.88
418.274	120.88
418.497	120.88
418.72	123.88
418.943	124.88
419.166	134.88
419.389	145.88
419.611	114.88
419.834	127.88
420.057	120.88
420.28	122.88
420.503	123.88
420.726	121.88
420.948	121.88
421.171	147.88
421.394	125.88
421.617	122.88
421.839	126.88
422.062	131.88
422.285	123.88
422.507	115.88
422.73	144.88
422.953	127.88
423.175	119.88
423.398	135.88
423.621	117.88
423.843	120.88
424.066	114.88
424.288	108.88
424.511	121.88
424.733	125.88
424.956	133.88
425.178	134.88
425.401	121.88
425.623	119.88
425.846	125.88
426.068	135.88
426.291	139.88
426.513	133.88
426.735	128.88
426.958	127.88
427.18	121.88
427.402	119.88
427.625	141.88
427.847	132.88
428.069	116.88
428.292	122.88
428.514	133.88
428.736	127.88
428.958	121.88
429.181	118.88
429.403	113.88
429.625	122.88
429.847	121.88
430.069	118.88
430.292	129.88
430.514	120.88
430.736	121.88
430.958	123.88
431.18	132.88
431.402	133.88
431.624	117.88
431.846	121.88
432.068	126.88
432.29	123.88
432.512	126.88
432.734	118.88
432.956	127.88
433.178	134.88
433.4	130.88
433.622	112.88
433.844	122.88
434.066	123.88
434.287	133.88
434.509	111.88
434.731	127.88
434.953	127.88
435.175	114.88
435.397	132.88
435.618	144.88
435.84	134.88
436.062	145.88
436.284	144.88
436.505	128.88
436.727	122.88
436.949	128.88
437.17	124.88
437.392	108.88
437.614	117.88
437.835	116.88
438.057	120.88
438.278	131.88
438.5	131.88
438.721	141.88
438.943	136.88
439.165	128.88
439.386	127.88
439.608	135.88
439.829	124.88
440.05	135.88
440.272	139.88
440.493	130.88
440.715	131.88
440.936	120.88
441.158	132.88
441.379	119.88
441.6	127.88
441.822	121.88
442.043	150.88
442.264	129.88
442.486	135.88
442.707	141.88
442.928	123.88
443.149	127.88
443.371	126.88
443.592	127.88
443.813	131.88
444.034	152.88
444.255	137.88
444.476	139.88
444.698	127.88
444.919	136.88
445.14	206.88
445.361	179.88
445.582	145.88
445.803	127.88
446.024	145.88
446.245	138.88
446.466	128.88
446.687	130.88
446.908	125.88
447.129	124.88
447.35	122.88
447.571	137.88
447.792	124.88
448.013	131.88
448.234	122.88
448.455	111.88
448.675	127.88
448.896	132.88
449.117	134.88
449.338	139.88
449.559	136.88
449.779	129.88
450	129.88
450.221	130.88
450.442	115.88
450.662	122.88
450.883	121.88
451.104	116.88
451.324	121.88
451.545	122.88
451.766	111.88
451.986	121.88
452.207	114.88
452.428	117.88
452.648	111.88
452.869	131.88
453.089	115.88
453.31	93.88
453.53	115.88
453.751	124.88
453.971	116.88
454.192	122.88
454.412	116.88
454.633	110.88
454.853	124.88
455.073	116.88
455.294	117.88
455.514	116.88
455.734	122.88
455.955	114.88
456.175	99.88
456.395	128.88
456.616	109.88
456.836	121.88
457.056	100.88
457.276	107.88
457.497	119.88
457.717	101.88
457.937	103.88
458.157	111.88
458.377	98.88
458.598	106.88
458.818	123.88
459.038	128.88
459.258	131.88
459.478	138.88
459.698	113.88
459.918	135.88
460.138	121.88
460.358	138.88
460.578	127.88
460.798	123.88
461.018	119.88
461.238	129.88
461.458	122.88
461.678	123.88
461.898	113.88
462.118	125.88
462.338	135.88
462.558	119.88
462.777	129.88
462.997	127.88
463.217	132.88
463.437	162.88
463.657	120.88
463.876	137.88
464.096	137.88
464.316	130.88
464.536	129.88
464.755	141.88
464.975	137.88
465.195	133.88
465.414	132.88
465.634	121.88
465.854	131.88
466.073	124.88
466.293	115.88
466.512	121.88
466.732	120.88
466.951	121.88
467.171	116.88
467.391	110.88
467.61	115.88
467.829	124.88
468.049	124.88
468.268	123.88
468.488	134.88
468.707	124.88
468.927	111.88
469.146	124.88
469.365	123.88
469.585	126.88
469.804	120.88
470.023	120.88
470.243	136.88
470.462	134.88
470.681	122.88
470.901	110.88
471.12	112.88
471.339	114.88
471.558	129.88
471.777	119.88
471.997	122.88
472.216	124.88
472.435	107.88
472.654	119.88
472.873	108.88
473.092	101.88
473.311	103.88
473.53	113.88
473.749	121.88
473.968	137.88
474.187	120.88
474.406	124.88
474.625	132.88
474.844	123.88
475.063	112.88
475.282	120.88
475.501	127.88
475.72	134.88
475.939	128.88
476.158	123.88
476.377	124.88
476.596	120.88
476.814	104.88
477.033	131.88
477.252	113.88
477.471	120.88
477.69	130.88
477.908	127.88
478.127	131.88
478.346	134.88
478.564	121.88
478.783	123.88
479.002	139.88
479.22	128.88
479.439	130.88
479.658	109.88
479.876	127.88
480.095	121.88
480.313	130.88
480.532	143.88
480.751	123.88
480.969	135.88
481.188	130.88
481.406	146.88
481.624	132.88
481.843	128.88
482.061	112.88
482.28	133.88
482.498	113.88
482.717	131.88
482.935	136.88
483.153	120.88
483.372	119.88
483.59	132.88
483.808	127.88
484.027	127.88
484.245	131.88
484.463	125.88
484.681	133.88
484.9	128.88
485.118	123.88
485.336	125.88
485.554	123.88
485.772	131.88
485.99	142.88
486.209	139.88
486.427	124.88
486.645	145.88
486.863	146.88
487.081	131.88
487.299	137.88
487.517	133.88
487.735	139.88
487.953	124.88
488.171	141.88
488.389	129.88
488.607	120.88
488.825	119.88
489.043	137.88
489.261	131.88
489.479	135.88
489.696	121.88
489.914	131.88
490.132	136.88
490.35	135.88
490.568	143.88
490.786	137.88
491.003	138.88
491.221	129.88
491.439	139.88
491.657	146.88
491.874	134.88
492.092	140.88
492.31	151.88
492.527	120.88
492.745	148.88
492.963	145.88
493.18	145.88
493.398	159.88
493.615	131.88
493.833	147.88
494.05	119.88
494.268	131.88
494.485	136.88
494.703	143.88
494.92	127.88
495.138	135.88
495.355	152.88
495.573	145.88
495.79	150.88
496.008	151.88
496.225	127.88
496.442	138.88
496.66	145.88
496.877	145.88
497.094	149.88
497.312	155.88
497.529	149.88
497.746	130.88
497.963	149.88
498.181	152.88
498.398	172.88
498.615	148.88
498.832	152.88
499.049	146.88
499.267	170.88
499.484	156.88
499.701	183.88
499.918	181.88
500.135	206.88
500.352	207.88
500.569	188.88
500.786	191.88
501.003	203.88
501.22	185.88
501.437	175.88
501.654	181.88
501.871	167.88
502.088	162.88
502.305	153.88
502.522	167.88
502.739	146.88
502.956	149.88
503.172	163.88
503.389	151.88
503.606	139.88
503.823	149.88
504.04	153.88
504.256	145.88
504.473	126.88
504.69	156.88
504.907	147.88
505.123	150.88
505.34	151.88
505.557	140.88
505.773	149.88
505.99	124.88
506.207	136.88
506.423	134.88
506.64	134.88
506.856	138.88
507.073	119.88
507.289	118.88
507.506	128.88
507.722	138.88
507.939	123.88
508.155	137.88
508.372	129.88
508.588	126.88
508.805	136.88
509.021	131.88
509.238	124.88
509.454	131.88
509.67	124.88
509.887	124.88
510.103	133.88
510.319	139.88
510.536	129.88
510.752	163.88
510.968	153.88
511.184	135.88
511.401	120.88
511.617	133.88
511.833	116.88
512.049	135.88
512.265	117.88
512.481	122.88
512.698	130.88
512.914	137.88
513.13	118.88
513.346	122.88
513.562	126.88
513.778	138.88
513.994	130.88
514.21	129.88
514.426	118.88
514.642	125.88
514.858	131.88
515.074	118.88
515.29	147.88
515.506	167.88
515.721	156.88
515.937	131.88
516.153	133.88
516.369	137.88
516.585	143.88
516.801	138.88
517.016	124.88
517.232	137.88
517.448	132.88
517.664	130.88
517.879	142.88
518.095	141.88
518.311	133.88
518.527	141.88
518.742	133.88
518.958	141.88
519.173	132.88
519.389	126.88
519.605	123.88
519.82	123.88
520.036	133.88
520.251	150.88
520.467	129.88
520.682	142.88
520.898	120.88
521.113	135.88
521.329	141.88
521.544	129.88
521.76	151.88
521.975	191.88
522.19	180.88
522.406	129.88
522.621	125.88
522.836	132.88
523.052	133.88
523.267	114.88
523.482	121.88
523.698	126.88
523.913	119.88
524.128	125.88
524.343	130.88
524.559	122.88
524.774	123.88
524.989	131.88
525.204	138.88
525.419	121.88
525.634	133.88
525.849	110.88
526.064	127.88
526.28	128.88
526.495	125.88
526.71	107.88
526.925	129.88
527.14	122.88
527.355	102.88
527.57	117.88
527.785	131.88
527.999	129.88
528.214	108.88
528.429	117.88
528.644	123.88
528.859	121.88
529.074	124.88
529.289	124.88
529.503	128.88
529.718	120.88
529.933	120.88
530.148	137.88
530.363	125.88
530.577	114.88
530.792	119.88
531.007	126.88
531.221	112.88
531.436	109.88
531.651	113.88
531.865	123.88
532.08	114.88
532.295	122.88
532.509	124.88
532.724	121.88
532.938	118.88
533.153	112.88
533.367	125.88
533.582	125.88
533.796	123.88
534.011	103.88
534.225	115.88
534.44	114.88
534.654	112.88
534.868	111.88
535.083	127.88
535.297	117.88
535.511	108.88
535.726	111.88
535.94	125.88
536.154	107.88
536.369	126.88
536.583	115.88
536.797	108.88
537.011	101.88
537.225	121.88
537.44	104.88
537.654	113.88
537.868	119.88
538.082	123.88
538.296	98.88
538.51	123.88
538.724	124.88
538.938	134.88
539.153	135.88
539.367	125.88
539.581	114.88
539.795	107.88
540.009	113.88
540.222	112.88
540.436	122.88
540.65	109.88
540.864	127.88
541.078	129.88
541.292	128.88
541.506	134.88
541.72	149.88
541.934	123.88
542.147	135.88
542.361	140.88
542.575	138.88
542.789	137.88
543.002	137.88
543.216	129.88
543.43	124.88
543.644	125.88
543.857	105.88
544.071	141.88
544.285	147.88
544.498	139.88
544.712	141.88
544.925	144.88
545.139	115.88
545.352	125.88
545.566	124.88
545.779	140.88
545.993	118.88
546.206	143.88
546.42	139.88
546.633	129.88
546.847	121.88
547.06	123.88
547.274	128.88
547.487	127.88
547.7	114.88
547.914	131.88
548.127	122.88
548.34	123.88
548.554	131.88
548.767	127.88
548.98	141.88
549.193	125.88
549.407	142.88
549.62	122.88
549.833	115.88
550.046	123.88
550.259	125.88
550.473	123.88
550.686	129.88
550.899	116.88
551.112	114.88
551.325	125.88
551.538	120.88
551.751	115.88
551.964	121.88
552.177	120.88
552.39	112.88
552.603	129.88
552.816	136.88
553.029	142.88
553.242	133.88
553.455	135.88
553.667	143.88
553.88	129.88
554.093	133.88
554.306	137.88
554.519	135.88
554.732	122.88
554.944	131.88
555.157	111.88
555.37	122.88
555.583	104.88
555.795	115.88
556.008	106.88
556.221	119.88
556.433	125.88
556.646	120.88
556.859	125.88
557.071	121.88
557.284	115.88
557.496	126.88
557.709	121.88
557.921	107.88
558.134	112.88
558.346	117.88
558.559	112.88
558.771	137.88
558.984	108.88
559.196	115.88
559.409	111.88
559.621	128.88
559.833	113.88
560.046	111.88
560.258	93.88
560.47	118.88
560.683	114.88
560.895	117.88
561.107	127.88
561.32	104.88
561.532	113.88
561.744	111.88
561.956	115.88
562.168	122.88
562.381	102.88
562.593	100.88
562.805	124.88
563.017	105.88
563.229	129.88
563.441	110.88
563.653	114.88
563.865	110.88
564.077	119.88
564.289	112.88
564.501	117.88
564.713	128.88
564.925	120.88
565.137	120.88
565.349	114.88
565.561	133.88
565.773	124.88
565.985	130.88
566.197	122.88
566.408	111.88
566.62	137.88
566.832	127.88
567.044	138.88
567.255	141.88
567.467	134.88
567.679	136.88
567.891	134.88
568.102	147.88
568.314	131.88
568.526	140.88
568.737	124.88
568.949	125.88
569.161	121.88
569.372	108.88
569.584	105.88
569.795	124.88
570.007	116.88
570.218	119.88
570.43	117.88
570.641	107.88
570.853	111.88
571.064	111.88
571.276	113.88
571.487	130.88
571.698	111.88
571.91	109.88
572.121	119.88
572.333	105.88
572.544	121.88
572.755	109.88
572.966	119.88
573.178	119.88
573.389	119.88
573.6	115.88
573.811	106.88
574.023	102.88
574.234	115.88
574.445	108.88
574.656	108.88
574.867	112.88
575.078	111.88
575.289	118.88
575.501	112.88
575.712	104.88
575.923	107.88
576.134	104.88
576.345	109.88
576.556	120.88
576.767	108.88
576.978	121.88
577.188	111.88
577.399	111.88
577.61	111.88
577.821	107.88
578.032	103.88
578.243	101.88
578.454	106.88
578.665	128.88
578.875	104.88
579.086	111.88
579.297	101.88
579.508	111.88
579.718	109.88
579.929	111.88
580.14	115.88
580.35	109.88
580.561	95.88
580.772	114.88
580.982	101.88
581.193	103.88
581.403	102.88
581.614	104.88
581.825	91.88
582.035	103.88
582.246	97.88
582.456	108.88
582.667	103.88
582.877	119.88
583.087	99.88
583.298	95.88
583.508	115.88
583.719	105.88
583.929	115.88
584.139	104.88
584.35	102.88
584.56	118.88
584.77	109.88
584.981	98.88
585.191	100.88
585.401	106.88
585.611	101.88
585.821	100.88
586.032	112.88
586.242	83.88
586.452	102.88
586.662	119.88
586.872	100.88
587.082	99.88
587.292	92.88
587.502	88.88
587.713	116.88
587.923	115.88
588.133	111.88
588.343	104.88
588.553	100.88
588.762	124.88
588.972	119.88
589.182	103.88
589.392	97.88
589.602	111.88
589.812	100.88
590.022	120.88
590.232	103.88
590.441	95.88
590.651	107.88
590.861	100.88
591.071	86.88
591.281	97.88
591.49	104.88
591.7	96.88
591.91	101.88
592.119	104.88
592.329	119.88
592.539	95.88
592.748	117.88
592.958	96.88
593.167	115.88
593.377	101.88
593.587	120.88
593.796	117.88
594.006	115.88
594.215	97.88
594.424	114.88
594.634	118.88
594.843	113.88
595.053	104.88
595.262	115.88
595.472	104.88
595.681	93.88
595.89	117.88
596.1	110.88
596.309	126.88
596.518	103.88
596.727	107.88
596.937	108.88
597.146	106.88
597.355	115.88
597.564	111.88
597.774	104.88
597.983	90.88
598.192	91.88
598.401	99.88
598.61	88.88
598.819	105.88
599.028	108.88
599.237	99.88
599.446	101.88
599.655	95.88
599.864	103.88
600.073	100.88
600.282	107.88
600.491	99.88
600.7	116.88
600.909	108.88
601.118	104.88
601.327	100.88
601.536	111.88
601.745	101.88
601.953	109.88
602.162	109.88
602.371	102.88
602.58	96.88
602.789	88.88
602.997	99.88
603.206	108.88
603.415	98.88
603.623	85.88
603.832	113.88
604.041	116.88
604.249	94.88
604.458	106.88
604.666	111.88
604.875	101.88
605.084	104.88
605.292	116.88
605.501	108.88
605.709	96.88
605.918	86.88
606.126	90.88
606.334	90.88
606.543	108.88
606.751	96.88
606.96	87.88
607.168	111.88
607.376	106.88
607.585	110.88
607.793	111.88
608.001	100.88
608.21	98.88
608.418	107.88
608.626	99.88
608.834	99.88
609.043	96.88
609.251	107.88
609.459	95.88
609.667	121.88
609.875	83.88
610.083	104.88
610.291	99.88
610.499	92.88
610.707	113.88
610.916	96.88
611.124	106.88
611.332	101.88
611.54	112.88
611.748	123.88
611.955	123.88
612.163	115.88
612.371	98.88
612.579	89.88
612.787	107.88
612.995	100.88
613.203	102.88
613.411	107.88
613.618	90.88
613.826	97.88
614.034	100.88
614.242	111.88
614.449	99.88
614.657	95.88
614.865	104.88
615.072	106.88
615.28	88.88
615.488	97.88
615.695	81.88
615.903	118.88
616.111	102.88
616.318	105.88
616.526	100.88
616.733	98.88
616.941	99.88
617.148	85.88
617.356	105.88
617.563	108.88
617.771	119.88
617.978	98.88
618.185	116.88
618.393	93.88
618.6	93.88
618.807	105.88
619.015	112.88
619.222	85.88
619.429	92.88
619.637	97.88
619.844	105.88
620.051	89.88
620.258	101.88
620.466	95.88
620.673	107.88
620.88	111.88
621.087	103.88
621.294	120.88
621.501	95.88
621.708	89.88
621.915	114.88
622.122	111.88
622.329	88.88
622.536	95.88
622.743	99.88
622.95	95.88
623.157	98.88
623.364	104.88
623.571	101.88
623.778	110.88
623.985	116.88
624.192	97.88
624.399	98.88
624.606	91.88
624.812	114.88
625.019	102.88
625.226	97.88
625.433	97.88
625.639	90.88
625.846	100.88
626.053	108.88
626.259	98.88
626.466	87.88
626.673	111.88
626.879	104.88
627.086	102.88
627.293	94.88
627.499	85.88
627.706	99.88
627.912	85.88
628.119	83.88
628.325	96.88
628.532	93.88
628.738	85.88
628.945	93.88
629.151	91.88
629.357	88.88
629.564	96.88
629.77	96.88
629.976	105.88
630.183	91.88
630.389	92.88
630.595	93.88
630.802	109.88
631.008	84.88
631.214	90.88
631.42	102.88
631.627	87.88
631.833	92.88
632.039	85.88
632.245	97.88
632.451	93.88
632.657	95.88
632.863	90.88
633.069	104.88
633.275	94.88
633.481	99.88
633.688	91.88
633.893	100.88
634.099	95.88
634.305	94.88
634.511	91.88
634.717	83.88
634.923	82.88
635.129	90.88
635.335	97.88
635.541	82.88
635.747	93.88
635.952	79.88
636.158	89.88
636.364	97.88
636.57	95.88
636.775	96.88
636.981	86.88
637.187	106.88
637.392	96.88
637.598	98.88
637.804	90.88
638.009	92.88
638.215	100.88
638.421	81.88
638.626	99.88
638.832	108.88
639.037	82.88
639.243	89.88
639.448	97.88
639.654	72.88
639.859	89.88
640.065	95.88
640.27	105.88
640.475	98.88
640.681	97.88
640.886	95.88
641.091	87.88
641.297	94.88
641.502	85.88
641.707	90.88
641.913	102.88
642.118	97.88
642.323	89.88
642.528	103.88
642.733	83.88
642.939	84.88
643.144	98.88
643.349	95.88
643.554	95.88
643.759	91.88
643.964	86.88
644.169	80.88
644.374	84.88
644.579	100.88
644.784	89.88
644.989	110.88
645.194	106.88
645.399	99.88
645.604	87.88
645.809	97.88
646.014	100.88
646.219	99.88
646.423	84.88
646.628	90.88
646.833	99.88
647.038	82.88
647.243	99.88
647.447	93.88
647.652	96.88
647.857	97.88
648.062	92.88
648.266	91.88
648.471	91.88
648.676	100.88
648.88	79.88
649.085	95.88
649.289	86.88
649.494	98.88
649.698	92.88
649.903	85.88
650.107	96.88
650.312	104.88
650.516	78.88
650.721	75.88
650.925	82.88
651.13	75.88
651.334	95.88
651.539	77.88
651.743	100.88
651.947	93.88
652.152	103.88
652.356	93.88
652.56	98.88
652.764	99.88
652.969	90.88
653.173	84.88
653.377	91.88
653.581	78.88
653.785	86.88
653.99	92.88
654.194	88.88
654.398	88.88
654.602	89.88
654.806	90.88
655.01	84.88
655.214	84.88
655.418	77.88
655.622	76.88
655.826	87.88
656.03	76.88
656.234	83.88
656.438	89.88
656.642	90.88
656.846	72.88
657.049	85.88
657.253	86.88
657.457	88.88
657.661	81.88
657.865	84.88
658.068	89.88
658.272	86.88
658.476	99.88
658.68	82.88
658.883	71.88
659.087	91.88
659.291	74.88
659.494	80.88
659.698	90.88
659.901	87.88
660.105	77.88
660.309	89.88
660.512	90.88
660.716	81.88
660.919	79.88
661.123	77.88
661.326	97.88
661.53	88.88
661.733	85.88
661.936	66.88
662.14	69.88
662.343	79.88
662.546	84.88
662.75	82.88
662.953	90.88
663.156	87.88
663.36	82.88
663.563	86.88
663.766	85.88
663.969	90.88
664.173	81.88
664.376	85.88
664.579	84.88
664.782	89.88
664.985	85.88
665.188	67.88
665.391	81.88
665.594	62.88
665.797	65.88
666	67.88
666.203	76.88
666.406	83.88
666.609	80.88
666.812	73.88
667.015	78.88
667.218	99.88
667.421	76.88
667.624	79.88
667.827	79.88
668.03	93.88
668.232	79.88
668.435	70.88
668.638	75.88
668.841	98.88
669.043	83.88
669.246	81.88
669.449	89.88
669.651	81.88
669.854	82.88
670.057	83.88
670.259	71.88
670.462	96.88
670.665	69.88
670.867	83.88
671.07	91.88
671.272	91.88
671.475	85.88
671.677	82.88
671.88	73.88
672.082	73.88
672.284	80.88
672.487	81.88
672.689	80.88
672.892	93.88
