Data from 1968.PennyLincolnUp.Lamp.En5.5.200Scan.071719.P1._HRD10591_14-50-57-970.txt Node
Date: Thu Jul 18 14:50:57 EDT 2019
User: cochatt
Spectrometer: HR+D1059
Trigger mode: 1
Integration Time (sec): 1.000000E-1
Scans to average: 1
Electric dark correction enabled: true
Nonlinearity correction enabled: false
Boxcar width: 0
XAxis mode: Wavelengths
Number of Pixels in Spectrum: 2048
>>>>>Begin Spectral Data<<<<<
223.165	-6.56
223.4	-6.56
223.635	-6.56
223.869	-14.56
224.104	-24.56
224.338	-7.56
224.573	-11.56
224.808	-18.56
225.042	-3.56
225.277	-14.56
225.511	-8.56
225.746	6.44
225.98	2.44
226.215	6.44
226.449	18.44
226.683	24.44
226.918	30.44
227.152	21.44
227.387	35.44
227.621	27.44
227.856	54.44
228.09	38.44
228.324	54.44
228.559	66.44
228.793	54.44
229.027	54.44
229.262	54.44
229.496	65.44
229.73	87.44
229.964	73.44
230.199	66.44
230.433	76.44
230.667	78.44
230.901	74.44
231.136	71.44
231.37	75.44
231.604	77.44
231.838	81.44
232.072	84.44
232.306	89.44
232.541	85.44
232.775	75.44
233.009	70.44
233.243	77.44
233.477	86.44
233.711	83.44
233.945	90.44
234.179	81.44
234.413	78.44
234.647	85.44
234.881	84.44
235.115	91.44
235.349	81.44
235.583	84.44
235.817	78.44
236.051	79.44
236.285	88.44
236.519	83.44
236.753	92.44
236.987	92.44
237.221	71.44
237.455	74.44
237.689	84.44
237.922	84.44
238.156	86.44
238.39	75.44
238.624	67.44
238.858	76.44
239.091	76.44
239.325	84.44
239.559	81.44
239.793	84.44
240.027	76.44
240.26	96.44
240.494	92.44
240.728	91.44
240.961	69.44
241.195	77.44
241.429	69.44
241.662	75.44
241.896	88.44
242.13	64.44
242.363	83.44
242.597	81.44
242.83	62.44
243.064	96.44
243.298	93.44
243.531	81.44
243.765	76.44
243.998	85.44
244.232	74.44
244.465	98.44
244.699	84.44
244.932	77.44
245.166	78.44
245.399	97.44
245.633	74.44
245.866	82.44
246.099	73.44
246.333	79.44
246.566	91.44
246.8	97.44
247.033	91.44
247.266	85.44
247.5	81.44
247.733	86.44
247.966	98.44
248.2	74.44
248.433	85.44
248.666	82.44
248.899	90.44
249.133	88.44
249.366	89.44
249.599	98.44
249.832	95.44
250.066	101.44
250.299	91.44
250.532	69.44
250.765	90.44
250.998	87.44
251.231	79.44
251.465	91.44
251.698	96.44
251.931	91.44
252.164	75.44
252.397	85.44
252.63	96.44
252.863	86.44
253.096	77.44
253.329	75.44
253.562	84.44
253.795	90.44
254.028	97.44
254.261	86.44
254.494	84.44
254.727	93.44
254.96	78.44
255.193	88.44
255.426	87.44
255.659	92.44
255.892	86.44
256.124	90.44
256.357	83.44
256.59	98.44
256.823	73.44
257.056	87.44
257.289	86.44
257.521	90.44
257.754	87.44
257.987	82.44
258.22	82.44
258.452	95.44
258.685	76.44
258.918	73.44
259.151	86.44
259.383	86.44
259.616	100.44
259.849	96.44
260.081	99.44
260.314	101.44
260.547	98.44
260.779	96.44
261.012	95.44
261.244	98.44
261.477	98.44
261.71	95.44
261.942	77.44
262.175	94.44
262.407	76.44
262.64	82.44
262.872	85.44
263.105	93.44
263.337	91.44
263.57	99.44
263.802	96.44
264.035	86.44
264.267	89.44
264.499	82.44
264.732	95.44
264.964	87.44
265.197	94.44
265.429	98.44
265.661	70.44
265.894	96.44
266.126	82.44
266.358	89.44
266.591	104.44
266.823	89.44
267.055	86.44
267.287	94.44
267.52	96.44
267.752	82.44
267.984	84.44
268.216	82.44
268.448	100.44
268.681	87.44
268.913	86.44
269.145	90.44
269.377	106.44
269.609	101.44
269.841	92.44
270.073	102.44
270.306	90.44
270.538	98.44
270.77	91.44
271.002	96.44
271.234	90.44
271.466	105.44
271.698	94.44
271.93	101.44
272.162	101.44
272.394	96.44
272.626	100.44
272.858	75.44
273.09	92.44
273.322	89.44
273.553	97.44
273.785	106.44
274.017	90.44
274.249	102.44
274.481	89.44
274.713	100.44
274.945	97.44
275.176	86.44
275.408	90.44
275.64	96.44
275.872	94.44
276.104	91.44
276.335	95.44
276.567	96.44
276.799	90.44
277.031	86.44
277.262	87.44
277.494	88.44
277.726	94.44
277.957	93.44
278.189	81.44
278.421	88.44
278.652	95.44
278.884	82.44
279.115	96.44
279.347	94.44
279.579	105.44
279.81	116.44
280.042	92.44
280.273	98.44
280.505	99.44
280.736	90.44
280.968	112.44
281.199	93.44
281.431	81.44
281.662	94.44
281.894	108.44
282.125	94.44
282.356	101.44
282.588	107.44
282.819	86.44
283.051	93.44
283.282	95.44
283.513	93.44
283.745	103.44
283.976	104.44
284.207	96.44
284.439	106.44
284.67	109.44
284.901	108.44
285.132	107.44
285.364	100.44
285.595	104.44
285.826	113.44
286.057	107.44
286.288	97.44
286.52	103.44
286.751	104.44
286.982	98.44
287.213	91.44
287.444	100.44
287.675	99.44
287.906	89.44
288.138	89.44
288.369	101.44
288.6	100.44
288.831	99.44
289.062	107.44
289.293	113.44
289.524	89.44
289.755	104.44
289.986	118.44
290.217	110.44
290.448	94.44
290.679	93.44
290.91	83.44
291.141	89.44
291.371	84.44
291.602	120.44
291.833	103.44
292.064	92.44
292.295	84.44
292.526	101.44
292.757	113.44
292.987	100.44
293.218	104.44
293.449	88.44
293.68	104.44
293.91	88.44
294.141	93.44
294.372	109.44
294.603	94.44
294.833	91.44
295.064	109.44
295.295	105.44
295.525	100.44
295.756	109.44
295.987	104.44
296.217	100.44
296.448	89.44
296.679	100.44
296.909	84.44
297.14	99.44
297.37	104.44
297.601	116.44
297.831	109.44
298.062	114.44
298.292	114.44
298.523	96.44
298.753	95.44
298.984	96.44
299.214	94.44
299.445	101.44
299.675	113.44
299.905	101.44
300.136	95.44
300.366	99.44
300.597	94.44
300.827	108.44
301.057	87.44
301.288	88.44
301.518	108.44
301.748	98.44
301.979	112.44
302.209	103.44
302.439	94.44
302.669	119.44
302.9	98.44
303.13	99.44
303.36	114.44
303.59	120.44
303.82	116.44
304.051	101.44
304.281	96.44
304.511	97.44
304.741	120.44
304.971	107.44
305.201	104.44
305.431	106.44
305.661	110.44
305.891	111.44
306.121	107.44
306.352	102.44
306.582	88.44
306.812	90.44
307.042	89.44
307.272	95.44
307.502	91.44
307.731	105.44
307.961	90.44
308.191	108.44
308.421	97.44
308.651	115.44
308.881	114.44
309.111	104.44
309.341	108.44
309.571	97.44
309.8	108.44
310.03	105.44
310.26	93.44
310.49	100.44
310.72	107.44
310.949	105.44
311.179	96.44
311.409	106.44
311.639	112.44
311.868	105.44
312.098	104.44
312.328	106.44
312.557	105.44
312.787	109.44
313.017	113.44
313.246	111.44
313.476	106.44
313.706	108.44
313.935	105.44
314.165	105.44
314.394	111.44
314.624	117.44
314.853	115.44
315.083	94.44
315.312	116.44
315.542	112.44
315.771	97.44
316.001	113.44
316.23	114.44
316.46	104.44
316.689	107.44
316.919	106.44
317.148	109.44
317.377	115.44
317.607	105.44
317.836	104.44
318.065	113.44
318.295	112.44
318.524	100.44
318.753	116.44
318.983	103.44
319.212	105.44
319.441	108.44
319.67	115.44
319.9	113.44
320.129	127.44
320.358	106.44
320.587	112.44
320.816	128.44
321.046	98.44
321.275	107.44
321.504	118.44
321.733	107.44
321.962	106.44
322.191	116.44
322.42	93.44
322.649	106.44
322.878	103.44
323.108	117.44
323.337	114.44
323.566	108.44
323.795	92.44
324.024	112.44
324.253	102.44
324.482	136.44
324.71	155.44
324.939	169.44
325.168	163.44
325.397	110.44
325.626	100.44
325.855	112.44
326.084	111.44
326.313	122.44
326.542	123.44
326.77	120.44
326.999	121.44
327.228	132.44
327.457	143.44
327.686	154.44
327.914	131.44
328.143	114.44
328.372	102.44
328.6	113.44
328.829	109.44
329.058	110.44
329.287	110.44
329.515	116.44
329.744	120.44
329.972	125.44
330.201	103.44
330.43	100.44
330.658	125.44
330.887	128.44
331.115	125.44
331.344	118.44
331.572	110.44
331.801	106.44
332.03	109.44
332.258	120.44
332.486	115.44
332.715	109.44
332.943	99.44
333.172	109.44
333.4	113.44
333.629	128.44
333.857	112.44
334.085	114.44
334.314	123.44
334.542	126.44
334.771	118.44
334.999	119.44
335.227	110.44
335.455	118.44
335.684	107.44
335.912	130.44
336.14	120.44
336.369	127.44
336.597	112.44
336.825	115.44
337.053	109.44
337.281	120.44
337.51	106.44
337.738	116.44
337.966	121.44
338.194	115.44
338.422	128.44
338.65	105.44
338.878	124.44
339.106	128.44
339.334	112.44
339.562	110.44
339.79	132.44
340.018	115.44
340.246	108.44
340.474	124.44
340.702	100.44
340.93	115.44
341.158	112.44
341.386	109.44
341.614	116.44
341.842	101.44
342.07	105.44
342.298	104.44
342.526	99.44
342.754	114.44
342.981	120.44
343.209	119.44
343.437	121.44
343.665	111.44
343.893	118.44
344.12	118.44
344.348	130.44
344.576	107.44
344.804	111.44
345.031	119.44
345.259	98.44
345.487	100.44
345.714	107.44
345.942	104.44
346.17	101.44
346.397	114.44
346.625	115.44
346.853	108.44
347.08	119.44
347.308	116.44
347.535	114.44
347.763	121.44
347.99	116.44
348.218	122.44
348.445	115.44
348.673	109.44
348.9	112.44
349.128	112.44
349.355	103.44
349.583	112.44
349.81	105.44
350.037	100.44
350.265	96.44
350.492	120.44
350.72	103.44
350.947	113.44
351.174	121.44
351.402	120.44
351.629	101.44
351.856	111.44
352.083	103.44
352.311	109.44
352.538	113.44
352.765	107.44
352.992	103.44
353.22	106.44
353.447	113.44
353.674	102.44
353.901	113.44
354.128	113.44
354.355	108.44
354.583	90.44
354.81	114.44
355.037	113.44
355.264	118.44
355.491	101.44
355.718	105.44
355.945	113.44
356.172	107.44
356.399	107.44
356.626	93.44
356.853	107.44
357.08	104.44
357.307	113.44
357.534	115.44
357.761	109.44
357.988	112.44
358.215	114.44
358.441	116.44
358.668	108.44
358.895	112.44
359.122	109.44
359.349	116.44
359.576	108.44
359.802	95.44
360.029	106.44
360.256	114.44
360.483	110.44
360.709	121.44
360.936	130.44
361.163	120.44
361.39	105.44
361.616	110.44
361.843	105.44
362.07	110.44
362.296	109.44
362.523	112.44
362.749	116.44
362.976	112.44
363.203	106.44
363.429	112.44
363.656	113.44
363.882	125.44
364.109	102.44
364.335	90.44
364.562	104.44
364.788	113.44
365.015	97.44
365.241	102.44
365.468	113.44
365.694	104.44
365.92	104.44
366.147	123.44
366.373	122.44
366.599	115.44
366.826	100.44
367.052	104.44
367.278	93.44
367.505	108.44
367.731	121.44
367.957	128.44
368.184	99.44
368.41	105.44
368.636	111.44
368.862	97.44
369.089	118.44
369.315	110.44
369.541	119.44
369.767	107.44
369.993	106.44
370.219	107.44
370.445	111.44
370.672	107.44
370.898	124.44
371.124	122.44
371.35	114.44
371.576	120.44
371.802	104.44
372.028	103.44
372.254	116.44
372.48	108.44
372.706	107.44
372.932	121.44
373.158	127.44
373.384	105.44
373.61	121.44
373.835	109.44
374.061	105.44
374.287	114.44
374.513	116.44
374.739	117.44
374.965	109.44
375.191	119.44
375.416	110.44
375.642	119.44
375.868	101.44
376.094	114.44
376.319	110.44
376.545	108.44
376.771	102.44
376.997	109.44
377.222	111.44
377.448	120.44
377.674	113.44
377.899	109.44
378.125	104.44
378.35	100.44
378.576	116.44
378.802	109.44
379.027	118.44
379.253	125.44
379.478	114.44
379.704	99.44
379.929	117.44
380.155	110.44
380.38	136.44
380.606	119.44
380.831	106.44
381.057	124.44
381.282	103.44
381.507	115.44
381.733	101.44
381.958	118.44
382.184	120.44
382.409	106.44
382.634	106.44
382.86	106.44
383.085	109.44
383.31	104.44
383.535	116.44
383.761	109.44
383.986	121.44
384.211	116.44
384.436	116.44
384.662	120.44
384.887	109.44
385.112	116.44
385.337	116.44
385.562	112.44
385.787	120.44
386.013	118.44
386.238	109.44
386.463	120.44
386.688	105.44
386.913	112.44
387.138	120.44
387.363	119.44
387.588	133.44
387.813	104.44
388.038	124.44
388.263	124.44
388.488	123.44
388.713	112.44
388.938	114.44
389.163	126.44
389.387	101.44
389.612	105.44
389.837	121.44
390.062	115.44
390.287	108.44
390.512	108.44
390.736	123.44
390.961	122.44
391.186	113.44
391.411	122.44
391.636	126.44
391.86	118.44
392.085	104.44
392.31	126.44
392.534	121.44
392.759	118.44
392.984	124.44
393.208	125.44
393.433	137.44
393.658	118.44
393.882	107.44
394.107	115.44
394.331	112.44
394.556	95.44
394.78	116.44
395.005	131.44
395.229	119.44
395.454	132.44
395.678	132.44
395.903	125.44
396.127	114.44
396.352	115.44
396.576	114.44
396.801	115.44
397.025	125.44
397.249	123.44
397.474	113.44
397.698	124.44
397.922	116.44
398.147	114.44
398.371	124.44
398.595	128.44
398.82	136.44
399.044	126.44
399.268	119.44
399.492	135.44
399.717	145.44
399.941	136.44
400.165	132.44
400.389	127.44
400.613	122.44
400.837	135.44
401.062	130.44
401.286	135.44
401.51	126.44
401.734	109.44
401.958	117.44
402.182	123.44
402.406	128.44
402.63	127.44
402.854	131.44
403.078	117.44
403.302	130.44
403.526	132.44
403.75	133.44
403.974	124.44
404.198	123.44
404.422	138.44
404.645	124.44
404.869	128.44
405.093	127.44
405.317	121.44
405.541	133.44
405.765	126.44
405.988	127.44
406.212	124.44
406.436	128.44
406.66	127.44
406.883	144.44
407.107	137.44
407.331	151.44
407.555	140.44
407.778	135.44
408.002	132.44
408.226	130.44
408.449	150.44
408.673	142.44
408.896	136.44
409.12	129.44
409.344	146.44
409.567	120.44
409.791	133.44
410.014	128.44
410.238	142.44
410.461	127.44
410.685	116.44
410.908	140.44
411.132	140.44
411.355	131.44
411.578	146.44
411.802	135.44
412.025	117.44
412.249	105.44
412.472	132.44
412.695	138.44
412.919	140.44
413.142	135.44
413.365	117.44
413.589	130.44
413.812	126.44
414.035	146.44
414.258	130.44
414.482	150.44
414.705	123.44
414.928	122.44
415.151	116.44
415.374	109.44
415.597	126.44
415.821	118.44
416.044	118.44
416.267	123.44
416.49	142.44
416.713	126.44
416.936	121.44
417.159	129.44
417.382	130.44
417.605	126.44
417.828	126.44
418.051	117.44
418.274	136.44
418.497	120.44
418.72	127.44
418.943	122.44
419.166	118.44
419.389	125.44
419.611	123.44
419.834	121.44
420.057	132.44
420.28	136.44
420.503	138.44
420.726	122.44
420.948	133.44
421.171	129.44
421.394	122.44
421.617	119.44
421.839	114.44
422.062	141.44
422.285	114.44
422.507	122.44
422.73	133.44
422.953	134.44
423.175	123.44
423.398	134.44
423.621	129.44
423.843	116.44
424.066	126.44
424.288	131.44
424.511	148.44
424.733	160.44
424.956	132.44
425.178	132.44
425.401	126.44
425.623	138.44
425.846	123.44
426.068	132.44
426.291	124.44
426.513	128.44
426.735	126.44
426.958	131.44
427.18	130.44
427.402	133.44
427.625	152.44
427.847	122.44
428.069	128.44
428.292	128.44
428.514	125.44
428.736	108.44
428.958	120.44
429.181	121.44
429.403	125.44
429.625	120.44
429.847	126.44
430.069	121.44
430.292	121.44
430.514	125.44
430.736	128.44
430.958	129.44
431.18	120.44
431.402	121.44
431.624	114.44
431.846	114.44
432.068	122.44
432.29	128.44
432.512	118.44
432.734	118.44
432.956	129.44
433.178	113.44
433.4	118.44
433.622	108.44
433.844	122.44
434.066	120.44
434.287	125.44
434.509	137.44
434.731	108.44
434.953	124.44
435.175	124.44
435.397	134.44
435.618	130.44
435.84	131.44
436.062	145.44
436.284	137.44
436.505	107.44
436.727	134.44
436.949	128.44
437.17	121.44
437.392	122.44
437.614	124.44
437.835	134.44
438.057	132.44
438.278	124.44
438.5	140.44
438.721	131.44
438.943	134.44
439.165	138.44
439.386	121.44
439.608	116.44
439.829	116.44
440.05	122.44
440.272	125.44
440.493	144.44
440.715	114.44
440.936	132.44
441.158	120.44
441.379	134.44
441.6	138.44
441.822	132.44
442.043	131.44
442.264	135.44
442.486	124.44
442.707	109.44
442.928	128.44
443.149	122.44
443.371	122.44
443.592	133.44
443.813	127.44
444.034	138.44
444.255	119.44
444.476	121.44
444.698	122.44
444.919	148.44
445.14	207.44
445.361	171.44
445.582	136.44
445.803	130.44
446.024	142.44
446.245	140.44
446.466	130.44
446.687	132.44
446.908	134.44
447.129	127.44
447.35	116.44
447.571	130.44
447.792	132.44
448.013	130.44
448.234	118.44
448.455	127.44
448.675	136.44
448.896	126.44
449.117	134.44
449.338	129.44
449.559	127.44
449.779	144.44
450	127.44
450.221	116.44
450.442	115.44
450.662	125.44
450.883	113.44
451.104	126.44
451.324	122.44
451.545	116.44
451.766	114.44
451.986	132.44
452.207	110.44
452.428	113.44
452.648	92.44
452.869	107.44
453.089	120.44
453.31	107.44
453.53	125.44
453.751	115.44
453.971	100.44
454.192	104.44
454.412	101.44
454.633	108.44
454.853	104.44
455.073	124.44
455.294	130.44
455.514	126.44
455.734	121.44
455.955	112.44
456.175	121.44
456.395	96.44
456.616	107.44
456.836	108.44
457.056	109.44
457.276	101.44
457.497	116.44
457.717	114.44
457.937	115.44
458.157	121.44
458.377	119.44
458.598	113.44
458.818	139.44
459.038	113.44
459.258	121.44
459.478	122.44
459.698	124.44
459.918	120.44
460.138	120.44
460.358	124.44
460.578	129.44
460.798	131.44
461.018	119.44
461.238	122.44
461.458	124.44
461.678	132.44
461.898	121.44
462.118	138.44
462.338	138.44
462.558	134.44
462.777	127.44
462.997	136.44
463.217	142.44
463.437	147.44
463.657	138.44
463.876	132.44
464.096	135.44
464.316	130.44
464.536	124.44
464.755	137.44
464.975	125.44
465.195	126.44
465.414	135.44
465.634	118.44
465.854	124.44
466.073	129.44
466.293	127.44
466.512	118.44
466.732	114.44
466.951	112.44
467.171	125.44
467.391	130.44
467.61	114.44
467.829	115.44
468.049	116.44
468.268	116.44
468.488	123.44
468.707	128.44
468.927	121.44
469.146	107.44
469.365	128.44
469.585	122.44
469.804	135.44
470.023	120.44
470.243	139.44
470.462	119.44
470.681	117.44
470.901	116.44
471.12	129.44
471.339	124.44
471.558	124.44
471.777	121.44
471.997	116.44
472.216	120.44
472.435	129.44
472.654	119.44
472.873	112.44
473.092	124.44
473.311	109.44
473.53	126.44
473.749	121.44
473.968	124.44
474.187	107.44
474.406	126.44
474.625	119.44
474.844	112.44
475.063	108.44
475.282	116.44
475.501	117.44
475.72	113.44
475.939	106.44
476.158	112.44
476.377	123.44
476.596	120.44
476.814	110.44
477.033	124.44
477.252	130.44
477.471	108.44
477.69	115.44
477.908	108.44
478.127	121.44
478.346	128.44
478.564	123.44
478.783	129.44
479.002	138.44
479.22	126.44
479.439	118.44
479.658	135.44
479.876	122.44
480.095	135.44
480.313	140.44
480.532	137.44
480.751	126.44
480.969	137.44
481.188	128.44
481.406	126.44
481.624	144.44
481.843	121.44
482.061	127.44
482.28	126.44
482.498	126.44
482.717	124.44
482.935	122.44
483.153	121.44
483.372	124.44
483.59	130.44
483.808	141.44
484.027	127.44
484.245	124.44
484.463	131.44
484.681	148.44
484.9	135.44
485.118	118.44
485.336	135.44
485.554	123.44
485.772	130.44
485.99	141.44
486.209	138.44
486.427	117.44
486.645	142.44
486.863	124.44
487.081	130.44
487.299	135.44
487.517	134.44
487.735	134.44
487.953	133.44
488.171	134.44
488.389	149.44
488.607	134.44
488.825	140.44
489.043	124.44
489.261	127.44
489.479	126.44
489.696	134.44
489.914	128.44
490.132	153.44
490.35	133.44
490.568	146.44
490.786	140.44
491.003	134.44
491.221	131.44
491.439	138.44
491.657	138.44
491.874	134.44
492.092	148.44
492.31	141.44
492.527	150.44
492.745	135.44
492.963	145.44
493.18	149.44
493.398	132.44
493.615	144.44
493.833	154.44
494.05	155.44
494.268	139.44
494.485	141.44
494.703	157.44
494.92	145.44
495.138	129.44
495.355	149.44
495.573	131.44
495.79	148.44
496.008	147.44
496.225	146.44
496.442	142.44
496.66	139.44
496.877	142.44
497.094	142.44
497.312	146.44
497.529	144.44
497.746	147.44
497.963	125.44
498.181	142.44
498.398	157.44
498.615	170.44
498.832	157.44
499.049	176.44
499.267	168.44
499.484	173.44
499.701	179.44
499.918	180.44
500.135	200.44
500.352	209.44
500.569	187.44
500.786	208.44
501.003	196.44
501.22	195.44
501.437	174.44
501.654	167.44
501.871	173.44
502.088	155.44
502.305	158.44
502.522	143.44
502.739	155.44
502.956	152.44
503.172	159.44
503.389	154.44
503.606	141.44
503.823	146.44
504.04	148.44
504.256	152.44
504.473	136.44
504.69	142.44
504.907	157.44
505.123	156.44
505.34	142.44
505.557	124.44
505.773	132.44
505.99	116.44
506.207	129.44
506.423	140.44
506.64	129.44
506.856	139.44
507.073	130.44
507.289	127.44
507.506	152.44
507.722	135.44
507.939	130.44
508.155	144.44
508.372	132.44
508.588	123.44
508.805	143.44
509.021	124.44
509.238	123.44
509.454	132.44
509.67	145.44
509.887	128.44
510.103	144.44
510.319	125.44
510.536	152.44
510.752	156.44
510.968	145.44
511.184	132.44
511.401	123.44
511.617	131.44
511.833	122.44
512.049	114.44
512.265	121.44
512.481	133.44
512.698	129.44
512.914	126.44
513.13	133.44
513.346	119.44
513.562	119.44
513.778	122.44
513.994	127.44
514.21	116.44
514.426	140.44
514.642	132.44
514.858	123.44
515.074	129.44
515.29	132.44
515.506	150.44
515.721	143.44
515.937	134.44
516.153	125.44
516.369	127.44
516.585	134.44
516.801	129.44
517.016	133.44
517.232	132.44
517.448	142.44
517.664	140.44
517.879	132.44
518.095	115.44
518.311	124.44
518.527	130.44
518.742	105.44
518.958	120.44
519.173	122.44
519.389	138.44
519.605	137.44
519.82	134.44
520.036	133.44
520.251	118.44
520.467	122.44
520.682	122.44
520.898	134.44
521.113	130.44
521.329	132.44
521.544	136.44
521.76	142.44
521.975	165.44
522.19	165.44
522.406	139.44
522.621	130.44
522.836	112.44
523.052	123.44
523.267	120.44
523.482	124.44
523.698	123.44
523.913	125.44
524.128	132.44
524.343	127.44
524.559	122.44
524.774	125.44
524.989	130.44
525.204	110.44
525.419	130.44
525.634	123.44
525.849	112.44
526.064	112.44
526.28	141.44
526.495	114.44
526.71	126.44
526.925	132.44
527.14	125.44
527.355	112.44
527.57	112.44
527.785	119.44
527.999	122.44
528.214	135.44
528.429	129.44
528.644	129.44
528.859	108.44
529.074	116.44
529.289	130.44
529.503	138.44
529.718	117.44
529.933	122.44
530.148	103.44
530.363	107.44
530.577	121.44
530.792	129.44
531.007	117.44
531.221	114.44
531.436	110.44
531.651	117.44
531.865	117.44
532.08	138.44
532.295	123.44
532.509	136.44
532.724	116.44
532.938	127.44
533.153	119.44
533.367	121.44
533.582	120.44
533.796	105.44
534.011	115.44
534.225	120.44
534.44	123.44
534.654	123.44
534.868	120.44
535.083	107.44
535.297	112.44
535.511	121.44
535.726	130.44
535.94	123.44
536.154	116.44
536.369	116.44
536.583	109.44
536.797	110.44
537.011	118.44
537.225	118.44
537.44	118.44
537.654	116.44
537.868	120.44
538.082	129.44
538.296	116.44
538.51	122.44
538.724	114.44
538.938	120.44
539.153	113.44
539.367	124.44
539.581	122.44
539.795	121.44
540.009	117.44
540.222	118.44
540.436	121.44
540.65	126.44
540.864	128.44
541.078	133.44
541.292	122.44
541.506	142.44
541.72	138.44
541.934	130.44
542.147	140.44
542.361	127.44
542.575	136.44
542.789	130.44
543.002	137.44
543.216	129.44
543.43	133.44
543.644	137.44
543.857	126.44
544.071	126.44
544.285	139.44
544.498	146.44
544.712	134.44
544.925	144.44
545.139	129.44
545.352	140.44
545.566	147.44
545.779	140.44
545.993	146.44
546.206	132.44
546.42	137.44
546.633	115.44
546.847	116.44
547.06	139.44
547.274	131.44
547.487	124.44
547.7	122.44
547.914	125.44
548.127	143.44
548.34	133.44
548.554	114.44
548.767	112.44
548.98	123.44
549.193	118.44
549.407	117.44
549.62	141.44
549.833	117.44
550.046	122.44
550.259	131.44
550.473	115.44
550.686	123.44
550.899	112.44
551.112	126.44
551.325	115.44
551.538	120.44
551.751	124.44
551.964	122.44
552.177	120.44
552.39	116.44
552.603	124.44
552.816	133.44
553.029	128.44
553.242	122.44
553.455	118.44
553.667	134.44
553.88	128.44
554.093	116.44
554.306	114.44
554.519	109.44
554.732	124.44
554.944	124.44
555.157	126.44
555.37	109.44
555.583	122.44
555.795	113.44
556.008	112.44
556.221	118.44
556.433	123.44
556.646	130.44
556.859	126.44
557.071	108.44
557.284	116.44
557.496	118.44
557.709	129.44
557.921	133.44
558.134	126.44
558.346	128.44
558.559	119.44
558.771	112.44
558.984	100.44
559.196	114.44
559.409	125.44
559.621	99.44
559.833	122.44
560.046	117.44
560.258	119.44
560.47	128.44
560.683	104.44
560.895	105.44
561.107	121.44
561.32	113.44
561.532	108.44
561.744	128.44
561.956	115.44
562.168	116.44
562.381	118.44
562.593	109.44
562.805	108.44
563.017	117.44
563.229	105.44
563.441	121.44
563.653	131.44
563.865	97.44
564.077	103.44
564.289	114.44
564.501	116.44
564.713	125.44
564.925	133.44
565.137	120.44
565.349	109.44
565.561	119.44
565.773	129.44
565.985	135.44
566.197	123.44
566.408	121.44
566.62	131.44
566.832	124.44
567.044	137.44
567.255	141.44
567.467	139.44
567.679	130.44
567.891	145.44
568.102	138.44
568.314	132.44
568.526	132.44
568.737	146.44
568.949	133.44
569.161	116.44
569.372	114.44
569.584	119.44
569.795	104.44
570.007	103.44
570.218	115.44
570.43	130.44
570.641	119.44
570.853	116.44
571.064	114.44
571.276	106.44
571.487	114.44
571.698	96.44
571.91	107.44
572.121	107.44
572.333	112.44
572.544	105.44
572.755	105.44
572.966	108.44
573.178	112.44
573.389	112.44
573.6	112.44
573.811	114.44
574.023	98.44
574.234	93.44
574.445	101.44
574.656	105.44
574.867	102.44
575.078	109.44
575.289	114.44
575.501	104.44
575.712	96.44
575.923	97.44
576.134	103.44
576.345	114.44
576.556	117.44
576.767	100.44
576.978	117.44
577.188	108.44
577.399	110.44
577.61	106.44
577.821	107.44
578.032	112.44
578.243	112.44
578.454	118.44
578.665	114.44
578.875	101.44
579.086	100.44
579.297	106.44
579.508	106.44
579.718	98.44
579.929	100.44
580.14	103.44
580.35	89.44
580.561	108.44
580.772	104.44
580.982	109.44
581.193	105.44
581.403	99.44
581.614	115.44
581.825	102.44
582.035	113.44
582.246	112.44
582.456	98.44
582.667	100.44
582.877	112.44
583.087	101.44
583.298	108.44
583.508	101.44
583.719	101.44
583.929	102.44
584.139	104.44
584.35	104.44
584.56	117.44
584.77	112.44
584.981	120.44
585.191	111.44
585.401	107.44
585.611	109.44
585.821	113.44
586.032	122.44
586.242	90.44
586.452	100.44
586.662	105.44
586.872	96.44
587.082	109.44
587.292	101.44
587.502	100.44
587.713	115.44
587.923	100.44
588.133	105.44
588.343	101.44
588.553	101.44
588.762	100.44
588.972	109.44
589.182	108.44
589.392	106.44
589.602	97.44
589.812	108.44
590.022	95.44
590.232	105.44
590.441	94.44
590.651	106.44
590.861	99.44
591.071	117.44
591.281	101.44
591.49	102.44
591.7	98.44
591.91	107.44
592.119	112.44
592.329	92.44
592.539	102.44
592.748	102.44
592.958	100.44
593.167	103.44
593.377	109.44
593.587	105.44
593.796	118.44
594.006	118.44
594.215	117.44
594.424	106.44
594.634	90.44
594.843	115.44
595.053	101.44
595.262	107.44
595.472	129.44
595.681	106.44
595.89	116.44
596.1	93.44
596.309	102.44
596.518	98.44
596.727	114.44
596.937	94.44
597.146	106.44
597.355	114.44
597.564	125.44
597.774	116.44
597.983	92.44
598.192	105.44
598.401	113.44
598.61	94.44
598.819	112.44
599.028	106.44
599.237	101.44
599.446	99.44
599.655	95.44
599.864	104.44
600.073	92.44
600.282	99.44
600.491	100.44
600.7	98.44
600.909	96.44
601.118	94.44
601.327	99.44
601.536	114.44
601.745	94.44
601.953	122.44
602.162	87.44
602.371	105.44
602.58	101.44
602.789	103.44
602.997	104.44
603.206	101.44
603.415	113.44
603.623	100.44
603.832	93.44
604.041	104.44
604.249	114.44
604.458	113.44
604.666	90.44
604.875	102.44
605.084	100.44
605.292	92.44
605.501	83.44
605.709	103.44
605.918	97.44
606.126	103.44
606.334	117.44
606.543	102.44
606.751	107.44
606.96	93.44
607.168	97.44
607.376	97.44
607.585	99.44
607.793	112.44
608.001	92.44
608.21	108.44
608.418	96.44
608.626	99.44
608.834	102.44
609.043	90.44
609.251	105.44
609.459	99.44
609.667	103.44
609.875	98.44
610.083	125.44
610.291	98.44
610.499	108.44
610.707	113.44
610.916	107.44
611.124	116.44
611.332	116.44
611.54	129.44
611.748	106.44
611.955	122.44
612.163	110.44
612.371	96.44
612.579	94.44
612.787	102.44
612.995	108.44
613.203	121.44
613.411	104.44
613.618	116.44
613.826	102.44
614.034	117.44
614.242	96.44
614.449	120.44
614.657	96.44
614.865	105.44
615.072	117.44
615.28	103.44
615.488	96.44
615.695	113.44
615.903	93.44
616.111	93.44
616.318	93.44
616.526	96.44
616.733	89.44
616.941	99.44
617.148	103.44
617.356	101.44
617.563	101.44
617.771	108.44
617.978	107.44
618.185	99.44
618.393	100.44
618.6	96.44
618.807	98.44
619.015	100.44
619.222	115.44
619.429	113.44
619.637	99.44
619.844	98.44
620.051	104.44
620.258	90.44
620.466	90.44
620.673	97.44
620.88	98.44
621.087	105.44
621.294	91.44
621.501	85.44
621.708	105.44
621.915	89.44
622.122	105.44
622.329	99.44
622.536	87.44
622.743	92.44
622.95	102.44
623.157	106.44
623.364	103.44
623.571	96.44
623.778	77.44
623.985	97.44
624.192	92.44
624.399	97.44
624.606	96.44
624.812	91.44
625.019	99.44
625.226	93.44
625.433	109.44
625.639	99.44
625.846	92.44
626.053	93.44
626.259	91.44
626.466	94.44
626.673	94.44
626.879	97.44
627.086	109.44
627.293	97.44
627.499	115.44
627.706	103.44
627.912	104.44
628.119	83.44
628.325	96.44
628.532	85.44
628.738	91.44
628.945	112.44
629.151	84.44
629.357	88.44
629.564	85.44
629.77	74.44
629.976	92.44
630.183	98.44
630.389	105.44
630.595	90.44
630.802	89.44
631.008	91.44
631.214	89.44
631.42	91.44
631.627	84.44
631.833	86.44
632.039	100.44
632.245	103.44
632.451	93.44
632.657	93.44
632.863	96.44
633.069	103.44
633.275	91.44
633.481	94.44
633.688	85.44
633.893	101.44
634.099	92.44
634.305	95.44
634.511	92.44
634.717	91.44
634.923	85.44
635.129	97.44
635.335	91.44
635.541	104.44
635.747	93.44
635.952	94.44
636.158	89.44
636.364	96.44
636.57	88.44
636.775	98.44
636.981	98.44
637.187	90.44
637.392	92.44
637.598	100.44
637.804	92.44
638.009	101.44
638.215	107.44
638.421	93.44
638.626	93.44
638.832	84.44
639.037	84.44
639.243	88.44
639.448	91.44
639.654	113.44
639.859	97.44
640.065	99.44
640.27	99.44
640.475	86.44
640.681	96.44
640.886	91.44
641.091	84.44
641.297	104.44
641.502	83.44
641.707	82.44
641.913	88.44
642.118	90.44
642.323	96.44
642.528	81.44
642.733	76.44
642.939	86.44
643.144	87.44
643.349	89.44
643.554	97.44
643.759	96.44
643.964	89.44
644.169	92.44
644.374	103.44
644.579	101.44
644.784	90.44
644.989	96.44
645.194	90.44
645.399	103.44
645.604	90.44
645.809	101.44
646.014	77.44
646.219	109.44
646.423	93.44
646.628	89.44
646.833	92.44
647.038	104.44
647.243	91.44
647.447	89.44
647.652	91.44
647.857	83.44
648.062	88.44
648.266	88.44
648.471	92.44
648.676	87.44
648.88	100.44
649.085	80.44
649.289	93.44
649.494	86.44
649.698	88.44
649.903	105.44
650.107	109.44
650.312	95.44
650.516	86.44
650.721	84.44
650.925	93.44
651.13	95.44
651.334	87.44
651.539	92.44
651.743	78.44
651.947	78.44
652.152	89.44
652.356	87.44
652.56	95.44
652.764	97.44
652.969	84.44
653.173	86.44
653.377	75.44
653.581	96.44
653.785	84.44
653.99	91.44
654.194	82.44
654.398	93.44
654.602	90.44
654.806	97.44
655.01	84.44
655.214	96.44
655.418	91.44
655.622	89.44
655.826	87.44
656.03	74.44
656.234	100.44
656.438	81.44
656.642	88.44
656.846	88.44
657.049	89.44
657.253	82.44
657.457	92.44
657.661	88.44
657.865	83.44
658.068	81.44
658.272	93.44
658.476	82.44
658.68	79.44
658.883	75.44
659.087	76.44
659.291	83.44
659.494	80.44
659.698	78.44
659.901	78.44
660.105	74.44
660.309	83.44
660.512	79.44
660.716	89.44
660.919	92.44
661.123	70.44
661.326	65.44
661.53	76.44
661.733	85.44
661.936	81.44
662.14	93.44
662.343	69.44
662.546	71.44
662.75	82.44
662.953	80.44
663.156	89.44
663.36	67.44
663.563	96.44
663.766	81.44
663.969	82.44
664.173	81.44
664.376	84.44
664.579	80.44
664.782	73.44
664.985	70.44
665.188	66.44
665.391	85.44
665.594	87.44
665.797	86.44
666	72.44
666.203	82.44
666.406	69.44
666.609	78.44
666.812	73.44
667.015	84.44
667.218	84.44
667.421	81.44
667.624	97.44
667.827	90.44
668.03	88.44
668.232	77.44
668.435	85.44
668.638	73.44
668.841	85.44
669.043	78.44
669.246	78.44
669.449	90.44
669.651	80.44
669.854	74.44
670.057	82.44
670.259	87.44
670.462	78.44
670.665	79.44
670.867	83.44
671.07	76.44
671.272	88.44
671.475	81.44
671.677	69.44
671.88	99.44
672.082	101.44
672.284	81.44
672.487	74.44
672.689	82.44
672.892	82.44
