Data from 1968.PennyLincolnUp.Lamp.En5.5.200Scan.071719.P1._HRD10591_14-50-58-969.txt Node
Date: Thu Jul 18 14:50:58 EDT 2019
User: cochatt
Spectrometer: HR+D1059
Trigger mode: 1
Integration Time (sec): 1.000000E-1
Scans to average: 1
Electric dark correction enabled: true
Nonlinearity correction enabled: false
Boxcar width: 0
XAxis mode: Wavelengths
Number of Pixels in Spectrum: 2048
>>>>>Begin Spectral Data<<<<<
223.165	-6.88
223.4	-6.88
223.635	-6.88
223.869	-8.88
224.104	-20.88
224.338	-18.88
224.573	-11.88
224.808	-15.88
225.042	-17.88
225.277	-11.88
225.511	-6.88
225.746	12.12
225.98	-3.88
226.215	20.12
226.449	16.12
226.683	21.12
226.918	31.12
227.152	23.12
227.387	30.12
227.621	30.12
227.856	41.12
228.09	48.12
228.324	57.12
228.559	62.12
228.793	48.12
229.027	64.12
229.262	80.12
229.496	66.12
229.73	73.12
229.964	56.12
230.199	79.12
230.433	72.12
230.667	68.12
230.901	81.12
231.136	77.12
231.37	84.12
231.604	92.12
231.838	81.12
232.072	81.12
232.306	86.12
232.541	86.12
232.775	79.12
233.009	79.12
233.243	82.12
233.477	92.12
233.711	83.12
233.945	85.12
234.179	84.12
234.413	90.12
234.647	89.12
234.881	78.12
235.115	89.12
235.349	102.12
235.583	83.12
235.817	83.12
236.051	84.12
236.285	78.12
236.519	81.12
236.753	94.12
236.987	92.12
237.221	89.12
237.455	80.12
237.689	82.12
237.922	86.12
238.156	76.12
238.39	84.12
238.624	91.12
238.858	80.12
239.091	88.12
239.325	97.12
239.559	81.12
239.793	80.12
240.027	80.12
240.26	79.12
240.494	85.12
240.728	85.12
240.961	76.12
241.195	78.12
241.429	89.12
241.662	81.12
241.896	81.12
242.13	75.12
242.363	59.12
242.597	80.12
242.83	80.12
243.064	77.12
243.298	82.12
243.531	67.12
243.765	86.12
243.998	80.12
244.232	89.12
244.465	97.12
244.699	73.12
244.932	86.12
245.166	86.12
245.399	89.12
245.633	89.12
245.866	82.12
246.099	76.12
246.333	77.12
246.566	88.12
246.8	81.12
247.033	99.12
247.266	81.12
247.5	94.12
247.733	94.12
247.966	94.12
248.2	78.12
248.433	80.12
248.666	79.12
248.899	87.12
249.133	87.12
249.366	88.12
249.599	96.12
249.832	79.12
250.066	95.12
250.299	104.12
250.532	93.12
250.765	95.12
250.998	86.12
251.231	85.12
251.465	92.12
251.698	95.12
251.931	85.12
252.164	90.12
252.397	81.12
252.63	79.12
252.863	79.12
253.096	94.12
253.329	91.12
253.562	72.12
253.795	89.12
254.028	91.12
254.261	88.12
254.494	84.12
254.727	99.12
254.96	83.12
255.193	83.12
255.426	81.12
255.659	85.12
255.892	78.12
256.124	85.12
256.357	95.12
256.59	68.12
256.823	96.12
257.056	81.12
257.289	93.12
257.521	107.12
257.754	81.12
257.987	73.12
258.22	92.12
258.452	88.12
258.685	105.12
258.918	99.12
259.151	93.12
259.383	92.12
259.616	96.12
259.849	90.12
260.081	93.12
260.314	87.12
260.547	90.12
260.779	95.12
261.012	96.12
261.244	101.12
261.477	95.12
261.71	115.12
261.942	87.12
262.175	97.12
262.407	84.12
262.64	85.12
262.872	91.12
263.105	99.12
263.337	85.12
263.57	87.12
263.802	81.12
264.035	90.12
264.267	87.12
264.499	81.12
264.732	97.12
264.964	83.12
265.197	90.12
265.429	99.12
265.661	90.12
265.894	100.12
266.126	105.12
266.358	95.12
266.591	85.12
266.823	88.12
267.055	108.12
267.287	94.12
267.52	96.12
267.752	100.12
267.984	102.12
268.216	93.12
268.448	104.12
268.681	89.12
268.913	102.12
269.145	70.12
269.377	99.12
269.609	99.12
269.841	95.12
270.073	81.12
270.306	95.12
270.538	91.12
270.77	107.12
271.002	94.12
271.234	102.12
271.466	105.12
271.698	109.12
271.93	92.12
272.162	102.12
272.394	97.12
272.626	81.12
272.858	84.12
273.09	92.12
273.322	84.12
273.553	92.12
273.785	79.12
274.017	97.12
274.249	105.12
274.481	90.12
274.713	97.12
274.945	105.12
275.176	108.12
275.408	100.12
275.64	100.12
275.872	106.12
276.104	102.12
276.335	101.12
276.567	90.12
276.799	86.12
277.031	110.12
277.262	94.12
277.494	100.12
277.726	94.12
277.957	92.12
278.189	97.12
278.421	100.12
278.652	87.12
278.884	109.12
279.115	109.12
279.347	95.12
279.579	106.12
279.81	87.12
280.042	106.12
280.273	110.12
280.505	91.12
280.736	100.12
280.968	107.12
281.199	109.12
281.431	102.12
281.662	117.12
281.894	108.12
282.125	96.12
282.356	96.12
282.588	100.12
282.819	96.12
283.051	93.12
283.282	89.12
283.513	118.12
283.745	95.12
283.976	107.12
284.207	98.12
284.439	92.12
284.67	97.12
284.901	101.12
285.132	113.12
285.364	100.12
285.595	105.12
285.826	119.12
286.057	101.12
286.288	101.12
286.52	104.12
286.751	99.12
286.982	109.12
287.213	102.12
287.444	99.12
287.675	89.12
287.906	114.12
288.138	115.12
288.369	96.12
288.6	115.12
288.831	109.12
289.062	101.12
289.293	111.12
289.524	97.12
289.755	101.12
289.986	113.12
290.217	107.12
290.448	112.12
290.679	110.12
290.91	104.12
291.141	112.12
291.371	100.12
291.602	102.12
291.833	117.12
292.064	103.12
292.295	105.12
292.526	106.12
292.757	104.12
292.987	96.12
293.218	92.12
293.449	95.12
293.68	101.12
293.91	106.12
294.141	99.12
294.372	98.12
294.603	110.12
294.833	103.12
295.064	96.12
295.295	102.12
295.525	103.12
295.756	103.12
295.987	105.12
296.217	123.12
296.448	103.12
296.679	117.12
296.909	103.12
297.14	114.12
297.37	99.12
297.601	99.12
297.831	107.12
298.062	105.12
298.292	104.12
298.523	96.12
298.753	105.12
298.984	108.12
299.214	93.12
299.445	99.12
299.675	91.12
299.905	112.12
300.136	109.12
300.366	105.12
300.597	108.12
300.827	106.12
301.057	111.12
301.288	101.12
301.518	111.12
301.748	107.12
301.979	118.12
302.209	117.12
302.439	113.12
302.669	112.12
302.9	90.12
303.13	102.12
303.36	111.12
303.59	95.12
303.82	112.12
304.051	105.12
304.281	117.12
304.511	100.12
304.741	108.12
304.971	111.12
305.201	123.12
305.431	105.12
305.661	88.12
305.891	98.12
306.121	105.12
306.352	104.12
306.582	113.12
306.812	104.12
307.042	106.12
307.272	100.12
307.502	107.12
307.731	112.12
307.961	112.12
308.191	105.12
308.421	117.12
308.651	99.12
308.881	100.12
309.111	83.12
309.341	101.12
309.571	104.12
309.8	96.12
310.03	121.12
310.26	109.12
310.49	104.12
310.72	91.12
310.949	107.12
311.179	102.12
311.409	94.12
311.639	115.12
311.868	101.12
312.098	103.12
312.328	88.12
312.557	108.12
312.787	104.12
313.017	129.12
313.246	111.12
313.476	124.12
313.706	103.12
313.935	109.12
314.165	117.12
314.394	110.12
314.624	115.12
314.853	115.12
315.083	107.12
315.312	110.12
315.542	118.12
315.771	126.12
316.001	121.12
316.23	118.12
316.46	99.12
316.689	106.12
316.919	105.12
317.148	102.12
317.377	120.12
317.607	104.12
317.836	98.12
318.065	113.12
318.295	117.12
318.524	110.12
318.753	111.12
318.983	96.12
319.212	120.12
319.441	112.12
319.67	107.12
319.9	97.12
320.129	105.12
320.358	117.12
320.587	112.12
320.816	118.12
321.046	115.12
321.275	115.12
321.504	112.12
321.733	106.12
321.962	109.12
322.191	127.12
322.42	105.12
322.649	111.12
322.878	121.12
323.108	123.12
323.337	104.12
323.566	99.12
323.795	109.12
324.024	128.12
324.253	132.12
324.482	141.12
324.71	159.12
324.939	179.12
325.168	189.12
325.397	121.12
325.626	116.12
325.855	119.12
326.084	112.12
326.313	119.12
326.542	123.12
326.77	112.12
326.999	126.12
327.228	127.12
327.457	147.12
327.686	162.12
327.914	142.12
328.143	113.12
328.372	133.12
328.6	117.12
328.829	115.12
329.058	113.12
329.287	109.12
329.515	121.12
329.744	113.12
329.972	110.12
330.201	121.12
330.43	129.12
330.658	116.12
330.887	127.12
331.115	117.12
331.344	125.12
331.572	129.12
331.801	125.12
332.03	129.12
332.258	127.12
332.486	120.12
332.715	113.12
332.943	117.12
333.172	121.12
333.4	125.12
333.629	127.12
333.857	126.12
334.085	107.12
334.314	108.12
334.542	111.12
334.771	126.12
334.999	125.12
335.227	110.12
335.455	117.12
335.684	117.12
335.912	136.12
336.14	122.12
336.369	130.12
336.597	131.12
336.825	123.12
337.053	127.12
337.281	104.12
337.51	120.12
337.738	127.12
337.966	121.12
338.194	126.12
338.422	133.12
338.65	95.12
338.878	118.12
339.106	110.12
339.334	122.12
339.562	122.12
339.79	104.12
340.018	125.12
340.246	119.12
340.474	124.12
340.702	121.12
340.93	119.12
341.158	108.12
341.386	121.12
341.614	108.12
341.842	108.12
342.07	108.12
342.298	131.12
342.526	116.12
342.754	121.12
342.981	121.12
343.209	127.12
343.437	126.12
343.665	119.12
343.893	105.12
344.12	128.12
344.348	103.12
344.576	110.12
344.804	111.12
345.031	106.12
345.259	111.12
345.487	124.12
345.714	119.12
345.942	126.12
346.17	111.12
346.397	106.12
346.625	112.12
346.853	116.12
347.08	107.12
347.308	105.12
347.535	114.12
347.763	115.12
347.99	117.12
348.218	109.12
348.445	105.12
348.673	116.12
348.9	102.12
349.128	117.12
349.355	99.12
349.583	112.12
349.81	110.12
350.037	121.12
350.265	125.12
350.492	119.12
350.72	112.12
350.947	121.12
351.174	112.12
351.402	119.12
351.629	111.12
351.856	106.12
352.083	111.12
352.311	108.12
352.538	115.12
352.765	112.12
352.992	105.12
353.22	101.12
353.447	114.12
353.674	99.12
353.901	122.12
354.128	110.12
354.355	100.12
354.583	119.12
354.81	116.12
355.037	106.12
355.264	112.12
355.491	106.12
355.718	117.12
355.945	95.12
356.172	111.12
356.399	107.12
356.626	109.12
356.853	120.12
357.08	112.12
357.307	119.12
357.534	125.12
357.761	104.12
357.988	129.12
358.215	101.12
358.441	116.12
358.668	109.12
358.895	109.12
359.122	105.12
359.349	115.12
359.576	105.12
359.802	104.12
360.029	121.12
360.256	117.12
360.483	124.12
360.709	119.12
360.936	115.12
361.163	120.12
361.39	104.12
361.616	115.12
361.843	119.12
362.07	121.12
362.296	108.12
362.523	107.12
362.749	113.12
362.976	112.12
363.203	115.12
363.429	115.12
363.656	101.12
363.882	129.12
364.109	123.12
364.335	124.12
364.562	120.12
364.788	121.12
365.015	124.12
365.241	110.12
365.468	113.12
365.694	118.12
365.92	112.12
366.147	106.12
366.373	109.12
366.599	108.12
366.826	87.12
367.052	97.12
367.278	101.12
367.505	108.12
367.731	117.12
367.957	129.12
368.184	124.12
368.41	115.12
368.636	100.12
368.862	105.12
369.089	107.12
369.315	110.12
369.541	111.12
369.767	108.12
369.993	106.12
370.219	136.12
370.445	112.12
370.672	115.12
370.898	109.12
371.124	102.12
371.35	112.12
371.576	113.12
371.802	104.12
372.028	104.12
372.254	115.12
372.48	121.12
372.706	116.12
372.932	123.12
373.158	109.12
373.384	106.12
373.61	109.12
373.835	103.12
374.061	118.12
374.287	121.12
374.513	111.12
374.739	116.12
374.965	111.12
375.191	115.12
375.416	98.12
375.642	97.12
375.868	118.12
376.094	117.12
376.319	110.12
376.545	98.12
376.771	117.12
376.997	116.12
377.222	98.12
377.448	118.12
377.674	92.12
377.899	110.12
378.125	104.12
378.35	119.12
378.576	109.12
378.802	106.12
379.027	116.12
379.253	108.12
379.478	126.12
379.704	110.12
379.929	110.12
380.155	101.12
380.38	114.12
380.606	108.12
380.831	117.12
381.057	113.12
381.282	125.12
381.507	117.12
381.733	115.12
381.958	118.12
382.184	119.12
382.409	109.12
382.634	120.12
382.86	109.12
383.085	119.12
383.31	123.12
383.535	117.12
383.761	100.12
383.986	109.12
384.211	109.12
384.436	122.12
384.662	123.12
384.887	124.12
385.112	99.12
385.337	116.12
385.562	124.12
385.787	130.12
386.013	124.12
386.238	111.12
386.463	119.12
386.688	104.12
386.913	129.12
387.138	98.12
387.363	117.12
387.588	132.12
387.813	121.12
388.038	107.12
388.263	120.12
388.488	128.12
388.713	124.12
388.938	110.12
389.163	118.12
389.387	119.12
389.612	112.12
389.837	121.12
390.062	132.12
390.287	132.12
390.512	127.12
390.736	128.12
390.961	112.12
391.186	131.12
391.411	135.12
391.636	110.12
391.86	143.12
392.085	115.12
392.31	125.12
392.534	124.12
392.759	129.12
392.984	115.12
393.208	108.12
393.433	127.12
393.658	130.12
393.882	129.12
394.107	127.12
394.331	124.12
394.556	120.12
394.78	122.12
395.005	116.12
395.229	136.12
395.454	128.12
395.678	135.12
395.903	117.12
396.127	113.12
396.352	129.12
396.576	123.12
396.801	132.12
397.025	122.12
397.249	124.12
397.474	139.12
397.698	114.12
397.922	132.12
398.147	135.12
398.371	129.12
398.595	127.12
398.82	134.12
399.044	128.12
399.268	139.12
399.492	145.12
399.717	123.12
399.941	147.12
400.165	137.12
400.389	133.12
400.613	140.12
400.837	139.12
401.062	122.12
401.286	140.12
401.51	115.12
401.734	135.12
401.958	125.12
402.182	124.12
402.406	132.12
402.63	121.12
402.854	117.12
403.078	125.12
403.302	129.12
403.526	124.12
403.75	135.12
403.974	123.12
404.198	126.12
404.422	143.12
404.645	140.12
404.869	136.12
405.093	134.12
405.317	137.12
405.541	142.12
405.765	145.12
405.988	138.12
406.212	132.12
406.436	134.12
406.66	142.12
406.883	141.12
407.107	148.12
407.331	143.12
407.555	140.12
407.778	138.12
408.002	140.12
408.226	127.12
408.449	145.12
408.673	145.12
408.896	147.12
409.12	141.12
409.344	144.12
409.567	137.12
409.791	124.12
410.014	132.12
410.238	131.12
410.461	130.12
410.685	122.12
410.908	128.12
411.132	137.12
411.355	131.12
411.578	131.12
411.802	135.12
412.025	131.12
412.249	140.12
412.472	133.12
412.695	132.12
412.919	130.12
413.142	132.12
413.365	127.12
413.589	119.12
413.812	119.12
414.035	123.12
414.258	134.12
414.482	132.12
414.705	135.12
414.928	123.12
415.151	133.12
415.374	121.12
415.597	127.12
415.821	134.12
416.044	133.12
416.267	129.12
416.49	131.12
416.713	128.12
416.936	132.12
417.159	131.12
417.382	125.12
417.605	124.12
417.828	134.12
418.051	145.12
418.274	133.12
418.497	131.12
418.72	133.12
418.943	152.12
419.166	131.12
419.389	120.12
419.611	127.12
419.834	133.12
420.057	122.12
420.28	140.12
420.503	132.12
420.726	145.12
420.948	138.12
421.171	141.12
421.394	137.12
421.617	136.12
421.839	127.12
422.062	138.12
422.285	131.12
422.507	141.12
422.73	152.12
422.953	137.12
423.175	145.12
423.398	134.12
423.621	142.12
423.843	123.12
424.066	145.12
424.288	137.12
424.511	150.12
424.733	140.12
424.956	127.12
425.178	132.12
425.401	131.12
425.623	133.12
425.846	132.12
426.068	149.12
426.291	142.12
426.513	129.12
426.735	131.12
426.958	144.12
427.18	133.12
427.402	163.12
427.625	157.12
427.847	142.12
428.069	125.12
428.292	145.12
428.514	132.12
428.736	132.12
428.958	108.12
429.181	121.12
429.403	125.12
429.625	125.12
429.847	130.12
430.069	120.12
430.292	125.12
430.514	131.12
430.736	129.12
430.958	131.12
431.18	128.12
431.402	119.12
431.624	104.12
431.846	133.12
432.068	132.12
432.29	137.12
432.512	138.12
432.734	132.12
432.956	120.12
433.178	129.12
433.4	120.12
433.622	120.12
433.844	135.12
434.066	117.12
434.287	131.12
434.509	131.12
434.731	134.12
434.953	135.12
435.175	131.12
435.397	140.12
435.618	127.12
435.84	148.12
436.062	154.12
436.284	137.12
436.505	132.12
436.727	126.12
436.949	129.12
437.17	132.12
437.392	122.12
437.614	141.12
437.835	122.12
438.057	129.12
438.278	129.12
438.5	156.12
438.721	150.12
438.943	148.12
439.165	125.12
439.386	117.12
439.608	141.12
439.829	122.12
440.05	117.12
440.272	131.12
440.493	130.12
440.715	128.12
440.936	149.12
441.158	139.12
441.379	133.12
441.6	131.12
441.822	133.12
442.043	127.12
442.264	137.12
442.486	135.12
442.707	128.12
442.928	137.12
443.149	124.12
443.371	127.12
443.592	126.12
443.813	128.12
444.034	144.12
444.255	133.12
444.476	143.12
444.698	127.12
444.919	126.12
445.14	224.12
445.361	187.12
445.582	141.12
445.803	132.12
446.024	142.12
446.245	159.12
446.466	153.12
446.687	140.12
446.908	141.12
447.129	114.12
447.35	133.12
447.571	141.12
447.792	131.12
448.013	131.12
448.234	125.12
448.455	125.12
448.675	148.12
448.896	143.12
449.117	143.12
449.338	126.12
449.559	125.12
449.779	138.12
450	129.12
450.221	122.12
450.442	121.12
450.662	127.12
450.883	128.12
451.104	129.12
451.324	125.12
451.545	117.12
451.766	124.12
451.986	123.12
452.207	123.12
452.428	134.12
452.648	123.12
452.869	117.12
453.089	117.12
453.31	128.12
453.53	116.12
453.751	131.12
453.971	119.12
454.192	128.12
454.412	132.12
454.633	127.12
454.853	127.12
455.073	123.12
455.294	117.12
455.514	131.12
455.734	128.12
455.955	112.12
456.175	128.12
456.395	113.12
456.616	126.12
456.836	112.12
457.056	93.12
457.276	119.12
457.497	105.12
457.717	109.12
457.937	125.12
458.157	125.12
458.377	105.12
458.598	118.12
458.818	139.12
459.038	123.12
459.258	138.12
459.478	131.12
459.698	128.12
459.918	121.12
460.138	124.12
460.358	123.12
460.578	135.12
460.798	116.12
461.018	127.12
461.238	127.12
461.458	136.12
461.678	147.12
461.898	131.12
462.118	133.12
462.338	125.12
462.558	136.12
462.777	133.12
462.997	140.12
463.217	146.12
463.437	143.12
463.657	126.12
463.876	125.12
464.096	134.12
464.316	147.12
464.536	135.12
464.755	141.12
464.975	141.12
465.195	140.12
465.414	126.12
465.634	127.12
465.854	128.12
466.073	120.12
466.293	120.12
466.512	125.12
466.732	116.12
466.951	118.12
467.171	112.12
467.391	134.12
467.61	103.12
467.829	113.12
468.049	130.12
468.268	133.12
468.488	133.12
468.707	125.12
468.927	127.12
469.146	143.12
469.365	119.12
469.585	125.12
469.804	120.12
470.023	112.12
470.243	124.12
470.462	122.12
470.681	124.12
470.901	146.12
471.12	132.12
471.339	118.12
471.558	131.12
471.777	124.12
471.997	112.12
472.216	129.12
472.435	124.12
472.654	116.12
472.873	116.12
473.092	132.12
473.311	110.12
473.53	122.12
473.749	145.12
473.968	122.12
474.187	118.12
474.406	131.12
474.625	138.12
474.844	127.12
475.063	125.12
475.282	127.12
475.501	120.12
475.72	129.12
475.939	112.12
476.158	131.12
476.377	128.12
476.596	132.12
476.814	141.12
477.033	120.12
477.252	129.12
477.471	127.12
477.69	122.12
477.908	143.12
478.127	140.12
478.346	127.12
478.564	132.12
478.783	128.12
479.002	130.12
479.22	143.12
479.439	121.12
479.658	123.12
479.876	135.12
480.095	136.12
480.313	133.12
480.532	138.12
480.751	135.12
480.969	122.12
481.188	115.12
481.406	136.12
481.624	137.12
481.843	127.12
482.061	134.12
482.28	136.12
482.498	128.12
482.717	127.12
482.935	129.12
483.153	128.12
483.372	126.12
483.59	133.12
483.808	136.12
484.027	142.12
484.245	133.12
484.463	127.12
484.681	135.12
484.9	132.12
485.118	131.12
485.336	142.12
485.554	133.12
485.772	134.12
485.99	134.12
486.209	129.12
486.427	126.12
486.645	135.12
486.863	145.12
487.081	127.12
487.299	129.12
487.517	127.12
487.735	138.12
487.953	141.12
488.171	147.12
488.389	133.12
488.607	135.12
488.825	131.12
489.043	135.12
489.261	130.12
489.479	127.12
489.696	138.12
489.914	129.12
490.132	154.12
490.35	137.12
490.568	141.12
490.786	129.12
491.003	135.12
491.221	135.12
491.439	129.12
491.657	137.12
491.874	145.12
492.092	138.12
492.31	131.12
492.527	165.12
492.745	136.12
492.963	139.12
493.18	156.12
493.398	139.12
493.615	127.12
493.833	143.12
494.05	133.12
494.268	135.12
494.485	142.12
494.703	140.12
494.92	158.12
495.138	146.12
495.355	156.12
495.573	161.12
495.79	141.12
496.008	143.12
496.225	144.12
496.442	135.12
496.66	140.12
496.877	151.12
497.094	159.12
497.312	148.12
497.529	156.12
497.746	157.12
497.963	142.12
498.181	151.12
498.398	149.12
498.615	153.12
498.832	166.12
499.049	167.12
499.267	167.12
499.484	178.12
499.701	181.12
499.918	186.12
500.135	196.12
500.352	193.12
500.569	204.12
500.786	203.12
501.003	204.12
501.22	215.12
501.437	198.12
501.654	176.12
501.871	154.12
502.088	176.12
502.305	159.12
502.522	177.12
502.739	161.12
502.956	155.12
503.172	150.12
503.389	158.12
503.606	150.12
503.823	156.12
504.04	148.12
504.256	146.12
504.473	141.12
504.69	137.12
504.907	161.12
505.123	142.12
505.34	141.12
505.557	140.12
505.773	132.12
505.99	150.12
506.207	145.12
506.423	130.12
506.64	134.12
506.856	149.12
507.073	142.12
507.289	147.12
507.506	141.12
507.722	133.12
507.939	132.12
508.155	140.12
508.372	129.12
508.588	127.12
508.805	148.12
509.021	130.12
509.238	118.12
509.454	139.12
509.67	117.12
509.887	115.12
510.103	128.12
510.319	135.12
510.536	140.12
510.752	156.12
510.968	153.12
511.184	131.12
511.401	126.12
511.617	129.12
511.833	124.12
512.049	125.12
512.265	132.12
512.481	126.12
512.698	133.12
512.914	131.12
513.13	128.12
513.346	127.12
513.562	118.12
513.778	132.12
513.994	127.12
514.21	119.12
514.426	126.12
514.642	129.12
514.858	123.12
515.074	142.12
515.29	151.12
515.506	171.12
515.721	157.12
515.937	139.12
516.153	137.12
516.369	135.12
516.585	140.12
516.801	135.12
517.016	143.12
517.232	126.12
517.448	151.12
517.664	149.12
517.879	141.12
518.095	131.12
518.311	136.12
518.527	136.12
518.742	138.12
518.958	139.12
519.173	144.12
519.389	129.12
519.605	127.12
519.82	134.12
520.036	141.12
520.251	151.12
520.467	121.12
520.682	129.12
520.898	127.12
521.113	143.12
521.329	124.12
521.544	124.12
521.76	137.12
521.975	171.12
522.19	168.12
522.406	143.12
522.621	138.12
522.836	129.12
523.052	135.12
523.267	127.12
523.482	120.12
523.698	131.12
523.913	124.12
524.128	131.12
524.343	135.12
524.559	128.12
524.774	145.12
524.989	138.12
525.204	120.12
525.419	120.12
525.634	118.12
525.849	128.12
526.064	115.12
526.28	135.12
526.495	128.12
526.71	116.12
526.925	114.12
527.14	125.12
527.355	128.12
527.57	115.12
527.785	128.12
527.999	107.12
528.214	139.12
528.429	119.12
528.644	145.12
528.859	135.12
529.074	121.12
529.289	139.12
529.503	127.12
529.718	126.12
529.933	121.12
530.148	106.12
530.363	121.12
530.577	143.12
530.792	128.12
531.007	124.12
531.221	111.12
531.436	126.12
531.651	127.12
531.865	133.12
532.08	127.12
532.295	133.12
532.509	124.12
532.724	125.12
532.938	116.12
533.153	125.12
533.367	123.12
533.582	124.12
533.796	111.12
534.011	127.12
534.225	117.12
534.44	139.12
534.654	130.12
534.868	110.12
535.083	133.12
535.297	127.12
535.511	127.12
535.726	119.12
535.94	125.12
536.154	126.12
536.369	131.12
536.583	111.12
536.797	128.12
537.011	125.12
537.225	108.12
537.44	119.12
537.654	134.12
537.868	128.12
538.082	111.12
538.296	105.12
538.51	116.12
538.724	119.12
538.938	108.12
539.153	125.12
539.367	125.12
539.581	115.12
539.795	128.12
540.009	116.12
540.222	132.12
540.436	121.12
540.65	110.12
540.864	134.12
541.078	117.12
541.292	125.12
541.506	126.12
541.72	135.12
541.934	129.12
542.147	152.12
542.361	143.12
542.575	142.12
542.789	138.12
543.002	124.12
543.216	127.12
543.43	133.12
543.644	125.12
543.857	133.12
544.071	122.12
544.285	145.12
544.498	126.12
544.712	148.12
544.925	134.12
545.139	135.12
545.352	127.12
545.566	125.12
545.779	129.12
545.993	147.12
546.206	140.12
546.42	146.12
546.633	132.12
546.847	133.12
547.06	121.12
547.274	135.12
547.487	133.12
547.7	125.12
547.914	127.12
548.127	132.12
548.34	111.12
548.554	123.12
548.767	131.12
548.98	143.12
549.193	113.12
549.407	143.12
549.62	129.12
549.833	120.12
550.046	126.12
550.259	127.12
550.473	117.12
550.686	126.12
550.899	126.12
551.112	138.12
551.325	130.12
551.538	112.12
551.751	120.12
551.964	116.12
552.177	124.12
552.39	130.12
552.603	133.12
552.816	139.12
553.029	121.12
553.242	143.12
553.455	130.12
553.667	131.12
553.88	112.12
554.093	123.12
554.306	117.12
554.519	121.12
554.732	122.12
554.944	135.12
555.157	122.12
555.37	126.12
555.583	110.12
555.795	127.12
556.008	129.12
556.221	127.12
556.433	131.12
556.646	133.12
556.859	120.12
557.071	119.12
557.284	122.12
557.496	129.12
557.709	117.12
557.921	127.12
558.134	127.12
558.346	120.12
558.559	125.12
558.771	113.12
558.984	119.12
559.196	118.12
559.409	113.12
559.621	115.12
559.833	129.12
560.046	124.12
560.258	119.12
560.47	123.12
560.683	110.12
560.895	122.12
561.107	119.12
561.32	124.12
561.532	121.12
561.744	120.12
561.956	115.12
562.168	134.12
562.381	123.12
562.593	108.12
562.805	112.12
563.017	114.12
563.229	128.12
563.441	119.12
563.653	115.12
563.865	126.12
564.077	115.12
564.289	125.12
564.501	115.12
564.713	123.12
564.925	117.12
565.137	126.12
565.349	136.12
565.561	124.12
565.773	115.12
565.985	128.12
566.197	119.12
566.408	147.12
566.62	137.12
566.832	134.12
567.044	141.12
567.255	130.12
567.467	129.12
567.679	129.12
567.891	143.12
568.102	154.12
568.314	150.12
568.526	130.12
568.737	125.12
568.949	113.12
569.161	125.12
569.372	129.12
569.584	119.12
569.795	118.12
570.007	127.12
570.218	122.12
570.43	113.12
570.641	125.12
570.853	121.12
571.064	118.12
571.276	130.12
571.487	120.12
571.698	110.12
571.91	126.12
572.121	113.12
572.333	112.12
572.544	112.12
572.755	120.12
572.966	103.12
573.178	105.12
573.389	113.12
573.6	112.12
573.811	95.12
574.023	101.12
574.234	110.12
574.445	103.12
574.656	112.12
574.867	108.12
575.078	119.12
575.289	104.12
575.501	110.12
575.712	115.12
575.923	116.12
576.134	117.12
576.345	100.12
576.556	100.12
576.767	132.12
576.978	109.12
577.188	108.12
577.399	111.12
577.61	120.12
577.821	115.12
578.032	113.12
578.243	127.12
578.454	120.12
578.665	111.12
578.875	97.12
579.086	103.12
579.297	98.12
579.508	96.12
579.718	110.12
579.929	108.12
580.14	115.12
580.35	106.12
580.561	100.12
580.772	100.12
580.982	107.12
581.193	112.12
581.403	115.12
581.614	108.12
581.825	108.12
582.035	90.12
582.246	110.12
582.456	107.12
582.667	120.12
582.877	101.12
583.087	100.12
583.298	109.12
583.508	109.12
583.719	123.12
583.929	111.12
584.139	97.12
584.35	111.12
584.56	116.12
584.77	112.12
584.981	108.12
585.191	109.12
585.401	101.12
585.611	101.12
585.821	122.12
586.032	97.12
586.242	104.12
586.452	123.12
586.662	117.12
586.872	90.12
587.082	98.12
587.292	102.12
587.502	124.12
587.713	115.12
587.923	121.12
588.133	111.12
588.343	106.12
588.553	107.12
588.762	111.12
588.972	125.12
589.182	93.12
589.392	99.12
589.602	103.12
589.812	108.12
590.022	100.12
590.232	108.12
590.441	117.12
590.651	112.12
590.861	107.12
591.071	95.12
591.281	97.12
591.49	107.12
591.7	116.12
591.91	113.12
592.119	103.12
592.329	110.12
592.539	105.12
592.748	104.12
592.958	123.12
593.167	119.12
593.377	111.12
593.587	122.12
593.796	116.12
594.006	111.12
594.215	115.12
594.424	93.12
594.634	118.12
594.843	115.12
595.053	121.12
595.262	117.12
595.472	98.12
595.681	108.12
595.89	92.12
596.1	103.12
596.309	105.12
596.518	89.12
596.727	106.12
596.937	104.12
597.146	114.12
597.355	98.12
597.564	103.12
597.774	104.12
597.983	110.12
598.192	103.12
598.401	99.12
598.61	99.12
598.819	93.12
599.028	101.12
599.237	102.12
599.446	93.12
599.655	99.12
599.864	95.12
600.073	102.12
600.282	101.12
600.491	103.12
600.7	106.12
600.909	109.12
601.118	108.12
601.327	110.12
601.536	94.12
601.745	108.12
601.953	110.12
602.162	100.12
602.371	100.12
602.58	103.12
602.789	110.12
602.997	105.12
603.206	104.12
603.415	104.12
603.623	101.12
603.832	103.12
604.041	93.12
604.249	103.12
604.458	94.12
604.666	107.12
604.875	90.12
605.084	107.12
605.292	112.12
605.501	90.12
605.709	108.12
605.918	112.12
606.126	95.12
606.334	96.12
606.543	105.12
606.751	102.12
606.96	104.12
607.168	107.12
607.376	88.12
607.585	107.12
607.793	103.12
608.001	109.12
608.21	106.12
608.418	97.12
608.626	104.12
608.834	113.12
609.043	95.12
609.251	98.12
609.459	95.12
609.667	88.12
609.875	96.12
610.083	106.12
610.291	117.12
610.499	108.12
610.707	100.12
610.916	93.12
611.124	111.12
611.332	112.12
611.54	110.12
611.748	115.12
611.955	106.12
612.163	109.12
612.371	113.12
612.579	122.12
612.787	111.12
612.995	98.12
613.203	128.12
613.411	103.12
613.618	112.12
613.826	100.12
614.034	91.12
614.242	113.12
614.449	100.12
614.657	102.12
614.865	102.12
615.072	102.12
615.28	115.12
615.488	93.12
615.695	101.12
615.903	108.12
616.111	107.12
616.318	115.12
616.526	102.12
616.733	98.12
616.941	91.12
617.148	102.12
617.356	104.12
617.563	122.12
617.771	103.12
617.978	95.12
618.185	104.12
618.393	93.12
618.6	100.12
618.807	104.12
619.015	116.12
619.222	102.12
619.429	105.12
619.637	100.12
619.844	96.12
620.051	111.12
620.258	101.12
620.466	96.12
620.673	100.12
620.88	102.12
621.087	109.12
621.294	100.12
621.501	102.12
621.708	115.12
621.915	115.12
622.122	108.12
622.329	101.12
622.536	119.12
622.743	100.12
622.95	103.12
623.157	102.12
623.364	94.12
623.571	107.12
623.778	98.12
623.985	108.12
624.192	103.12
624.399	103.12
624.606	105.12
624.812	92.12
625.019	99.12
625.226	103.12
625.433	92.12
625.639	110.12
625.846	93.12
626.053	90.12
626.259	89.12
626.466	95.12
626.673	90.12
626.879	90.12
627.086	97.12
627.293	96.12
627.499	104.12
627.706	103.12
627.912	111.12
628.119	92.12
628.325	91.12
628.532	91.12
628.738	104.12
628.945	91.12
629.151	107.12
629.357	105.12
629.564	112.12
629.77	104.12
629.976	123.12
630.183	99.12
630.389	95.12
630.595	103.12
630.802	97.12
631.008	97.12
631.214	96.12
631.42	103.12
631.627	113.12
631.833	101.12
632.039	99.12
632.245	106.12
632.451	86.12
632.657	87.12
632.863	102.12
633.069	109.12
633.275	110.12
633.481	97.12
633.688	108.12
633.893	106.12
634.099	95.12
634.305	87.12
634.511	91.12
634.717	76.12
634.923	95.12
635.129	92.12
635.335	105.12
635.541	99.12
635.747	100.12
635.952	98.12
636.158	90.12
636.364	100.12
636.57	98.12
636.775	105.12
636.981	80.12
637.187	87.12
637.392	94.12
637.598	97.12
637.804	99.12
638.009	99.12
638.215	87.12
638.421	99.12
638.626	86.12
638.832	94.12
639.037	94.12
639.243	96.12
639.448	91.12
639.654	88.12
639.859	83.12
640.065	94.12
640.27	103.12
640.475	103.12
640.681	101.12
640.886	103.12
641.091	88.12
641.297	102.12
641.502	101.12
641.707	82.12
641.913	103.12
642.118	91.12
642.323	102.12
642.528	104.12
642.733	93.12
642.939	96.12
643.144	97.12
643.349	80.12
643.554	94.12
643.759	98.12
643.964	87.12
644.169	89.12
644.374	92.12
644.579	99.12
644.784	86.12
644.989	87.12
645.194	106.12
645.399	113.12
645.604	88.12
645.809	100.12
646.014	101.12
646.219	88.12
646.423	86.12
646.628	93.12
646.833	91.12
647.038	79.12
647.243	80.12
647.447	97.12
647.652	99.12
647.857	82.12
648.062	95.12
648.266	93.12
648.471	92.12
648.676	74.12
648.88	90.12
649.085	85.12
649.289	88.12
649.494	107.12
649.698	107.12
649.903	103.12
650.107	101.12
650.312	99.12
650.516	93.12
650.721	110.12
650.925	100.12
651.13	108.12
651.334	80.12
651.539	103.12
651.743	93.12
651.947	95.12
652.152	93.12
652.356	95.12
652.56	94.12
652.764	92.12
652.969	101.12
653.173	99.12
653.377	87.12
653.581	105.12
653.785	63.12
653.99	71.12
654.194	96.12
654.398	86.12
654.602	88.12
654.806	94.12
655.01	88.12
655.214	98.12
655.418	91.12
655.622	78.12
655.826	92.12
656.03	81.12
656.234	88.12
656.438	99.12
656.642	90.12
656.846	89.12
657.049	83.12
657.253	99.12
657.457	89.12
657.661	91.12
657.865	68.12
658.068	94.12
658.272	93.12
658.476	95.12
658.68	84.12
658.883	95.12
659.087	92.12
659.291	88.12
659.494	90.12
659.698	81.12
659.901	84.12
660.105	96.12
660.309	85.12
660.512	86.12
660.716	82.12
660.919	82.12
661.123	91.12
661.326	88.12
661.53	88.12
661.733	78.12
661.936	85.12
662.14	91.12
662.343	83.12
662.546	93.12
662.75	77.12
662.953	81.12
663.156	87.12
663.36	85.12
663.563	89.12
663.766	83.12
663.969	81.12
664.173	92.12
664.376	75.12
664.579	83.12
664.782	83.12
664.985	83.12
665.188	84.12
665.391	70.12
665.594	97.12
665.797	84.12
666	97.12
666.203	70.12
666.406	77.12
666.609	85.12
666.812	69.12
667.015	81.12
667.218	80.12
667.421	81.12
667.624	85.12
667.827	94.12
668.03	82.12
668.232	83.12
668.435	103.12
668.638	75.12
668.841	87.12
669.043	76.12
669.246	92.12
669.449	97.12
669.651	74.12
669.854	84.12
670.057	79.12
670.259	85.12
670.462	87.12
670.665	90.12
670.867	83.12
671.07	83.12
671.272	78.12
671.475	81.12
671.677	77.12
671.88	84.12
672.082	84.12
672.284	74.12
672.487	91.12
672.689	84.12
672.892	89.12
