Data from 1968.PennyLincolnUp.Lamp.En5.5.200Scan.071719.P1._HRD10591_14-49-32-968.txt Node
Date: Thu Jul 18 14:49:32 EDT 2019
User: cochatt
Spectrometer: HR+D1059
Trigger mode: 1
Integration Time (sec): 1.000000E-1
Scans to average: 1
Electric dark correction enabled: true
Nonlinearity correction enabled: false
Boxcar width: 0
XAxis mode: Wavelengths
Number of Pixels in Spectrum: 2048
>>>>>Begin Spectral Data<<<<<
223.165	-21.19
223.4	-21.19
223.635	-21.19
223.869	-22.19
224.104	-11.19
224.338	-21.19
224.573	-2.19
224.808	-1.19
225.042	-16.19
225.277	1.81
225.511	-9.19
225.746	12.81
225.98	3.81
226.215	1.81
226.449	15.81
226.683	23.81
226.918	18.81
227.152	25.81
227.387	28.81
227.621	34.81
227.856	33.81
228.09	44.81
228.324	54.81
228.559	56.81
228.793	57.81
229.027	74.81
229.262	63.81
229.496	72.81
229.73	74.81
229.964	74.81
230.199	74.81
230.433	79.81
230.667	70.81
230.901	67.81
231.136	71.81
231.37	82.81
231.604	70.81
231.838	86.81
232.072	98.81
232.306	74.81
232.541	86.81
232.775	79.81
233.009	92.81
233.243	89.81
233.477	90.81
233.711	74.81
233.945	80.81
234.179	68.81
234.413	71.81
234.647	86.81
234.881	76.81
235.115	90.81
235.349	80.81
235.583	78.81
235.817	70.81
236.051	88.81
236.285	82.81
236.519	84.81
236.753	71.81
236.987	74.81
237.221	63.81
237.455	82.81
237.689	70.81
237.922	81.81
238.156	81.81
238.39	69.81
238.624	81.81
238.858	81.81
239.091	76.81
239.325	65.81
239.559	75.81
239.793	69.81
240.027	91.81
240.26	87.81
240.494	89.81
240.728	86.81
240.961	71.81
241.195	76.81
241.429	91.81
241.662	75.81
241.896	72.81
242.13	99.81
242.363	72.81
242.597	77.81
242.83	75.81
243.064	78.81
243.298	81.81
243.531	72.81
243.765	70.81
243.998	84.81
244.232	90.81
244.465	89.81
244.699	83.81
244.932	80.81
245.166	87.81
245.399	84.81
245.633	95.81
245.866	79.81
246.099	68.81
246.333	78.81
246.566	82.81
246.8	71.81
247.033	87.81
247.266	91.81
247.5	85.81
247.733	72.81
247.966	74.81
248.2	75.81
248.433	76.81
248.666	84.81
248.899	87.81
249.133	87.81
249.366	95.81
249.599	83.81
249.832	88.81
250.066	95.81
250.299	83.81
250.532	79.81
250.765	74.81
250.998	91.81
251.231	87.81
251.465	77.81
251.698	80.81
251.931	102.81
252.164	86.81
252.397	89.81
252.63	87.81
252.863	100.81
253.096	88.81
253.329	87.81
253.562	85.81
253.795	104.81
254.028	97.81
254.261	80.81
254.494	89.81
254.727	79.81
254.96	84.81
255.193	91.81
255.426	85.81
255.659	83.81
255.892	83.81
256.124	90.81
256.357	96.81
256.59	80.81
256.823	89.81
257.056	91.81
257.289	87.81
257.521	108.81
257.754	84.81
257.987	86.81
258.22	97.81
258.452	94.81
258.685	92.81
258.918	77.81
259.151	75.81
259.383	98.81
259.616	81.81
259.849	92.81
260.081	88.81
260.314	94.81
260.547	92.81
260.779	90.81
261.012	80.81
261.244	88.81
261.477	92.81
261.71	100.81
261.942	95.81
262.175	70.81
262.407	98.81
262.64	82.81
262.872	91.81
263.105	90.81
263.337	90.81
263.57	79.81
263.802	86.81
264.035	84.81
264.267	90.81
264.499	86.81
264.732	87.81
264.964	85.81
265.197	81.81
265.429	114.81
265.661	89.81
265.894	77.81
266.126	98.81
266.358	84.81
266.591	80.81
266.823	91.81
267.055	80.81
267.287	99.81
267.52	82.81
267.752	82.81
267.984	83.81
268.216	91.81
268.448	87.81
268.681	71.81
268.913	93.81
269.145	91.81
269.377	89.81
269.609	90.81
269.841	91.81
270.073	98.81
270.306	96.81
270.538	84.81
270.77	98.81
271.002	97.81
271.234	95.81
271.466	111.81
271.698	100.81
271.93	94.81
272.162	79.81
272.394	93.81
272.626	90.81
272.858	98.81
273.09	91.81
273.322	98.81
273.553	82.81
273.785	95.81
274.017	100.81
274.249	85.81
274.481	75.81
274.713	93.81
274.945	87.81
275.176	95.81
275.408	107.81
275.64	105.81
275.872	94.81
276.104	98.81
276.335	110.81
276.567	94.81
276.799	97.81
277.031	81.81
277.262	88.81
277.494	102.81
277.726	106.81
277.957	96.81
278.189	96.81
278.421	84.81
278.652	99.81
278.884	96.81
279.115	108.81
279.347	114.81
279.579	97.81
279.81	101.81
280.042	87.81
280.273	89.81
280.505	99.81
280.736	102.81
280.968	98.81
281.199	98.81
281.431	82.81
281.662	99.81
281.894	93.81
282.125	89.81
282.356	107.81
282.588	106.81
282.819	88.81
283.051	95.81
283.282	102.81
283.513	107.81
283.745	98.81
283.976	90.81
284.207	96.81
284.439	107.81
284.67	94.81
284.901	80.81
285.132	98.81
285.364	90.81
285.595	106.81
285.826	96.81
286.057	114.81
286.288	102.81
286.52	98.81
286.751	87.81
286.982	96.81
287.213	106.81
287.444	92.81
287.675	94.81
287.906	104.81
288.138	101.81
288.369	110.81
288.6	107.81
288.831	100.81
289.062	106.81
289.293	117.81
289.524	94.81
289.755	96.81
289.986	113.81
290.217	112.81
290.448	113.81
290.679	114.81
290.91	102.81
291.141	106.81
291.371	97.81
291.602	96.81
291.833	90.81
292.064	105.81
292.295	98.81
292.526	102.81
292.757	104.81
292.987	91.81
293.218	101.81
293.449	106.81
293.68	98.81
293.91	94.81
294.141	79.81
294.372	95.81
294.603	83.81
294.833	106.81
295.064	107.81
295.295	90.81
295.525	112.81
295.756	94.81
295.987	110.81
296.217	103.81
296.448	99.81
296.679	96.81
296.909	99.81
297.14	92.81
297.37	112.81
297.601	102.81
297.831	105.81
298.062	95.81
298.292	100.81
298.523	98.81
298.753	99.81
298.984	97.81
299.214	103.81
299.445	94.81
299.675	115.81
299.905	107.81
300.136	107.81
300.366	99.81
300.597	107.81
300.827	91.81
301.057	94.81
301.288	106.81
301.518	121.81
301.748	110.81
301.979	99.81
302.209	118.81
302.439	94.81
302.669	92.81
302.9	110.81
303.13	88.81
303.36	96.81
303.59	95.81
303.82	95.81
304.051	112.81
304.281	95.81
304.511	111.81
304.741	105.81
304.971	96.81
305.201	110.81
305.431	93.81
305.661	107.81
305.891	103.81
306.121	96.81
306.352	110.81
306.582	96.81
306.812	100.81
307.042	107.81
307.272	104.81
307.502	96.81
307.731	99.81
307.961	94.81
308.191	99.81
308.421	101.81
308.651	114.81
308.881	110.81
309.111	103.81
309.341	92.81
309.571	102.81
309.8	107.81
310.03	86.81
310.26	97.81
310.49	92.81
310.72	98.81
310.949	99.81
311.179	104.81
311.409	97.81
311.639	110.81
311.868	110.81
312.098	93.81
312.328	110.81
312.557	98.81
312.787	101.81
313.017	104.81
313.246	112.81
313.476	104.81
313.706	120.81
313.935	118.81
314.165	91.81
314.394	109.81
314.624	110.81
314.853	118.81
315.083	111.81
315.312	122.81
315.542	98.81
315.771	105.81
316.001	110.81
316.23	104.81
316.46	116.81
316.689	99.81
316.919	120.81
317.148	93.81
317.377	112.81
317.607	107.81
317.836	109.81
318.065	94.81
318.295	106.81
318.524	113.81
318.753	117.81
318.983	104.81
319.212	104.81
319.441	105.81
319.67	103.81
319.9	120.81
320.129	105.81
320.358	112.81
320.587	110.81
320.816	91.81
321.046	107.81
321.275	108.81
321.504	105.81
321.733	110.81
321.962	106.81
322.191	107.81
322.42	99.81
322.649	104.81
322.878	116.81
323.108	119.81
323.337	105.81
323.566	122.81
323.795	105.81
324.024	117.81
324.253	122.81
324.482	129.81
324.71	138.81
324.939	165.81
325.168	143.81
325.397	119.81
325.626	114.81
325.855	123.81
326.084	101.81
326.313	114.81
326.542	110.81
326.77	106.81
326.999	121.81
327.228	126.81
327.457	142.81
327.686	156.81
327.914	144.81
328.143	119.81
328.372	116.81
328.6	119.81
328.829	108.81
329.058	103.81
329.287	109.81
329.515	103.81
329.744	115.81
329.972	121.81
330.201	114.81
330.43	120.81
330.658	115.81
330.887	114.81
331.115	116.81
331.344	113.81
331.572	114.81
331.801	115.81
332.03	117.81
332.258	116.81
332.486	125.81
332.715	113.81
332.943	110.81
333.172	103.81
333.4	100.81
333.629	104.81
333.857	104.81
334.085	110.81
334.314	111.81
334.542	121.81
334.771	112.81
334.999	105.81
335.227	128.81
335.455	112.81
335.684	110.81
335.912	116.81
336.14	111.81
336.369	116.81
336.597	114.81
336.825	113.81
337.053	118.81
337.281	113.81
337.51	100.81
337.738	117.81
337.966	119.81
338.194	113.81
338.422	107.81
338.65	125.81
338.878	110.81
339.106	98.81
339.334	110.81
339.562	106.81
339.79	110.81
340.018	101.81
340.246	112.81
340.474	110.81
340.702	112.81
340.93	112.81
341.158	114.81
341.386	121.81
341.614	110.81
341.842	111.81
342.07	112.81
342.298	104.81
342.526	110.81
342.754	119.81
342.981	120.81
343.209	110.81
343.437	105.81
343.665	122.81
343.893	123.81
344.12	119.81
344.348	110.81
344.576	113.81
344.804	117.81
345.031	120.81
345.259	116.81
345.487	111.81
345.714	110.81
345.942	117.81
346.17	113.81
346.397	100.81
346.625	117.81
346.853	108.81
347.08	118.81
347.308	102.81
347.535	117.81
347.763	107.81
347.99	89.81
348.218	104.81
348.445	111.81
348.673	113.81
348.9	113.81
349.128	110.81
349.355	105.81
349.583	111.81
349.81	105.81
350.037	104.81
350.265	107.81
350.492	105.81
350.72	111.81
350.947	98.81
351.174	92.81
351.402	101.81
351.629	102.81
351.856	115.81
352.083	112.81
352.311	103.81
352.538	114.81
352.765	98.81
352.992	106.81
353.22	112.81
353.447	116.81
353.674	99.81
353.901	93.81
354.128	104.81
354.355	107.81
354.583	92.81
354.81	105.81
355.037	121.81
355.264	116.81
355.491	112.81
355.718	106.81
355.945	106.81
356.172	111.81
356.399	99.81
356.626	98.81
356.853	115.81
357.08	120.81
357.307	107.81
357.534	108.81
357.761	94.81
357.988	118.81
358.215	116.81
358.441	106.81
358.668	107.81
358.895	106.81
359.122	114.81
359.349	112.81
359.576	111.81
359.802	116.81
360.029	105.81
360.256	124.81
360.483	105.81
360.709	120.81
360.936	112.81
361.163	104.81
361.39	104.81
361.616	112.81
361.843	103.81
362.07	121.81
362.296	118.81
362.523	105.81
362.749	105.81
362.976	106.81
363.203	102.81
363.429	118.81
363.656	100.81
363.882	110.81
364.109	108.81
364.335	114.81
364.562	115.81
364.788	118.81
365.015	106.81
365.241	114.81
365.468	114.81
365.694	113.81
365.92	91.81
366.147	99.81
366.373	114.81
366.599	119.81
366.826	115.81
367.052	108.81
367.278	104.81
367.505	111.81
367.731	121.81
367.957	104.81
368.184	103.81
368.41	104.81
368.636	110.81
368.862	120.81
369.089	100.81
369.315	92.81
369.541	124.81
369.767	103.81
369.993	107.81
370.219	100.81
370.445	104.81
370.672	118.81
370.898	111.81
371.124	109.81
371.35	98.81
371.576	87.81
371.802	100.81
372.028	110.81
372.254	101.81
372.48	107.81
372.706	96.81
372.932	103.81
373.158	107.81
373.384	109.81
373.61	116.81
373.835	108.81
374.061	107.81
374.287	124.81
374.513	104.81
374.739	109.81
374.965	113.81
375.191	111.81
375.416	108.81
375.642	110.81
375.868	103.81
376.094	111.81
376.319	128.81
376.545	94.81
376.771	102.81
376.997	100.81
377.222	102.81
377.448	116.81
377.674	111.81
377.899	98.81
378.125	100.81
378.35	101.81
378.576	99.81
378.802	122.81
379.027	116.81
379.253	118.81
379.478	125.81
379.704	110.81
379.929	99.81
380.155	120.81
380.38	116.81
380.606	107.81
380.831	105.81
381.057	116.81
381.282	118.81
381.507	117.81
381.733	114.81
381.958	110.81
382.184	98.81
382.409	110.81
382.634	117.81
382.86	114.81
383.085	100.81
383.31	105.81
383.535	122.81
383.761	106.81
383.986	123.81
384.211	123.81
384.436	111.81
384.662	104.81
384.887	111.81
385.112	111.81
385.337	115.81
385.562	121.81
385.787	116.81
386.013	106.81
386.238	118.81
386.463	108.81
386.688	126.81
386.913	128.81
387.138	125.81
387.363	112.81
387.588	100.81
387.813	111.81
388.038	108.81
388.263	102.81
388.488	116.81
388.713	124.81
388.938	126.81
389.163	103.81
389.387	98.81
389.612	95.81
389.837	104.81
390.062	119.81
390.287	121.81
390.512	116.81
390.736	107.81
390.961	104.81
391.186	114.81
391.411	110.81
391.636	120.81
391.86	140.81
392.085	119.81
392.31	115.81
392.534	134.81
392.759	115.81
392.984	110.81
393.208	114.81
393.433	114.81
393.658	123.81
393.882	114.81
394.107	136.81
394.331	123.81
394.556	128.81
394.78	117.81
395.005	136.81
395.229	111.81
395.454	136.81
395.678	136.81
395.903	116.81
396.127	128.81
396.352	119.81
396.576	120.81
396.801	117.81
397.025	119.81
397.249	120.81
397.474	122.81
397.698	137.81
397.922	126.81
398.147	126.81
398.371	146.81
398.595	116.81
398.82	121.81
399.044	116.81
399.268	143.81
399.492	131.81
399.717	144.81
399.941	130.81
400.165	150.81
400.389	123.81
400.613	122.81
400.837	143.81
401.062	115.81
401.286	130.81
401.51	126.81
401.734	129.81
401.958	122.81
402.182	126.81
402.406	117.81
402.63	132.81
402.854	122.81
403.078	152.81
403.302	130.81
403.526	136.81
403.75	128.81
403.974	145.81
404.198	130.81
404.422	125.81
404.645	131.81
404.869	134.81
405.093	122.81
405.317	152.81
405.541	146.81
405.765	122.81
405.988	128.81
406.212	138.81
406.436	134.81
406.66	135.81
406.883	130.81
407.107	152.81
407.331	128.81
407.555	148.81
407.778	132.81
408.002	140.81
408.226	128.81
408.449	136.81
408.673	143.81
408.896	138.81
409.12	136.81
409.344	125.81
409.567	136.81
409.791	132.81
410.014	126.81
410.238	131.81
410.461	124.81
410.685	140.81
410.908	119.81
411.132	116.81
411.355	133.81
411.578	129.81
411.802	123.81
412.025	140.81
412.249	132.81
412.472	126.81
412.695	118.81
412.919	130.81
413.142	122.81
413.365	128.81
413.589	139.81
413.812	118.81
414.035	126.81
414.258	133.81
414.482	138.81
414.705	128.81
414.928	149.81
415.151	126.81
415.374	119.81
415.597	124.81
415.821	137.81
416.044	130.81
416.267	120.81
416.49	128.81
416.713	116.81
416.936	121.81
417.159	121.81
417.382	119.81
417.605	134.81
417.828	113.81
418.051	117.81
418.274	127.81
418.497	144.81
418.72	121.81
418.943	128.81
419.166	134.81
419.389	128.81
419.611	126.81
419.834	130.81
420.057	122.81
420.28	130.81
420.503	126.81
420.726	139.81
420.948	138.81
421.171	143.81
421.394	128.81
421.617	119.81
421.839	123.81
422.062	126.81
422.285	126.81
422.507	123.81
422.73	125.81
422.953	130.81
423.175	128.81
423.398	139.81
423.621	123.81
423.843	132.81
424.066	119.81
424.288	110.81
424.511	127.81
424.733	136.81
424.956	119.81
425.178	134.81
425.401	132.81
425.623	131.81
425.846	125.81
426.068	122.81
426.291	116.81
426.513	122.81
426.735	123.81
426.958	114.81
427.18	118.81
427.402	147.81
427.625	146.81
427.847	132.81
428.069	119.81
428.292	118.81
428.514	130.81
428.736	123.81
428.958	128.81
429.181	141.81
429.403	111.81
429.625	117.81
429.847	114.81
430.069	130.81
430.292	117.81
430.514	118.81
430.736	117.81
430.958	126.81
431.18	132.81
431.402	125.81
431.624	134.81
431.846	128.81
432.068	109.81
432.29	114.81
432.512	108.81
432.734	115.81
432.956	124.81
433.178	125.81
433.4	121.81
433.622	105.81
433.844	102.81
434.066	130.81
434.287	122.81
434.509	110.81
434.731	116.81
434.953	118.81
435.175	149.81
435.397	128.81
435.618	120.81
435.84	134.81
436.062	122.81
436.284	128.81
436.505	125.81
436.727	118.81
436.949	127.81
437.17	121.81
437.392	107.81
437.614	133.81
437.835	110.81
438.057	123.81
438.278	120.81
438.5	115.81
438.721	138.81
438.943	130.81
439.165	122.81
439.386	122.81
439.608	123.81
439.829	131.81
440.05	124.81
440.272	122.81
440.493	120.81
440.715	114.81
440.936	131.81
441.158	131.81
441.379	140.81
441.6	124.81
441.822	137.81
442.043	127.81
442.264	123.81
442.486	122.81
442.707	130.81
442.928	129.81
443.149	131.81
443.371	138.81
443.592	122.81
443.813	152.81
444.034	138.81
444.255	146.81
444.476	123.81
444.698	133.81
444.919	132.81
445.14	240.81
445.361	183.81
445.582	130.81
445.803	113.81
446.024	137.81
446.245	128.81
446.466	145.81
446.687	115.81
446.908	122.81
447.129	132.81
447.35	126.81
447.571	122.81
447.792	125.81
448.013	114.81
448.234	119.81
448.455	120.81
448.675	124.81
448.896	129.81
449.117	124.81
449.338	137.81
449.559	124.81
449.779	132.81
450	129.81
450.221	121.81
450.442	120.81
450.662	122.81
450.883	120.81
451.104	130.81
451.324	118.81
451.545	119.81
451.766	123.81
451.986	114.81
452.207	99.81
452.428	123.81
452.648	115.81
452.869	118.81
453.089	114.81
453.31	131.81
453.53	118.81
453.751	124.81
453.971	111.81
454.192	128.81
454.412	105.81
454.633	114.81
454.853	127.81
455.073	110.81
455.294	126.81
455.514	122.81
455.734	106.81
455.955	110.81
456.175	127.81
456.395	111.81
456.616	116.81
456.836	116.81
457.056	111.81
457.276	106.81
457.497	118.81
457.717	120.81
457.937	111.81
458.157	113.81
458.377	116.81
458.598	119.81
458.818	122.81
459.038	119.81
459.258	117.81
459.478	125.81
459.698	117.81
459.918	119.81
460.138	115.81
460.358	122.81
460.578	133.81
460.798	121.81
461.018	100.81
461.238	130.81
461.458	126.81
461.678	119.81
461.898	135.81
462.118	124.81
462.338	138.81
462.558	141.81
462.777	123.81
462.997	128.81
463.217	130.81
463.437	141.81
463.657	122.81
463.876	126.81
464.096	116.81
464.316	136.81
464.536	140.81
464.755	130.81
464.975	128.81
465.195	117.81
465.414	129.81
465.634	126.81
465.854	123.81
466.073	128.81
466.293	122.81
466.512	115.81
466.732	111.81
466.951	107.81
467.171	131.81
467.391	112.81
467.61	138.81
467.829	112.81
468.049	118.81
468.268	113.81
468.488	116.81
468.707	111.81
468.927	122.81
469.146	111.81
469.365	122.81
469.585	123.81
469.804	115.81
470.023	105.81
470.243	119.81
470.462	120.81
470.681	135.81
470.901	118.81
471.12	129.81
471.339	120.81
471.558	127.81
471.777	111.81
471.997	127.81
472.216	123.81
472.435	111.81
472.654	114.81
472.873	124.81
473.092	132.81
473.311	122.81
473.53	117.81
473.749	116.81
473.968	143.81
474.187	119.81
474.406	136.81
474.625	115.81
474.844	134.81
475.063	126.81
475.282	121.81
475.501	113.81
475.72	104.81
475.939	120.81
476.158	124.81
476.377	111.81
476.596	126.81
476.814	128.81
477.033	112.81
477.252	115.81
477.471	117.81
477.69	126.81
477.908	128.81
478.127	138.81
478.346	136.81
478.564	136.81
478.783	122.81
479.002	105.81
479.22	128.81
479.439	113.81
479.658	115.81
479.876	135.81
480.095	131.81
480.313	121.81
480.532	130.81
480.751	140.81
480.969	129.81
481.188	115.81
481.406	137.81
481.624	135.81
481.843	121.81
482.061	127.81
482.28	123.81
482.498	129.81
482.717	114.81
482.935	132.81
483.153	119.81
483.372	126.81
483.59	122.81
483.808	144.81
484.027	139.81
484.245	130.81
484.463	130.81
484.681	135.81
484.9	138.81
485.118	135.81
485.336	137.81
485.554	137.81
485.772	119.81
485.99	120.81
486.209	139.81
486.427	137.81
486.645	151.81
486.863	138.81
487.081	150.81
487.299	134.81
487.517	129.81
487.735	133.81
487.953	132.81
488.171	123.81
488.389	132.81
488.607	124.81
488.825	134.81
489.043	129.81
489.261	130.81
489.479	133.81
489.696	134.81
489.914	127.81
490.132	144.81
490.35	131.81
490.568	122.81
490.786	132.81
491.003	140.81
491.221	143.81
491.439	150.81
491.657	132.81
491.874	128.81
492.092	151.81
492.31	130.81
492.527	136.81
492.745	143.81
492.963	144.81
493.18	133.81
493.398	150.81
493.615	139.81
493.833	139.81
494.05	141.81
494.268	141.81
494.485	146.81
494.703	137.81
494.92	135.81
495.138	142.81
495.355	130.81
495.573	138.81
495.79	151.81
496.008	142.81
496.225	133.81
496.442	146.81
496.66	149.81
496.877	149.81
497.094	138.81
497.312	151.81
497.529	141.81
497.746	140.81
497.963	139.81
498.181	142.81
498.398	156.81
498.615	159.81
498.832	150.81
499.049	152.81
499.267	160.81
499.484	165.81
499.701	179.81
499.918	195.81
500.135	206.81
500.352	213.81
500.569	216.81
500.786	213.81
501.003	197.81
501.22	187.81
501.437	179.81
501.654	163.81
501.871	180.81
502.088	158.81
502.305	167.81
502.522	144.81
502.739	154.81
502.956	138.81
503.172	139.81
503.389	149.81
503.606	136.81
503.823	150.81
504.04	144.81
504.256	146.81
504.473	155.81
504.69	149.81
504.907	140.81
505.123	157.81
505.34	131.81
505.557	134.81
505.773	134.81
505.99	142.81
506.207	123.81
506.423	121.81
506.64	138.81
506.856	140.81
507.073	144.81
507.289	126.81
507.506	137.81
507.722	134.81
507.939	121.81
508.155	142.81
508.372	122.81
508.588	126.81
508.805	132.81
509.021	118.81
509.238	129.81
509.454	119.81
509.67	118.81
509.887	119.81
510.103	131.81
510.319	129.81
510.536	135.81
510.752	150.81
510.968	137.81
511.184	123.81
511.401	118.81
511.617	127.81
511.833	126.81
512.049	121.81
512.265	124.81
512.481	136.81
512.698	130.81
512.914	126.81
513.13	133.81
513.346	128.81
513.562	127.81
513.778	129.81
513.994	126.81
514.21	122.81
514.426	131.81
514.642	117.81
514.858	123.81
515.074	125.81
515.29	121.81
515.506	134.81
515.721	136.81
515.937	131.81
516.153	138.81
516.369	128.81
516.585	127.81
516.801	130.81
517.016	127.81
517.232	141.81
517.448	131.81
517.664	143.81
517.879	154.81
518.095	146.81
518.311	138.81
518.527	133.81
518.742	132.81
518.958	125.81
519.173	148.81
519.389	134.81
519.605	121.81
519.82	116.81
520.036	113.81
520.251	132.81
520.467	134.81
520.682	120.81
520.898	123.81
521.113	128.81
521.329	126.81
521.544	149.81
521.76	138.81
521.975	149.81
522.19	144.81
522.406	124.81
522.621	116.81
522.836	123.81
523.052	120.81
523.267	120.81
523.482	134.81
523.698	132.81
523.913	127.81
524.128	119.81
524.343	122.81
524.559	115.81
524.774	131.81
524.989	122.81
525.204	121.81
525.419	116.81
525.634	128.81
525.849	116.81
526.064	110.81
526.28	127.81
526.495	98.81
526.71	123.81
526.925	108.81
527.14	119.81
527.355	120.81
527.57	131.81
527.785	119.81
527.999	128.81
528.214	126.81
528.429	106.81
528.644	122.81
528.859	122.81
529.074	127.81
529.289	132.81
529.503	138.81
529.718	132.81
529.933	122.81
530.148	130.81
530.363	118.81
530.577	123.81
530.792	117.81
531.007	108.81
531.221	112.81
531.436	120.81
531.651	135.81
531.865	104.81
532.08	123.81
532.295	125.81
532.509	130.81
532.724	117.81
532.938	135.81
533.153	110.81
533.367	124.81
533.582	129.81
533.796	127.81
534.011	124.81
534.225	122.81
534.44	122.81
534.654	123.81
534.868	117.81
535.083	108.81
535.297	118.81
535.511	124.81
535.726	115.81
535.94	133.81
536.154	111.81
536.369	118.81
536.583	116.81
536.797	118.81
537.011	97.81
537.225	117.81
537.44	106.81
537.654	102.81
537.868	117.81
538.082	112.81
538.296	118.81
538.51	132.81
538.724	120.81
538.938	131.81
539.153	115.81
539.367	121.81
539.581	123.81
539.795	108.81
540.009	134.81
540.222	135.81
540.436	120.81
540.65	104.81
540.864	118.81
541.078	132.81
541.292	136.81
541.506	133.81
541.72	126.81
541.934	136.81
542.147	123.81
542.361	127.81
542.575	124.81
542.789	142.81
543.002	125.81
543.216	125.81
543.43	126.81
543.644	128.81
543.857	134.81
544.071	121.81
544.285	137.81
544.498	135.81
544.712	130.81
544.925	134.81
545.139	128.81
545.352	136.81
545.566	123.81
545.779	122.81
545.993	123.81
546.206	150.81
546.42	148.81
546.633	134.81
546.847	132.81
547.06	116.81
547.274	134.81
547.487	118.81
547.7	117.81
547.914	106.81
548.127	122.81
548.34	142.81
548.554	127.81
548.767	112.81
548.98	116.81
549.193	121.81
549.407	111.81
549.62	122.81
549.833	131.81
550.046	114.81
550.259	129.81
550.473	99.81
550.686	121.81
550.899	122.81
551.112	118.81
551.325	125.81
551.538	121.81
551.751	131.81
551.964	134.81
552.177	129.81
552.39	112.81
552.603	113.81
552.816	138.81
553.029	131.81
553.242	141.81
553.455	126.81
553.667	140.81
553.88	134.81
554.093	112.81
554.306	112.81
554.519	122.81
554.732	128.81
554.944	127.81
555.157	113.81
555.37	114.81
555.583	114.81
555.795	112.81
556.008	118.81
556.221	103.81
556.433	135.81
556.646	111.81
556.859	117.81
557.071	127.81
557.284	122.81
557.496	108.81
557.709	120.81
557.921	118.81
558.134	99.81
558.346	117.81
558.559	120.81
558.771	120.81
558.984	117.81
559.196	121.81
559.409	105.81
559.621	104.81
559.833	114.81
560.046	104.81
560.258	83.81
560.47	118.81
560.683	92.81
560.895	106.81
561.107	112.81
561.32	114.81
561.532	115.81
561.744	119.81
561.956	119.81
562.168	108.81
562.381	102.81
562.593	122.81
562.805	120.81
563.017	97.81
563.229	108.81
563.441	117.81
563.653	117.81
563.865	107.81
564.077	107.81
564.289	133.81
564.501	103.81
564.713	120.81
564.925	111.81
565.137	104.81
565.349	126.81
565.561	118.81
565.773	111.81
565.985	123.81
566.197	121.81
566.408	123.81
566.62	122.81
566.832	128.81
567.044	152.81
567.255	131.81
567.467	131.81
567.679	136.81
567.891	137.81
568.102	131.81
568.314	138.81
568.526	131.81
568.737	126.81
568.949	111.81
569.161	128.81
569.372	117.81
569.584	121.81
569.795	121.81
570.007	108.81
570.218	113.81
570.43	120.81
570.641	111.81
570.853	111.81
571.064	107.81
571.276	120.81
571.487	112.81
571.698	109.81
571.91	111.81
572.121	115.81
572.333	111.81
572.544	103.81
572.755	107.81
572.966	99.81
573.178	106.81
573.389	124.81
573.6	112.81
573.811	103.81
574.023	99.81
574.234	100.81
574.445	113.81
574.656	108.81
574.867	103.81
575.078	103.81
575.289	99.81
575.501	111.81
575.712	115.81
575.923	113.81
576.134	112.81
576.345	98.81
576.556	102.81
576.767	111.81
576.978	104.81
577.188	112.81
577.399	107.81
577.61	110.81
577.821	98.81
578.032	112.81
578.243	100.81
578.454	115.81
578.665	114.81
578.875	107.81
579.086	98.81
579.297	107.81
579.508	110.81
579.718	102.81
579.929	123.81
580.14	119.81
580.35	100.81
580.561	102.81
580.772	104.81
580.982	106.81
581.193	102.81
581.403	94.81
581.614	102.81
581.825	113.81
582.035	108.81
582.246	111.81
582.456	115.81
582.667	111.81
582.877	111.81
583.087	115.81
583.298	100.81
583.508	98.81
583.719	103.81
583.929	99.81
584.139	112.81
584.35	109.81
584.56	95.81
584.77	92.81
584.981	101.81
585.191	106.81
585.401	118.81
585.611	104.81
585.821	99.81
586.032	104.81
586.242	96.81
586.452	95.81
586.662	115.81
586.872	100.81
587.082	110.81
587.292	103.81
587.502	103.81
587.713	100.81
587.923	106.81
588.133	101.81
588.343	111.81
588.553	114.81
588.762	110.81
588.972	112.81
589.182	94.81
589.392	96.81
589.602	114.81
589.812	97.81
590.022	98.81
590.232	100.81
590.441	99.81
590.651	102.81
590.861	104.81
591.071	100.81
591.281	95.81
591.49	94.81
591.7	88.81
591.91	102.81
592.119	95.81
592.329	104.81
592.539	101.81
592.748	114.81
592.958	114.81
593.167	103.81
593.377	116.81
593.587	109.81
593.796	112.81
594.006	111.81
594.215	103.81
594.424	95.81
594.634	115.81
594.843	116.81
595.053	101.81
595.262	114.81
595.472	103.81
595.681	110.81
595.89	93.81
596.1	100.81
596.309	111.81
596.518	98.81
596.727	97.81
596.937	95.81
597.146	93.81
597.355	97.81
597.564	101.81
597.774	112.81
597.983	104.81
598.192	102.81
598.401	104.81
598.61	96.81
598.819	103.81
599.028	107.81
599.237	104.81
599.446	87.81
599.655	97.81
599.864	96.81
600.073	97.81
600.282	104.81
600.491	102.81
600.7	94.81
600.909	102.81
601.118	109.81
601.327	91.81
601.536	95.81
601.745	94.81
601.953	103.81
602.162	97.81
602.371	102.81
602.58	104.81
602.789	102.81
602.997	113.81
603.206	100.81
603.415	110.81
603.623	93.81
603.832	103.81
604.041	82.81
604.249	92.81
604.458	103.81
604.666	105.81
604.875	91.81
605.084	84.81
605.292	111.81
605.501	109.81
605.709	103.81
605.918	99.81
606.126	88.81
606.334	105.81
606.543	94.81
606.751	101.81
606.96	100.81
607.168	97.81
607.376	83.81
607.585	100.81
607.793	98.81
608.001	107.81
608.21	110.81
608.418	107.81
608.626	90.81
608.834	98.81
609.043	111.81
609.251	94.81
609.459	101.81
609.667	99.81
609.875	119.81
610.083	102.81
610.291	95.81
610.499	99.81
610.707	106.81
610.916	122.81
611.124	109.81
611.332	118.81
611.54	117.81
611.748	113.81
611.955	99.81
612.163	112.81
612.371	101.81
612.579	90.81
612.787	110.81
612.995	108.81
613.203	110.81
613.411	103.81
613.618	114.81
613.826	85.81
614.034	103.81
614.242	101.81
614.449	98.81
614.657	91.81
614.865	95.81
615.072	95.81
615.28	100.81
615.488	111.81
615.695	94.81
615.903	98.81
616.111	89.81
616.318	92.81
616.526	95.81
616.733	101.81
616.941	111.81
617.148	103.81
617.356	110.81
617.563	107.81
617.771	98.81
617.978	76.81
618.185	102.81
618.393	83.81
618.6	94.81
618.807	97.81
619.015	103.81
619.222	101.81
619.429	99.81
619.637	94.81
619.844	89.81
620.051	101.81
620.258	101.81
620.466	104.81
620.673	86.81
620.88	98.81
621.087	91.81
621.294	104.81
621.501	96.81
621.708	96.81
621.915	91.81
622.122	93.81
622.329	90.81
622.536	91.81
622.743	93.81
622.95	92.81
623.157	101.81
623.364	107.81
623.571	94.81
623.778	105.81
623.985	91.81
624.192	100.81
624.399	91.81
624.606	98.81
624.812	92.81
625.019	85.81
625.226	94.81
625.433	107.81
625.639	97.81
625.846	97.81
626.053	91.81
626.259	97.81
626.466	91.81
626.673	96.81
626.879	86.81
627.086	99.81
627.293	86.81
627.499	100.81
627.706	102.81
627.912	99.81
628.119	83.81
628.325	94.81
628.532	104.81
628.738	89.81
628.945	91.81
629.151	92.81
629.357	90.81
629.564	98.81
629.77	87.81
629.976	103.81
630.183	96.81
630.389	84.81
630.595	81.81
630.802	95.81
631.008	109.81
631.214	98.81
631.42	91.81
631.627	95.81
631.833	85.81
632.039	95.81
632.245	107.81
632.451	87.81
632.657	103.81
632.863	87.81
633.069	86.81
633.275	91.81
633.481	95.81
633.688	96.81
633.893	99.81
634.099	84.81
634.305	84.81
634.511	80.81
634.717	91.81
634.923	93.81
635.129	81.81
635.335	82.81
635.541	91.81
635.747	71.81
635.952	97.81
636.158	99.81
636.364	92.81
636.57	103.81
636.775	98.81
636.981	74.81
637.187	68.81
637.392	84.81
637.598	87.81
637.804	80.81
638.009	105.81
638.215	92.81
638.421	91.81
638.626	90.81
638.832	90.81
639.037	100.81
639.243	91.81
639.448	94.81
639.654	101.81
639.859	91.81
640.065	94.81
640.27	93.81
640.475	89.81
640.681	89.81
640.886	90.81
641.091	92.81
641.297	87.81
641.502	94.81
641.707	89.81
641.913	88.81
642.118	80.81
642.323	82.81
642.528	92.81
642.733	90.81
642.939	83.81
643.144	88.81
643.349	104.81
643.554	95.81
643.759	90.81
643.964	92.81
644.169	95.81
644.374	86.81
644.579	88.81
644.784	85.81
644.989	101.81
645.194	88.81
645.399	104.81
645.604	96.81
645.809	95.81
646.014	92.81
646.219	84.81
646.423	76.81
646.628	83.81
646.833	78.81
647.038	95.81
647.243	100.81
647.447	93.81
647.652	85.81
647.857	81.81
648.062	96.81
648.266	96.81
648.471	97.81
648.676	85.81
648.88	80.81
649.085	96.81
649.289	99.81
649.494	78.81
649.698	90.81
649.903	91.81
650.107	94.81
650.312	107.81
650.516	90.81
650.721	104.81
650.925	91.81
651.13	98.81
651.334	92.81
651.539	98.81
651.743	96.81
651.947	98.81
652.152	92.81
652.356	89.81
652.56	83.81
652.764	96.81
652.969	95.81
653.173	90.81
653.377	94.81
653.581	86.81
653.785	91.81
653.99	104.81
654.194	98.81
654.398	99.81
654.602	97.81
654.806	92.81
655.01	82.81
655.214	87.81
655.418	71.81
655.622	90.81
655.826	88.81
656.03	92.81
656.234	86.81
656.438	98.81
656.642	101.81
656.846	91.81
657.049	97.81
657.253	80.81
657.457	82.81
657.661	81.81
657.865	87.81
658.068	76.81
658.272	78.81
658.476	76.81
658.68	98.81
658.883	71.81
659.087	91.81
659.291	83.81
659.494	72.81
659.698	70.81
659.901	88.81
660.105	81.81
660.309	85.81
660.512	80.81
660.716	81.81
660.919	84.81
661.123	98.81
661.326	91.81
661.53	74.81
661.733	93.81
661.936	90.81
662.14	82.81
662.343	85.81
662.546	79.81
662.75	84.81
662.953	81.81
663.156	81.81
663.36	76.81
663.563	77.81
663.766	71.81
663.969	80.81
664.173	80.81
664.376	73.81
664.579	83.81
664.782	84.81
664.985	79.81
665.188	78.81
665.391	76.81
665.594	81.81
665.797	63.81
666	71.81
666.203	77.81
666.406	78.81
666.609	74.81
666.812	88.81
667.015	89.81
667.218	82.81
667.421	77.81
667.624	80.81
667.827	79.81
668.03	86.81
668.232	85.81
668.435	90.81
668.638	81.81
668.841	82.81
669.043	83.81
669.246	78.81
669.449	85.81
669.651	79.81
669.854	89.81
670.057	82.81
670.259	66.81
670.462	82.81
670.665	79.81
670.867	80.81
671.07	84.81
671.272	79.81
671.475	86.81
671.677	83.81
671.88	76.81
672.082	80.81
672.284	72.81
672.487	90.81
672.689	84.81
672.892	74.81
