Data from 1968.PennyLincolnUp.Lamp.En5.5.200Scan.071719.P1._HRD10591_14-49-07-969.txt Node
Date: Thu Jul 18 14:49:07 EDT 2019
User: cochatt
Spectrometer: HR+D1059
Trigger mode: 1
Integration Time (sec): 1.000000E-1
Scans to average: 1
Electric dark correction enabled: true
Nonlinearity correction enabled: false
Boxcar width: 0
XAxis mode: Wavelengths
Number of Pixels in Spectrum: 2048
>>>>>Begin Spectral Data<<<<<
223.165	-0.81
223.4	-0.81
223.635	-0.81
223.869	-15.81
224.104	-15.81
224.338	-16.81
224.573	-16.81
224.808	-12.81
225.042	0.19
225.277	-23.81
225.511	-2.81
225.746	-2.81
225.98	8.19
226.215	11.19
226.449	16.19
226.683	24.19
226.918	28.19
227.152	20.19
227.387	28.19
227.621	36.19
227.856	53.19
228.09	48.19
228.324	35.19
228.559	46.19
228.793	52.19
229.027	77.19
229.262	79.19
229.496	97.19
229.73	103.19
229.964	95.19
230.199	98.19
230.433	87.19
230.667	83.19
230.901	85.19
231.136	86.19
231.37	92.19
231.604	98.19
231.838	98.19
232.072	95.19
232.306	99.19
232.541	100.19
232.775	107.19
233.009	106.19
233.243	95.19
233.477	91.19
233.711	102.19
233.945	101.19
234.179	113.19
234.413	106.19
234.647	99.19
234.881	99.19
235.115	111.19
235.349	111.19
235.583	99.19
235.817	98.19
236.051	103.19
236.285	90.19
236.519	97.19
236.753	105.19
236.987	105.19
237.221	117.19
237.455	137.19
237.689	132.19
237.922	112.19
238.156	115.19
238.39	85.19
238.624	92.19
238.858	103.19
239.091	104.19
239.325	104.19
239.559	99.19
239.793	110.19
240.027	106.19
240.26	101.19
240.494	103.19
240.728	104.19
240.961	116.19
241.195	97.19
241.429	107.19
241.662	101.19
241.896	108.19
242.13	98.19
242.363	108.19
242.597	96.19
242.83	108.19
243.064	109.19
243.298	113.19
243.531	130.19
243.765	112.19
243.998	111.19
244.232	120.19
244.465	111.19
244.699	105.19
244.932	114.19
245.166	101.19
245.399	111.19
245.633	111.19
245.866	117.19
246.099	124.19
246.333	121.19
246.566	119.19
246.8	127.19
247.033	123.19
247.266	112.19
247.5	117.19
247.733	119.19
247.966	121.19
248.2	133.19
248.433	137.19
248.666	123.19
248.899	148.19
249.133	133.19
249.366	125.19
249.599	148.19
249.832	123.19
250.066	123.19
250.299	135.19
250.532	145.19
250.765	137.19
250.998	151.19
251.231	156.19
251.465	135.19
251.698	126.19
251.931	125.19
252.164	139.19
252.397	148.19
252.63	162.19
252.863	140.19
253.096	155.19
253.329	159.19
253.562	165.19
253.795	148.19
254.028	139.19
254.261	145.19
254.494	151.19
254.727	170.19
254.96	175.19
255.193	178.19
255.426	163.19
255.659	157.19
255.892	132.19
256.124	151.19
256.357	161.19
256.59	149.19
256.823	133.19
257.056	141.19
257.289	139.19
257.521	160.19
257.754	156.19
257.987	139.19
258.22	149.19
258.452	164.19
258.685	155.19
258.918	151.19
259.151	153.19
259.383	170.19
259.616	159.19
259.849	152.19
260.081	171.19
260.314	165.19
260.547	162.19
260.779	172.19
261.012	170.19
261.244	162.19
261.477	150.19
261.71	162.19
261.942	161.19
262.175	166.19
262.407	151.19
262.64	188.19
262.872	159.19
263.105	166.19
263.337	171.19
263.57	161.19
263.802	168.19
264.035	158.19
264.267	159.19
264.499	144.19
264.732	151.19
264.964	158.19
265.197	147.19
265.429	164.19
265.661	153.19
265.894	169.19
266.126	167.19
266.358	152.19
266.591	155.19
266.823	162.19
267.055	171.19
267.287	177.19
267.52	183.19
267.752	177.19
267.984	178.19
268.216	175.19
268.448	172.19
268.681	167.19
268.913	172.19
269.145	187.19
269.377	191.19
269.609	199.19
269.841	185.19
270.073	173.19
270.306	212.19
270.538	195.19
270.77	205.19
271.002	192.19
271.234	201.19
271.466	184.19
271.698	188.19
271.93	196.19
272.162	200.19
272.394	199.19
272.626	191.19
272.858	180.19
273.09	186.19
273.322	198.19
273.553	187.19
273.785	201.19
274.017	183.19
274.249	202.19
274.481	178.19
274.713	184.19
274.945	184.19
275.176	196.19
275.408	189.19
275.64	188.19
275.872	172.19
276.104	204.19
276.335	186.19
276.567	190.19
276.799	204.19
277.031	204.19
277.262	204.19
277.494	193.19
277.726	192.19
277.957	207.19
278.189	187.19
278.421	195.19
278.652	194.19
278.884	188.19
279.115	197.19
279.347	217.19
279.579	228.19
279.81	215.19
280.042	218.19
280.273	225.19
280.505	205.19
280.736	208.19
280.968	202.19
281.199	188.19
281.431	205.19
281.662	203.19
281.894	195.19
282.125	191.19
282.356	202.19
282.588	209.19
282.819	196.19
283.051	209.19
283.282	199.19
283.513	216.19
283.745	209.19
283.976	184.19
284.207	202.19
284.439	208.19
284.67	207.19
284.901	217.19
285.132	222.19
285.364	218.19
285.595	230.19
285.826	219.19
286.057	202.19
286.288	219.19
286.52	204.19
286.751	224.19
286.982	212.19
287.213	221.19
287.444	223.19
287.675	217.19
287.906	219.19
288.138	235.19
288.369	232.19
288.6	214.19
288.831	217.19
289.062	212.19
289.293	224.19
289.524	223.19
289.755	203.19
289.986	216.19
290.217	213.19
290.448	241.19
290.679	209.19
290.91	216.19
291.141	218.19
291.371	209.19
291.602	219.19
291.833	217.19
292.064	220.19
292.295	214.19
292.526	206.19
292.757	234.19
292.987	216.19
293.218	203.19
293.449	221.19
293.68	236.19
293.91	210.19
294.141	219.19
294.372	215.19
294.603	229.19
294.833	231.19
295.064	218.19
295.295	226.19
295.525	237.19
295.756	220.19
295.987	220.19
296.217	228.19
296.448	230.19
296.679	228.19
296.909	214.19
297.14	230.19
297.37	234.19
297.601	237.19
297.831	233.19
298.062	228.19
298.292	220.19
298.523	246.19
298.753	240.19
298.984	258.19
299.214	232.19
299.445	242.19
299.675	251.19
299.905	239.19
300.136	263.19
300.366	244.19
300.597	234.19
300.827	236.19
301.057	257.19
301.288	267.19
301.518	269.19
301.748	223.19
301.979	251.19
302.209	247.19
302.439	241.19
302.669	247.19
302.9	238.19
303.13	245.19
303.36	245.19
303.59	232.19
303.82	241.19
304.051	259.19
304.281	234.19
304.511	233.19
304.741	263.19
304.971	255.19
305.201	248.19
305.431	249.19
305.661	249.19
305.891	254.19
306.121	238.19
306.352	243.19
306.582	257.19
306.812	247.19
307.042	267.19
307.272	241.19
307.502	245.19
307.731	245.19
307.961	252.19
308.191	235.19
308.421	246.19
308.651	243.19
308.881	241.19
309.111	233.19
309.341	249.19
309.571	257.19
309.8	245.19
310.03	257.19
310.26	264.19
310.49	261.19
310.72	260.19
310.949	276.19
311.179	254.19
311.409	268.19
311.639	242.19
311.868	273.19
312.098	257.19
312.328	266.19
312.557	273.19
312.787	278.19
313.017	250.19
313.246	267.19
313.476	274.19
313.706	257.19
313.935	263.19
314.165	270.19
314.394	273.19
314.624	276.19
314.853	273.19
315.083	277.19
315.312	268.19
315.542	262.19
315.771	253.19
316.001	264.19
316.23	258.19
316.46	263.19
316.689	267.19
316.919	253.19
317.148	274.19
317.377	278.19
317.607	277.19
317.836	276.19
318.065	269.19
318.295	285.19
318.524	265.19
318.753	273.19
318.983	270.19
319.212	268.19
319.441	269.19
319.67	268.19
319.9	267.19
320.129	269.19
320.358	259.19
320.587	266.19
320.816	276.19
321.046	270.19
321.275	275.19
321.504	268.19
321.733	263.19
321.962	277.19
322.191	279.19
322.42	273.19
322.649	284.19
322.878	286.19
323.108	297.19
323.337	305.19
323.566	306.19
323.795	316.19
324.024	338.19
324.253	373.19
324.482	479.19
324.71	637.19
324.939	843.19
325.168	742.19
325.397	409.19
325.626	322.19
325.855	325.19
326.084	319.19
326.313	327.19
326.542	297.19
326.77	340.19
326.999	379.19
327.228	471.19
327.457	598.19
327.686	669.19
327.914	478.19
328.143	370.19
328.372	340.19
328.6	335.19
328.829	319.19
329.058	327.19
329.287	330.19
329.515	336.19
329.744	300.19
329.972	300.19
330.201	324.19
330.43	348.19
330.658	333.19
330.887	342.19
331.115	369.19
331.344	331.19
331.572	324.19
331.801	321.19
332.03	315.19
332.258	307.19
332.486	308.19
332.715	322.19
332.943	336.19
333.172	332.19
333.4	353.19
333.629	360.19
333.857	351.19
334.085	353.19
334.314	364.19
334.542	353.19
334.771	357.19
334.999	348.19
335.227	340.19
335.455	332.19
335.684	349.19
335.912	317.19
336.14	341.19
336.369	335.19
336.597	327.19
336.825	331.19
337.053	330.19
337.281	312.19
337.51	303.19
337.738	325.19
337.966	302.19
338.194	300.19
338.422	327.19
338.65	305.19
338.878	307.19
339.106	285.19
339.334	304.19
339.562	305.19
339.79	300.19
340.018	309.19
340.246	324.19
340.474	304.19
340.702	316.19
340.93	289.19
341.158	298.19
341.386	309.19
341.614	292.19
341.842	296.19
342.07	290.19
342.298	305.19
342.526	292.19
342.754	280.19
342.981	288.19
343.209	298.19
343.437	316.19
343.665	323.19
343.893	324.19
344.12	334.19
344.348	333.19
344.576	319.19
344.804	296.19
345.031	297.19
345.259	323.19
345.487	315.19
345.714	311.19
345.942	293.19
346.17	292.19
346.397	283.19
346.625	271.19
346.853	309.19
347.08	281.19
347.308	279.19
347.535	291.19
347.763	303.19
347.99	301.19
348.218	296.19
348.445	291.19
348.673	289.19
348.9	273.19
349.128	295.19
349.355	288.19
349.583	272.19
349.81	275.19
350.037	284.19
350.265	292.19
350.492	280.19
350.72	286.19
350.947	288.19
351.174	292.19
351.402	304.19
351.629	300.19
351.856	281.19
352.083	303.19
352.311	285.19
352.538	289.19
352.765	293.19
352.992	280.19
353.22	274.19
353.447	263.19
353.674	288.19
353.901	289.19
354.128	281.19
354.355	266.19
354.583	279.19
354.81	289.19
355.037	278.19
355.264	254.19
355.491	273.19
355.718	274.19
355.945	274.19
356.172	293.19
356.399	267.19
356.626	278.19
356.853	277.19
357.08	270.19
357.307	278.19
357.534	275.19
357.761	269.19
357.988	269.19
358.215	295.19
358.441	270.19
358.668	293.19
358.895	293.19
359.122	290.19
359.349	287.19
359.576	291.19
359.802	277.19
360.029	298.19
360.256	297.19
360.483	298.19
360.709	281.19
360.936	305.19
361.163	287.19
361.39	283.19
361.616	287.19
361.843	279.19
362.07	289.19
362.296	294.19
362.523	283.19
362.749	283.19
362.976	278.19
363.203	267.19
363.429	266.19
363.656	295.19
363.882	279.19
364.109	266.19
364.335	277.19
364.562	273.19
364.788	279.19
365.015	276.19
365.241	264.19
365.468	285.19
365.694	281.19
365.92	277.19
366.147	260.19
366.373	298.19
366.599	284.19
366.826	269.19
367.052	273.19
367.278	287.19
367.505	290.19
367.731	291.19
367.957	270.19
368.184	275.19
368.41	283.19
368.636	289.19
368.862	287.19
369.089	283.19
369.315	283.19
369.541	300.19
369.767	293.19
369.993	272.19
370.219	297.19
370.445	286.19
370.672	281.19
370.898	288.19
371.124	288.19
371.35	275.19
371.576	294.19
371.802	305.19
372.028	293.19
372.254	269.19
372.48	293.19
372.706	296.19
372.932	293.19
373.158	307.19
373.384	308.19
373.61	305.19
373.835	316.19
374.061	298.19
374.287	296.19
374.513	313.19
374.739	311.19
374.965	305.19
375.191	315.19
375.416	319.19
375.642	295.19
375.868	329.19
376.094	304.19
376.319	303.19
376.545	289.19
376.771	303.19
376.997	284.19
377.222	295.19
377.448	309.19
377.674	292.19
377.899	276.19
378.125	291.19
378.35	284.19
378.576	295.19
378.802	294.19
379.027	303.19
379.253	309.19
379.478	301.19
379.704	302.19
379.929	284.19
380.155	305.19
380.38	282.19
380.606	294.19
380.831	290.19
381.057	290.19
381.282	282.19
381.507	307.19
381.733	316.19
381.958	310.19
382.184	310.19
382.409	313.19
382.634	311.19
382.86	295.19
383.085	304.19
383.31	332.19
383.535	325.19
383.761	340.19
383.986	316.19
384.211	305.19
384.436	332.19
384.662	328.19
384.887	338.19
385.112	348.19
385.337	353.19
385.562	352.19
385.787	313.19
386.013	360.19
386.238	377.19
386.463	362.19
386.688	325.19
386.913	353.19
387.138	333.19
387.363	331.19
387.588	346.19
387.813	315.19
388.038	332.19
388.263	344.19
388.488	344.19
388.713	333.19
388.938	328.19
389.163	340.19
389.387	315.19
389.612	326.19
389.837	351.19
390.062	326.19
390.287	325.19
390.512	321.19
390.736	336.19
390.961	333.19
391.186	311.19
391.411	335.19
391.636	341.19
391.86	340.19
392.085	349.19
392.31	336.19
392.534	329.19
392.759	356.19
392.984	358.19
393.208	398.19
393.433	472.19
393.658	451.19
393.882	388.19
394.107	341.19
394.331	338.19
394.556	346.19
394.78	339.19
395.005	346.19
395.229	338.19
395.454	343.19
395.678	360.19
395.903	355.19
396.127	370.19
396.352	356.19
396.576	353.19
396.801	397.19
397.025	415.19
397.249	385.19
397.474	377.19
397.698	352.19
397.922	362.19
398.147	360.19
398.371	357.19
398.595	385.19
398.82	381.19
399.044	413.19
399.268	425.19
399.492	467.19
399.717	504.19
399.941	507.19
400.165	487.19
400.389	467.19
400.613	434.19
400.837	380.19
401.062	387.19
401.286	392.19
401.51	400.19
401.734	379.19
401.958	408.19
402.182	387.19
402.406	396.19
402.63	389.19
402.854	401.19
403.078	423.19
403.302	418.19
403.526	374.19
403.75	420.19
403.974	433.19
404.198	421.19
404.422	431.19
404.645	422.19
404.869	429.19
405.093	435.19
405.317	436.19
405.541	442.19
405.765	408.19
405.988	411.19
406.212	424.19
406.436	421.19
406.66	435.19
406.883	451.19
407.107	453.19
407.331	472.19
407.555	508.19
407.778	503.19
408.002	467.19
408.226	439.19
408.449	421.19
408.673	417.19
408.896	431.19
409.12	453.19
409.344	442.19
409.567	422.19
409.791	419.19
410.014	395.19
410.238	400.19
410.461	411.19
410.685	390.19
410.908	412.19
411.132	410.19
411.355	406.19
411.578	432.19
411.802	408.19
412.025	415.19
412.249	397.19
412.472	415.19
412.695	403.19
412.919	399.19
413.142	398.19
413.365	403.19
413.589	370.19
413.812	376.19
414.035	372.19
414.258	388.19
414.482	377.19
414.705	397.19
414.928	363.19
415.151	399.19
415.374	378.19
415.597	371.19
415.821	361.19
416.044	391.19
416.267	379.19
416.49	393.19
416.713	378.19
416.936	369.19
417.159	389.19
417.382	381.19
417.605	354.19
417.828	389.19
418.051	375.19
418.274	383.19
418.497	380.19
418.72	396.19
418.943	381.19
419.166	409.19
419.389	413.19
419.611	416.19
419.834	411.19
420.057	398.19
420.28	398.19
420.503	388.19
420.726	366.19
420.948	375.19
421.171	402.19
421.394	410.19
421.617	417.19
421.839	379.19
422.062	392.19
422.285	403.19
422.507	435.19
422.73	462.19
422.953	462.19
423.175	418.19
423.398	413.19
423.621	415.19
423.843	429.19
424.066	419.19
424.288	445.19
424.511	420.19
424.733	423.19
424.956	457.19
425.178	445.19
425.401	452.19
425.623	454.19
425.846	403.19
426.068	405.19
426.291	379.19
426.513	396.19
426.735	395.19
426.958	384.19
427.18	447.19
427.402	472.19
427.625	523.19
427.847	426.19
428.069	400.19
428.292	383.19
428.514	365.19
428.736	358.19
428.958	350.19
429.181	349.19
429.403	356.19
429.625	365.19
429.847	357.19
430.069	385.19
430.292	382.19
430.514	352.19
430.736	341.19
430.958	363.19
431.18	351.19
431.402	353.19
431.624	380.19
431.846	361.19
432.068	323.19
432.29	363.19
432.512	369.19
432.734	363.19
432.956	361.19
433.178	349.19
433.4	370.19
433.622	359.19
433.844	374.19
434.066	358.19
434.287	368.19
434.509	364.19
434.731	367.19
434.953	378.19
435.175	400.19
435.397	394.19
435.618	381.19
435.84	399.19
436.062	426.19
436.284	457.19
436.505	399.19
436.727	393.19
436.949	379.19
437.17	367.19
437.392	363.19
437.614	353.19
437.835	361.19
438.057	400.19
438.278	415.19
438.5	431.19
438.721	478.19
438.943	444.19
439.165	387.19
439.386	379.19
439.608	375.19
439.829	362.19
440.05	389.19
440.272	417.19
440.493	384.19
440.715	379.19
440.936	375.19
441.158	385.19
441.379	386.19
441.6	409.19
441.822	413.19
442.043	417.19
442.264	434.19
442.486	442.19
442.707	405.19
442.928	391.19
443.149	394.19
443.371	426.19
443.592	449.19
443.813	469.19
444.034	508.19
444.255	434.19
444.476	428.19
444.698	443.19
444.919	440.19
445.14	534.19
445.361	476.19
445.582	389.19
445.803	423.19
446.024	450.19
446.245	451.19
446.466	454.19
446.687	426.19
446.908	385.19
447.129	364.19
447.35	353.19
447.571	347.19
447.792	358.19
448.013	370.19
448.234	343.19
448.455	368.19
448.675	423.19
448.896	448.19
449.117	425.19
449.338	420.19
449.559	434.19
449.779	472.19
450	411.19
450.221	340.19
450.442	332.19
450.662	331.19
450.883	342.19
451.104	362.19
451.324	329.19
451.545	342.19
451.766	335.19
451.986	319.19
452.207	328.19
452.428	329.19
452.648	339.19
452.869	343.19
453.089	343.19
453.31	349.19
453.53	339.19
453.751	310.19
453.971	324.19
454.192	325.19
454.412	313.19
454.633	321.19
454.853	323.19
455.073	333.19
455.294	345.19
455.514	363.19
455.734	363.19
455.955	311.19
456.175	316.19
456.395	305.19
456.616	321.19
456.836	325.19
457.056	306.19
457.276	304.19
457.497	313.19
457.717	319.19
457.937	342.19
458.157	301.19
458.377	303.19
458.598	330.19
458.818	342.19
459.038	381.19
459.258	403.19
459.478	365.19
459.698	367.19
459.918	374.19
460.138	380.19
460.358	387.19
460.578	398.19
460.798	381.19
461.018	405.19
461.238	394.19
461.458	397.19
461.678	405.19
461.898	409.19
462.118	385.19
462.338	389.19
462.558	422.19
462.777	417.19
462.997	442.19
463.217	487.19
463.437	492.19
463.657	458.19
463.876	438.19
464.096	445.19
464.316	424.19
464.536	433.19
464.755	435.19
464.975	436.19
465.195	427.19
465.414	436.19
465.634	405.19
465.854	384.19
466.073	365.19
466.293	361.19
466.512	362.19
466.732	342.19
466.951	338.19
467.171	341.19
467.391	359.19
467.61	362.19
467.829	364.19
468.049	360.19
468.268	344.19
468.488	341.19
468.707	339.19
468.927	347.19
469.146	353.19
469.365	335.19
469.585	334.19
469.804	341.19
470.023	371.19
470.243	345.19
470.462	360.19
470.681	381.19
470.901	372.19
471.12	347.19
471.339	337.19
471.558	349.19
471.777	342.19
471.997	348.19
472.216	337.19
472.435	346.19
472.654	360.19
472.873	332.19
473.092	346.19
473.311	321.19
473.53	317.19
473.749	357.19
473.968	362.19
474.187	387.19
474.406	374.19
474.625	364.19
474.844	361.19
475.063	348.19
475.282	345.19
475.501	354.19
475.72	341.19
475.939	346.19
476.158	345.19
476.377	352.19
476.596	368.19
476.814	363.19
477.033	367.19
477.252	358.19
477.471	369.19
477.69	383.19
477.908	387.19
478.127	387.19
478.346	386.19
478.564	415.19
478.783	403.19
479.002	415.19
479.22	413.19
479.439	420.19
479.658	408.19
479.876	405.19
480.095	435.19
480.313	428.19
480.532	439.19
480.751	421.19
480.969	420.19
481.188	437.19
481.406	426.19
481.624	405.19
481.843	409.19
482.061	405.19
482.28	394.19
482.498	379.19
482.717	392.19
482.935	383.19
483.153	391.19
483.372	401.19
483.59	409.19
483.808	361.19
484.027	385.19
484.245	411.19
484.463	385.19
484.681	407.19
484.9	399.19
485.118	402.19
485.336	407.19
485.554	414.19
485.772	410.19
485.99	416.19
486.209	391.19
486.427	433.19
486.645	401.19
486.863	438.19
487.081	441.19
487.299	425.19
487.517	426.19
487.735	377.19
487.953	433.19
488.171	442.19
488.389	414.19
488.607	409.19
488.825	422.19
489.043	417.19
489.261	433.19
489.479	404.19
489.696	423.19
489.914	435.19
490.132	432.19
490.35	427.19
490.568	427.19
490.786	443.19
491.003	445.19
491.221	441.19
491.439	451.19
491.657	450.19
491.874	450.19
492.092	469.19
492.31	455.19
492.527	467.19
492.745	476.19
492.963	479.19
493.18	434.19
493.398	468.19
493.615	468.19
493.833	465.19
494.05	463.19
494.268	456.19
494.485	468.19
494.703	462.19
494.92	467.19
495.138	475.19
495.355	474.19
495.573	475.19
495.79	480.19
496.008	484.19
496.225	490.19
496.442	483.19
496.66	492.19
496.877	499.19
497.094	505.19
497.312	489.19
497.529	489.19
497.746	517.19
497.963	527.19
498.181	533.19
498.398	544.19
498.615	553.19
498.832	595.19
499.049	656.19
499.267	662.19
499.484	679.19
499.701	736.19
499.918	787.19
500.135	862.19
500.352	951.19
500.569	950.19
500.786	948.19
501.003	901.19
501.22	847.19
501.437	785.19
501.654	725.19
501.871	694.19
502.088	633.19
502.305	624.19
502.522	586.19
502.739	561.19
502.956	563.19
503.172	528.19
503.389	541.19
503.606	529.19
503.823	512.19
504.04	505.19
504.256	515.19
504.473	501.19
504.69	523.19
504.907	520.19
505.123	503.19
505.34	481.19
505.557	462.19
505.773	463.19
505.99	465.19
506.207	461.19
506.423	450.19
506.64	451.19
506.856	427.19
507.073	446.19
507.289	434.19
507.506	434.19
507.722	451.19
507.939	451.19
508.155	443.19
508.372	396.19
508.588	412.19
508.805	407.19
509.021	424.19
509.238	424.19
509.454	432.19
509.67	406.19
509.887	411.19
510.103	432.19
510.319	410.19
510.536	445.19
510.752	612.19
510.968	525.19
511.184	411.19
511.401	407.19
511.617	380.19
511.833	367.19
512.049	411.19
512.265	383.19
512.481	399.19
512.698	372.19
512.914	403.19
513.13	389.19
513.346	377.19
513.562	377.19
513.778	420.19
513.994	407.19
514.21	403.19
514.426	405.19
514.642	416.19
514.858	412.19
515.074	415.19
515.29	485.19
515.506	627.19
515.721	561.19
515.937	424.19
516.153	431.19
516.369	423.19
516.585	426.19
516.801	449.19
517.016	432.19
517.232	461.19
517.448	488.19
517.664	479.19
517.879	479.19
518.095	476.19
518.311	497.19
518.527	465.19
518.742	469.19
518.958	428.19
519.173	439.19
519.389	405.19
519.605	409.19
519.82	410.19
520.036	420.19
520.251	402.19
520.467	438.19
520.682	426.19
520.898	411.19
521.113	420.19
521.329	421.19
521.544	474.19
521.76	523.19
521.975	755.19
522.19	769.19
522.406	485.19
522.621	415.19
522.836	393.19
523.052	380.19
523.267	367.19
523.482	374.19
523.698	354.19
523.913	351.19
524.128	360.19
524.343	345.19
524.559	355.19
524.774	353.19
524.989	350.19
525.204	345.19
525.419	359.19
525.634	345.19
525.849	354.19
526.064	355.19
526.28	344.19
526.495	358.19
526.71	329.19
526.925	343.19
527.14	343.19
527.355	345.19
527.57	336.19
527.785	344.19
527.999	330.19
528.214	349.19
528.429	347.19
528.644	337.19
528.859	343.19
529.074	352.19
529.289	358.19
529.503	381.19
529.718	369.19
529.933	337.19
530.148	360.19
530.363	339.19
530.577	330.19
530.792	330.19
531.007	329.19
531.221	341.19
531.436	333.19
531.651	333.19
531.865	337.19
532.08	343.19
532.295	329.19
532.509	347.19
532.724	324.19
532.938	329.19
533.153	331.19
533.367	333.19
533.582	349.19
533.796	342.19
534.011	339.19
534.225	335.19
534.44	309.19
534.654	339.19
534.868	343.19
535.083	336.19
535.297	343.19
535.511	343.19
535.726	329.19
535.94	338.19
536.154	338.19
536.369	338.19
536.583	324.19
536.797	317.19
537.011	317.19
537.225	333.19
537.44	320.19
537.654	329.19
537.868	313.19
538.082	333.19
538.296	323.19
538.51	319.19
538.724	310.19
538.938	346.19
539.153	313.19
539.367	328.19
539.581	333.19
539.795	293.19
540.009	331.19
540.222	316.19
540.436	331.19
540.65	330.19
540.864	326.19
541.078	322.19
541.292	324.19
541.506	327.19
541.72	326.19
541.934	328.19
542.147	333.19
542.361	313.19
542.575	322.19
542.789	326.19
543.002	324.19
543.216	314.19
543.43	342.19
543.644	317.19
543.857	347.19
544.071	319.19
544.285	330.19
544.498	336.19
544.712	333.19
544.925	317.19
545.139	328.19
545.352	338.19
545.566	338.19
545.779	331.19
545.993	339.19
546.206	351.19
546.42	325.19
546.633	325.19
546.847	312.19
547.06	327.19
547.274	327.19
547.487	338.19
547.7	327.19
547.914	330.19
548.127	332.19
548.34	337.19
548.554	332.19
548.767	328.19
548.98	329.19
549.193	343.19
549.407	320.19
549.62	337.19
549.833	335.19
550.046	346.19
550.259	332.19
550.473	332.19
550.686	327.19
550.899	313.19
551.112	332.19
551.325	296.19
551.538	316.19
551.751	341.19
551.964	332.19
552.177	336.19
552.39	337.19
552.603	336.19
552.816	329.19
553.029	352.19
553.242	347.19
553.455	371.19
553.667	361.19
553.88	369.19
554.093	343.19
554.306	343.19
554.519	321.19
554.732	321.19
554.944	319.19
555.157	330.19
555.37	326.19
555.583	294.19
555.795	309.19
556.008	312.19
556.221	313.19
556.433	280.19
556.646	307.19
556.859	307.19
557.071	297.19
557.284	292.19
557.496	287.19
557.709	298.19
557.921	292.19
558.134	306.19
558.346	294.19
558.559	284.19
558.771	283.19
558.984	281.19
559.196	298.19
559.409	307.19
559.621	285.19
559.833	294.19
560.046	291.19
560.258	299.19
560.47	279.19
560.683	295.19
560.895	297.19
561.107	277.19
561.32	271.19
561.532	299.19
561.744	278.19
561.956	301.19
562.168	268.19
562.381	290.19
562.593	288.19
562.805	299.19
563.017	298.19
563.229	303.19
563.441	288.19
563.653	279.19
563.865	296.19
564.077	287.19
564.289	311.19
564.501	315.19
564.713	322.19
564.925	303.19
565.137	317.19
565.349	318.19
565.561	334.19
565.773	338.19
565.985	350.19
566.197	333.19
566.408	358.19
566.62	393.19
566.832	427.19
567.044	436.19
567.255	432.19
567.467	421.19
567.679	441.19
567.891	475.19
568.102	473.19
568.314	469.19
568.526	433.19
568.737	413.19
568.949	383.19
569.161	361.19
569.372	360.19
569.584	343.19
569.795	327.19
570.007	316.19
570.218	322.19
570.43	323.19
570.641	326.19
570.853	306.19
571.064	306.19
571.276	295.19
571.487	318.19
571.698	293.19
571.91	288.19
572.121	277.19
572.333	272.19
572.544	265.19
572.755	284.19
572.966	281.19
573.178	277.19
573.389	275.19
573.6	263.19
573.811	279.19
574.023	265.19
574.234	260.19
574.445	256.19
574.656	261.19
574.867	255.19
575.078	263.19
575.289	267.19
575.501	268.19
575.712	278.19
575.923	250.19
576.134	254.19
576.345	252.19
576.556	266.19
576.767	247.19
576.978	261.19
577.188	260.19
577.399	247.19
577.61	255.19
577.821	251.19
578.032	238.19
578.243	261.19
578.454	349.19
578.665	288.19
578.875	250.19
579.086	236.19
579.297	257.19
579.508	257.19
579.718	235.19
579.929	219.19
580.14	250.19
580.35	228.19
580.561	239.19
580.772	241.19
580.982	232.19
581.193	236.19
581.403	229.19
581.614	246.19
581.825	217.19
582.035	229.19
582.246	227.19
582.456	252.19
582.667	246.19
582.877	232.19
583.087	231.19
583.298	245.19
583.508	235.19
583.719	253.19
583.929	265.19
584.139	234.19
584.35	246.19
584.56	244.19
584.77	240.19
584.981	216.19
585.191	244.19
585.401	237.19
585.611	235.19
585.821	227.19
586.032	221.19
586.242	234.19
586.452	221.19
586.662	204.19
586.872	228.19
587.082	226.19
587.292	227.19
587.502	246.19
587.713	236.19
587.923	216.19
588.133	224.19
588.343	237.19
588.553	229.19
588.762	227.19
588.972	226.19
589.182	267.19
589.392	263.19
589.602	253.19
589.812	265.19
590.022	259.19
590.232	238.19
590.441	234.19
590.651	247.19
590.861	234.19
591.071	249.19
591.281	247.19
591.49	248.19
591.7	251.19
591.91	243.19
592.119	258.19
592.329	262.19
592.539	251.19
592.748	265.19
592.958	271.19
593.167	281.19
593.377	269.19
593.587	281.19
593.796	268.19
594.006	275.19
594.215	291.19
594.424	276.19
594.634	269.19
594.843	260.19
595.053	256.19
595.262	261.19
595.472	257.19
595.681	241.19
595.89	239.19
596.1	241.19
596.309	244.19
596.518	239.19
596.727	221.19
596.937	234.19
597.146	233.19
597.355	231.19
597.564	231.19
597.774	226.19
597.983	215.19
598.192	209.19
598.401	215.19
598.61	228.19
598.819	222.19
599.028	225.19
599.237	212.19
599.446	206.19
599.655	214.19
599.864	211.19
600.073	206.19
600.282	212.19
600.491	214.19
600.7	214.19
600.909	208.19
601.118	200.19
601.327	204.19
601.536	198.19
601.745	216.19
601.953	232.19
602.162	202.19
602.371	213.19
602.58	217.19
602.789	196.19
602.997	201.19
603.206	208.19
603.415	195.19
603.623	209.19
603.832	204.19
604.041	200.19
604.249	214.19
604.458	212.19
604.666	189.19
604.875	183.19
605.084	184.19
605.292	199.19
605.501	221.19
605.709	194.19
605.918	203.19
606.126	210.19
606.334	213.19
606.543	186.19
606.751	188.19
606.96	209.19
607.168	197.19
607.376	213.19
607.585	207.19
607.793	195.19
608.001	210.19
608.21	196.19
608.418	193.19
608.626	204.19
608.834	203.19
609.043	187.19
609.251	201.19
609.459	201.19
609.667	188.19
609.875	210.19
610.083	195.19
610.291	203.19
610.499	205.19
610.707	200.19
610.916	203.19
611.124	203.19
611.332	208.19
611.54	203.19
611.748	196.19
611.955	203.19
612.163	213.19
612.371	213.19
612.579	216.19
612.787	192.19
612.995	188.19
613.203	194.19
613.411	211.19
613.618	188.19
613.826	201.19
614.034	196.19
614.242	193.19
614.449	197.19
614.657	213.19
614.865	188.19
615.072	180.19
615.28	191.19
615.488	179.19
615.695	184.19
615.903	199.19
616.111	190.19
616.318	203.19
616.526	210.19
616.733	214.19
616.941	213.19
617.148	200.19
617.356	196.19
617.563	188.19
617.771	175.19
617.978	179.19
618.185	203.19
618.393	204.19
618.6	193.19
618.807	177.19
619.015	205.19
619.222	187.19
619.429	211.19
619.637	186.19
619.844	193.19
620.051	181.19
620.258	197.19
620.466	182.19
620.673	173.19
620.88	199.19
621.087	181.19
621.294	184.19
621.501	170.19
621.708	170.19
621.915	187.19
622.122	191.19
622.329	182.19
622.536	185.19
622.743	189.19
622.95	190.19
623.157	187.19
623.364	181.19
623.571	187.19
623.778	171.19
623.985	182.19
624.192	175.19
624.399	182.19
624.606	187.19
624.812	171.19
625.019	172.19
625.226	187.19
625.433	190.19
625.639	171.19
625.846	172.19
626.053	167.19
626.259	167.19
626.466	194.19
626.673	175.19
626.879	188.19
627.086	170.19
627.293	179.19
627.499	183.19
627.706	184.19
627.912	173.19
628.119	167.19
628.325	163.19
628.532	170.19
628.738	189.19
628.945	172.19
629.151	171.19
629.357	168.19
629.564	151.19
629.77	176.19
629.976	175.19
630.183	164.19
630.389	156.19
630.595	169.19
630.802	173.19
631.008	172.19
631.214	185.19
631.42	167.19
631.627	168.19
631.833	167.19
632.039	163.19
632.245	170.19
632.451	164.19
632.657	171.19
632.863	170.19
633.069	171.19
633.275	168.19
633.481	168.19
633.688	155.19
633.893	183.19
634.099	167.19
634.305	169.19
634.511	180.19
634.717	156.19
634.923	158.19
635.129	151.19
635.335	164.19
635.541	165.19
635.747	160.19
635.952	149.19
636.158	168.19
636.364	150.19
636.57	159.19
636.775	172.19
636.981	171.19
637.187	155.19
637.392	169.19
637.598	160.19
637.804	145.19
638.009	148.19
638.215	143.19
638.421	164.19
638.626	156.19
638.832	155.19
639.037	140.19
639.243	149.19
639.448	159.19
639.654	156.19
639.859	157.19
640.065	165.19
640.27	151.19
640.475	140.19
640.681	157.19
640.886	151.19
641.091	148.19
641.297	167.19
641.502	156.19
641.707	153.19
641.913	154.19
642.118	159.19
642.323	146.19
642.528	143.19
642.733	168.19
642.939	154.19
643.144	145.19
643.349	137.19
643.554	151.19
643.759	159.19
643.964	149.19
644.169	150.19
644.374	138.19
644.579	145.19
644.784	141.19
644.989	141.19
645.194	161.19
645.399	168.19
645.604	147.19
645.809	156.19
646.014	163.19
646.219	138.19
646.423	143.19
646.628	149.19
646.833	156.19
647.038	162.19
647.243	143.19
647.447	163.19
647.652	150.19
647.857	149.19
648.062	149.19
648.266	155.19
648.471	159.19
648.676	156.19
648.88	147.19
649.085	169.19
649.289	153.19
649.494	152.19
649.698	165.19
649.903	169.19
650.107	151.19
650.312	143.19
650.516	147.19
650.721	164.19
650.925	152.19
651.13	145.19
651.334	139.19
651.539	140.19
651.743	146.19
651.947	130.19
652.152	127.19
652.356	141.19
652.56	131.19
652.764	141.19
652.969	127.19
653.173	130.19
653.377	134.19
653.581	144.19
653.785	134.19
653.99	129.19
654.194	145.19
654.398	127.19
654.602	131.19
654.806	129.19
655.01	162.19
655.214	137.19
655.418	139.19
655.622	138.19
655.826	152.19
656.03	158.19
656.234	150.19
656.438	162.19
656.642	161.19
656.846	148.19
657.049	130.19
657.253	134.19
657.457	131.19
657.661	129.19
657.865	121.19
658.068	106.19
658.272	121.19
658.476	106.19
658.68	97.19
658.883	103.19
659.087	105.19
659.291	89.19
659.494	103.19
659.698	96.19
659.901	98.19
660.105	102.19
660.309	90.19
660.512	79.19
660.716	100.19
660.919	88.19
661.123	84.19
661.326	77.19
661.53	100.19
661.733	90.19
661.936	94.19
662.14	83.19
662.343	84.19
662.546	76.19
662.75	89.19
662.953	82.19
663.156	92.19
663.36	83.19
663.563	82.19
663.766	81.19
663.969	81.19
664.173	88.19
664.376	75.19
664.579	84.19
664.782	83.19
664.985	76.19
665.188	83.19
665.391	99.19
665.594	66.19
665.797	94.19
666	83.19
666.203	84.19
666.406	87.19
666.609	73.19
666.812	92.19
667.015	87.19
667.218	91.19
667.421	78.19
667.624	82.19
667.827	82.19
668.03	78.19
668.232	85.19
668.435	60.19
668.638	75.19
668.841	73.19
669.043	77.19
669.246	76.19
669.449	100.19
669.651	92.19
669.854	89.19
670.057	71.19
670.259	59.19
670.462	91.19
670.665	96.19
670.867	84.19
671.07	89.19
671.272	89.19
671.475	82.19
671.677	102.19
671.88	86.19
672.082	88.19
672.284	67.19
672.487	88.19
672.689	82.19
672.892	83.19
