Data from 1969.PennyLincolnUp.Lamp.En5.5.200Scan.071719.P1._HRD10591_14-56-32-975.txt Node
Date: Thu Jul 18 14:56:32 EDT 2019
User: cochatt
Spectrometer: HR+D1059
Trigger mode: 1
Integration Time (sec): 1.000000E-1
Scans to average: 1
Electric dark correction enabled: true
Nonlinearity correction enabled: false
Boxcar width: 0
XAxis mode: Wavelengths
Number of Pixels in Spectrum: 2048
>>>>>Begin Spectral Data<<<<<
223.165	-18.62
223.4	-18.62
223.635	-18.62
223.869	-18.62
224.104	-10.62
224.338	-11.62
224.573	-8.62
224.808	-9.62
225.042	-7.62
225.277	-1.62
225.511	-1.62
225.746	0.38
225.98	5.38
226.215	18.38
226.449	16.38
226.683	10.38
226.918	15.38
227.152	22.38
227.387	22.38
227.621	32.38
227.856	38.38
228.09	52.38
228.324	41.38
228.559	45.38
228.793	69.38
229.027	101.38
229.262	100.38
229.496	110.38
229.73	106.38
229.964	114.38
230.199	97.38
230.433	98.38
230.667	103.38
230.901	119.38
231.136	92.38
231.37	106.38
231.604	92.38
231.838	97.38
232.072	109.38
232.306	96.38
232.541	95.38
232.775	113.38
233.009	97.38
233.243	106.38
233.477	109.38
233.711	110.38
233.945	110.38
234.179	120.38
234.413	102.38
234.647	105.38
234.881	104.38
235.115	107.38
235.349	122.38
235.583	102.38
235.817	116.38
236.051	124.38
236.285	114.38
236.519	115.38
236.753	122.38
236.987	129.38
237.221	147.38
237.455	183.38
237.689	150.38
237.922	127.38
238.156	118.38
238.39	116.38
238.624	106.38
238.858	123.38
239.091	105.38
239.325	125.38
239.559	118.38
239.793	125.38
240.027	121.38
240.26	142.38
240.494	143.38
240.728	122.38
240.961	118.38
241.195	123.38
241.429	120.38
241.662	121.38
241.896	125.38
242.13	126.38
242.363	119.38
242.597	122.38
242.83	125.38
243.064	125.38
243.298	129.38
243.531	123.38
243.765	126.38
243.998	123.38
244.232	136.38
244.465	139.38
244.699	133.38
244.932	125.38
245.166	144.38
245.399	137.38
245.633	130.38
245.866	129.38
246.099	130.38
246.333	141.38
246.566	141.38
246.8	134.38
247.033	138.38
247.266	125.38
247.5	121.38
247.733	130.38
247.966	153.38
248.2	150.38
248.433	148.38
248.666	151.38
248.899	175.38
249.133	171.38
249.366	173.38
249.599	171.38
249.832	142.38
250.066	159.38
250.299	153.38
250.532	168.38
250.765	166.38
250.998	190.38
251.231	185.38
251.465	181.38
251.698	179.38
251.931	178.38
252.164	169.38
252.397	171.38
252.63	173.38
252.863	166.38
253.096	177.38
253.329	202.38
253.562	192.38
253.795	205.38
254.028	178.38
254.261	175.38
254.494	185.38
254.727	216.38
254.96	223.38
255.193	223.38
255.426	200.38
255.659	173.38
255.892	193.38
256.124	205.38
256.357	212.38
256.59	193.38
256.823	193.38
257.056	178.38
257.289	188.38
257.521	180.38
257.754	179.38
257.987	185.38
258.22	178.38
258.452	189.38
258.685	188.38
258.918	171.38
259.151	159.38
259.383	196.38
259.616	188.38
259.849	188.38
260.081	187.38
260.314	206.38
260.547	210.38
260.779	199.38
261.012	195.38
261.244	199.38
261.477	202.38
261.71	185.38
261.942	200.38
262.175	204.38
262.407	179.38
262.64	189.38
262.872	174.38
263.105	194.38
263.337	164.38
263.57	192.38
263.802	186.38
264.035	191.38
264.267	195.38
264.499	180.38
264.732	191.38
264.964	195.38
265.197	181.38
265.429	183.38
265.661	188.38
265.894	189.38
266.126	200.38
266.358	203.38
266.591	195.38
266.823	189.38
267.055	193.38
267.287	203.38
267.52	197.38
267.752	198.38
267.984	193.38
268.216	188.38
268.448	210.38
268.681	225.38
268.913	229.38
269.145	236.38
269.377	234.38
269.609	233.38
269.841	252.38
270.073	224.38
270.306	256.38
270.538	252.38
270.77	255.38
271.002	233.38
271.234	251.38
271.466	266.38
271.698	281.38
271.93	271.38
272.162	263.38
272.394	279.38
272.626	267.38
272.858	256.38
273.09	224.38
273.322	218.38
273.553	213.38
273.785	212.38
274.017	230.38
274.249	226.38
274.481	199.38
274.713	231.38
274.945	223.38
275.176	238.38
275.408	223.38
275.64	220.38
275.872	225.38
276.104	220.38
276.335	230.38
276.567	251.38
276.799	257.38
277.031	271.38
277.262	257.38
277.494	264.38
277.726	255.38
277.957	239.38
278.189	244.38
278.421	242.38
278.652	241.38
278.884	238.38
279.115	228.38
279.347	244.38
279.579	215.38
279.81	261.38
280.042	225.38
280.273	247.38
280.505	245.38
280.736	245.38
280.968	253.38
281.199	245.38
281.431	231.38
281.662	256.38
281.894	238.38
282.125	258.38
282.356	227.38
282.588	266.38
282.819	257.38
283.051	252.38
283.282	250.38
283.513	241.38
283.745	236.38
283.976	268.38
284.207	243.38
284.439	249.38
284.67	254.38
284.901	254.38
285.132	262.38
285.364	236.38
285.595	247.38
285.826	244.38
286.057	249.38
286.288	250.38
286.52	271.38
286.751	263.38
286.982	265.38
287.213	247.38
287.444	252.38
287.675	243.38
287.906	269.38
288.138	264.38
288.369	280.38
288.6	280.38
288.831	281.38
289.062	277.38
289.293	281.38
289.524	261.38
289.755	269.38
289.986	275.38
290.217	261.38
290.448	260.38
290.679	258.38
290.91	281.38
291.141	270.38
291.371	258.38
291.602	261.38
291.833	257.38
292.064	276.38
292.295	255.38
292.526	270.38
292.757	275.38
292.987	257.38
293.218	266.38
293.449	262.38
293.68	293.38
293.91	263.38
294.141	272.38
294.372	270.38
294.603	279.38
294.833	270.38
295.064	278.38
295.295	261.38
295.525	261.38
295.756	267.38
295.987	295.38
296.217	283.38
296.448	292.38
296.679	284.38
296.909	279.38
297.14	276.38
297.37	282.38
297.601	287.38
297.831	272.38
298.062	283.38
298.292	261.38
298.523	270.38
298.753	268.38
298.984	294.38
299.214	276.38
299.445	284.38
299.675	279.38
299.905	302.38
300.136	285.38
300.366	288.38
300.597	281.38
300.827	301.38
301.057	306.38
301.288	293.38
301.518	289.38
301.748	298.38
301.979	309.38
302.209	303.38
302.439	296.38
302.669	297.38
302.9	300.38
303.13	299.38
303.36	315.38
303.59	297.38
303.82	299.38
304.051	302.38
304.281	292.38
304.511	296.38
304.741	322.38
304.971	324.38
305.201	289.38
305.431	280.38
305.661	282.38
305.891	302.38
306.121	299.38
306.352	291.38
306.582	301.38
306.812	295.38
307.042	305.38
307.272	305.38
307.502	287.38
307.731	292.38
307.961	286.38
308.191	291.38
308.421	290.38
308.651	324.38
308.881	318.38
309.111	287.38
309.341	302.38
309.571	312.38
309.8	310.38
310.03	323.38
310.26	323.38
310.49	315.38
310.72	332.38
310.949	328.38
311.179	328.38
311.409	327.38
311.639	327.38
311.868	323.38
312.098	344.38
312.328	365.38
312.557	341.38
312.787	354.38
313.017	341.38
313.246	354.38
313.476	341.38
313.706	318.38
313.935	345.38
314.165	340.38
314.394	347.38
314.624	341.38
314.853	333.38
315.083	339.38
315.312	335.38
315.542	314.38
315.771	330.38
316.001	329.38
316.23	323.38
316.46	328.38
316.689	317.38
316.919	340.38
317.148	334.38
317.377	317.38
317.607	331.38
317.836	324.38
318.065	317.38
318.295	327.38
318.524	349.38
318.753	315.38
318.983	321.38
319.212	317.38
319.441	333.38
319.67	339.38
319.9	338.38
320.129	327.38
320.358	325.38
320.587	332.38
320.816	318.38
321.046	321.38
321.275	344.38
321.504	333.38
321.733	352.38
321.962	344.38
322.191	338.38
322.42	362.38
322.649	368.38
322.878	353.38
323.108	367.38
323.337	387.38
323.566	379.38
323.795	380.38
324.024	428.38
324.253	517.38
324.482	674.38
324.71	961.38
324.939	1269.38
325.168	1039.38
325.397	605.38
325.626	442.38
325.855	397.38
326.084	390.38
326.313	383.38
326.542	404.38
326.77	420.38
326.999	474.38
327.228	621.38
327.457	831.38
327.686	970.38
327.914	686.38
328.143	506.38
328.372	477.38
328.6	439.38
328.829	443.38
329.058	448.38
329.287	449.38
329.515	419.38
329.744	418.38
329.972	411.38
330.201	413.38
330.43	456.38
330.658	473.38
330.887	474.38
331.115	450.38
331.344	417.38
331.572	407.38
331.801	398.38
332.03	409.38
332.258	393.38
332.486	398.38
332.715	397.38
332.943	429.38
333.172	435.38
333.4	419.38
333.629	423.38
333.857	428.38
334.085	447.38
334.314	450.38
334.542	473.38
334.771	475.38
334.999	441.38
335.227	411.38
335.455	409.38
335.684	412.38
335.912	407.38
336.14	390.38
336.369	403.38
336.597	416.38
336.825	405.38
337.053	386.38
337.281	381.38
337.51	391.38
337.738	383.38
337.966	398.38
338.194	387.38
338.422	377.38
338.65	370.38
338.878	374.38
339.106	359.38
339.334	381.38
339.562	385.38
339.79	362.38
340.018	363.38
340.246	371.38
340.474	390.38
340.702	378.38
340.93	353.38
341.158	369.38
341.386	344.38
341.614	361.38
341.842	365.38
342.07	369.38
342.298	347.38
342.526	375.38
342.754	354.38
342.981	361.38
343.209	354.38
343.437	353.38
343.665	377.38
343.893	377.38
344.12	429.38
344.348	400.38
344.576	395.38
344.804	370.38
345.031	395.38
345.259	363.38
345.487	386.38
345.714	369.38
345.942	343.38
346.17	353.38
346.397	331.38
346.625	343.38
346.853	340.38
347.08	337.38
347.308	350.38
347.535	361.38
347.763	375.38
347.99	361.38
348.218	333.38
348.445	338.38
348.673	337.38
348.9	346.38
349.128	357.38
349.355	339.38
349.583	336.38
349.81	351.38
350.037	356.38
350.265	355.38
350.492	353.38
350.72	360.38
350.947	346.38
351.174	346.38
351.402	342.38
351.629	345.38
351.856	339.38
352.083	356.38
352.311	349.38
352.538	348.38
352.765	339.38
352.992	355.38
353.22	359.38
353.447	362.38
353.674	343.38
353.901	349.38
354.128	340.38
354.355	313.38
354.583	334.38
354.81	330.38
355.037	336.38
355.264	342.38
355.491	339.38
355.718	325.38
355.945	310.38
356.172	332.38
356.399	319.38
356.626	327.38
356.853	329.38
357.08	329.38
357.307	322.38
357.534	325.38
357.761	345.38
357.988	345.38
358.215	343.38
358.441	323.38
358.668	335.38
358.895	339.38
359.122	315.38
359.349	321.38
359.576	341.38
359.802	357.38
360.029	386.38
360.256	375.38
360.483	374.38
360.709	360.38
360.936	350.38
361.163	326.38
361.39	374.38
361.616	362.38
361.843	362.38
362.07	341.38
362.296	358.38
362.523	333.38
362.749	346.38
362.976	342.38
363.203	337.38
363.429	343.38
363.656	354.38
363.882	345.38
364.109	318.38
364.335	341.38
364.562	348.38
364.788	313.38
365.015	329.38
365.241	326.38
365.468	362.38
365.694	340.38
365.92	321.38
366.147	353.38
366.373	340.38
366.599	323.38
366.826	325.38
367.052	317.38
367.278	336.38
367.505	346.38
367.731	340.38
367.957	324.38
368.184	327.38
368.41	348.38
368.636	336.38
368.862	342.38
369.089	342.38
369.315	340.38
369.541	325.38
369.767	344.38
369.993	339.38
370.219	344.38
370.445	328.38
370.672	341.38
370.898	362.38
371.124	338.38
371.35	349.38
371.576	345.38
371.802	319.38
372.028	343.38
372.254	334.38
372.48	346.38
372.706	344.38
372.932	347.38
373.158	345.38
373.384	335.38
373.61	339.38
373.835	349.38
374.061	349.38
374.287	342.38
374.513	328.38
374.739	357.38
374.965	355.38
375.191	369.38
375.416	361.38
375.642	342.38
375.868	357.38
376.094	369.38
376.319	355.38
376.545	347.38
376.771	330.38
376.997	332.38
377.222	344.38
377.448	333.38
377.674	371.38
377.899	337.38
378.125	321.38
378.35	334.38
378.576	350.38
378.802	342.38
379.027	339.38
379.253	341.38
379.478	349.38
379.704	324.38
379.929	357.38
380.155	344.38
380.38	347.38
380.606	331.38
380.831	328.38
381.057	344.38
381.282	332.38
381.507	355.38
381.733	334.38
381.958	347.38
382.184	323.38
382.409	332.38
382.634	359.38
382.86	345.38
383.085	359.38
383.31	350.38
383.535	353.38
383.761	365.38
383.986	362.38
384.211	366.38
384.436	376.38
384.662	358.38
384.887	372.38
385.112	366.38
385.337	376.38
385.562	391.38
385.787	379.38
386.013	383.38
386.238	378.38
386.463	364.38
386.688	390.38
386.913	396.38
387.138	359.38
387.363	391.38
387.588	393.38
387.813	384.38
388.038	380.38
388.263	390.38
388.488	386.38
388.713	390.38
388.938	374.38
389.163	359.38
389.387	383.38
389.612	364.38
389.837	365.38
390.062	354.38
390.287	379.38
390.512	385.38
390.736	363.38
390.961	391.38
391.186	368.38
391.411	385.38
391.636	408.38
391.86	401.38
392.085	419.38
392.31	398.38
392.534	390.38
392.759	403.38
392.984	412.38
393.208	405.38
393.433	387.38
393.658	382.38
393.882	391.38
394.107	401.38
394.331	413.38
394.556	394.38
394.78	371.38
395.005	410.38
395.229	391.38
395.454	397.38
395.678	383.38
395.903	420.38
396.127	419.38
396.352	410.38
396.576	395.38
396.801	371.38
397.025	378.38
397.249	412.38
397.474	409.38
397.698	409.38
397.922	414.38
398.147	427.38
398.371	396.38
398.595	425.38
398.82	416.38
399.044	453.38
399.268	487.38
399.492	502.38
399.717	597.38
399.941	585.38
400.165	552.38
400.389	525.38
400.613	500.38
400.837	469.38
401.062	456.38
401.286	438.38
401.51	440.38
401.734	459.38
401.958	449.38
402.182	455.38
402.406	462.38
402.63	476.38
402.854	477.38
403.078	451.38
403.302	473.38
403.526	472.38
403.75	494.38
403.974	486.38
404.198	490.38
404.422	482.38
404.645	477.38
404.869	480.38
405.093	479.38
405.317	526.38
405.541	525.38
405.765	520.38
405.988	505.38
406.212	490.38
406.436	479.38
406.66	532.38
406.883	507.38
407.107	537.38
407.331	545.38
407.555	587.38
407.778	598.38
408.002	554.38
408.226	507.38
408.449	490.38
408.673	509.38
408.896	511.38
409.12	514.38
409.344	513.38
409.567	468.38
409.791	485.38
410.014	463.38
410.238	475.38
410.461	452.38
410.685	454.38
410.908	467.38
411.132	487.38
411.355	479.38
411.578	482.38
411.802	439.38
412.025	454.38
412.249	443.38
412.472	475.38
412.695	517.38
412.919	472.38
413.142	457.38
413.365	443.38
413.589	446.38
413.812	435.38
414.035	430.38
414.258	432.38
414.482	441.38
414.705	447.38
414.928	435.38
415.151	443.38
415.374	431.38
415.597	427.38
415.821	433.38
416.044	436.38
416.267	440.38
416.49	441.38
416.713	447.38
416.936	437.38
417.159	411.38
417.382	408.38
417.605	443.38
417.828	442.38
418.051	461.38
418.274	447.38
418.497	449.38
418.72	460.38
418.943	441.38
419.166	470.38
419.389	489.38
419.611	451.38
419.834	459.38
420.057	454.38
420.28	462.38
420.503	451.38
420.726	439.38
420.948	482.38
421.171	482.38
421.394	495.38
421.617	475.38
421.839	440.38
422.062	455.38
422.285	455.38
422.507	496.38
422.73	546.38
422.953	518.38
423.175	484.38
423.398	469.38
423.621	481.38
423.843	494.38
424.066	482.38
424.288	485.38
424.511	491.38
424.733	540.38
424.956	574.38
425.178	545.38
425.401	545.38
425.623	523.38
425.846	476.38
426.068	453.38
426.291	449.38
426.513	467.38
426.735	472.38
426.958	475.38
427.18	533.38
427.402	595.38
427.625	641.38
427.847	566.38
428.069	500.38
428.292	462.38
428.514	428.38
428.736	423.38
428.958	431.38
429.181	434.38
429.403	439.38
429.625	436.38
429.847	444.38
430.069	484.38
430.292	473.38
430.514	435.38
430.736	418.38
430.958	418.38
431.18	412.38
431.402	409.38
431.624	422.38
431.846	415.38
432.068	417.38
432.29	414.38
432.512	415.38
432.734	395.38
432.956	412.38
433.178	411.38
433.4	430.38
433.622	404.38
433.844	413.38
434.066	417.38
434.287	416.38
434.509	418.38
434.731	421.38
434.953	437.38
435.175	437.38
435.397	475.38
435.618	470.38
435.84	484.38
436.062	522.38
436.284	573.38
436.505	486.38
436.727	440.38
436.949	418.38
437.17	405.38
437.392	422.38
437.614	447.38
437.835	459.38
438.057	512.38
438.278	555.38
438.5	535.38
438.721	584.38
438.943	572.38
439.165	484.38
439.386	461.38
439.608	462.38
439.829	453.38
440.05	470.38
440.272	501.38
440.493	470.38
440.715	442.38
440.936	454.38
441.158	411.38
441.379	401.38
441.6	440.38
441.822	450.38
442.043	479.38
442.264	528.38
442.486	563.38
442.707	497.38
442.928	475.38
443.149	490.38
443.371	479.38
443.592	495.38
443.813	558.38
444.034	607.38
444.255	525.38
444.476	474.38
444.698	483.38
444.919	519.38
445.14	565.38
445.361	530.38
445.582	519.38
445.803	509.38
446.024	563.38
446.245	581.38
446.466	525.38
446.687	501.38
446.908	455.38
447.129	422.38
447.35	426.38
447.571	403.38
447.792	393.38
448.013	418.38
448.234	439.38
448.455	469.38
448.675	526.38
448.896	564.38
449.117	480.38
449.338	493.38
449.559	565.38
449.779	625.38
450	510.38
450.221	436.38
450.442	408.38
450.662	405.38
450.883	409.38
451.104	425.38
451.324	407.38
451.545	370.38
451.766	396.38
451.986	369.38
452.207	399.38
452.428	373.38
452.648	394.38
452.869	395.38
453.089	362.38
453.31	397.38
453.53	400.38
453.751	363.38
453.971	385.38
454.192	364.38
454.412	383.38
454.633	370.38
454.853	355.38
455.073	356.38
455.294	387.38
455.514	414.38
455.734	398.38
455.955	360.38
456.175	365.38
456.395	358.38
456.616	351.38
456.836	357.38
457.056	342.38
457.276	361.38
457.497	367.38
457.717	379.38
457.937	365.38
458.157	367.38
458.377	371.38
458.598	366.38
458.818	425.38
459.038	477.38
459.258	478.38
459.478	443.38
459.698	425.38
459.918	423.38
460.138	420.38
460.358	439.38
460.578	430.38
460.798	443.38
461.018	423.38
461.238	421.38
461.458	444.38
461.678	449.38
461.898	455.38
462.118	444.38
462.338	445.38
462.558	451.38
462.777	470.38
462.997	511.38
463.217	524.38
463.437	537.38
463.657	499.38
463.876	482.38
464.096	519.38
464.316	483.38
464.536	478.38
464.755	492.38
464.975	454.38
465.195	494.38
465.414	504.38
465.634	459.38
465.854	413.38
466.073	430.38
466.293	411.38
466.512	400.38
466.732	397.38
466.951	404.38
467.171	401.38
467.391	406.38
467.61	399.38
467.829	391.38
468.049	411.38
468.268	397.38
468.488	385.38
468.707	360.38
468.927	370.38
469.146	383.38
469.365	411.38
469.585	397.38
469.804	399.38
470.023	404.38
470.243	409.38
470.462	425.38
470.681	433.38
470.901	409.38
471.12	410.38
471.339	402.38
471.558	411.38
471.777	403.38
471.997	385.38
472.216	385.38
472.435	424.38
472.654	411.38
472.873	415.38
473.092	384.38
473.311	413.38
473.53	384.38
473.749	406.38
473.968	429.38
474.187	494.38
474.406	467.38
474.625	433.38
474.844	410.38
475.063	389.38
475.282	406.38
475.501	413.38
475.72	407.38
475.939	413.38
476.158	394.38
476.377	380.38
476.596	389.38
476.814	401.38
477.033	418.38
477.252	425.38
477.471	426.38
477.69	430.38
477.908	420.38
478.127	436.38
478.346	461.38
478.564	430.38
478.783	439.38
479.002	455.38
479.22	459.38
479.439	491.38
479.658	467.38
479.876	465.38
480.095	482.38
480.313	522.38
480.532	501.38
480.751	483.38
480.969	492.38
481.188	525.38
481.406	543.38
481.624	482.38
481.843	463.38
482.061	476.38
482.28	444.38
482.498	469.38
482.717	447.38
482.935	443.38
483.153	456.38
483.372	454.38
483.59	460.38
483.808	446.38
484.027	457.38
484.245	426.38
484.463	450.38
484.681	471.38
484.9	477.38
485.118	461.38
485.336	452.38
485.554	455.38
485.772	484.38
485.99	454.38
486.209	472.38
486.427	488.38
486.645	489.38
486.863	471.38
487.081	495.38
487.299	474.38
487.517	476.38
487.735	483.38
487.953	473.38
488.171	487.38
488.389	482.38
488.607	483.38
488.825	471.38
489.043	484.38
489.261	487.38
489.479	485.38
489.696	491.38
489.914	478.38
490.132	486.38
490.35	515.38
490.568	513.38
490.786	510.38
491.003	539.38
491.221	533.38
491.439	560.38
491.657	540.38
491.874	559.38
492.092	569.38
492.31	562.38
492.527	574.38
492.745	572.38
492.963	554.38
493.18	558.38
493.398	599.38
493.615	568.38
493.833	570.38
494.05	572.38
494.268	577.38
494.485	582.38
494.703	575.38
494.92	586.38
495.138	559.38
495.355	582.38
495.573	604.38
495.79	577.38
496.008	569.38
496.225	566.38
496.442	579.38
496.66	572.38
496.877	577.38
497.094	575.38
497.312	597.38
497.529	594.38
497.746	631.38
497.963	609.38
498.181	631.38
498.398	627.38
498.615	640.38
498.832	655.38
499.049	699.38
499.267	739.38
499.484	778.38
499.701	843.38
499.918	867.38
500.135	920.38
500.352	1027.38
500.569	1025.38
500.786	1007.38
501.003	970.38
501.22	893.38
501.437	859.38
501.654	848.38
501.871	806.38
502.088	729.38
502.305	702.38
502.522	693.38
502.739	674.38
502.956	631.38
503.172	627.38
503.389	590.38
503.606	596.38
503.823	589.38
504.04	600.38
504.256	597.38
504.473	568.38
504.69	590.38
504.907	573.38
505.123	548.38
505.34	553.38
505.557	553.38
505.773	543.38
505.99	535.38
506.207	533.38
506.423	531.38
506.64	525.38
506.856	507.38
507.073	533.38
507.289	539.38
507.506	527.38
507.722	531.38
507.939	534.38
508.155	518.38
508.372	503.38
508.588	501.38
508.805	498.38
509.021	510.38
509.238	511.38
509.454	498.38
509.67	495.38
509.887	483.38
510.103	479.38
510.319	486.38
510.536	530.38
510.752	807.38
510.968	695.38
511.184	464.38
511.401	484.38
511.617	475.38
511.833	474.38
512.049	460.38
512.265	478.38
512.481	474.38
512.698	457.38
512.914	452.38
513.13	462.38
513.346	459.38
513.562	458.38
513.778	443.38
513.994	445.38
514.21	473.38
514.426	470.38
514.642	500.38
514.858	493.38
515.074	568.38
515.29	630.38
515.506	878.38
515.721	731.38
515.937	546.38
516.153	506.38
516.369	501.38
516.585	506.38
516.801	500.38
517.016	515.38
517.232	507.38
517.448	520.38
517.664	531.38
517.879	563.38
518.095	528.38
518.311	549.38
518.527	546.38
518.742	513.38
518.958	498.38
519.173	487.38
519.389	478.38
519.605	478.38
519.82	482.38
520.036	483.38
520.251	481.38
520.467	517.38
520.682	496.38
520.898	505.38
521.113	500.38
521.329	520.38
521.544	568.38
521.76	710.38
521.975	1088.38
522.19	1078.38
522.406	630.38
522.621	505.38
522.836	466.38
523.052	461.38
523.267	430.38
523.482	429.38
523.698	419.38
523.913	418.38
524.128	443.38
524.343	428.38
524.559	421.38
524.774	419.38
524.989	428.38
525.204	427.38
525.419	412.38
525.634	405.38
525.849	403.38
526.064	406.38
526.28	410.38
526.495	386.38
526.71	389.38
526.925	385.38
527.14	402.38
527.355	390.38
527.57	400.38
527.785	389.38
527.999	377.38
528.214	381.38
528.429	393.38
528.644	392.38
528.859	374.38
529.074	398.38
529.289	406.38
529.503	451.38
529.718	439.38
529.933	405.38
530.148	397.38
530.363	380.38
530.577	389.38
530.792	369.38
531.007	367.38
531.221	379.38
531.436	392.38
531.651	397.38
531.865	388.38
532.08	381.38
532.295	368.38
532.509	375.38
532.724	350.38
532.938	389.38
533.153	356.38
533.367	367.38
533.582	381.38
533.796	375.38
534.011	376.38
534.225	383.38
534.44	372.38
534.654	378.38
534.868	373.38
535.083	372.38
535.297	389.38
535.511	376.38
535.726	390.38
535.94	383.38
536.154	388.38
536.369	381.38
536.583	345.38
536.797	371.38
537.011	364.38
537.225	353.38
537.44	362.38
537.654	360.38
537.868	378.38
538.082	363.38
538.296	379.38
538.51	377.38
538.724	373.38
538.938	370.38
539.153	362.38
539.367	362.38
539.581	361.38
539.795	358.38
540.009	368.38
540.222	356.38
540.436	357.38
540.65	370.38
540.864	365.38
541.078	355.38
541.292	379.38
541.506	375.38
541.72	375.38
541.934	365.38
542.147	369.38
542.361	375.38
542.575	359.38
542.789	355.38
543.002	364.38
543.216	366.38
543.43	374.38
543.644	384.38
543.857	357.38
544.071	365.38
544.285	385.38
544.498	366.38
544.712	369.38
544.925	355.38
545.139	360.38
545.352	371.38
545.566	345.38
545.779	367.38
545.993	370.38
546.206	377.38
546.42	359.38
546.633	381.38
546.847	368.38
547.06	358.38
547.274	374.38
547.487	357.38
547.7	362.38
547.914	385.38
548.127	371.38
548.34	368.38
548.554	374.38
548.767	371.38
548.98	360.38
549.193	363.38
549.407	379.38
549.62	373.38
549.833	369.38
550.046	370.38
550.259	348.38
550.473	366.38
550.686	371.38
550.899	369.38
551.112	364.38
551.325	361.38
551.538	378.38
551.751	343.38
551.964	355.38
552.177	361.38
552.39	367.38
552.603	370.38
552.816	366.38
553.029	369.38
553.242	379.38
553.455	381.38
553.667	409.38
553.88	393.38
554.093	382.38
554.306	385.38
554.519	360.38
554.732	366.38
554.944	362.38
555.157	345.38
555.37	342.38
555.583	317.38
555.795	355.38
556.008	341.38
556.221	330.38
556.433	346.38
556.646	323.38
556.859	319.38
557.071	331.38
557.284	333.38
557.496	315.38
557.709	323.38
557.921	307.38
558.134	311.38
558.346	315.38
558.559	323.38
558.771	337.38
558.984	314.38
559.196	321.38
559.409	325.38
559.621	314.38
559.833	321.38
560.046	319.38
560.258	310.38
560.47	314.38
560.683	311.38
560.895	322.38
561.107	309.38
561.32	309.38
561.532	325.38
561.744	301.38
561.956	300.38
562.168	305.38
562.381	327.38
562.593	323.38
562.805	330.38
563.017	321.38
563.229	329.38
563.441	319.38
563.653	310.38
563.865	306.38
564.077	326.38
564.289	313.38
564.501	324.38
564.713	335.38
564.925	329.38
565.137	345.38
565.349	342.38
565.561	348.38
565.773	363.38
565.985	357.38
566.197	380.38
566.408	377.38
566.62	413.38
566.832	427.38
567.044	454.38
567.255	459.38
567.467	445.38
567.679	463.38
567.891	481.38
568.102	482.38
568.314	450.38
568.526	430.38
568.737	409.38
568.949	399.38
569.161	381.38
569.372	343.38
569.584	359.38
569.795	326.38
570.007	329.38
570.218	356.38
570.43	336.38
570.641	326.38
570.853	319.38
571.064	302.38
571.276	319.38
571.487	305.38
571.698	315.38
571.91	306.38
572.121	306.38
572.333	307.38
572.544	282.38
572.755	295.38
572.966	293.38
573.178	290.38
573.389	301.38
573.6	271.38
573.811	275.38
574.023	270.38
574.234	277.38
574.445	295.38
574.656	279.38
574.867	285.38
575.078	272.38
575.289	280.38
575.501	267.38
575.712	264.38
575.923	271.38
576.134	278.38
576.345	277.38
576.556	274.38
576.767	251.38
576.978	275.38
577.188	255.38
577.399	269.38
577.61	245.38
577.821	253.38
578.032	255.38
578.243	291.38
578.454	401.38
578.665	338.38
578.875	278.38
579.086	258.38
579.297	261.38
579.508	254.38
579.718	263.38
579.929	270.38
580.14	263.38
580.35	255.38
580.561	254.38
580.772	255.38
580.982	251.38
581.193	252.38
581.403	230.38
581.614	239.38
581.825	240.38
582.035	245.38
582.246	258.38
582.456	259.38
582.667	250.38
582.877	236.38
583.087	243.38
583.298	259.38
583.508	236.38
583.719	246.38
583.929	254.38
584.139	258.38
584.35	251.38
584.56	243.38
584.77	227.38
584.981	232.38
585.191	241.38
585.401	233.38
585.611	245.38
585.821	247.38
586.032	251.38
586.242	253.38
586.452	261.38
586.662	257.38
586.872	242.38
587.082	247.38
587.292	249.38
587.502	244.38
587.713	241.38
587.923	241.38
588.133	257.38
588.343	231.38
588.553	243.38
588.762	241.38
588.972	235.38
589.182	237.38
589.392	234.38
589.602	242.38
589.812	252.38
590.022	259.38
590.232	266.38
590.441	245.38
590.651	228.38
590.861	236.38
591.071	242.38
591.281	235.38
591.49	237.38
591.7	264.38
591.91	258.38
592.119	258.38
592.329	250.38
592.539	274.38
592.748	286.38
592.958	264.38
593.167	278.38
593.377	269.38
593.587	286.38
593.796	287.38
594.006	279.38
594.215	284.38
594.424	274.38
594.634	277.38
594.843	267.38
595.053	265.38
595.262	255.38
595.472	248.38
595.681	255.38
595.89	251.38
596.1	243.38
596.309	248.38
596.518	261.38
596.727	260.38
596.937	239.38
597.146	235.38
597.355	220.38
597.564	220.38
597.774	235.38
597.983	220.38
598.192	246.38
598.401	238.38
598.61	227.38
598.819	228.38
599.028	212.38
599.237	231.38
599.446	215.38
599.655	230.38
599.864	236.38
600.073	213.38
600.282	216.38
600.491	216.38
600.7	207.38
600.909	199.38
601.118	215.38
601.327	206.38
601.536	211.38
601.745	220.38
601.953	215.38
602.162	207.38
602.371	206.38
602.58	226.38
602.789	220.38
602.997	228.38
603.206	206.38
603.415	222.38
603.623	225.38
603.832	205.38
604.041	210.38
604.249	208.38
604.458	213.38
604.666	217.38
604.875	202.38
605.084	196.38
605.292	212.38
605.501	214.38
605.709	204.38
605.918	210.38
606.126	201.38
606.334	211.38
606.543	213.38
606.751	195.38
606.96	212.38
607.168	217.38
607.376	212.38
607.585	191.38
607.793	203.38
608.001	193.38
608.21	209.38
608.418	210.38
608.626	208.38
608.834	202.38
609.043	204.38
609.251	213.38
609.459	195.38
609.667	220.38
609.875	212.38
610.083	201.38
610.291	222.38
610.499	213.38
610.707	206.38
610.916	207.38
611.124	214.38
611.332	217.38
611.54	215.38
611.748	213.38
611.955	230.38
612.163	200.38
612.371	226.38
612.579	200.38
612.787	209.38
612.995	219.38
613.203	218.38
613.411	220.38
613.618	211.38
613.826	219.38
614.034	212.38
614.242	213.38
614.449	200.38
614.657	200.38
614.865	204.38
615.072	211.38
615.28	219.38
615.488	214.38
615.695	203.38
615.903	213.38
616.111	201.38
616.318	213.38
616.526	198.38
616.733	201.38
616.941	201.38
617.148	186.38
617.356	217.38
617.563	206.38
617.771	208.38
617.978	210.38
618.185	199.38
618.393	218.38
618.6	189.38
618.807	216.38
619.015	183.38
619.222	195.38
619.429	203.38
619.637	196.38
619.844	194.38
620.051	188.38
620.258	210.38
620.466	202.38
620.673	187.38
620.88	206.38
621.087	187.38
621.294	189.38
621.501	189.38
621.708	180.38
621.915	186.38
622.122	205.38
622.329	196.38
622.536	213.38
622.743	195.38
622.95	181.38
623.157	183.38
623.364	194.38
623.571	179.38
623.778	190.38
623.985	186.38
624.192	167.38
624.399	182.38
624.606	189.38
624.812	191.38
625.019	183.38
625.226	169.38
625.433	187.38
625.639	179.38
625.846	189.38
626.053	163.38
626.259	188.38
626.466	188.38
626.673	188.38
626.879	158.38
627.086	178.38
627.293	174.38
627.499	186.38
627.706	179.38
627.912	184.38
628.119	171.38
628.325	181.38
628.532	187.38
628.738	177.38
628.945	189.38
629.151	170.38
629.357	170.38
629.564	169.38
629.77	155.38
629.976	171.38
630.183	174.38
630.389	178.38
630.595	182.38
630.802	163.38
631.008	170.38
631.214	166.38
631.42	170.38
631.627	187.38
631.833	166.38
632.039	157.38
632.245	147.38
632.451	182.38
632.657	153.38
632.863	175.38
633.069	178.38
633.275	179.38
633.481	167.38
633.688	165.38
633.893	165.38
634.099	168.38
634.305	149.38
634.511	164.38
634.717	165.38
634.923	162.38
635.129	152.38
635.335	168.38
635.541	184.38
635.747	170.38
635.952	165.38
636.158	171.38
636.364	184.38
636.57	164.38
636.775	159.38
636.981	171.38
637.187	172.38
637.392	161.38
637.598	163.38
637.804	169.38
638.009	154.38
638.215	167.38
638.421	161.38
638.626	171.38
638.832	148.38
639.037	148.38
639.243	164.38
639.448	157.38
639.654	146.38
639.859	165.38
640.065	174.38
640.27	152.38
640.475	161.38
640.681	148.38
640.886	160.38
641.091	143.38
641.297	149.38
641.502	159.38
641.707	159.38
641.913	149.38
642.118	138.38
642.323	163.38
642.528	161.38
642.733	148.38
642.939	146.38
643.144	150.38
643.349	158.38
643.554	165.38
643.759	145.38
643.964	137.38
644.169	150.38
644.374	158.38
644.579	149.38
644.784	158.38
644.989	141.38
645.194	149.38
645.399	144.38
645.604	149.38
645.809	142.38
646.014	153.38
646.219	161.38
646.423	140.38
646.628	150.38
646.833	157.38
647.038	158.38
647.243	154.38
647.447	143.38
647.652	157.38
647.857	163.38
648.062	169.38
648.266	155.38
648.471	150.38
648.676	161.38
648.88	152.38
649.085	153.38
649.289	152.38
649.494	142.38
649.698	149.38
649.903	138.38
650.107	155.38
650.312	166.38
650.516	141.38
650.721	139.38
650.925	137.38
651.13	143.38
651.334	132.38
651.539	140.38
651.743	146.38
651.947	134.38
652.152	134.38
652.356	131.38
652.56	111.38
652.764	129.38
652.969	141.38
653.173	131.38
653.377	132.38
653.581	127.38
653.785	127.38
653.99	148.38
654.194	125.38
654.398	129.38
654.602	114.38
654.806	126.38
655.01	148.38
655.214	128.38
655.418	134.38
655.622	133.38
655.826	128.38
656.03	122.38
656.234	134.38
656.438	135.38
656.642	129.38
656.846	118.38
657.049	113.38
657.253	124.38
657.457	123.38
657.661	120.38
657.865	111.38
658.068	121.38
658.272	113.38
658.476	98.38
658.68	102.38
658.883	113.38
659.087	113.38
659.291	102.38
659.494	104.38
659.698	94.38
659.901	91.38
660.105	107.38
660.309	92.38
660.512	89.38
660.716	102.38
660.919	88.38
661.123	116.38
661.326	94.38
661.53	94.38
661.733	104.38
661.936	89.38
662.14	75.38
662.343	78.38
662.546	73.38
662.75	101.38
662.953	84.38
663.156	87.38
663.36	85.38
663.563	76.38
663.766	79.38
663.969	85.38
664.173	107.38
664.376	70.38
664.579	68.38
664.782	85.38
664.985	94.38
665.188	92.38
665.391	88.38
665.594	81.38
665.797	85.38
666	87.38
666.203	67.38
666.406	72.38
666.609	78.38
666.812	102.38
667.015	89.38
667.218	92.38
667.421	89.38
667.624	87.38
667.827	79.38
668.03	75.38
668.232	83.38
668.435	76.38
668.638	75.38
668.841	74.38
669.043	82.38
669.246	75.38
669.449	84.38
669.651	79.38
669.854	80.38
670.057	75.38
670.259	79.38
670.462	74.38
670.665	91.38
670.867	85.38
671.07	70.38
671.272	79.38
671.475	88.38
671.677	97.38
671.88	74.38
672.082	94.38
672.284	79.38
672.487	74.38
672.689	79.38
672.892	83.38
