Data from 1969.PennyLincolnUp.Lamp.En5.5.200Scan.071719.P1._HRD10591_14-55-47-972.txt Node
Date: Thu Jul 18 14:55:47 EDT 2019
User: cochatt
Spectrometer: HR+D1059
Trigger mode: 1
Integration Time (sec): 1.000000E-1
Scans to average: 1
Electric dark correction enabled: true
Nonlinearity correction enabled: false
Boxcar width: 0
XAxis mode: Wavelengths
Number of Pixels in Spectrum: 2048
>>>>>Begin Spectral Data<<<<<
223.165	-12.5
223.4	-12.5
223.635	-12.5
223.869	-6.5
224.104	-20.5
224.338	-22.5
224.573	-22.5
224.808	-19.5
225.042	-4.5
225.277	-2.5
225.511	-10.5
225.746	4.5
225.98	5.5
226.215	14.5
226.449	16.5
226.683	24.5
226.918	17.5
227.152	38.5
227.387	35.5
227.621	39.5
227.856	40.5
228.09	67.5
228.324	51.5
228.559	62.5
228.793	63.5
229.027	101.5
229.262	88.5
229.496	98.5
229.73	108.5
229.964	112.5
230.199	101.5
230.433	92.5
230.667	118.5
230.901	101.5
231.136	110.5
231.37	99.5
231.604	112.5
231.838	102.5
232.072	91.5
232.306	103.5
232.541	99.5
232.775	101.5
233.009	108.5
233.243	127.5
233.477	105.5
233.711	92.5
233.945	106.5
234.179	103.5
234.413	113.5
234.647	106.5
234.881	110.5
235.115	112.5
235.349	105.5
235.583	116.5
235.817	113.5
236.051	127.5
236.285	121.5
236.519	113.5
236.753	131.5
236.987	128.5
237.221	156.5
237.455	185.5
237.689	151.5
237.922	121.5
238.156	112.5
238.39	119.5
238.624	111.5
238.858	122.5
239.091	117.5
239.325	87.5
239.559	122.5
239.793	128.5
240.027	122.5
240.26	121.5
240.494	134.5
240.728	143.5
240.961	138.5
241.195	134.5
241.429	129.5
241.662	127.5
241.896	120.5
242.13	117.5
242.363	110.5
242.597	123.5
242.83	131.5
243.064	120.5
243.298	137.5
243.531	127.5
243.765	126.5
243.998	134.5
244.232	131.5
244.465	127.5
244.699	132.5
244.932	151.5
245.166	137.5
245.399	148.5
245.633	135.5
245.866	131.5
246.099	127.5
246.333	151.5
246.566	128.5
246.8	140.5
247.033	132.5
247.266	154.5
247.5	155.5
247.733	150.5
247.966	156.5
248.2	152.5
248.433	143.5
248.666	151.5
248.899	168.5
249.133	176.5
249.366	184.5
249.599	181.5
249.832	176.5
250.066	153.5
250.299	162.5
250.532	178.5
250.765	176.5
250.998	185.5
251.231	204.5
251.465	183.5
251.698	185.5
251.931	170.5
252.164	167.5
252.397	171.5
252.63	175.5
252.863	166.5
253.096	179.5
253.329	206.5
253.562	196.5
253.795	194.5
254.028	184.5
254.261	169.5
254.494	188.5
254.727	217.5
254.96	235.5
255.193	219.5
255.426	208.5
255.659	192.5
255.892	204.5
256.124	204.5
256.357	195.5
256.59	202.5
256.823	186.5
257.056	198.5
257.289	169.5
257.521	187.5
257.754	191.5
257.987	188.5
258.22	173.5
258.452	184.5
258.685	196.5
258.918	175.5
259.151	187.5
259.383	206.5
259.616	206.5
259.849	194.5
260.081	215.5
260.314	220.5
260.547	227.5
260.779	197.5
261.012	197.5
261.244	191.5
261.477	188.5
261.71	185.5
261.942	198.5
262.175	203.5
262.407	194.5
262.64	190.5
262.872	191.5
263.105	187.5
263.337	189.5
263.57	192.5
263.802	195.5
264.035	210.5
264.267	183.5
264.499	174.5
264.732	206.5
264.964	204.5
265.197	211.5
265.429	191.5
265.661	178.5
265.894	208.5
266.126	197.5
266.358	197.5
266.591	207.5
266.823	198.5
267.055	203.5
267.287	207.5
267.52	210.5
267.752	210.5
267.984	198.5
268.216	208.5
268.448	204.5
268.681	202.5
268.913	224.5
269.145	253.5
269.377	256.5
269.609	253.5
269.841	241.5
270.073	249.5
270.306	243.5
270.538	256.5
270.77	277.5
271.002	270.5
271.234	253.5
271.466	268.5
271.698	250.5
271.93	273.5
272.162	261.5
272.394	243.5
272.626	249.5
272.858	241.5
273.09	243.5
273.322	244.5
273.553	237.5
273.785	231.5
274.017	233.5
274.249	228.5
274.481	228.5
274.713	220.5
274.945	241.5
275.176	225.5
275.408	224.5
275.64	220.5
275.872	245.5
276.104	251.5
276.335	237.5
276.567	238.5
276.799	245.5
277.031	260.5
277.262	272.5
277.494	283.5
277.726	272.5
277.957	241.5
278.189	255.5
278.421	236.5
278.652	245.5
278.884	251.5
279.115	238.5
279.347	228.5
279.579	236.5
279.81	222.5
280.042	246.5
280.273	252.5
280.505	233.5
280.736	256.5
280.968	236.5
281.199	239.5
281.431	258.5
281.662	237.5
281.894	245.5
282.125	242.5
282.356	254.5
282.588	265.5
282.819	283.5
283.051	251.5
283.282	250.5
283.513	248.5
283.745	261.5
283.976	260.5
284.207	254.5
284.439	269.5
284.67	267.5
284.901	259.5
285.132	253.5
285.364	243.5
285.595	261.5
285.826	262.5
286.057	268.5
286.288	252.5
286.52	261.5
286.751	265.5
286.982	264.5
287.213	259.5
287.444	269.5
287.675	280.5
287.906	279.5
288.138	275.5
288.369	273.5
288.6	269.5
288.831	252.5
289.062	263.5
289.293	257.5
289.524	259.5
289.755	276.5
289.986	261.5
290.217	257.5
290.448	261.5
290.679	271.5
290.91	271.5
291.141	261.5
291.371	270.5
291.602	271.5
291.833	259.5
292.064	251.5
292.295	260.5
292.526	277.5
292.757	267.5
292.987	271.5
293.218	275.5
293.449	281.5
293.68	284.5
293.91	282.5
294.141	276.5
294.372	271.5
294.603	276.5
294.833	265.5
295.064	287.5
295.295	272.5
295.525	257.5
295.756	293.5
295.987	279.5
296.217	290.5
296.448	296.5
296.679	287.5
296.909	279.5
297.14	264.5
297.37	275.5
297.601	273.5
297.831	281.5
298.062	285.5
298.292	273.5
298.523	307.5
298.753	292.5
298.984	278.5
299.214	291.5
299.445	297.5
299.675	281.5
299.905	293.5
300.136	299.5
300.366	287.5
300.597	302.5
300.827	293.5
301.057	289.5
301.288	304.5
301.518	303.5
301.748	317.5
301.979	325.5
302.209	284.5
302.439	289.5
302.669	303.5
302.9	299.5
303.13	311.5
303.36	300.5
303.59	314.5
303.82	327.5
304.051	301.5
304.281	299.5
304.511	313.5
304.741	303.5
304.971	304.5
305.201	319.5
305.431	299.5
305.661	314.5
305.891	310.5
306.121	296.5
306.352	311.5
306.582	326.5
306.812	280.5
307.042	291.5
307.272	306.5
307.502	303.5
307.731	307.5
307.961	327.5
308.191	307.5
308.421	295.5
308.651	301.5
308.881	302.5
309.111	302.5
309.341	285.5
309.571	310.5
309.8	313.5
310.03	327.5
310.26	314.5
310.49	318.5
310.72	334.5
310.949	324.5
311.179	339.5
311.409	319.5
311.639	337.5
311.868	329.5
312.098	323.5
312.328	345.5
312.557	347.5
312.787	341.5
313.017	344.5
313.246	349.5
313.476	328.5
313.706	332.5
313.935	335.5
314.165	341.5
314.394	346.5
314.624	348.5
314.853	345.5
315.083	349.5
315.312	330.5
315.542	326.5
315.771	331.5
316.001	335.5
316.23	331.5
316.46	331.5
316.689	325.5
316.919	329.5
317.148	353.5
317.377	351.5
317.607	339.5
317.836	344.5
318.065	332.5
318.295	320.5
318.524	336.5
318.753	330.5
318.983	352.5
319.212	345.5
319.441	343.5
319.67	338.5
319.9	333.5
320.129	347.5
320.358	327.5
320.587	342.5
320.816	350.5
321.046	349.5
321.275	347.5
321.504	343.5
321.733	341.5
321.962	360.5
322.191	372.5
322.42	359.5
322.649	380.5
322.878	368.5
323.108	366.5
323.337	390.5
323.566	405.5
323.795	423.5
324.024	444.5
324.253	482.5
324.482	668.5
324.71	969.5
324.939	1289.5
325.168	1079.5
325.397	596.5
325.626	475.5
325.855	422.5
326.084	413.5
326.313	383.5
326.542	398.5
326.77	416.5
326.999	516.5
327.228	612.5
327.457	863.5
327.686	955.5
327.914	667.5
328.143	489.5
328.372	451.5
328.6	449.5
328.829	451.5
329.058	457.5
329.287	443.5
329.515	415.5
329.744	402.5
329.972	437.5
330.201	439.5
330.43	441.5
330.658	465.5
330.887	484.5
331.115	468.5
331.344	397.5
331.572	398.5
331.801	408.5
332.03	416.5
332.258	407.5
332.486	389.5
332.715	413.5
332.943	416.5
333.172	428.5
333.4	428.5
333.629	436.5
333.857	452.5
334.085	462.5
334.314	446.5
334.542	449.5
334.771	488.5
334.999	469.5
335.227	431.5
335.455	415.5
335.684	409.5
335.912	404.5
336.14	389.5
336.369	384.5
336.597	403.5
336.825	419.5
337.053	403.5
337.281	403.5
337.51	365.5
337.738	396.5
337.966	389.5
338.194	385.5
338.422	375.5
338.65	384.5
338.878	380.5
339.106	393.5
339.334	383.5
339.562	367.5
339.79	375.5
340.018	376.5
340.246	389.5
340.474	378.5
340.702	369.5
340.93	369.5
341.158	379.5
341.386	379.5
341.614	378.5
341.842	376.5
342.07	369.5
342.298	387.5
342.526	358.5
342.754	355.5
342.981	351.5
343.209	376.5
343.437	379.5
343.665	395.5
343.893	400.5
344.12	389.5
344.348	406.5
344.576	395.5
344.804	387.5
345.031	379.5
345.259	396.5
345.487	391.5
345.714	366.5
345.942	362.5
346.17	367.5
346.397	359.5
346.625	363.5
346.853	350.5
347.08	355.5
347.308	343.5
347.535	350.5
347.763	352.5
347.99	379.5
348.218	377.5
348.445	370.5
348.673	360.5
348.9	356.5
349.128	362.5
349.355	349.5
349.583	350.5
349.81	342.5
350.037	349.5
350.265	346.5
350.492	353.5
350.72	341.5
350.947	333.5
351.174	346.5
351.402	362.5
351.629	361.5
351.856	357.5
352.083	373.5
352.311	373.5
352.538	379.5
352.765	361.5
352.992	375.5
353.22	357.5
353.447	332.5
353.674	354.5
353.901	356.5
354.128	331.5
354.355	342.5
354.583	346.5
354.81	338.5
355.037	331.5
355.264	333.5
355.491	344.5
355.718	341.5
355.945	345.5
356.172	326.5
356.399	329.5
356.626	333.5
356.853	319.5
357.08	334.5
357.307	344.5
357.534	342.5
357.761	338.5
357.988	348.5
358.215	346.5
358.441	341.5
358.668	333.5
358.895	351.5
359.122	351.5
359.349	335.5
359.576	364.5
359.802	358.5
360.029	365.5
360.256	373.5
360.483	376.5
360.709	356.5
360.936	364.5
361.163	344.5
361.39	359.5
361.616	361.5
361.843	354.5
362.07	346.5
362.296	338.5
362.523	346.5
362.749	349.5
362.976	334.5
363.203	341.5
363.429	341.5
363.656	311.5
363.882	324.5
364.109	340.5
364.335	334.5
364.562	345.5
364.788	359.5
365.015	342.5
365.241	338.5
365.468	355.5
365.694	336.5
365.92	342.5
366.147	318.5
366.373	326.5
366.599	328.5
366.826	342.5
367.052	313.5
367.278	327.5
367.505	338.5
367.731	350.5
367.957	327.5
368.184	339.5
368.41	349.5
368.636	366.5
368.862	355.5
369.089	348.5
369.315	337.5
369.541	341.5
369.767	347.5
369.993	350.5
370.219	326.5
370.445	360.5
370.672	348.5
370.898	347.5
371.124	351.5
371.35	338.5
371.576	353.5
371.802	353.5
372.028	353.5
372.254	350.5
372.48	346.5
372.706	352.5
372.932	360.5
373.158	337.5
373.384	352.5
373.61	347.5
373.835	340.5
374.061	342.5
374.287	382.5
374.513	347.5
374.739	363.5
374.965	368.5
375.191	352.5
375.416	362.5
375.642	360.5
375.868	339.5
376.094	345.5
376.319	336.5
376.545	343.5
376.771	320.5
376.997	348.5
377.222	343.5
377.448	371.5
377.674	357.5
377.899	341.5
378.125	344.5
378.35	344.5
378.576	349.5
378.802	335.5
379.027	340.5
379.253	359.5
379.478	348.5
379.704	345.5
379.929	344.5
380.155	356.5
380.38	342.5
380.606	357.5
380.831	350.5
381.057	337.5
381.282	335.5
381.507	326.5
381.733	355.5
381.958	352.5
382.184	343.5
382.409	328.5
382.634	353.5
382.86	339.5
383.085	379.5
383.31	359.5
383.535	353.5
383.761	365.5
383.986	355.5
384.211	365.5
384.436	364.5
384.662	385.5
384.887	390.5
385.112	378.5
385.337	392.5
385.562	394.5
385.787	392.5
386.013	398.5
386.238	423.5
386.463	387.5
386.688	394.5
386.913	395.5
387.138	397.5
387.363	400.5
387.588	360.5
387.813	368.5
388.038	388.5
388.263	401.5
388.488	384.5
388.713	367.5
388.938	389.5
389.163	378.5
389.387	394.5
389.612	383.5
389.837	372.5
390.062	375.5
390.287	375.5
390.512	363.5
390.736	416.5
390.961	381.5
391.186	382.5
391.411	383.5
391.636	417.5
391.86	392.5
392.085	389.5
392.31	411.5
392.534	417.5
392.759	402.5
392.984	389.5
393.208	379.5
393.433	384.5
393.658	407.5
393.882	389.5
394.107	382.5
394.331	371.5
394.556	383.5
394.78	400.5
395.005	391.5
395.229	390.5
395.454	400.5
395.678	422.5
395.903	416.5
396.127	416.5
396.352	392.5
396.576	400.5
396.801	380.5
397.025	381.5
397.249	404.5
397.474	404.5
397.698	427.5
397.922	416.5
398.147	408.5
398.371	420.5
398.595	429.5
398.82	451.5
399.044	461.5
399.268	484.5
399.492	542.5
399.717	584.5
399.941	580.5
400.165	586.5
400.389	551.5
400.613	492.5
400.837	472.5
401.062	457.5
401.286	456.5
401.51	423.5
401.734	457.5
401.958	457.5
402.182	463.5
402.406	465.5
402.63	445.5
402.854	466.5
403.078	480.5
403.302	469.5
403.526	483.5
403.75	473.5
403.974	488.5
404.198	478.5
404.422	508.5
404.645	480.5
404.869	499.5
405.093	510.5
405.317	523.5
405.541	551.5
405.765	525.5
405.988	494.5
406.212	502.5
406.436	495.5
406.66	529.5
406.883	493.5
407.107	527.5
407.331	562.5
407.555	610.5
407.778	615.5
408.002	553.5
408.226	539.5
408.449	524.5
408.673	505.5
408.896	491.5
409.12	537.5
409.344	509.5
409.567	485.5
409.791	470.5
410.014	454.5
410.238	464.5
410.461	466.5
410.685	475.5
410.908	465.5
411.132	486.5
411.355	522.5
411.578	472.5
411.802	462.5
412.025	459.5
412.249	465.5
412.472	489.5
412.695	505.5
412.919	479.5
413.142	450.5
413.365	437.5
413.589	427.5
413.812	424.5
414.035	434.5
414.258	431.5
414.482	437.5
414.705	435.5
414.928	451.5
415.151	433.5
415.374	444.5
415.597	420.5
415.821	455.5
416.044	417.5
416.267	441.5
416.49	424.5
416.713	432.5
416.936	458.5
417.159	427.5
417.382	431.5
417.605	452.5
417.828	453.5
418.051	450.5
418.274	473.5
418.497	449.5
418.72	448.5
418.943	468.5
419.166	453.5
419.389	480.5
419.611	473.5
419.834	479.5
420.057	480.5
420.28	478.5
420.503	447.5
420.726	440.5
420.948	483.5
421.171	477.5
421.394	522.5
421.617	453.5
421.839	457.5
422.062	465.5
422.285	475.5
422.507	500.5
422.73	552.5
422.953	519.5
423.175	495.5
423.398	477.5
423.621	467.5
423.843	492.5
424.066	485.5
424.288	470.5
424.511	513.5
424.733	522.5
424.956	590.5
425.178	548.5
425.401	544.5
425.623	560.5
425.846	496.5
426.068	466.5
426.291	455.5
426.513	450.5
426.735	463.5
426.958	502.5
427.18	564.5
427.402	586.5
427.625	637.5
427.847	570.5
428.069	507.5
428.292	497.5
428.514	433.5
428.736	410.5
428.958	416.5
429.181	427.5
429.403	439.5
429.625	417.5
429.847	455.5
430.069	495.5
430.292	480.5
430.514	442.5
430.736	429.5
430.958	408.5
431.18	402.5
431.402	408.5
431.624	399.5
431.846	431.5
432.068	428.5
432.29	435.5
432.512	407.5
432.734	410.5
432.956	418.5
433.178	434.5
433.4	429.5
433.622	414.5
433.844	408.5
434.066	399.5
434.287	435.5
434.509	434.5
434.731	443.5
434.953	429.5
435.175	444.5
435.397	488.5
435.618	451.5
435.84	472.5
436.062	540.5
436.284	580.5
436.505	478.5
436.727	449.5
436.949	435.5
437.17	435.5
437.392	414.5
437.614	428.5
437.835	461.5
438.057	516.5
438.278	565.5
438.5	561.5
438.721	631.5
438.943	589.5
439.165	497.5
439.386	451.5
439.608	463.5
439.829	463.5
440.05	468.5
440.272	499.5
440.493	473.5
440.715	455.5
440.936	443.5
441.158	453.5
441.379	444.5
441.6	449.5
441.822	484.5
442.043	488.5
442.264	533.5
442.486	581.5
442.707	483.5
442.928	453.5
443.149	473.5
443.371	520.5
443.592	518.5
443.813	568.5
444.034	600.5
444.255	556.5
444.476	531.5
444.698	496.5
444.919	510.5
445.14	615.5
445.361	551.5
445.582	510.5
445.803	549.5
446.024	556.5
446.245	607.5
446.466	520.5
446.687	484.5
446.908	472.5
447.129	458.5
447.35	412.5
447.571	412.5
447.792	403.5
448.013	415.5
448.234	438.5
448.455	462.5
448.675	527.5
448.896	599.5
449.117	492.5
449.338	497.5
449.559	566.5
449.779	603.5
450	502.5
450.221	436.5
450.442	409.5
450.662	411.5
450.883	423.5
451.104	445.5
451.324	428.5
451.545	406.5
451.766	411.5
451.986	395.5
452.207	366.5
452.428	400.5
452.648	397.5
452.869	388.5
453.089	382.5
453.31	422.5
453.53	401.5
453.751	378.5
453.971	387.5
454.192	408.5
454.412	383.5
454.633	355.5
454.853	383.5
455.073	376.5
455.294	382.5
455.514	425.5
455.734	422.5
455.955	368.5
456.175	369.5
456.395	373.5
456.616	363.5
456.836	350.5
457.056	366.5
457.276	348.5
457.497	381.5
457.717	368.5
457.937	376.5
458.157	378.5
458.377	390.5
458.598	396.5
458.818	420.5
459.038	502.5
459.258	503.5
459.478	447.5
459.698	444.5
459.918	426.5
460.138	424.5
460.358	436.5
460.578	442.5
460.798	461.5
461.018	439.5
461.238	450.5
461.458	455.5
461.678	432.5
461.898	447.5
462.118	433.5
462.338	447.5
462.558	468.5
462.777	475.5
462.997	489.5
463.217	525.5
463.437	528.5
463.657	499.5
463.876	483.5
464.096	478.5
464.316	490.5
464.536	494.5
464.755	483.5
464.975	479.5
465.195	496.5
465.414	539.5
465.634	469.5
465.854	435.5
466.073	428.5
466.293	415.5
466.512	397.5
466.732	393.5
466.951	410.5
467.171	409.5
467.391	408.5
467.61	405.5
467.829	420.5
468.049	406.5
468.268	400.5
468.488	418.5
468.707	395.5
468.927	381.5
469.146	397.5
469.365	387.5
469.585	389.5
469.804	412.5
470.023	397.5
470.243	413.5
470.462	425.5
470.681	424.5
470.901	424.5
471.12	428.5
471.339	401.5
471.558	402.5
471.777	405.5
471.997	388.5
472.216	404.5
472.435	417.5
472.654	399.5
472.873	399.5
473.092	390.5
473.311	387.5
473.53	401.5
473.749	381.5
473.968	446.5
474.187	501.5
474.406	493.5
474.625	421.5
474.844	396.5
475.063	398.5
475.282	397.5
475.501	404.5
475.72	410.5
475.939	391.5
476.158	427.5
476.377	442.5
476.596	401.5
476.814	428.5
477.033	407.5
477.252	408.5
477.471	428.5
477.69	428.5
477.908	447.5
478.127	445.5
478.346	441.5
478.564	474.5
478.783	474.5
479.002	460.5
479.22	467.5
479.439	460.5
479.658	480.5
479.876	479.5
480.095	498.5
480.313	517.5
480.532	508.5
480.751	503.5
480.969	515.5
481.188	527.5
481.406	560.5
481.624	501.5
481.843	481.5
482.061	476.5
482.28	462.5
482.498	452.5
482.717	446.5
482.935	468.5
483.153	456.5
483.372	461.5
483.59	473.5
483.808	478.5
484.027	462.5
484.245	459.5
484.463	444.5
484.681	440.5
484.9	459.5
485.118	485.5
485.336	481.5
485.554	461.5
485.772	469.5
485.99	478.5
486.209	470.5
486.427	479.5
486.645	494.5
486.863	486.5
487.081	483.5
487.299	474.5
487.517	496.5
487.735	471.5
487.953	475.5
488.171	481.5
488.389	478.5
488.607	492.5
488.825	479.5
489.043	500.5
489.261	491.5
489.479	490.5
489.696	504.5
489.914	487.5
490.132	524.5
490.35	515.5
490.568	511.5
490.786	539.5
491.003	528.5
491.221	527.5
491.439	564.5
491.657	566.5
491.874	577.5
492.092	566.5
492.31	581.5
492.527	576.5
492.745	596.5
492.963	560.5
493.18	594.5
493.398	585.5
493.615	591.5
493.833	575.5
494.05	584.5
494.268	581.5
494.485	581.5
494.703	588.5
494.92	607.5
495.138	565.5
495.355	586.5
495.573	587.5
495.79	592.5
496.008	574.5
496.225	597.5
496.442	577.5
496.66	576.5
496.877	599.5
497.094	601.5
497.312	584.5
497.529	593.5
497.746	629.5
497.963	618.5
498.181	639.5
498.398	659.5
498.615	658.5
498.832	689.5
499.049	731.5
499.267	754.5
499.484	807.5
499.701	829.5
499.918	853.5
500.135	929.5
500.352	998.5
500.569	994.5
500.786	999.5
501.003	994.5
501.22	926.5
501.437	891.5
501.654	804.5
501.871	801.5
502.088	749.5
502.305	707.5
502.522	680.5
502.739	655.5
502.956	643.5
503.172	631.5
503.389	612.5
503.606	612.5
503.823	599.5
504.04	594.5
504.256	606.5
504.473	600.5
504.69	607.5
504.907	603.5
505.123	569.5
505.34	557.5
505.557	581.5
505.773	551.5
505.99	541.5
506.207	549.5
506.423	534.5
506.64	532.5
506.856	539.5
507.073	537.5
507.289	530.5
507.506	529.5
507.722	557.5
507.939	536.5
508.155	519.5
508.372	515.5
508.588	513.5
508.805	525.5
509.021	515.5
509.238	518.5
509.454	504.5
509.67	521.5
509.887	487.5
510.103	491.5
510.319	486.5
510.536	548.5
510.752	808.5
510.968	656.5
511.184	492.5
511.401	474.5
511.617	469.5
511.833	452.5
512.049	460.5
512.265	473.5
512.481	465.5
512.698	481.5
512.914	461.5
513.13	461.5
513.346	444.5
513.562	469.5
513.778	504.5
513.994	465.5
514.21	477.5
514.426	485.5
514.642	494.5
514.858	493.5
515.074	544.5
515.29	631.5
515.506	853.5
515.721	712.5
515.937	554.5
516.153	533.5
516.369	517.5
516.585	525.5
516.801	503.5
517.016	512.5
517.232	502.5
517.448	543.5
517.664	560.5
517.879	530.5
518.095	531.5
518.311	538.5
518.527	530.5
518.742	507.5
518.958	524.5
519.173	485.5
519.389	475.5
519.605	465.5
519.82	495.5
520.036	488.5
520.251	512.5
520.467	517.5
520.682	502.5
520.898	516.5
521.113	502.5
521.329	517.5
521.544	575.5
521.76	677.5
521.975	1070.5
522.19	1052.5
522.406	637.5
522.621	504.5
522.836	461.5
523.052	471.5
523.267	437.5
523.482	432.5
523.698	405.5
523.913	428.5
524.128	415.5
524.343	417.5
524.559	415.5
524.774	405.5
524.989	421.5
525.204	417.5
525.419	401.5
525.634	414.5
525.849	410.5
526.064	387.5
526.28	396.5
526.495	398.5
526.71	386.5
526.925	385.5
527.14	398.5
527.355	387.5
527.57	391.5
527.785	389.5
527.999	388.5
528.214	410.5
528.429	392.5
528.644	403.5
528.859	413.5
529.074	401.5
529.289	414.5
529.503	445.5
529.718	443.5
529.933	401.5
530.148	396.5
530.363	399.5
530.577	394.5
530.792	398.5
531.007	388.5
531.221	382.5
531.436	393.5
531.651	385.5
531.865	383.5
532.08	398.5
532.295	401.5
532.509	390.5
532.724	379.5
532.938	380.5
533.153	365.5
533.367	390.5
533.582	377.5
533.796	393.5
534.011	379.5
534.225	391.5
534.44	373.5
534.654	391.5
534.868	394.5
535.083	371.5
535.297	373.5
535.511	377.5
535.726	381.5
535.94	393.5
536.154	386.5
536.369	383.5
536.583	371.5
536.797	383.5
537.011	364.5
537.225	358.5
537.44	373.5
537.654	371.5
537.868	378.5
538.082	351.5
538.296	357.5
538.51	365.5
538.724	396.5
538.938	385.5
539.153	362.5
539.367	383.5
539.581	403.5
539.795	364.5
540.009	358.5
540.222	357.5
540.436	368.5
540.65	363.5
540.864	372.5
541.078	395.5
541.292	376.5
541.506	367.5
541.72	379.5
541.934	390.5
542.147	391.5
542.361	357.5
542.575	385.5
542.789	377.5
543.002	383.5
543.216	377.5
543.43	363.5
543.644	387.5
543.857	369.5
544.071	401.5
544.285	381.5
544.498	379.5
544.712	353.5
544.925	365.5
545.139	378.5
545.352	383.5
545.566	379.5
545.779	388.5
545.993	373.5
546.206	387.5
546.42	390.5
546.633	357.5
546.847	363.5
547.06	379.5
547.274	353.5
547.487	366.5
547.7	380.5
547.914	380.5
548.127	371.5
548.34	386.5
548.554	367.5
548.767	371.5
548.98	380.5
549.193	357.5
549.407	349.5
549.62	373.5
549.833	382.5
550.046	386.5
550.259	380.5
550.473	368.5
550.686	365.5
550.899	364.5
551.112	353.5
551.325	374.5
551.538	374.5
551.751	371.5
551.964	351.5
552.177	343.5
552.39	357.5
552.603	380.5
552.816	395.5
553.029	373.5
553.242	404.5
553.455	383.5
553.667	382.5
553.88	409.5
554.093	391.5
554.306	380.5
554.519	385.5
554.732	374.5
554.944	364.5
555.157	366.5
555.37	351.5
555.583	337.5
555.795	343.5
556.008	350.5
556.221	342.5
556.433	351.5
556.646	359.5
556.859	334.5
557.071	316.5
557.284	321.5
557.496	325.5
557.709	337.5
557.921	325.5
558.134	320.5
558.346	330.5
558.559	327.5
558.771	340.5
558.984	334.5
559.196	316.5
559.409	315.5
559.621	347.5
559.833	300.5
560.046	332.5
560.258	324.5
560.47	324.5
560.683	315.5
560.895	317.5
561.107	312.5
561.32	306.5
561.532	337.5
561.744	325.5
561.956	323.5
562.168	320.5
562.381	326.5
562.593	341.5
562.805	329.5
563.017	303.5
563.229	343.5
563.441	337.5
563.653	325.5
563.865	336.5
564.077	332.5
564.289	339.5
564.501	334.5
564.713	342.5
564.925	337.5
565.137	360.5
565.349	335.5
565.561	345.5
565.773	355.5
565.985	368.5
566.197	399.5
566.408	410.5
566.62	423.5
566.832	427.5
567.044	435.5
567.255	447.5
567.467	442.5
567.679	450.5
567.891	490.5
568.102	473.5
568.314	481.5
568.526	441.5
568.737	416.5
568.949	401.5
569.161	376.5
569.372	384.5
569.584	363.5
569.795	339.5
570.007	345.5
570.218	367.5
570.43	355.5
570.641	325.5
570.853	318.5
571.064	309.5
571.276	316.5
571.487	342.5
571.698	311.5
571.91	307.5
572.121	317.5
572.333	297.5
572.544	285.5
572.755	292.5
572.966	280.5
573.178	268.5
573.389	295.5
573.6	294.5
573.811	291.5
574.023	273.5
574.234	279.5
574.445	271.5
574.656	292.5
574.867	283.5
575.078	283.5
575.289	281.5
575.501	279.5
575.712	288.5
575.923	271.5
576.134	271.5
576.345	279.5
576.556	277.5
576.767	278.5
576.978	272.5
577.188	284.5
577.399	276.5
577.61	278.5
577.821	277.5
578.032	261.5
578.243	282.5
578.454	437.5
578.665	350.5
578.875	271.5
579.086	257.5
579.297	250.5
579.508	271.5
579.718	267.5
579.929	251.5
580.14	252.5
580.35	269.5
580.561	262.5
580.772	259.5
580.982	261.5
581.193	263.5
581.403	247.5
581.614	254.5
581.825	253.5
582.035	261.5
582.246	253.5
582.456	244.5
582.667	235.5
582.877	247.5
583.087	250.5
583.298	246.5
583.508	244.5
583.719	256.5
583.929	241.5
584.139	252.5
584.35	254.5
584.56	251.5
584.77	244.5
584.981	251.5
585.191	259.5
585.401	268.5
585.611	247.5
585.821	249.5
586.032	241.5
586.242	239.5
586.452	227.5
586.662	252.5
586.872	267.5
587.082	240.5
587.292	244.5
587.502	258.5
587.713	248.5
587.923	246.5
588.133	248.5
588.343	233.5
588.553	245.5
588.762	240.5
588.972	231.5
589.182	249.5
589.392	256.5
589.602	265.5
589.812	266.5
590.022	248.5
590.232	247.5
590.441	261.5
590.651	246.5
590.861	277.5
591.071	245.5
591.281	246.5
591.49	260.5
591.7	228.5
591.91	270.5
592.119	280.5
592.329	286.5
592.539	285.5
592.748	280.5
592.958	282.5
593.167	277.5
593.377	284.5
593.587	272.5
593.796	284.5
594.006	320.5
594.215	304.5
594.424	292.5
594.634	287.5
594.843	281.5
595.053	266.5
595.262	271.5
595.472	268.5
595.681	263.5
595.89	248.5
596.1	257.5
596.309	266.5
596.518	248.5
596.727	227.5
596.937	243.5
597.146	229.5
597.355	236.5
597.564	247.5
597.774	224.5
597.983	219.5
598.192	227.5
598.401	214.5
598.61	234.5
598.819	228.5
599.028	224.5
599.237	222.5
599.446	215.5
599.655	228.5
599.864	238.5
600.073	213.5
600.282	249.5
600.491	244.5
600.7	220.5
600.909	217.5
601.118	214.5
601.327	232.5
601.536	217.5
601.745	236.5
601.953	217.5
602.162	223.5
602.371	209.5
602.58	231.5
602.789	224.5
602.997	230.5
603.206	235.5
603.415	221.5
603.623	225.5
603.832	210.5
604.041	225.5
604.249	217.5
604.458	212.5
604.666	213.5
604.875	212.5
605.084	230.5
605.292	223.5
605.501	224.5
605.709	228.5
605.918	221.5
606.126	230.5
606.334	227.5
606.543	216.5
606.751	213.5
606.96	224.5
607.168	220.5
607.376	212.5
607.585	190.5
607.793	197.5
608.001	196.5
608.21	214.5
608.418	219.5
608.626	198.5
608.834	213.5
609.043	226.5
609.251	211.5
609.459	202.5
609.667	217.5
609.875	229.5
610.083	205.5
610.291	208.5
610.499	223.5
610.707	229.5
610.916	205.5
611.124	230.5
611.332	221.5
611.54	218.5
611.748	219.5
611.955	225.5
612.163	225.5
612.371	220.5
612.579	204.5
612.787	209.5
612.995	193.5
613.203	212.5
613.411	198.5
613.618	213.5
613.826	209.5
614.034	209.5
614.242	212.5
614.449	204.5
614.657	189.5
614.865	220.5
615.072	205.5
615.28	207.5
615.488	205.5
615.695	212.5
615.903	213.5
616.111	226.5
616.318	216.5
616.526	215.5
616.733	199.5
616.941	209.5
617.148	193.5
617.356	221.5
617.563	222.5
617.771	207.5
617.978	203.5
618.185	212.5
618.393	199.5
618.6	198.5
618.807	205.5
619.015	210.5
619.222	216.5
619.429	191.5
619.637	198.5
619.844	186.5
620.051	187.5
620.258	197.5
620.466	189.5
620.673	209.5
620.88	199.5
621.087	186.5
621.294	200.5
621.501	204.5
621.708	204.5
621.915	218.5
622.122	203.5
622.329	187.5
622.536	204.5
622.743	202.5
622.95	195.5
623.157	169.5
623.364	195.5
623.571	194.5
623.778	215.5
623.985	197.5
624.192	196.5
624.399	194.5
624.606	180.5
624.812	197.5
625.019	183.5
625.226	191.5
625.433	188.5
625.639	199.5
625.846	186.5
626.053	183.5
626.259	184.5
626.466	175.5
626.673	213.5
626.879	182.5
627.086	189.5
627.293	174.5
627.499	195.5
627.706	186.5
627.912	193.5
628.119	185.5
628.325	188.5
628.532	200.5
628.738	184.5
628.945	186.5
629.151	185.5
629.357	166.5
629.564	167.5
629.77	177.5
629.976	174.5
630.183	169.5
630.389	176.5
630.595	184.5
630.802	185.5
631.008	164.5
631.214	184.5
631.42	184.5
631.627	181.5
631.833	163.5
632.039	162.5
632.245	166.5
632.451	173.5
632.657	163.5
632.863	171.5
633.069	164.5
633.275	172.5
633.481	165.5
633.688	163.5
633.893	156.5
634.099	148.5
634.305	169.5
634.511	146.5
634.717	174.5
634.923	173.5
635.129	156.5
635.335	152.5
635.541	170.5
635.747	179.5
635.952	155.5
636.158	185.5
636.364	173.5
636.57	162.5
636.775	171.5
636.981	176.5
637.187	163.5
637.392	170.5
637.598	175.5
637.804	164.5
638.009	164.5
638.215	152.5
638.421	162.5
638.626	162.5
638.832	164.5
639.037	167.5
639.243	160.5
639.448	158.5
639.654	168.5
639.859	157.5
640.065	145.5
640.27	169.5
640.475	179.5
640.681	145.5
640.886	155.5
641.091	155.5
641.297	154.5
641.502	165.5
641.707	156.5
641.913	146.5
642.118	161.5
642.323	141.5
642.528	152.5
642.733	145.5
642.939	170.5
643.144	167.5
643.349	146.5
643.554	160.5
643.759	155.5
643.964	157.5
644.169	156.5
644.374	154.5
644.579	165.5
644.784	147.5
644.989	155.5
645.194	151.5
645.399	141.5
645.604	153.5
645.809	144.5
646.014	161.5
646.219	150.5
646.423	146.5
646.628	155.5
646.833	172.5
647.038	159.5
647.243	160.5
647.447	154.5
647.652	167.5
647.857	168.5
648.062	143.5
648.266	161.5
648.471	158.5
648.676	154.5
648.88	146.5
649.085	158.5
649.289	160.5
649.494	175.5
649.698	175.5
649.903	156.5
650.107	151.5
650.312	152.5
650.516	139.5
650.721	149.5
650.925	147.5
651.13	148.5
651.334	147.5
651.539	134.5
651.743	128.5
651.947	142.5
652.152	145.5
652.356	148.5
652.56	141.5
652.764	135.5
652.969	120.5
653.173	143.5
653.377	133.5
653.581	121.5
653.785	137.5
653.99	128.5
654.194	135.5
654.398	123.5
654.602	133.5
654.806	135.5
655.01	133.5
655.214	131.5
655.418	113.5
655.622	141.5
655.826	131.5
656.03	131.5
656.234	135.5
656.438	136.5
656.642	131.5
656.846	139.5
657.049	126.5
657.253	136.5
657.457	131.5
657.661	128.5
657.865	128.5
658.068	122.5
658.272	104.5
658.476	112.5
658.68	107.5
658.883	110.5
659.087	107.5
659.291	107.5
659.494	96.5
659.698	117.5
659.901	83.5
660.105	104.5
660.309	109.5
660.512	106.5
660.716	77.5
660.919	96.5
661.123	100.5
661.326	105.5
661.53	95.5
661.733	95.5
661.936	101.5
662.14	79.5
662.343	80.5
662.546	96.5
662.75	87.5
662.953	90.5
663.156	73.5
663.36	91.5
663.563	88.5
663.766	91.5
663.969	91.5
664.173	77.5
664.376	79.5
664.579	86.5
664.782	88.5
664.985	77.5
665.188	87.5
665.391	84.5
665.594	78.5
665.797	77.5
666	84.5
666.203	80.5
666.406	85.5
666.609	84.5
666.812	101.5
667.015	90.5
667.218	79.5
667.421	80.5
667.624	79.5
667.827	88.5
668.03	67.5
668.232	78.5
668.435	83.5
668.638	92.5
668.841	82.5
669.043	83.5
669.246	71.5
669.449	78.5
669.651	81.5
669.854	81.5
670.057	78.5
670.259	90.5
670.462	77.5
670.665	81.5
670.867	101.5
671.07	78.5
671.272	94.5
671.475	91.5
671.677	89.5
671.88	90.5
672.082	88.5
672.284	79.5
672.487	91.5
672.689	69.5
672.892	89.5
