Data from 1969.PennyLincolnUp.Lamp.En5.5.200Scan.071719.P1._HRD10591_14-56-37-972.txt Node
Date: Thu Jul 18 14:56:37 EDT 2019
User: cochatt
Spectrometer: HR+D1059
Trigger mode: 1
Integration Time (sec): 1.000000E-1
Scans to average: 1
Electric dark correction enabled: true
Nonlinearity correction enabled: false
Boxcar width: 0
XAxis mode: Wavelengths
Number of Pixels in Spectrum: 2048
>>>>>Begin Spectral Data<<<<<
223.165	-15.25
223.4	-15.25
223.635	-15.25
223.869	-27.25
224.104	-24.25
224.338	-11.25
224.573	-16.25
224.808	-14.25
225.042	-14.25
225.277	3.75
225.511	0.75
225.746	3.75
225.98	4.75
226.215	25.75
226.449	11.75
226.683	17.75
226.918	24.75
227.152	29.75
227.387	26.75
227.621	39.75
227.856	41.75
228.09	43.75
228.324	57.75
228.559	40.75
228.793	69.75
229.027	98.75
229.262	80.75
229.496	105.75
229.73	108.75
229.964	116.75
230.199	100.75
230.433	92.75
230.667	92.75
230.901	112.75
231.136	109.75
231.37	109.75
231.604	94.75
231.838	116.75
232.072	113.75
232.306	108.75
232.541	108.75
232.775	104.75
233.009	99.75
233.243	109.75
233.477	118.75
233.711	100.75
233.945	117.75
234.179	114.75
234.413	119.75
234.647	96.75
234.881	113.75
235.115	109.75
235.349	115.75
235.583	106.75
235.817	108.75
236.051	106.75
236.285	114.75
236.519	112.75
236.753	131.75
236.987	135.75
237.221	138.75
237.455	153.75
237.689	154.75
237.922	124.75
238.156	118.75
238.39	123.75
238.624	120.75
238.858	123.75
239.091	116.75
239.325	113.75
239.559	108.75
239.793	119.75
240.027	121.75
240.26	155.75
240.494	140.75
240.728	123.75
240.961	139.75
241.195	116.75
241.429	123.75
241.662	120.75
241.896	123.75
242.13	133.75
242.363	103.75
242.597	119.75
242.83	119.75
243.064	124.75
243.298	117.75
243.531	128.75
243.765	116.75
243.998	124.75
244.232	104.75
244.465	127.75
244.699	124.75
244.932	137.75
245.166	133.75
245.399	132.75
245.633	136.75
245.866	129.75
246.099	126.75
246.333	139.75
246.566	120.75
246.8	136.75
247.033	141.75
247.266	150.75
247.5	151.75
247.733	159.75
247.966	149.75
248.2	146.75
248.433	156.75
248.666	137.75
248.899	165.75
249.133	175.75
249.366	167.75
249.599	163.75
249.832	176.75
250.066	161.75
250.299	167.75
250.532	170.75
250.765	178.75
250.998	189.75
251.231	168.75
251.465	167.75
251.698	170.75
251.931	183.75
252.164	157.75
252.397	149.75
252.63	186.75
252.863	172.75
253.096	186.75
253.329	183.75
253.562	188.75
253.795	197.75
254.028	181.75
254.261	185.75
254.494	198.75
254.727	188.75
254.96	230.75
255.193	203.75
255.426	191.75
255.659	182.75
255.892	179.75
256.124	189.75
256.357	200.75
256.59	179.75
256.823	190.75
257.056	197.75
257.289	171.75
257.521	176.75
257.754	175.75
257.987	183.75
258.22	183.75
258.452	183.75
258.685	162.75
258.918	175.75
259.151	166.75
259.383	177.75
259.616	193.75
259.849	182.75
260.081	195.75
260.314	211.75
260.547	202.75
260.779	184.75
261.012	208.75
261.244	205.75
261.477	195.75
261.71	183.75
261.942	199.75
262.175	193.75
262.407	196.75
262.64	176.75
262.872	203.75
263.105	190.75
263.337	185.75
263.57	189.75
263.802	180.75
264.035	183.75
264.267	178.75
264.499	182.75
264.732	198.75
264.964	178.75
265.197	199.75
265.429	190.75
265.661	201.75
265.894	190.75
266.126	208.75
266.358	206.75
266.591	179.75
266.823	199.75
267.055	188.75
267.287	210.75
267.52	201.75
267.752	198.75
267.984	200.75
268.216	199.75
268.448	195.75
268.681	208.75
268.913	216.75
269.145	227.75
269.377	221.75
269.609	229.75
269.841	232.75
270.073	213.75
270.306	246.75
270.538	249.75
270.77	255.75
271.002	239.75
271.234	227.75
271.466	245.75
271.698	273.75
271.93	235.75
272.162	261.75
272.394	257.75
272.626	249.75
272.858	239.75
273.09	230.75
273.322	232.75
273.553	239.75
273.785	221.75
274.017	224.75
274.249	233.75
274.481	233.75
274.713	220.75
274.945	221.75
275.176	239.75
275.408	245.75
275.64	236.75
275.872	224.75
276.104	223.75
276.335	227.75
276.567	235.75
276.799	244.75
277.031	255.75
277.262	253.75
277.494	260.75
277.726	253.75
277.957	244.75
278.189	240.75
278.421	235.75
278.652	241.75
278.884	225.75
279.115	240.75
279.347	233.75
279.579	226.75
279.81	233.75
280.042	223.75
280.273	237.75
280.505	237.75
280.736	236.75
280.968	247.75
281.199	237.75
281.431	245.75
281.662	228.75
281.894	251.75
282.125	224.75
282.356	249.75
282.588	249.75
282.819	249.75
283.051	237.75
283.282	243.75
283.513	237.75
283.745	236.75
283.976	245.75
284.207	256.75
284.439	250.75
284.67	236.75
284.901	257.75
285.132	246.75
285.364	234.75
285.595	236.75
285.826	266.75
286.057	256.75
286.288	238.75
286.52	261.75
286.751	235.75
286.982	246.75
287.213	257.75
287.444	271.75
287.675	265.75
287.906	258.75
288.138	267.75
288.369	266.75
288.6	247.75
288.831	289.75
289.062	268.75
289.293	273.75
289.524	273.75
289.755	248.75
289.986	266.75
290.217	268.75
290.448	260.75
290.679	258.75
290.91	263.75
291.141	258.75
291.371	255.75
291.602	258.75
291.833	244.75
292.064	256.75
292.295	259.75
292.526	264.75
292.757	250.75
292.987	258.75
293.218	270.75
293.449	264.75
293.68	281.75
293.91	272.75
294.141	279.75
294.372	259.75
294.603	248.75
294.833	263.75
295.064	249.75
295.295	261.75
295.525	264.75
295.756	271.75
295.987	283.75
296.217	283.75
296.448	292.75
296.679	257.75
296.909	264.75
297.14	291.75
297.37	265.75
297.601	264.75
297.831	253.75
298.062	273.75
298.292	274.75
298.523	283.75
298.753	269.75
298.984	286.75
299.214	277.75
299.445	289.75
299.675	292.75
299.905	289.75
300.136	280.75
300.366	268.75
300.597	283.75
300.827	308.75
301.057	293.75
301.288	283.75
301.518	290.75
301.748	278.75
301.979	300.75
302.209	298.75
302.439	301.75
302.669	277.75
302.9	315.75
303.13	295.75
303.36	310.75
303.59	300.75
303.82	306.75
304.051	307.75
304.281	309.75
304.511	296.75
304.741	313.75
304.971	273.75
305.201	304.75
305.431	290.75
305.661	279.75
305.891	289.75
306.121	295.75
306.352	294.75
306.582	307.75
306.812	297.75
307.042	303.75
307.272	277.75
307.502	295.75
307.731	296.75
307.961	286.75
308.191	296.75
308.421	293.75
308.651	297.75
308.881	280.75
309.111	312.75
309.341	319.75
309.571	300.75
309.8	309.75
310.03	306.75
310.26	319.75
310.49	287.75
310.72	305.75
310.949	314.75
311.179	336.75
311.409	325.75
311.639	316.75
311.868	331.75
312.098	343.75
312.328	337.75
312.557	315.75
312.787	325.75
313.017	330.75
313.246	316.75
313.476	310.75
313.706	344.75
313.935	337.75
314.165	323.75
314.394	345.75
314.624	349.75
314.853	338.75
315.083	329.75
315.312	328.75
315.542	315.75
315.771	313.75
316.001	315.75
316.23	321.75
316.46	310.75
316.689	332.75
316.919	315.75
317.148	325.75
317.377	332.75
317.607	327.75
317.836	331.75
318.065	325.75
318.295	321.75
318.524	310.75
318.753	325.75
318.983	336.75
319.212	312.75
319.441	336.75
319.67	321.75
319.9	331.75
320.129	323.75
320.358	327.75
320.587	324.75
320.816	327.75
321.046	340.75
321.275	333.75
321.504	321.75
321.733	344.75
321.962	335.75
322.191	341.75
322.42	355.75
322.649	363.75
322.878	353.75
323.108	352.75
323.337	358.75
323.566	381.75
323.795	382.75
324.024	420.75
324.253	478.75
324.482	632.75
324.71	902.75
324.939	1223.75
325.168	976.75
325.397	565.75
325.626	443.75
325.855	390.75
326.084	379.75
326.313	371.75
326.542	383.75
326.77	414.75
326.999	464.75
327.228	596.75
327.457	809.75
327.686	909.75
327.914	649.75
328.143	486.75
328.372	456.75
328.6	418.75
328.829	420.75
329.058	435.75
329.287	425.75
329.515	429.75
329.744	384.75
329.972	398.75
330.201	412.75
330.43	430.75
330.658	447.75
330.887	442.75
331.115	450.75
331.344	418.75
331.572	374.75
331.801	405.75
332.03	407.75
332.258	375.75
332.486	388.75
332.715	397.75
332.943	383.75
333.172	420.75
333.4	396.75
333.629	418.75
333.857	417.75
334.085	437.75
334.314	441.75
334.542	457.75
334.771	460.75
334.999	432.75
335.227	425.75
335.455	409.75
335.684	406.75
335.912	398.75
336.14	396.75
336.369	369.75
336.597	394.75
336.825	401.75
337.053	391.75
337.281	376.75
337.51	373.75
337.738	374.75
337.966	381.75
338.194	385.75
338.422	375.75
338.65	376.75
338.878	362.75
339.106	368.75
339.334	367.75
339.562	346.75
339.79	375.75
340.018	360.75
340.246	367.75
340.474	359.75
340.702	379.75
340.93	372.75
341.158	367.75
341.386	350.75
341.614	367.75
341.842	368.75
342.07	345.75
342.298	353.75
342.526	348.75
342.754	357.75
342.981	351.75
343.209	361.75
343.437	356.75
343.665	360.75
343.893	385.75
344.12	411.75
344.348	374.75
344.576	389.75
344.804	372.75
345.031	359.75
345.259	363.75
345.487	363.75
345.714	360.75
345.942	373.75
346.17	357.75
346.397	341.75
346.625	336.75
346.853	361.75
347.08	347.75
347.308	341.75
347.535	354.75
347.763	353.75
347.99	348.75
348.218	362.75
348.445	360.75
348.673	345.75
348.9	356.75
349.128	333.75
349.355	345.75
349.583	343.75
349.81	349.75
350.037	332.75
350.265	336.75
350.492	346.75
350.72	328.75
350.947	346.75
351.174	363.75
351.402	347.75
351.629	341.75
351.856	332.75
352.083	347.75
352.311	340.75
352.538	362.75
352.765	356.75
352.992	359.75
353.22	326.75
353.447	336.75
353.674	325.75
353.901	325.75
354.128	337.75
354.355	326.75
354.583	321.75
354.81	348.75
355.037	339.75
355.264	327.75
355.491	303.75
355.718	315.75
355.945	337.75
356.172	333.75
356.399	324.75
356.626	324.75
356.853	330.75
357.08	346.75
357.307	320.75
357.534	295.75
357.761	322.75
357.988	330.75
358.215	342.75
358.441	326.75
358.668	324.75
358.895	330.75
359.122	338.75
359.349	327.75
359.576	343.75
359.802	349.75
360.029	366.75
360.256	357.75
360.483	337.75
360.709	342.75
360.936	349.75
361.163	330.75
361.39	325.75
361.616	338.75
361.843	338.75
362.07	363.75
362.296	336.75
362.523	348.75
362.749	320.75
362.976	342.75
363.203	324.75
363.429	321.75
363.656	343.75
363.882	317.75
364.109	317.75
364.335	329.75
364.562	313.75
364.788	305.75
365.015	327.75
365.241	330.75
365.468	337.75
365.694	336.75
365.92	339.75
366.147	327.75
366.373	319.75
366.599	344.75
366.826	325.75
367.052	345.75
367.278	335.75
367.505	348.75
367.731	321.75
367.957	334.75
368.184	353.75
368.41	334.75
368.636	340.75
368.862	338.75
369.089	347.75
369.315	331.75
369.541	333.75
369.767	325.75
369.993	323.75
370.219	319.75
370.445	308.75
370.672	346.75
370.898	344.75
371.124	333.75
371.35	327.75
371.576	355.75
371.802	349.75
372.028	328.75
372.254	351.75
372.48	349.75
372.706	369.75
372.932	340.75
373.158	327.75
373.384	345.75
373.61	354.75
373.835	344.75
374.061	362.75
374.287	349.75
374.513	331.75
374.739	333.75
374.965	361.75
375.191	365.75
375.416	360.75
375.642	341.75
375.868	352.75
376.094	349.75
376.319	329.75
376.545	371.75
376.771	340.75
376.997	324.75
377.222	327.75
377.448	339.75
377.674	341.75
377.899	334.75
378.125	317.75
378.35	338.75
378.576	344.75
378.802	356.75
379.027	340.75
379.253	339.75
379.478	346.75
379.704	336.75
379.929	345.75
380.155	333.75
380.38	333.75
380.606	331.75
380.831	334.75
381.057	335.75
381.282	339.75
381.507	333.75
381.733	328.75
381.958	339.75
382.184	340.75
382.409	348.75
382.634	324.75
382.86	325.75
383.085	343.75
383.31	358.75
383.535	357.75
383.761	361.75
383.986	362.75
384.211	354.75
384.436	382.75
384.662	379.75
384.887	341.75
385.112	375.75
385.337	367.75
385.562	386.75
385.787	395.75
386.013	354.75
386.238	370.75
386.463	369.75
386.688	379.75
386.913	342.75
387.138	356.75
387.363	387.75
387.588	368.75
387.813	374.75
388.038	367.75
388.263	354.75
388.488	378.75
388.713	372.75
388.938	385.75
389.163	385.75
389.387	380.75
389.612	367.75
389.837	379.75
390.062	374.75
390.287	368.75
390.512	373.75
390.736	359.75
390.961	369.75
391.186	376.75
391.411	376.75
391.636	400.75
391.86	390.75
392.085	377.75
392.31	369.75
392.534	388.75
392.759	376.75
392.984	375.75
393.208	376.75
393.433	369.75
393.658	375.75
393.882	390.75
394.107	383.75
394.331	391.75
394.556	382.75
394.78	352.75
395.005	382.75
395.229	369.75
395.454	401.75
395.678	413.75
395.903	410.75
396.127	400.75
396.352	395.75
396.576	389.75
396.801	423.75
397.025	402.75
397.249	373.75
397.474	413.75
397.698	401.75
397.922	409.75
398.147	408.75
398.371	421.75
398.595	438.75
398.82	412.75
399.044	443.75
399.268	498.75
399.492	529.75
399.717	572.75
399.941	541.75
400.165	534.75
400.389	539.75
400.613	495.75
400.837	440.75
401.062	438.75
401.286	427.75
401.51	442.75
401.734	433.75
401.958	448.75
402.182	435.75
402.406	455.75
402.63	442.75
402.854	433.75
403.078	471.75
403.302	488.75
403.526	459.75
403.75	480.75
403.974	465.75
404.198	472.75
404.422	458.75
404.645	465.75
404.869	455.75
405.093	480.75
405.317	515.75
405.541	523.75
405.765	500.75
405.988	484.75
406.212	466.75
406.436	480.75
406.66	494.75
406.883	496.75
407.107	510.75
407.331	543.75
407.555	575.75
407.778	585.75
408.002	531.75
408.226	503.75
408.449	485.75
408.673	491.75
408.896	496.75
409.12	531.75
409.344	491.75
409.567	474.75
409.791	454.75
410.014	481.75
410.238	475.75
410.461	461.75
410.685	443.75
410.908	461.75
411.132	471.75
411.355	475.75
411.578	482.75
411.802	462.75
412.025	455.75
412.249	451.75
412.472	457.75
412.695	482.75
412.919	477.75
413.142	473.75
413.365	442.75
413.589	447.75
413.812	409.75
414.035	446.75
414.258	439.75
414.482	441.75
414.705	426.75
414.928	434.75
415.151	434.75
415.374	442.75
415.597	404.75
415.821	433.75
416.044	441.75
416.267	412.75
416.49	415.75
416.713	417.75
416.936	434.75
417.159	429.75
417.382	419.75
417.605	411.75
417.828	435.75
418.051	448.75
418.274	423.75
418.497	448.75
418.72	431.75
418.943	435.75
419.166	444.75
419.389	450.75
419.611	458.75
419.834	475.75
420.057	449.75
420.28	445.75
420.503	432.75
420.726	435.75
420.948	437.75
421.171	467.75
421.394	508.75
421.617	465.75
421.839	443.75
422.062	445.75
422.285	449.75
422.507	483.75
422.73	505.75
422.953	509.75
423.175	483.75
423.398	451.75
423.621	450.75
423.843	467.75
424.066	489.75
424.288	497.75
424.511	502.75
424.733	480.75
424.956	536.75
425.178	540.75
425.401	521.75
425.623	531.75
425.846	480.75
426.068	436.75
426.291	443.75
426.513	452.75
426.735	475.75
426.958	483.75
427.18	516.75
427.402	607.75
427.625	644.75
427.847	567.75
428.069	497.75
428.292	454.75
428.514	427.75
428.736	400.75
428.958	408.75
429.181	424.75
429.403	425.75
429.625	419.75
429.847	440.75
430.069	503.75
430.292	455.75
430.514	443.75
430.736	415.75
430.958	413.75
431.18	401.75
431.402	403.75
431.624	398.75
431.846	395.75
432.068	394.75
432.29	392.75
432.512	416.75
432.734	415.75
432.956	406.75
433.178	423.75
433.4	426.75
433.622	412.75
433.844	386.75
434.066	405.75
434.287	411.75
434.509	415.75
434.731	443.75
434.953	451.75
435.175	444.75
435.397	439.75
435.618	457.75
435.84	464.75
436.062	502.75
436.284	566.75
436.505	486.75
436.727	448.75
436.949	431.75
437.17	420.75
437.392	410.75
437.614	426.75
437.835	432.75
438.057	483.75
438.278	534.75
438.5	563.75
438.721	592.75
438.943	526.75
439.165	469.75
439.386	437.75
439.608	459.75
439.829	444.75
440.05	461.75
440.272	481.75
440.493	458.75
440.715	451.75
440.936	439.75
441.158	419.75
441.379	447.75
441.6	450.75
441.822	445.75
442.043	494.75
442.264	520.75
442.486	550.75
442.707	500.75
442.928	476.75
443.149	485.75
443.371	472.75
443.592	518.75
443.813	567.75
444.034	580.75
444.255	499.75
444.476	486.75
444.698	492.75
444.919	484.75
445.14	560.75
445.361	526.75
445.582	498.75
445.803	542.75
446.024	593.75
446.245	547.75
446.466	515.75
446.687	466.75
446.908	442.75
447.129	432.75
447.35	389.75
447.571	402.75
447.792	405.75
448.013	408.75
448.234	417.75
448.455	454.75
448.675	504.75
448.896	569.75
449.117	512.75
449.338	463.75
449.559	555.75
449.779	592.75
450	492.75
450.221	421.75
450.442	395.75
450.662	388.75
450.883	389.75
451.104	423.75
451.324	398.75
451.545	383.75
451.766	387.75
451.986	375.75
452.207	385.75
452.428	362.75
452.648	372.75
452.869	373.75
453.089	396.75
453.31	386.75
453.53	378.75
453.751	370.75
453.971	387.75
454.192	389.75
454.412	375.75
454.633	345.75
454.853	356.75
455.073	364.75
455.294	386.75
455.514	445.75
455.734	415.75
455.955	352.75
456.175	368.75
456.395	351.75
456.616	359.75
456.836	364.75
457.056	351.75
457.276	326.75
457.497	353.75
457.717	354.75
457.937	333.75
458.157	347.75
458.377	367.75
458.598	367.75
458.818	413.75
459.038	464.75
459.258	466.75
459.478	418.75
459.698	388.75
459.918	398.75
460.138	419.75
460.358	432.75
460.578	427.75
460.798	421.75
461.018	431.75
461.238	428.75
461.458	431.75
461.678	439.75
461.898	437.75
462.118	439.75
462.338	454.75
462.558	448.75
462.777	474.75
462.997	517.75
463.217	498.75
463.437	505.75
463.657	500.75
463.876	488.75
464.096	465.75
464.316	471.75
464.536	481.75
464.755	461.75
464.975	471.75
465.195	477.75
465.414	520.75
465.634	443.75
465.854	415.75
466.073	413.75
466.293	400.75
466.512	376.75
466.732	377.75
466.951	393.75
467.171	373.75
467.391	403.75
467.61	410.75
467.829	396.75
468.049	409.75
468.268	375.75
468.488	378.75
468.707	384.75
468.927	384.75
469.146	383.75
469.365	404.75
469.585	373.75
469.804	387.75
470.023	393.75
470.243	403.75
470.462	406.75
470.681	412.75
470.901	407.75
471.12	400.75
471.339	401.75
471.558	405.75
471.777	422.75
471.997	399.75
472.216	380.75
472.435	415.75
472.654	411.75
472.873	396.75
473.092	397.75
473.311	368.75
473.53	374.75
473.749	378.75
473.968	425.75
474.187	473.75
474.406	474.75
474.625	403.75
474.844	388.75
475.063	380.75
475.282	378.75
475.501	385.75
475.72	400.75
475.939	384.75
476.158	392.75
476.377	394.75
476.596	403.75
476.814	398.75
477.033	425.75
477.252	401.75
477.471	409.75
477.69	428.75
477.908	429.75
478.127	433.75
478.346	436.75
478.564	432.75
478.783	448.75
479.002	457.75
479.22	443.75
479.439	473.75
479.658	456.75
479.876	471.75
480.095	487.75
480.313	516.75
480.532	489.75
480.751	492.75
480.969	475.75
481.188	528.75
481.406	530.75
481.624	455.75
481.843	453.75
482.061	437.75
482.28	452.75
482.498	452.75
482.717	436.75
482.935	437.75
483.153	460.75
483.372	455.75
483.59	451.75
483.808	445.75
484.027	453.75
484.245	452.75
484.463	455.75
484.681	456.75
484.9	463.75
485.118	442.75
485.336	452.75
485.554	465.75
485.772	476.75
485.99	464.75
486.209	465.75
486.427	475.75
486.645	479.75
486.863	499.75
487.081	483.75
487.299	494.75
487.517	463.75
487.735	446.75
487.953	472.75
488.171	475.75
488.389	451.75
488.607	466.75
488.825	464.75
489.043	468.75
489.261	487.75
489.479	467.75
489.696	494.75
489.914	512.75
490.132	503.75
490.35	480.75
490.568	488.75
490.786	518.75
491.003	503.75
491.221	527.75
491.439	545.75
491.657	524.75
491.874	542.75
492.092	553.75
492.31	529.75
492.527	576.75
492.745	552.75
492.963	562.75
493.18	564.75
493.398	566.75
493.615	555.75
493.833	566.75
494.05	583.75
494.268	567.75
494.485	556.75
494.703	549.75
494.92	547.75
495.138	572.75
495.355	552.75
495.573	572.75
495.79	575.75
496.008	556.75
496.225	555.75
496.442	576.75
496.66	582.75
496.877	565.75
497.094	563.75
497.312	581.75
497.529	583.75
497.746	601.75
497.963	620.75
498.181	608.75
498.398	620.75
498.615	664.75
498.832	675.75
499.049	690.75
499.267	719.75
499.484	747.75
499.701	790.75
499.918	826.75
500.135	904.75
500.352	969.75
500.569	1000.75
500.786	1008.75
501.003	931.75
501.22	922.75
501.437	868.75
501.654	782.75
501.871	804.75
502.088	755.75
502.305	700.75
502.522	671.75
502.739	665.75
502.956	623.75
503.172	609.75
503.389	607.75
503.606	592.75
503.823	602.75
504.04	578.75
504.256	595.75
504.473	577.75
504.69	577.75
504.907	570.75
505.123	593.75
505.34	538.75
505.557	529.75
505.773	534.75
505.99	532.75
506.207	524.75
506.423	525.75
506.64	513.75
506.856	517.75
507.073	474.75
507.289	498.75
507.506	524.75
507.722	485.75
507.939	504.75
508.155	486.75
508.372	500.75
508.588	495.75
508.805	484.75
509.021	487.75
509.238	486.75
509.454	506.75
509.67	509.75
509.887	503.75
510.103	483.75
510.319	474.75
510.536	534.75
510.752	765.75
510.968	632.75
511.184	492.75
511.401	481.75
511.617	452.75
511.833	456.75
512.049	442.75
512.265	448.75
512.481	449.75
512.698	463.75
512.914	455.75
513.13	450.75
513.346	459.75
513.562	461.75
513.778	460.75
513.994	454.75
514.21	479.75
514.426	478.75
514.642	482.75
514.858	521.75
515.074	520.75
515.29	601.75
515.506	837.75
515.721	707.75
515.937	533.75
516.153	504.75
516.369	492.75
516.585	476.75
516.801	488.75
517.016	499.75
517.232	505.75
517.448	538.75
517.664	529.75
517.879	519.75
518.095	532.75
518.311	532.75
518.527	512.75
518.742	520.75
518.958	492.75
519.173	486.75
519.389	471.75
519.605	450.75
519.82	460.75
520.036	448.75
520.251	476.75
520.467	471.75
520.682	491.75
520.898	471.75
521.113	493.75
521.329	508.75
521.544	534.75
521.76	596.75
521.975	972.75
522.19	992.75
522.406	565.75
522.621	445.75
522.836	450.75
523.052	429.75
523.267	419.75
523.482	425.75
523.698	418.75
523.913	407.75
524.128	417.75
524.343	409.75
524.559	411.75
524.774	405.75
524.989	412.75
525.204	402.75
525.419	415.75
525.634	392.75
525.849	396.75
526.064	390.75
526.28	388.75
526.495	411.75
526.71	387.75
526.925	371.75
527.14	384.75
527.355	377.75
527.57	360.75
527.785	371.75
527.999	367.75
528.214	389.75
528.429	377.75
528.644	395.75
528.859	393.75
529.074	406.75
529.289	390.75
529.503	448.75
529.718	428.75
529.933	379.75
530.148	398.75
530.363	409.75
530.577	391.75
530.792	385.75
531.007	378.75
531.221	381.75
531.436	383.75
531.651	389.75
531.865	383.75
532.08	379.75
532.295	395.75
532.509	362.75
532.724	367.75
532.938	379.75
533.153	363.75
533.367	354.75
533.582	376.75
533.796	387.75
534.011	379.75
534.225	367.75
534.44	346.75
534.654	361.75
534.868	355.75
535.083	350.75
535.297	385.75
535.511	378.75
535.726	366.75
535.94	371.75
536.154	362.75
536.369	365.75
536.583	361.75
536.797	359.75
537.011	377.75
537.225	364.75
537.44	355.75
537.654	355.75
537.868	348.75
538.082	357.75
538.296	363.75
538.51	370.75
538.724	377.75
538.938	361.75
539.153	377.75
539.367	359.75
539.581	375.75
539.795	371.75
540.009	358.75
540.222	369.75
540.436	356.75
540.65	363.75
540.864	368.75
541.078	359.75
541.292	367.75
541.506	364.75
541.72	354.75
541.934	371.75
542.147	359.75
542.361	368.75
542.575	364.75
542.789	379.75
543.002	347.75
543.216	357.75
543.43	369.75
543.644	355.75
543.857	353.75
544.071	360.75
544.285	377.75
544.498	364.75
544.712	362.75
544.925	376.75
545.139	388.75
545.352	379.75
545.566	365.75
545.779	367.75
545.993	355.75
546.206	358.75
546.42	373.75
546.633	369.75
546.847	372.75
547.06	347.75
547.274	369.75
547.487	357.75
547.7	353.75
547.914	350.75
548.127	386.75
548.34	346.75
548.554	367.75
548.767	365.75
548.98	371.75
549.193	371.75
549.407	356.75
549.62	342.75
549.833	349.75
550.046	370.75
550.259	357.75
550.473	356.75
550.686	361.75
550.899	348.75
551.112	355.75
551.325	334.75
551.538	346.75
551.751	343.75
551.964	355.75
552.177	375.75
552.39	389.75
552.603	389.75
552.816	376.75
553.029	371.75
553.242	372.75
553.455	384.75
553.667	383.75
553.88	383.75
554.093	391.75
554.306	364.75
554.519	344.75
554.732	380.75
554.944	372.75
555.157	357.75
555.37	357.75
555.583	354.75
555.795	340.75
556.008	324.75
556.221	352.75
556.433	324.75
556.646	312.75
556.859	337.75
557.071	319.75
557.284	312.75
557.496	319.75
557.709	316.75
557.921	327.75
558.134	316.75
558.346	308.75
558.559	322.75
558.771	327.75
558.984	323.75
559.196	316.75
559.409	315.75
559.621	320.75
559.833	328.75
560.046	303.75
560.258	315.75
560.47	322.75
560.683	325.75
560.895	304.75
561.107	311.75
561.32	314.75
561.532	317.75
561.744	315.75
561.956	308.75
562.168	305.75
562.381	319.75
562.593	308.75
562.805	306.75
563.017	325.75
563.229	316.75
563.441	315.75
563.653	321.75
563.865	303.75
564.077	331.75
564.289	296.75
564.501	323.75
564.713	348.75
564.925	321.75
565.137	343.75
565.349	344.75
565.561	345.75
565.773	348.75
565.985	379.75
566.197	389.75
566.408	368.75
566.62	402.75
566.832	412.75
567.044	455.75
567.255	423.75
567.467	445.75
567.679	460.75
567.891	478.75
568.102	468.75
568.314	454.75
568.526	413.75
568.737	387.75
568.949	390.75
569.161	371.75
569.372	345.75
569.584	334.75
569.795	338.75
570.007	331.75
570.218	346.75
570.43	336.75
570.641	319.75
570.853	304.75
571.064	329.75
571.276	306.75
571.487	319.75
571.698	309.75
571.91	298.75
572.121	291.75
572.333	277.75
572.544	287.75
572.755	277.75
572.966	282.75
573.178	269.75
573.389	280.75
573.6	276.75
573.811	277.75
574.023	292.75
574.234	264.75
574.445	273.75
574.656	291.75
574.867	279.75
575.078	282.75
575.289	272.75
575.501	269.75
575.712	248.75
575.923	269.75
576.134	267.75
576.345	271.75
576.556	263.75
576.767	259.75
576.978	277.75
577.188	278.75
577.399	266.75
577.61	261.75
577.821	257.75
578.032	250.75
578.243	273.75
578.454	397.75
578.665	313.75
578.875	279.75
579.086	258.75
579.297	270.75
579.508	271.75
579.718	252.75
579.929	277.75
580.14	253.75
580.35	249.75
580.561	246.75
580.772	239.75
580.982	234.75
581.193	259.75
581.403	249.75
581.614	268.75
581.825	245.75
582.035	236.75
582.246	244.75
582.456	248.75
582.667	251.75
582.877	232.75
583.087	250.75
583.298	241.75
583.508	246.75
583.719	235.75
583.929	241.75
584.139	252.75
584.35	230.75
584.56	245.75
584.77	239.75
584.981	251.75
585.191	242.75
585.401	234.75
585.611	243.75
585.821	240.75
586.032	221.75
586.242	234.75
586.452	229.75
586.662	254.75
586.872	246.75
587.082	235.75
587.292	229.75
587.502	228.75
587.713	247.75
587.923	229.75
588.133	233.75
588.343	229.75
588.553	233.75
588.762	231.75
588.972	245.75
589.182	239.75
589.392	257.75
589.602	233.75
589.812	230.75
590.022	243.75
590.232	263.75
590.441	238.75
590.651	234.75
590.861	240.75
591.071	236.75
591.281	257.75
591.49	242.75
591.7	240.75
591.91	246.75
592.119	259.75
592.329	267.75
592.539	241.75
592.748	276.75
592.958	280.75
593.167	288.75
593.377	275.75
593.587	281.75
593.796	265.75
594.006	297.75
594.215	290.75
594.424	271.75
594.634	280.75
594.843	285.75
595.053	260.75
595.262	250.75
595.472	257.75
595.681	259.75
595.89	241.75
596.1	256.75
596.309	236.75
596.518	257.75
596.727	215.75
596.937	226.75
597.146	219.75
597.355	230.75
597.564	218.75
597.774	227.75
597.983	219.75
598.192	197.75
598.401	209.75
598.61	224.75
598.819	221.75
599.028	221.75
599.237	221.75
599.446	209.75
599.655	223.75
599.864	215.75
600.073	224.75
600.282	236.75
600.491	221.75
600.7	204.75
600.909	217.75
601.118	214.75
601.327	211.75
601.536	205.75
601.745	225.75
601.953	213.75
602.162	221.75
602.371	213.75
602.58	216.75
602.789	216.75
602.997	224.75
603.206	212.75
603.415	208.75
603.623	208.75
603.832	211.75
604.041	208.75
604.249	212.75
604.458	204.75
604.666	204.75
604.875	209.75
605.084	223.75
605.292	210.75
605.501	225.75
605.709	210.75
605.918	210.75
606.126	205.75
606.334	202.75
606.543	213.75
606.751	213.75
606.96	217.75
607.168	186.75
607.376	196.75
607.585	199.75
607.793	200.75
608.001	209.75
608.21	193.75
608.418	211.75
608.626	206.75
608.834	188.75
609.043	195.75
609.251	210.75
609.459	189.75
609.667	204.75
609.875	218.75
610.083	207.75
610.291	207.75
610.499	213.75
610.707	216.75
610.916	185.75
611.124	224.75
611.332	225.75
611.54	210.75
611.748	215.75
611.955	200.75
612.163	205.75
612.371	200.75
612.579	187.75
612.787	191.75
612.995	204.75
613.203	201.75
613.411	205.75
613.618	211.75
613.826	200.75
614.034	201.75
614.242	198.75
614.449	209.75
614.657	206.75
614.865	191.75
615.072	208.75
615.28	200.75
615.488	207.75
615.695	209.75
615.903	205.75
616.111	203.75
616.318	196.75
616.526	196.75
616.733	208.75
616.941	195.75
617.148	204.75
617.356	199.75
617.563	208.75
617.771	198.75
617.978	184.75
618.185	207.75
618.393	208.75
618.6	199.75
618.807	187.75
619.015	184.75
619.222	198.75
619.429	192.75
619.637	213.75
619.844	195.75
620.051	201.75
620.258	204.75
620.466	193.75
620.673	181.75
620.88	195.75
621.087	199.75
621.294	193.75
621.501	180.75
621.708	189.75
621.915	213.75
622.122	186.75
622.329	191.75
622.536	190.75
622.743	180.75
622.95	213.75
623.157	191.75
623.364	173.75
623.571	177.75
623.778	175.75
623.985	211.75
624.192	186.75
624.399	185.75
624.606	197.75
624.812	180.75
625.019	177.75
625.226	171.75
625.433	186.75
625.639	177.75
625.846	183.75
626.053	200.75
626.259	172.75
626.466	192.75
626.673	173.75
626.879	171.75
627.086	176.75
627.293	176.75
627.499	183.75
627.706	193.75
627.912	186.75
628.119	177.75
628.325	186.75
628.532	179.75
628.738	167.75
628.945	169.75
629.151	173.75
629.357	177.75
629.564	173.75
629.77	175.75
629.976	175.75
630.183	173.75
630.389	163.75
630.595	157.75
630.802	172.75
631.008	163.75
631.214	166.75
631.42	175.75
631.627	164.75
631.833	176.75
632.039	167.75
632.245	173.75
632.451	168.75
632.657	169.75
632.863	151.75
633.069	173.75
633.275	155.75
633.481	159.75
633.688	172.75
633.893	165.75
634.099	145.75
634.305	155.75
634.511	176.75
634.717	157.75
634.923	161.75
635.129	168.75
635.335	160.75
635.541	159.75
635.747	172.75
635.952	171.75
636.158	169.75
636.364	148.75
636.57	171.75
636.775	157.75
636.981	159.75
637.187	171.75
637.392	170.75
637.598	169.75
637.804	137.75
638.009	148.75
638.215	169.75
638.421	159.75
638.626	158.75
638.832	163.75
639.037	157.75
639.243	143.75
639.448	139.75
639.654	135.75
639.859	151.75
640.065	169.75
640.27	156.75
640.475	157.75
640.681	147.75
640.886	143.75
641.091	125.75
641.297	148.75
641.502	169.75
641.707	170.75
641.913	145.75
642.118	148.75
642.323	152.75
642.528	142.75
642.733	152.75
642.939	130.75
643.144	156.75
643.349	152.75
643.554	148.75
643.759	156.75
643.964	155.75
644.169	141.75
644.374	148.75
644.579	143.75
644.784	157.75
644.989	163.75
645.194	139.75
645.399	155.75
645.604	147.75
645.809	140.75
646.014	153.75
646.219	151.75
646.423	155.75
646.628	153.75
646.833	140.75
647.038	142.75
647.243	151.75
647.447	148.75
647.652	151.75
647.857	163.75
648.062	168.75
648.266	152.75
648.471	152.75
648.676	139.75
648.88	138.75
649.085	155.75
649.289	140.75
649.494	155.75
649.698	152.75
649.903	148.75
650.107	158.75
650.312	173.75
650.516	148.75
650.721	144.75
650.925	153.75
651.13	135.75
651.334	135.75
651.539	135.75
651.743	120.75
651.947	146.75
652.152	147.75
652.356	134.75
652.56	135.75
652.764	132.75
652.969	126.75
653.173	122.75
653.377	127.75
653.581	119.75
653.785	136.75
653.99	132.75
654.194	141.75
654.398	124.75
654.602	130.75
654.806	133.75
655.01	141.75
655.214	137.75
655.418	117.75
655.622	116.75
655.826	135.75
656.03	141.75
656.234	131.75
656.438	122.75
656.642	129.75
656.846	135.75
657.049	126.75
657.253	136.75
657.457	118.75
657.661	121.75
657.865	115.75
658.068	122.75
658.272	119.75
658.476	123.75
658.68	102.75
658.883	100.75
659.087	93.75
659.291	93.75
659.494	95.75
659.698	88.75
659.901	91.75
660.105	81.75
660.309	93.75
660.512	96.75
660.716	104.75
660.919	83.75
661.123	94.75
661.326	92.75
661.53	101.75
661.733	92.75
661.936	95.75
662.14	64.75
662.343	81.75
662.546	90.75
662.75	85.75
662.953	101.75
663.156	80.75
663.36	84.75
663.563	82.75
663.766	82.75
663.969	98.75
664.173	83.75
664.376	91.75
664.579	93.75
664.782	86.75
664.985	81.75
665.188	72.75
665.391	75.75
665.594	72.75
665.797	92.75
666	77.75
666.203	81.75
666.406	87.75
666.609	75.75
666.812	77.75
667.015	74.75
667.218	81.75
667.421	88.75
667.624	72.75
667.827	78.75
668.03	80.75
668.232	86.75
668.435	85.75
668.638	89.75
668.841	95.75
669.043	85.75
669.246	67.75
669.449	66.75
669.651	83.75
669.854	83.75
670.057	87.75
670.259	89.75
670.462	73.75
670.665	82.75
670.867	91.75
671.07	99.75
671.272	82.75
671.475	79.75
671.677	83.75
671.88	83.75
672.082	71.75
672.284	81.75
672.487	92.75
672.689	79.75
672.892	69.75
