Data from 1969.PennyLincolnUp.Lamp.En5.5.200Scan.071719.P1._HRD10591_14-55-13-972.txt Node
Date: Thu Jul 18 14:55:13 EDT 2019
User: cochatt
Spectrometer: HR+D1059
Trigger mode: 1
Integration Time (sec): 1.000000E-1
Scans to average: 1
Electric dark correction enabled: true
Nonlinearity correction enabled: false
Boxcar width: 0
XAxis mode: Wavelengths
Number of Pixels in Spectrum: 2048
>>>>>Begin Spectral Data<<<<<
223.165	-24.44
223.4	-24.44
223.635	-24.44
223.869	-14.44
224.104	-17.44
224.338	-18.44
224.573	-12.44
224.808	-6.44
225.042	-10.44
225.277	0.56
225.511	-7.44
225.746	8.56
225.98	-0.44
226.215	4.56
226.449	21.56
226.683	23.56
226.918	17.56
227.152	35.56
227.387	33.56
227.621	28.56
227.856	45.56
228.09	50.56
228.324	55.56
228.559	55.56
228.793	77.56
229.027	81.56
229.262	83.56
229.496	93.56
229.73	104.56
229.964	112.56
230.199	83.56
230.433	106.56
230.667	109.56
230.901	93.56
231.136	98.56
231.37	99.56
231.604	94.56
231.838	97.56
232.072	96.56
232.306	117.56
232.541	112.56
232.775	108.56
233.009	96.56
233.243	111.56
233.477	107.56
233.711	107.56
233.945	109.56
234.179	98.56
234.413	105.56
234.647	93.56
234.881	93.56
235.115	98.56
235.349	103.56
235.583	89.56
235.817	104.56
236.051	118.56
236.285	114.56
236.519	116.56
236.753	117.56
236.987	115.56
237.221	126.56
237.455	166.56
237.689	141.56
237.922	132.56
238.156	123.56
238.39	112.56
238.624	115.56
238.858	110.56
239.091	107.56
239.325	108.56
239.559	104.56
239.793	99.56
240.027	105.56
240.26	117.56
240.494	106.56
240.728	114.56
240.961	131.56
241.195	122.56
241.429	136.56
241.662	126.56
241.896	117.56
242.13	117.56
242.363	125.56
242.597	110.56
242.83	110.56
243.064	124.56
243.298	124.56
243.531	136.56
243.765	118.56
243.998	117.56
244.232	115.56
244.465	131.56
244.699	144.56
244.932	131.56
245.166	128.56
245.399	129.56
245.633	114.56
245.866	137.56
246.099	139.56
246.333	126.56
246.566	136.56
246.8	123.56
247.033	131.56
247.266	135.56
247.5	128.56
247.733	132.56
247.966	148.56
248.2	141.56
248.433	136.56
248.666	139.56
248.899	157.56
249.133	156.56
249.366	167.56
249.599	155.56
249.832	140.56
250.066	167.56
250.299	154.56
250.532	150.56
250.765	155.56
250.998	184.56
251.231	174.56
251.465	159.56
251.698	148.56
251.931	162.56
252.164	166.56
252.397	159.56
252.63	161.56
252.863	161.56
253.096	155.56
253.329	178.56
253.562	181.56
253.795	188.56
254.028	182.56
254.261	163.56
254.494	186.56
254.727	188.56
254.96	200.56
255.193	192.56
255.426	193.56
255.659	195.56
255.892	176.56
256.124	194.56
256.357	189.56
256.59	180.56
256.823	177.56
257.056	171.56
257.289	170.56
257.521	178.56
257.754	186.56
257.987	179.56
258.22	170.56
258.452	164.56
258.685	162.56
258.918	188.56
259.151	178.56
259.383	187.56
259.616	171.56
259.849	181.56
260.081	180.56
260.314	204.56
260.547	200.56
260.779	186.56
261.012	191.56
261.244	184.56
261.477	179.56
261.71	201.56
261.942	178.56
262.175	207.56
262.407	168.56
262.64	170.56
262.872	187.56
263.105	176.56
263.337	189.56
263.57	172.56
263.802	180.56
264.035	164.56
264.267	165.56
264.499	192.56
264.732	177.56
264.964	186.56
265.197	185.56
265.429	185.56
265.661	176.56
265.894	178.56
266.126	200.56
266.358	183.56
266.591	185.56
266.823	197.56
267.055	187.56
267.287	198.56
267.52	188.56
267.752	178.56
267.984	193.56
268.216	192.56
268.448	198.56
268.681	188.56
268.913	195.56
269.145	213.56
269.377	223.56
269.609	221.56
269.841	219.56
270.073	209.56
270.306	229.56
270.538	251.56
270.77	238.56
271.002	241.56
271.234	232.56
271.466	219.56
271.698	227.56
271.93	238.56
272.162	245.56
272.394	243.56
272.626	226.56
272.858	229.56
273.09	233.56
273.322	222.56
273.553	223.56
273.785	210.56
274.017	218.56
274.249	215.56
274.481	218.56
274.713	210.56
274.945	230.56
275.176	205.56
275.408	197.56
275.64	204.56
275.872	211.56
276.104	224.56
276.335	213.56
276.567	214.56
276.799	231.56
277.031	235.56
277.262	235.56
277.494	253.56
277.726	220.56
277.957	227.56
278.189	224.56
278.421	228.56
278.652	234.56
278.884	220.56
279.115	235.56
279.347	216.56
279.579	232.56
279.81	220.56
280.042	218.56
280.273	222.56
280.505	214.56
280.736	206.56
280.968	215.56
281.199	212.56
281.431	233.56
281.662	240.56
281.894	217.56
282.125	235.56
282.356	239.56
282.588	248.56
282.819	237.56
283.051	226.56
283.282	218.56
283.513	230.56
283.745	239.56
283.976	232.56
284.207	244.56
284.439	235.56
284.67	234.56
284.901	249.56
285.132	238.56
285.364	243.56
285.595	234.56
285.826	248.56
286.057	232.56
286.288	241.56
286.52	243.56
286.751	241.56
286.982	247.56
287.213	256.56
287.444	227.56
287.675	258.56
287.906	252.56
288.138	265.56
288.369	276.56
288.6	249.56
288.831	241.56
289.062	250.56
289.293	247.56
289.524	251.56
289.755	245.56
289.986	240.56
290.217	244.56
290.448	229.56
290.679	261.56
290.91	268.56
291.141	257.56
291.371	267.56
291.602	244.56
291.833	253.56
292.064	256.56
292.295	264.56
292.526	261.56
292.757	247.56
292.987	267.56
293.218	259.56
293.449	245.56
293.68	256.56
293.91	246.56
294.141	252.56
294.372	236.56
294.603	247.56
294.833	258.56
295.064	268.56
295.295	258.56
295.525	267.56
295.756	274.56
295.987	288.56
296.217	262.56
296.448	280.56
296.679	270.56
296.909	250.56
297.14	268.56
297.37	258.56
297.601	267.56
297.831	267.56
298.062	243.56
298.292	262.56
298.523	261.56
298.753	276.56
298.984	266.56
299.214	274.56
299.445	278.56
299.675	272.56
299.905	267.56
300.136	274.56
300.366	276.56
300.597	276.56
300.827	271.56
301.057	264.56
301.288	273.56
301.518	273.56
301.748	280.56
301.979	279.56
302.209	292.56
302.439	289.56
302.669	290.56
302.9	286.56
303.13	258.56
303.36	291.56
303.59	274.56
303.82	296.56
304.051	290.56
304.281	310.56
304.511	290.56
304.741	290.56
304.971	282.56
305.201	285.56
305.431	294.56
305.661	300.56
305.891	305.56
306.121	286.56
306.352	280.56
306.582	290.56
306.812	285.56
307.042	274.56
307.272	297.56
307.502	284.56
307.731	292.56
307.961	276.56
308.191	282.56
308.421	283.56
308.651	287.56
308.881	293.56
309.111	291.56
309.341	279.56
309.571	290.56
309.8	307.56
310.03	314.56
310.26	309.56
310.49	306.56
310.72	297.56
310.949	300.56
311.179	341.56
311.409	314.56
311.639	306.56
311.868	293.56
312.098	301.56
312.328	293.56
312.557	316.56
312.787	339.56
313.017	302.56
313.246	309.56
313.476	290.56
313.706	314.56
313.935	322.56
314.165	337.56
314.394	318.56
314.624	328.56
314.853	321.56
315.083	308.56
315.312	317.56
315.542	292.56
315.771	317.56
316.001	284.56
316.23	326.56
316.46	306.56
316.689	296.56
316.919	301.56
317.148	304.56
317.377	308.56
317.607	316.56
317.836	292.56
318.065	304.56
318.295	304.56
318.524	293.56
318.753	314.56
318.983	301.56
319.212	322.56
319.441	322.56
319.67	309.56
319.9	308.56
320.129	307.56
320.358	311.56
320.587	319.56
320.816	317.56
321.046	309.56
321.275	333.56
321.504	332.56
321.733	320.56
321.962	321.56
322.191	313.56
322.42	318.56
322.649	353.56
322.878	359.56
323.108	358.56
323.337	370.56
323.566	368.56
323.795	397.56
324.024	388.56
324.253	453.56
324.482	581.56
324.71	812.56
324.939	1042.56
325.168	896.56
325.397	538.56
325.626	400.56
325.855	366.56
326.084	370.56
326.313	361.56
326.542	357.56
326.77	385.56
326.999	439.56
327.228	539.56
327.457	778.56
327.686	835.56
327.914	589.56
328.143	453.56
328.372	407.56
328.6	394.56
328.829	391.56
329.058	397.56
329.287	396.56
329.515	384.56
329.744	386.56
329.972	378.56
330.201	381.56
330.43	400.56
330.658	430.56
330.887	424.56
331.115	434.56
331.344	393.56
331.572	370.56
331.801	377.56
332.03	371.56
332.258	384.56
332.486	388.56
332.715	376.56
332.943	388.56
333.172	369.56
333.4	392.56
333.629	415.56
333.857	435.56
334.085	418.56
334.314	427.56
334.542	429.56
334.771	459.56
334.999	424.56
335.227	391.56
335.455	381.56
335.684	404.56
335.912	380.56
336.14	371.56
336.369	356.56
336.597	365.56
336.825	376.56
337.053	372.56
337.281	352.56
337.51	336.56
337.738	363.56
337.966	368.56
338.194	348.56
338.422	360.56
338.65	358.56
338.878	358.56
339.106	372.56
339.334	340.56
339.562	345.56
339.79	340.56
340.018	349.56
340.246	360.56
340.474	353.56
340.702	329.56
340.93	340.56
341.158	336.56
341.386	342.56
341.614	351.56
341.842	355.56
342.07	345.56
342.298	340.56
342.526	331.56
342.754	344.56
342.981	340.56
343.209	344.56
343.437	353.56
343.665	361.56
343.893	370.56
344.12	376.56
344.348	359.56
344.576	355.56
344.804	352.56
345.031	347.56
345.259	341.56
345.487	342.56
345.714	348.56
345.942	338.56
346.17	333.56
346.397	326.56
346.625	320.56
346.853	318.56
347.08	320.56
347.308	332.56
347.535	337.56
347.763	328.56
347.99	327.56
348.218	329.56
348.445	340.56
348.673	362.56
348.9	318.56
349.128	334.56
349.355	323.56
349.583	308.56
349.81	313.56
350.037	323.56
350.265	346.56
350.492	309.56
350.72	314.56
350.947	313.56
351.174	336.56
351.402	339.56
351.629	320.56
351.856	326.56
352.083	316.56
352.311	315.56
352.538	332.56
352.765	345.56
352.992	329.56
353.22	297.56
353.447	304.56
353.674	321.56
353.901	325.56
354.128	321.56
354.355	310.56
354.583	317.56
354.81	325.56
355.037	315.56
355.264	321.56
355.491	326.56
355.718	304.56
355.945	314.56
356.172	308.56
356.399	314.56
356.626	334.56
356.853	315.56
357.08	324.56
357.307	307.56
357.534	308.56
357.761	297.56
357.988	322.56
358.215	304.56
358.441	328.56
358.668	313.56
358.895	303.56
359.122	324.56
359.349	304.56
359.576	328.56
359.802	325.56
360.029	347.56
360.256	335.56
360.483	336.56
360.709	323.56
360.936	340.56
361.163	325.56
361.39	326.56
361.616	340.56
361.843	341.56
362.07	323.56
362.296	312.56
362.523	298.56
362.749	326.56
362.976	311.56
363.203	308.56
363.429	323.56
363.656	311.56
363.882	313.56
364.109	333.56
364.335	319.56
364.562	315.56
364.788	323.56
365.015	313.56
365.241	307.56
365.468	333.56
365.694	324.56
365.92	328.56
366.147	333.56
366.373	311.56
366.599	314.56
366.826	300.56
367.052	324.56
367.278	329.56
367.505	313.56
367.731	314.56
367.957	329.56
368.184	315.56
368.41	345.56
368.636	307.56
368.862	313.56
369.089	330.56
369.315	331.56
369.541	322.56
369.767	328.56
369.993	325.56
370.219	325.56
370.445	305.56
370.672	304.56
370.898	309.56
371.124	334.56
371.35	324.56
371.576	325.56
371.802	317.56
372.028	304.56
372.254	330.56
372.48	318.56
372.706	317.56
372.932	315.56
373.158	331.56
373.384	319.56
373.61	333.56
373.835	334.56
374.061	316.56
374.287	312.56
374.513	339.56
374.739	346.56
374.965	331.56
375.191	340.56
375.416	331.56
375.642	333.56
375.868	339.56
376.094	331.56
376.319	321.56
376.545	325.56
376.771	328.56
376.997	325.56
377.222	338.56
377.448	342.56
377.674	320.56
377.899	331.56
378.125	325.56
378.35	328.56
378.576	306.56
378.802	318.56
379.027	333.56
379.253	325.56
379.478	327.56
379.704	336.56
379.929	316.56
380.155	297.56
380.38	306.56
380.606	323.56
380.831	327.56
381.057	341.56
381.282	341.56
381.507	325.56
381.733	314.56
381.958	333.56
382.184	326.56
382.409	322.56
382.634	341.56
382.86	328.56
383.085	336.56
383.31	343.56
383.535	353.56
383.761	331.56
383.986	337.56
384.211	370.56
384.436	351.56
384.662	354.56
384.887	351.56
385.112	351.56
385.337	368.56
385.562	380.56
385.787	360.56
386.013	372.56
386.238	352.56
386.463	361.56
386.688	373.56
386.913	364.56
387.138	349.56
387.363	344.56
387.588	352.56
387.813	361.56
388.038	373.56
388.263	372.56
388.488	364.56
388.713	377.56
388.938	357.56
389.163	356.56
389.387	365.56
389.612	349.56
389.837	340.56
390.062	351.56
390.287	360.56
390.512	345.56
390.736	369.56
390.961	383.56
391.186	358.56
391.411	384.56
391.636	376.56
391.86	379.56
392.085	412.56
392.31	377.56
392.534	374.56
392.759	378.56
392.984	377.56
393.208	385.56
393.433	384.56
393.658	371.56
393.882	372.56
394.107	356.56
394.331	360.56
394.556	382.56
394.78	372.56
395.005	370.56
395.229	374.56
395.454	388.56
395.678	381.56
395.903	389.56
396.127	393.56
396.352	386.56
396.576	381.56
396.801	374.56
397.025	387.56
397.249	402.56
397.474	388.56
397.698	390.56
397.922	410.56
398.147	380.56
398.371	412.56
398.595	420.56
398.82	429.56
399.044	448.56
399.268	464.56
399.492	501.56
399.717	549.56
399.941	560.56
400.165	516.56
400.389	499.56
400.613	461.56
400.837	440.56
401.062	434.56
401.286	425.56
401.51	404.56
401.734	433.56
401.958	429.56
402.182	428.56
402.406	418.56
402.63	426.56
402.854	435.56
403.078	451.56
403.302	437.56
403.526	454.56
403.75	451.56
403.974	440.56
404.198	437.56
404.422	452.56
404.645	455.56
404.869	471.56
405.093	465.56
405.317	473.56
405.541	493.56
405.765	475.56
405.988	467.56
406.212	467.56
406.436	460.56
406.66	500.56
406.883	470.56
407.107	520.56
407.331	540.56
407.555	545.56
407.778	557.56
408.002	507.56
408.226	494.56
408.449	480.56
408.673	492.56
408.896	489.56
409.12	487.56
409.344	488.56
409.567	438.56
409.791	442.56
410.014	455.56
410.238	422.56
410.461	424.56
410.685	448.56
410.908	419.56
411.132	460.56
411.355	458.56
411.578	445.56
411.802	457.56
412.025	433.56
412.249	424.56
412.472	463.56
412.695	484.56
412.919	447.56
413.142	442.56
413.365	442.56
413.589	426.56
413.812	413.56
414.035	405.56
414.258	416.56
414.482	420.56
414.705	422.56
414.928	417.56
415.151	427.56
415.374	408.56
415.597	409.56
415.821	391.56
416.044	408.56
416.267	427.56
416.49	406.56
416.713	402.56
416.936	409.56
417.159	403.56
417.382	422.56
417.605	432.56
417.828	419.56
418.051	421.56
418.274	429.56
418.497	401.56
418.72	445.56
418.943	418.56
419.166	435.56
419.389	461.56
419.611	452.56
419.834	445.56
420.057	451.56
420.28	433.56
420.503	433.56
420.726	445.56
420.948	439.56
421.171	454.56
421.394	472.56
421.617	448.56
421.839	410.56
422.062	440.56
422.285	428.56
422.507	459.56
422.73	487.56
422.953	482.56
423.175	448.56
423.398	433.56
423.621	451.56
423.843	466.56
424.066	477.56
424.288	446.56
424.511	451.56
424.733	481.56
424.956	533.56
425.178	530.56
425.401	490.56
425.623	504.56
425.846	465.56
426.068	438.56
426.291	422.56
426.513	435.56
426.735	445.56
426.958	445.56
427.18	487.56
427.402	551.56
427.625	603.56
427.847	520.56
428.069	467.56
428.292	436.56
428.514	423.56
428.736	406.56
428.958	405.56
429.181	389.56
429.403	385.56
429.625	399.56
429.847	425.56
430.069	440.56
430.292	445.56
430.514	398.56
430.736	398.56
430.958	397.56
431.18	388.56
431.402	385.56
431.624	385.56
431.846	384.56
432.068	376.56
432.29	387.56
432.512	387.56
432.734	397.56
432.956	396.56
433.178	383.56
433.4	402.56
433.622	392.56
433.844	414.56
434.066	406.56
434.287	390.56
434.509	389.56
434.731	404.56
434.953	435.56
435.175	436.56
435.397	448.56
435.618	426.56
435.84	458.56
436.062	512.56
436.284	528.56
436.505	452.56
436.727	420.56
436.949	395.56
437.17	391.56
437.392	400.56
437.614	402.56
437.835	423.56
438.057	446.56
438.278	525.56
438.5	540.56
438.721	567.56
438.943	534.56
439.165	457.56
439.386	442.56
439.608	424.56
439.829	426.56
440.05	441.56
440.272	434.56
440.493	433.56
440.715	429.56
440.936	400.56
441.158	405.56
441.379	397.56
441.6	435.56
441.822	458.56
442.043	461.56
442.264	502.56
442.486	519.56
442.707	461.56
442.928	434.56
443.149	452.56
443.371	437.56
443.592	501.56
443.813	531.56
444.034	559.56
444.255	481.56
444.476	474.56
444.698	464.56
444.919	454.56
445.14	562.56
445.361	523.56
445.582	462.56
445.803	500.56
446.024	548.56
446.245	542.56
446.466	478.56
446.687	462.56
446.908	433.56
447.129	383.56
447.35	406.56
447.571	390.56
447.792	392.56
448.013	376.56
448.234	403.56
448.455	425.56
448.675	482.56
448.896	554.56
449.117	471.56
449.338	448.56
449.559	519.56
449.779	562.56
450	442.56
450.221	405.56
450.442	391.56
450.662	405.56
450.883	403.56
451.104	382.56
451.324	384.56
451.545	367.56
451.766	370.56
451.986	379.56
452.207	330.56
452.428	337.56
452.648	340.56
452.869	364.56
453.089	359.56
453.31	359.56
453.53	344.56
453.751	357.56
453.971	364.56
454.192	360.56
454.412	369.56
454.633	360.56
454.853	344.56
455.073	348.56
455.294	385.56
455.514	401.56
455.734	397.56
455.955	352.56
456.175	352.56
456.395	357.56
456.616	331.56
456.836	349.56
457.056	344.56
457.276	326.56
457.497	344.56
457.717	339.56
457.937	341.56
458.157	356.56
458.377	347.56
458.598	371.56
458.818	396.56
459.038	435.56
459.258	455.56
459.478	416.56
459.698	404.56
459.918	413.56
460.138	407.56
460.358	426.56
460.578	441.56
460.798	415.56
461.018	404.56
461.238	410.56
461.458	421.56
461.678	420.56
461.898	416.56
462.118	413.56
462.338	424.56
462.558	445.56
462.777	450.56
462.997	504.56
463.217	478.56
463.437	497.56
463.657	483.56
463.876	475.56
464.096	477.56
464.316	463.56
464.536	457.56
464.755	460.56
464.975	427.56
465.195	455.56
465.414	455.56
465.634	423.56
465.854	421.56
466.073	402.56
466.293	381.56
466.512	386.56
466.732	388.56
466.951	386.56
467.171	401.56
467.391	389.56
467.61	393.56
467.829	389.56
468.049	375.56
468.268	389.56
468.488	382.56
468.707	368.56
468.927	370.56
469.146	375.56
469.365	369.56
469.585	361.56
469.804	372.56
470.023	390.56
470.243	384.56
470.462	383.56
470.681	401.56
470.901	396.56
471.12	368.56
471.339	374.56
471.558	374.56
471.777	363.56
471.997	375.56
472.216	380.56
472.435	370.56
472.654	378.56
472.873	374.56
473.092	371.56
473.311	369.56
473.53	377.56
473.749	379.56
473.968	401.56
474.187	449.56
474.406	434.56
474.625	388.56
474.844	388.56
475.063	377.56
475.282	371.56
475.501	365.56
475.72	365.56
475.939	363.56
476.158	385.56
476.377	376.56
476.596	391.56
476.814	391.56
477.033	383.56
477.252	385.56
477.471	384.56
477.69	407.56
477.908	440.56
478.127	430.56
478.346	434.56
478.564	433.56
478.783	432.56
479.002	413.56
479.22	422.56
479.439	444.56
479.658	452.56
479.876	444.56
480.095	468.56
480.313	482.56
480.532	469.56
480.751	488.56
480.969	478.56
481.188	489.56
481.406	525.56
481.624	454.56
481.843	449.56
482.061	446.56
482.28	416.56
482.498	424.56
482.717	429.56
482.935	442.56
483.153	406.56
483.372	418.56
483.59	436.56
483.808	408.56
484.027	447.56
484.245	406.56
484.463	441.56
484.681	433.56
484.9	440.56
485.118	439.56
485.336	438.56
485.554	434.56
485.772	440.56
485.99	439.56
486.209	456.56
486.427	460.56
486.645	457.56
486.863	450.56
487.081	440.56
487.299	460.56
487.517	460.56
487.735	458.56
487.953	451.56
488.171	464.56
488.389	444.56
488.607	430.56
488.825	455.56
489.043	462.56
489.261	452.56
489.479	445.56
489.696	461.56
489.914	459.56
490.132	455.56
490.35	456.56
490.568	491.56
490.786	504.56
491.003	500.56
491.221	498.56
491.439	508.56
491.657	502.56
491.874	518.56
492.092	547.56
492.31	514.56
492.527	532.56
492.745	535.56
492.963	532.56
493.18	532.56
493.398	542.56
493.615	526.56
493.833	542.56
494.05	534.56
494.268	551.56
494.485	512.56
494.703	532.56
494.92	523.56
495.138	526.56
495.355	522.56
495.573	513.56
495.79	517.56
496.008	540.56
496.225	517.56
496.442	555.56
496.66	537.56
496.877	556.56
497.094	544.56
497.312	562.56
497.529	572.56
497.746	565.56
497.963	588.56
498.181	608.56
498.398	605.56
498.615	636.56
498.832	625.56
499.049	658.56
499.267	697.56
499.484	748.56
499.701	786.56
499.918	813.56
500.135	890.56
500.352	936.56
500.569	920.56
500.786	976.56
501.003	919.56
501.22	873.56
501.437	818.56
501.654	755.56
501.871	737.56
502.088	692.56
502.305	660.56
502.522	644.56
502.739	616.56
502.956	608.56
503.172	601.56
503.389	580.56
503.606	582.56
503.823	566.56
504.04	564.56
504.256	562.56
504.473	564.56
504.69	554.56
504.907	573.56
505.123	533.56
505.34	528.56
505.557	513.56
505.773	516.56
505.99	484.56
506.207	502.56
506.423	504.56
506.64	523.56
506.856	488.56
507.073	477.56
507.289	468.56
507.506	452.56
507.722	481.56
507.939	480.56
508.155	476.56
508.372	469.56
508.588	446.56
508.805	467.56
509.021	472.56
509.238	473.56
509.454	448.56
509.67	444.56
509.887	479.56
510.103	456.56
510.319	451.56
510.536	513.56
510.752	732.56
510.968	594.56
511.184	468.56
511.401	436.56
511.617	422.56
511.833	452.56
512.049	429.56
512.265	436.56
512.481	423.56
512.698	436.56
512.914	419.56
513.13	440.56
513.346	423.56
513.562	412.56
513.778	429.56
513.994	442.56
514.21	439.56
514.426	446.56
514.642	478.56
514.858	461.56
515.074	477.56
515.29	537.56
515.506	743.56
515.721	656.56
515.937	499.56
516.153	475.56
516.369	468.56
516.585	459.56
516.801	485.56
517.016	505.56
517.232	485.56
517.448	485.56
517.664	505.56
517.879	496.56
518.095	491.56
518.311	479.56
518.527	487.56
518.742	483.56
518.958	471.56
519.173	470.56
519.389	453.56
519.605	457.56
519.82	449.56
520.036	435.56
520.251	452.56
520.467	449.56
520.682	469.56
520.898	452.56
521.113	453.56
521.329	477.56
521.544	511.56
521.76	602.56
521.975	873.56
522.19	884.56
522.406	566.56
522.621	473.56
522.836	423.56
523.052	410.56
523.267	401.56
523.482	382.56
523.698	403.56
523.913	404.56
524.128	417.56
524.343	396.56
524.559	392.56
524.774	365.56
524.989	380.56
525.204	392.56
525.419	398.56
525.634	379.56
525.849	383.56
526.064	381.56
526.28	384.56
526.495	365.56
526.71	350.56
526.925	352.56
527.14	359.56
527.355	373.56
527.57	376.56
527.785	378.56
527.999	359.56
528.214	361.56
528.429	368.56
528.644	374.56
528.859	376.56
529.074	362.56
529.289	386.56
529.503	421.56
529.718	402.56
529.933	392.56
530.148	372.56
530.363	372.56
530.577	372.56
530.792	381.56
531.007	350.56
531.221	366.56
531.436	372.56
531.651	384.56
531.865	368.56
532.08	360.56
532.295	376.56
532.509	371.56
532.724	364.56
532.938	359.56
533.153	374.56
533.367	350.56
533.582	367.56
533.796	360.56
534.011	364.56
534.225	390.56
534.44	360.56
534.654	344.56
534.868	355.56
535.083	361.56
535.297	353.56
535.511	356.56
535.726	371.56
535.94	363.56
536.154	369.56
536.369	363.56
536.583	360.56
536.797	343.56
537.011	343.56
537.225	343.56
537.44	369.56
537.654	345.56
537.868	350.56
538.082	339.56
538.296	341.56
538.51	353.56
538.724	352.56
538.938	349.56
539.153	361.56
539.367	336.56
539.581	340.56
539.795	350.56
540.009	345.56
540.222	340.56
540.436	344.56
540.65	354.56
540.864	364.56
541.078	359.56
541.292	340.56
541.506	355.56
541.72	361.56
541.934	324.56
542.147	376.56
542.361	329.56
542.575	360.56
542.789	359.56
543.002	338.56
543.216	349.56
543.43	358.56
543.644	352.56
543.857	357.56
544.071	335.56
544.285	365.56
544.498	358.56
544.712	356.56
544.925	363.56
545.139	358.56
545.352	358.56
545.566	347.56
545.779	361.56
545.993	351.56
546.206	349.56
546.42	365.56
546.633	347.56
546.847	368.56
547.06	341.56
547.274	355.56
547.487	343.56
547.7	339.56
547.914	349.56
548.127	338.56
548.34	355.56
548.554	344.56
548.767	358.56
548.98	344.56
549.193	352.56
549.407	347.56
549.62	349.56
549.833	373.56
550.046	348.56
550.259	348.56
550.473	350.56
550.686	355.56
550.899	334.56
551.112	351.56
551.325	343.56
551.538	352.56
551.751	329.56
551.964	328.56
552.177	341.56
552.39	339.56
552.603	356.56
552.816	357.56
553.029	362.56
553.242	369.56
553.455	376.56
553.667	372.56
553.88	363.56
554.093	388.56
554.306	358.56
554.519	361.56
554.732	345.56
554.944	340.56
555.157	346.56
555.37	334.56
555.583	323.56
555.795	329.56
556.008	318.56
556.221	317.56
556.433	321.56
556.646	281.56
556.859	288.56
557.071	324.56
557.284	275.56
557.496	326.56
557.709	306.56
557.921	311.56
558.134	310.56
558.346	304.56
558.559	300.56
558.771	301.56
558.984	299.56
559.196	297.56
559.409	324.56
559.621	314.56
559.833	299.56
560.046	299.56
560.258	306.56
560.47	298.56
560.683	301.56
560.895	316.56
561.107	300.56
561.32	304.56
561.532	298.56
561.744	306.56
561.956	312.56
562.168	295.56
562.381	306.56
562.593	304.56
562.805	316.56
563.017	313.56
563.229	313.56
563.441	302.56
563.653	296.56
563.865	312.56
564.077	308.56
564.289	306.56
564.501	322.56
564.713	323.56
564.925	323.56
565.137	322.56
565.349	357.56
565.561	340.56
565.773	357.56
565.985	360.56
566.197	361.56
566.408	363.56
566.62	404.56
566.832	423.56
567.044	420.56
567.255	425.56
567.467	434.56
567.679	433.56
567.891	473.56
568.102	469.56
568.314	442.56
568.526	423.56
568.737	408.56
568.949	383.56
569.161	373.56
569.372	351.56
569.584	334.56
569.795	338.56
570.007	317.56
570.218	323.56
570.43	314.56
570.641	310.56
570.853	314.56
571.064	306.56
571.276	292.56
571.487	310.56
571.698	272.56
571.91	287.56
572.121	293.56
572.333	292.56
572.544	279.56
572.755	291.56
572.966	277.56
573.178	274.56
573.389	280.56
573.6	260.56
573.811	253.56
574.023	258.56
574.234	258.56
574.445	289.56
574.656	256.56
574.867	276.56
575.078	270.56
575.289	264.56
575.501	274.56
575.712	250.56
575.923	265.56
576.134	258.56
576.345	247.56
576.556	258.56
576.767	265.56
576.978	260.56
577.188	251.56
577.399	242.56
577.61	254.56
577.821	256.56
578.032	267.56
578.243	286.56
578.454	344.56
578.665	298.56
578.875	261.56
579.086	248.56
579.297	234.56
579.508	244.56
579.718	245.56
579.929	260.56
580.14	242.56
580.35	246.56
580.561	240.56
580.772	252.56
580.982	258.56
581.193	232.56
581.403	242.56
581.614	244.56
581.825	250.56
582.035	254.56
582.246	244.56
582.456	231.56
582.667	253.56
582.877	243.56
583.087	240.56
583.298	219.56
583.508	249.56
583.719	234.56
583.929	249.56
584.139	249.56
584.35	229.56
584.56	246.56
584.77	242.56
584.981	230.56
585.191	228.56
585.401	240.56
585.611	245.56
585.821	247.56
586.032	245.56
586.242	227.56
586.452	251.56
586.662	226.56
586.872	227.56
587.082	223.56
587.292	222.56
587.502	226.56
587.713	226.56
587.923	242.56
588.133	226.56
588.343	243.56
588.553	244.56
588.762	231.56
588.972	244.56
589.182	242.56
589.392	248.56
589.602	234.56
589.812	245.56
590.022	226.56
590.232	250.56
590.441	238.56
590.651	221.56
590.861	250.56
591.071	243.56
591.281	248.56
591.49	240.56
591.7	232.56
591.91	249.56
592.119	242.56
592.329	249.56
592.539	257.56
592.748	252.56
592.958	259.56
593.167	266.56
593.377	260.56
593.587	281.56
593.796	264.56
594.006	266.56
594.215	255.56
594.424	258.56
594.634	265.56
594.843	256.56
595.053	268.56
595.262	243.56
595.472	248.56
595.681	240.56
595.89	230.56
596.1	237.56
596.309	230.56
596.518	245.56
596.727	232.56
596.937	213.56
597.146	248.56
597.355	233.56
597.564	216.56
597.774	216.56
597.983	215.56
598.192	209.56
598.401	222.56
598.61	217.56
598.819	232.56
599.028	221.56
599.237	213.56
599.446	209.56
599.655	227.56
599.864	227.56
600.073	212.56
600.282	209.56
600.491	206.56
600.7	212.56
600.909	199.56
601.118	219.56
601.327	212.56
601.536	213.56
601.745	218.56
601.953	218.56
602.162	220.56
602.371	224.56
602.58	207.56
602.789	201.56
602.997	215.56
603.206	205.56
603.415	217.56
603.623	208.56
603.832	202.56
604.041	218.56
604.249	208.56
604.458	204.56
604.666	191.56
604.875	190.56
605.084	194.56
605.292	201.56
605.501	222.56
605.709	204.56
605.918	204.56
606.126	210.56
606.334	205.56
606.543	204.56
606.751	196.56
606.96	205.56
607.168	212.56
607.376	199.56
607.585	205.56
607.793	206.56
608.001	201.56
608.21	194.56
608.418	192.56
608.626	192.56
608.834	203.56
609.043	191.56
609.251	207.56
609.459	196.56
609.667	220.56
609.875	193.56
610.083	192.56
610.291	209.56
610.499	197.56
610.707	217.56
610.916	209.56
611.124	212.56
611.332	209.56
611.54	213.56
611.748	217.56
611.955	223.56
612.163	197.56
612.371	195.56
612.579	195.56
612.787	196.56
612.995	202.56
613.203	210.56
613.411	203.56
613.618	212.56
613.826	194.56
614.034	210.56
614.242	208.56
614.449	198.56
614.657	190.56
614.865	206.56
615.072	201.56
615.28	199.56
615.488	196.56
615.695	196.56
615.903	211.56
616.111	199.56
616.318	203.56
616.526	200.56
616.733	184.56
616.941	181.56
617.148	188.56
617.356	199.56
617.563	194.56
617.771	204.56
617.978	188.56
618.185	189.56
618.393	193.56
618.6	186.56
618.807	201.56
619.015	184.56
619.222	184.56
619.429	197.56
619.637	200.56
619.844	210.56
620.051	198.56
620.258	188.56
620.466	190.56
620.673	196.56
620.88	190.56
621.087	181.56
621.294	212.56
621.501	188.56
621.708	196.56
621.915	193.56
622.122	184.56
622.329	193.56
622.536	209.56
622.743	173.56
622.95	181.56
623.157	191.56
623.364	202.56
623.571	177.56
623.778	197.56
623.985	197.56
624.192	194.56
624.399	180.56
624.606	184.56
624.812	187.56
625.019	192.56
625.226	167.56
625.433	174.56
625.639	171.56
625.846	171.56
626.053	178.56
626.259	185.56
626.466	189.56
626.673	184.56
626.879	171.56
627.086	168.56
627.293	187.56
627.499	198.56
627.706	160.56
627.912	170.56
628.119	167.56
628.325	173.56
628.532	173.56
628.738	170.56
628.945	178.56
629.151	171.56
629.357	166.56
629.564	173.56
629.77	178.56
629.976	162.56
630.183	172.56
630.389	164.56
630.595	172.56
630.802	170.56
631.008	167.56
631.214	158.56
631.42	165.56
631.627	163.56
631.833	158.56
632.039	170.56
632.245	159.56
632.451	175.56
632.657	175.56
632.863	158.56
633.069	157.56
633.275	167.56
633.481	169.56
633.688	152.56
633.893	163.56
634.099	154.56
634.305	148.56
634.511	161.56
634.717	163.56
634.923	163.56
635.129	154.56
635.335	155.56
635.541	149.56
635.747	155.56
635.952	146.56
636.158	156.56
636.364	168.56
636.57	166.56
636.775	171.56
636.981	165.56
637.187	166.56
637.392	154.56
637.598	147.56
637.804	156.56
638.009	158.56
638.215	171.56
638.421	156.56
638.626	157.56
638.832	157.56
639.037	154.56
639.243	163.56
639.448	170.56
639.654	152.56
639.859	152.56
640.065	149.56
640.27	170.56
640.475	154.56
640.681	162.56
640.886	152.56
641.091	144.56
641.297	136.56
641.502	161.56
641.707	142.56
641.913	148.56
642.118	138.56
642.323	158.56
642.528	162.56
642.733	136.56
642.939	153.56
643.144	145.56
643.349	140.56
643.554	150.56
643.759	159.56
643.964	138.56
644.169	141.56
644.374	150.56
644.579	146.56
644.784	138.56
644.989	148.56
645.194	153.56
645.399	140.56
645.604	158.56
645.809	147.56
646.014	138.56
646.219	152.56
646.423	144.56
646.628	149.56
646.833	159.56
647.038	164.56
647.243	159.56
647.447	161.56
647.652	146.56
647.857	148.56
648.062	150.56
648.266	148.56
648.471	167.56
648.676	165.56
648.88	148.56
649.085	144.56
649.289	150.56
649.494	138.56
649.698	160.56
649.903	162.56
650.107	156.56
650.312	152.56
650.516	144.56
650.721	139.56
650.925	148.56
651.13	132.56
651.334	139.56
651.539	129.56
651.743	146.56
651.947	132.56
652.152	132.56
652.356	128.56
652.56	147.56
652.764	139.56
652.969	129.56
653.173	127.56
653.377	129.56
653.581	120.56
653.785	144.56
653.99	147.56
654.194	133.56
654.398	132.56
654.602	120.56
654.806	128.56
655.01	136.56
655.214	136.56
655.418	137.56
655.622	124.56
655.826	128.56
656.03	132.56
656.234	139.56
656.438	139.56
656.642	132.56
656.846	142.56
657.049	126.56
657.253	121.56
657.457	121.56
657.661	106.56
657.865	106.56
658.068	117.56
658.272	96.56
658.476	96.56
658.68	106.56
658.883	108.56
659.087	103.56
659.291	97.56
659.494	94.56
659.698	114.56
659.901	100.56
660.105	89.56
660.309	106.56
660.512	81.56
660.716	95.56
660.919	95.56
661.123	99.56
661.326	101.56
661.53	93.56
661.733	97.56
661.936	90.56
662.14	73.56
662.343	93.56
662.546	92.56
662.75	78.56
662.953	87.56
663.156	82.56
663.36	89.56
663.563	85.56
663.766	76.56
663.969	84.56
664.173	90.56
664.376	74.56
664.579	82.56
664.782	84.56
664.985	73.56
665.188	88.56
665.391	90.56
665.594	90.56
665.797	72.56
666	89.56
666.203	92.56
666.406	86.56
666.609	99.56
666.812	90.56
667.015	86.56
667.218	78.56
667.421	82.56
667.624	82.56
667.827	86.56
668.03	74.56
668.232	84.56
668.435	90.56
668.638	79.56
668.841	76.56
669.043	92.56
669.246	83.56
669.449	85.56
669.651	78.56
669.854	76.56
670.057	78.56
670.259	72.56
670.462	81.56
670.665	91.56
670.867	79.56
671.07	86.56
671.272	89.56
671.475	71.56
671.677	69.56
671.88	90.56
672.082	81.56
672.284	92.56
672.487	79.56
672.689	74.56
672.892	87.56
