Data from 1969.PennyLincolnUp.Lamp.En5.5.200Scan.071719.P1._HRD10591_14-56-27-973.txt Node
Date: Thu Jul 18 14:56:27 EDT 2019
User: cochatt
Spectrometer: HR+D1059
Trigger mode: 1
Integration Time (sec): 1.000000E-1
Scans to average: 1
Electric dark correction enabled: true
Nonlinearity correction enabled: false
Boxcar width: 0
XAxis mode: Wavelengths
Number of Pixels in Spectrum: 2048
>>>>>Begin Spectral Data<<<<<
223.165	-8.69
223.4	-8.69
223.635	-8.69
223.869	-21.69
224.104	-20.69
224.338	-11.69
224.573	-16.69
224.808	-4.69
225.042	-24.69
225.277	-4.69
225.511	-4.69
225.746	14.31
225.98	4.31
226.215	3.31
226.449	16.31
226.683	24.31
226.918	26.31
227.152	29.31
227.387	26.31
227.621	34.31
227.856	40.31
228.09	47.31
228.324	51.31
228.559	60.31
228.793	69.31
229.027	82.31
229.262	86.31
229.496	98.31
229.73	108.31
229.964	113.31
230.199	99.31
230.433	92.31
230.667	103.31
230.901	103.31
231.136	102.31
231.37	94.31
231.604	96.31
231.838	109.31
232.072	100.31
232.306	119.31
232.541	110.31
232.775	109.31
233.009	106.31
233.243	109.31
233.477	113.31
233.711	116.31
233.945	96.31
234.179	104.31
234.413	108.31
234.647	123.31
234.881	96.31
235.115	121.31
235.349	120.31
235.583	109.31
235.817	118.31
236.051	122.31
236.285	109.31
236.519	116.31
236.753	123.31
236.987	125.31
237.221	138.31
237.455	149.31
237.689	153.31
237.922	116.31
238.156	122.31
238.39	111.31
238.624	112.31
238.858	101.31
239.091	109.31
239.325	117.31
239.559	115.31
239.793	118.31
240.027	130.31
240.26	122.31
240.494	139.31
240.728	138.31
240.961	121.31
241.195	119.31
241.429	143.31
241.662	112.31
241.896	110.31
242.13	110.31
242.363	124.31
242.597	140.31
242.83	141.31
243.064	119.31
243.298	132.31
243.531	130.31
243.765	110.31
243.998	126.31
244.232	115.31
244.465	136.31
244.699	124.31
244.932	120.31
245.166	129.31
245.399	129.31
245.633	134.31
245.866	121.31
246.099	137.31
246.333	117.31
246.566	110.31
246.8	131.31
247.033	148.31
247.266	143.31
247.5	139.31
247.733	152.31
247.966	154.31
248.2	142.31
248.433	148.31
248.666	153.31
248.899	153.31
249.133	167.31
249.366	176.31
249.599	176.31
249.832	161.31
250.066	166.31
250.299	149.31
250.532	167.31
250.765	179.31
250.998	179.31
251.231	203.31
251.465	194.31
251.698	181.31
251.931	189.31
252.164	166.31
252.397	169.31
252.63	183.31
252.863	168.31
253.096	168.31
253.329	192.31
253.562	170.31
253.795	165.31
254.028	176.31
254.261	188.31
254.494	196.31
254.727	204.31
254.96	234.31
255.193	219.31
255.426	213.31
255.659	184.31
255.892	202.31
256.124	197.31
256.357	203.31
256.59	178.31
256.823	178.31
257.056	188.31
257.289	176.31
257.521	185.31
257.754	174.31
257.987	181.31
258.22	180.31
258.452	180.31
258.685	186.31
258.918	182.31
259.151	177.31
259.383	172.31
259.616	180.31
259.849	192.31
260.081	198.31
260.314	210.31
260.547	214.31
260.779	201.31
261.012	197.31
261.244	196.31
261.477	185.31
261.71	196.31
261.942	196.31
262.175	188.31
262.407	193.31
262.64	195.31
262.872	197.31
263.105	181.31
263.337	195.31
263.57	193.31
263.802	184.31
264.035	182.31
264.267	195.31
264.499	173.31
264.732	187.31
264.964	174.31
265.197	180.31
265.429	184.31
265.661	192.31
265.894	166.31
266.126	179.31
266.358	194.31
266.591	201.31
266.823	205.31
267.055	204.31
267.287	215.31
267.52	232.31
267.752	187.31
267.984	198.31
268.216	199.31
268.448	203.31
268.681	206.31
268.913	205.31
269.145	229.31
269.377	243.31
269.609	221.31
269.841	231.31
270.073	235.31
270.306	233.31
270.538	288.31
270.77	261.31
271.002	248.31
271.234	238.31
271.466	248.31
271.698	248.31
271.93	273.31
272.162	246.31
272.394	274.31
272.626	248.31
272.858	250.31
273.09	236.31
273.322	224.31
273.553	244.31
273.785	220.31
274.017	226.31
274.249	229.31
274.481	229.31
274.713	220.31
274.945	241.31
275.176	240.31
275.408	236.31
275.64	220.31
275.872	223.31
276.104	236.31
276.335	230.31
276.567	248.31
276.799	233.31
277.031	262.31
277.262	281.31
277.494	277.31
277.726	259.31
277.957	281.31
278.189	258.31
278.421	238.31
278.652	248.31
278.884	241.31
279.115	229.31
279.347	233.31
279.579	229.31
279.81	231.31
280.042	242.31
280.273	218.31
280.505	246.31
280.736	238.31
280.968	231.31
281.199	233.31
281.431	236.31
281.662	235.31
281.894	238.31
282.125	251.31
282.356	253.31
282.588	262.31
282.819	262.31
283.051	252.31
283.282	226.31
283.513	230.31
283.745	256.31
283.976	248.31
284.207	262.31
284.439	234.31
284.67	256.31
284.901	232.31
285.132	256.31
285.364	236.31
285.595	241.31
285.826	251.31
286.057	215.31
286.288	250.31
286.52	248.31
286.751	240.31
286.982	247.31
287.213	266.31
287.444	250.31
287.675	253.31
287.906	260.31
288.138	260.31
288.369	267.31
288.6	285.31
288.831	257.31
289.062	285.31
289.293	280.31
289.524	268.31
289.755	257.31
289.986	258.31
290.217	264.31
290.448	258.31
290.679	248.31
290.91	274.31
291.141	256.31
291.371	270.31
291.602	259.31
291.833	278.31
292.064	262.31
292.295	251.31
292.526	256.31
292.757	272.31
292.987	260.31
293.218	279.31
293.449	273.31
293.68	286.31
293.91	277.31
294.141	260.31
294.372	261.31
294.603	270.31
294.833	265.31
295.064	265.31
295.295	261.31
295.525	265.31
295.756	267.31
295.987	279.31
296.217	287.31
296.448	302.31
296.679	275.31
296.909	256.31
297.14	272.31
297.37	269.31
297.601	258.31
297.831	267.31
298.062	290.31
298.292	284.31
298.523	281.31
298.753	293.31
298.984	285.31
299.214	289.31
299.445	286.31
299.675	286.31
299.905	281.31
300.136	289.31
300.366	272.31
300.597	293.31
300.827	294.31
301.057	292.31
301.288	311.31
301.518	301.31
301.748	307.31
301.979	304.31
302.209	304.31
302.439	293.31
302.669	287.31
302.9	298.31
303.13	306.31
303.36	290.31
303.59	289.31
303.82	301.31
304.051	290.31
304.281	280.31
304.511	278.31
304.741	300.31
304.971	289.31
305.201	304.31
305.431	299.31
305.661	281.31
305.891	297.31
306.121	298.31
306.352	302.31
306.582	288.31
306.812	320.31
307.042	313.31
307.272	304.31
307.502	315.31
307.731	299.31
307.961	300.31
308.191	288.31
308.421	300.31
308.651	293.31
308.881	299.31
309.111	289.31
309.341	294.31
309.571	316.31
309.8	315.31
310.03	309.31
310.26	320.31
310.49	325.31
310.72	337.31
310.949	347.31
311.179	342.31
311.409	332.31
311.639	326.31
311.868	323.31
312.098	341.31
312.328	339.31
312.557	341.31
312.787	330.31
313.017	328.31
313.246	332.31
313.476	328.31
313.706	340.31
313.935	336.31
314.165	343.31
314.394	340.31
314.624	324.31
314.853	341.31
315.083	344.31
315.312	343.31
315.542	340.31
315.771	350.31
316.001	317.31
316.23	339.31
316.46	337.31
316.689	337.31
316.919	326.31
317.148	349.31
317.377	324.31
317.607	322.31
317.836	333.31
318.065	317.31
318.295	300.31
318.524	334.31
318.753	309.31
318.983	332.31
319.212	332.31
319.441	328.31
319.67	319.31
319.9	308.31
320.129	317.31
320.358	332.31
320.587	334.31
320.816	321.31
321.046	343.31
321.275	353.31
321.504	321.31
321.733	337.31
321.962	346.31
322.191	336.31
322.42	371.31
322.649	356.31
322.878	384.31
323.108	362.31
323.337	380.31
323.566	393.31
323.795	405.31
324.024	424.31
324.253	490.31
324.482	649.31
324.71	900.31
324.939	1264.31
325.168	1000.31
325.397	582.31
325.626	445.31
325.855	404.31
326.084	385.31
326.313	396.31
326.542	396.31
326.77	432.31
326.999	492.31
327.228	602.31
327.457	831.31
327.686	928.31
327.914	651.31
328.143	510.31
328.372	443.31
328.6	444.31
328.829	437.31
329.058	430.31
329.287	445.31
329.515	439.31
329.744	406.31
329.972	400.31
330.201	410.31
330.43	446.31
330.658	461.31
330.887	460.31
331.115	433.31
331.344	418.31
331.572	411.31
331.801	398.31
332.03	407.31
332.258	412.31
332.486	398.31
332.715	394.31
332.943	418.31
333.172	400.31
333.4	421.31
333.629	436.31
333.857	435.31
334.085	440.31
334.314	435.31
334.542	493.31
334.771	483.31
334.999	403.31
335.227	421.31
335.455	419.31
335.684	406.31
335.912	377.31
336.14	387.31
336.369	401.31
336.597	397.31
336.825	408.31
337.053	399.31
337.281	388.31
337.51	376.31
337.738	399.31
337.966	382.31
338.194	377.31
338.422	365.31
338.65	375.31
338.878	384.31
339.106	353.31
339.334	362.31
339.562	361.31
339.79	355.31
340.018	359.31
340.246	363.31
340.474	369.31
340.702	365.31
340.93	357.31
341.158	355.31
341.386	376.31
341.614	348.31
341.842	341.31
342.07	356.31
342.298	354.31
342.526	355.31
342.754	347.31
342.981	339.31
343.209	357.31
343.437	348.31
343.665	378.31
343.893	384.31
344.12	390.31
344.348	394.31
344.576	395.31
344.804	376.31
345.031	361.31
345.259	382.31
345.487	372.31
345.714	355.31
345.942	362.31
346.17	365.31
346.397	348.31
346.625	364.31
346.853	350.31
347.08	342.31
347.308	331.31
347.535	353.31
347.763	341.31
347.99	367.31
348.218	352.31
348.445	359.31
348.673	349.31
348.9	334.31
349.128	368.31
349.355	336.31
349.583	347.31
349.81	345.31
350.037	354.31
350.265	338.31
350.492	329.31
350.72	325.31
350.947	338.31
351.174	349.31
351.402	344.31
351.629	347.31
351.856	353.31
352.083	346.31
352.311	358.31
352.538	356.31
352.765	352.31
352.992	345.31
353.22	348.31
353.447	339.31
353.674	338.31
353.901	342.31
354.128	343.31
354.355	327.31
354.583	324.31
354.81	314.31
355.037	326.31
355.264	343.31
355.491	335.31
355.718	337.31
355.945	311.31
356.172	335.31
356.399	340.31
356.626	320.31
356.853	330.31
357.08	332.31
357.307	333.31
357.534	322.31
357.761	327.31
357.988	340.31
358.215	332.31
358.441	321.31
358.668	331.31
358.895	351.31
359.122	340.31
359.349	341.31
359.576	354.31
359.802	355.31
360.029	355.31
360.256	371.31
360.483	345.31
360.709	333.31
360.936	353.31
361.163	343.31
361.39	347.31
361.616	342.31
361.843	331.31
362.07	339.31
362.296	348.31
362.523	333.31
362.749	359.31
362.976	338.31
363.203	338.31
363.429	338.31
363.656	333.31
363.882	337.31
364.109	351.31
364.335	348.31
364.562	341.31
364.788	329.31
365.015	337.31
365.241	332.31
365.468	342.31
365.694	337.31
365.92	336.31
366.147	331.31
366.373	332.31
366.599	340.31
366.826	333.31
367.052	325.31
367.278	337.31
367.505	343.31
367.731	329.31
367.957	323.31
368.184	334.31
368.41	333.31
368.636	336.31
368.862	338.31
369.089	341.31
369.315	327.31
369.541	344.31
369.767	332.31
369.993	331.31
370.219	339.31
370.445	336.31
370.672	338.31
370.898	340.31
371.124	354.31
371.35	332.31
371.576	347.31
371.802	347.31
372.028	345.31
372.254	339.31
372.48	341.31
372.706	350.31
372.932	349.31
373.158	364.31
373.384	344.31
373.61	343.31
373.835	356.31
374.061	331.31
374.287	364.31
374.513	341.31
374.739	354.31
374.965	361.31
375.191	349.31
375.416	356.31
375.642	353.31
375.868	350.31
376.094	337.31
376.319	357.31
376.545	345.31
376.771	330.31
376.997	351.31
377.222	329.31
377.448	332.31
377.674	340.31
377.899	346.31
378.125	338.31
378.35	347.31
378.576	340.31
378.802	346.31
379.027	325.31
379.253	345.31
379.478	327.31
379.704	333.31
379.929	338.31
380.155	334.31
380.38	350.31
380.606	345.31
380.831	309.31
381.057	346.31
381.282	339.31
381.507	333.31
381.733	363.31
381.958	344.31
382.184	340.31
382.409	342.31
382.634	346.31
382.86	354.31
383.085	354.31
383.31	357.31
383.535	357.31
383.761	361.31
383.986	357.31
384.211	355.31
384.436	341.31
384.662	370.31
384.887	371.31
385.112	387.31
385.337	371.31
385.562	382.31
385.787	381.31
386.013	388.31
386.238	391.31
386.463	383.31
386.688	388.31
386.913	373.31
387.138	369.31
387.363	377.31
387.588	367.31
387.813	389.31
388.038	386.31
388.263	391.31
388.488	390.31
388.713	368.31
388.938	377.31
389.163	357.31
389.387	398.31
389.612	359.31
389.837	372.31
390.062	374.31
390.287	384.31
390.512	389.31
390.736	357.31
390.961	382.31
391.186	382.31
391.411	379.31
391.636	398.31
391.86	404.31
392.085	410.31
392.31	393.31
392.534	396.31
392.759	413.31
392.984	374.31
393.208	399.31
393.433	375.31
393.658	380.31
393.882	397.31
394.107	389.31
394.331	392.31
394.556	386.31
394.78	374.31
395.005	397.31
395.229	403.31
395.454	395.31
395.678	405.31
395.903	420.31
396.127	400.31
396.352	393.31
396.576	392.31
396.801	377.31
397.025	386.31
397.249	388.31
397.474	389.31
397.698	417.31
397.922	399.31
398.147	422.31
398.371	418.31
398.595	429.31
398.82	440.31
399.044	448.31
399.268	483.31
399.492	527.31
399.717	560.31
399.941	578.31
400.165	545.31
400.389	534.31
400.613	465.31
400.837	455.31
401.062	468.31
401.286	445.31
401.51	467.31
401.734	435.31
401.958	457.31
402.182	457.31
402.406	451.31
402.63	465.31
402.854	452.31
403.078	475.31
403.302	490.31
403.526	483.31
403.75	500.31
403.974	479.31
404.198	471.31
404.422	483.31
404.645	458.31
404.869	474.31
405.093	485.31
405.317	520.31
405.541	534.31
405.765	494.31
405.988	490.31
406.212	483.31
406.436	518.31
406.66	488.31
406.883	507.31
407.107	520.31
407.331	555.31
407.555	594.31
407.778	570.31
408.002	540.31
408.226	513.31
408.449	514.31
408.673	489.31
408.896	522.31
409.12	547.31
409.344	481.31
409.567	472.31
409.791	468.31
410.014	469.31
410.238	461.31
410.461	457.31
410.685	460.31
410.908	493.31
411.132	470.31
411.355	503.31
411.578	448.31
411.802	461.31
412.025	464.31
412.249	464.31
412.472	480.31
412.695	498.31
412.919	478.31
413.142	452.31
413.365	453.31
413.589	424.31
413.812	449.31
414.035	454.31
414.258	454.31
414.482	425.31
414.705	437.31
414.928	436.31
415.151	408.31
415.374	421.31
415.597	430.31
415.821	434.31
416.044	420.31
416.267	440.31
416.49	425.31
416.713	402.31
416.936	434.31
417.159	435.31
417.382	446.31
417.605	436.31
417.828	444.31
418.051	456.31
418.274	428.31
418.497	440.31
418.72	438.31
418.943	453.31
419.166	454.31
419.389	470.31
419.611	468.31
419.834	475.31
420.057	450.31
420.28	448.31
420.503	445.31
420.726	452.31
420.948	439.31
421.171	456.31
421.394	475.31
421.617	448.31
421.839	444.31
422.062	452.31
422.285	460.31
422.507	498.31
422.73	525.31
422.953	504.31
423.175	472.31
423.398	471.31
423.621	459.31
423.843	485.31
424.066	477.31
424.288	460.31
424.511	477.31
424.733	496.31
424.956	557.31
425.178	547.31
425.401	544.31
425.623	545.31
425.846	482.31
426.068	470.31
426.291	448.31
426.513	451.31
426.735	457.31
426.958	467.31
427.18	523.31
427.402	585.31
427.625	625.31
427.847	589.31
428.069	503.31
428.292	467.31
428.514	465.31
428.736	406.31
428.958	404.31
429.181	425.31
429.403	395.31
429.625	416.31
429.847	430.31
430.069	474.31
430.292	464.31
430.514	411.31
430.736	416.31
430.958	412.31
431.18	406.31
431.402	407.31
431.624	411.31
431.846	393.31
432.068	410.31
432.29	415.31
432.512	394.31
432.734	408.31
432.956	397.31
433.178	425.31
433.4	419.31
433.622	394.31
433.844	408.31
434.066	393.31
434.287	420.31
434.509	408.31
434.731	414.31
434.953	434.31
435.175	428.31
435.397	490.31
435.618	455.31
435.84	452.31
436.062	523.31
436.284	543.31
436.505	475.31
436.727	444.31
436.949	433.31
437.17	435.31
437.392	409.31
437.614	434.31
437.835	450.31
438.057	509.31
438.278	541.31
438.5	568.31
438.721	603.31
438.943	575.31
439.165	465.31
439.386	454.31
439.608	454.31
439.829	435.31
440.05	459.31
440.272	481.31
440.493	466.31
440.715	454.31
440.936	433.31
441.158	453.31
441.379	462.31
441.6	453.31
441.822	481.31
442.043	485.31
442.264	539.31
442.486	567.31
442.707	491.31
442.928	480.31
443.149	474.31
443.371	502.31
443.592	506.31
443.813	564.31
444.034	595.31
444.255	534.31
444.476	501.31
444.698	488.31
444.919	504.31
445.14	564.31
445.361	529.31
445.582	493.31
445.803	535.31
446.024	569.31
446.245	565.31
446.466	531.31
446.687	492.31
446.908	436.31
447.129	413.31
447.35	399.31
447.571	406.31
447.792	412.31
448.013	437.31
448.234	443.31
448.455	456.31
448.675	526.31
448.896	578.31
449.117	517.31
449.338	490.31
449.559	562.31
449.779	589.31
450	476.31
450.221	434.31
450.442	407.31
450.662	419.31
450.883	412.31
451.104	415.31
451.324	417.31
451.545	386.31
451.766	393.31
451.986	395.31
452.207	374.31
452.428	363.31
452.648	382.31
452.869	380.31
453.089	381.31
453.31	387.31
453.53	389.31
453.751	380.31
453.971	382.31
454.192	383.31
454.412	370.31
454.633	360.31
454.853	361.31
455.073	381.31
455.294	378.31
455.514	437.31
455.734	411.31
455.955	387.31
456.175	361.31
456.395	369.31
456.616	354.31
456.836	374.31
457.056	357.31
457.276	348.31
457.497	358.31
457.717	357.31
457.937	379.31
458.157	383.31
458.377	374.31
458.598	398.31
458.818	417.31
459.038	476.31
459.258	477.31
459.478	442.31
459.698	417.31
459.918	410.31
460.138	417.31
460.358	425.31
460.578	438.31
460.798	429.31
461.018	440.31
461.238	434.31
461.458	437.31
461.678	436.31
461.898	448.31
462.118	446.31
462.338	477.31
462.558	458.31
462.777	482.31
462.997	499.31
463.217	532.31
463.437	515.31
463.657	500.31
463.876	466.31
464.096	468.31
464.316	476.31
464.536	500.31
464.755	456.31
464.975	456.31
465.195	484.31
465.414	508.31
465.634	469.31
465.854	425.31
466.073	422.31
466.293	419.31
466.512	397.31
466.732	398.31
466.951	382.31
467.171	387.31
467.391	396.31
467.61	406.31
467.829	400.31
468.049	407.31
468.268	402.31
468.488	395.31
468.707	375.31
468.927	375.31
469.146	401.31
469.365	403.31
469.585	386.31
469.804	395.31
470.023	389.31
470.243	417.31
470.462	414.31
470.681	416.31
470.901	420.31
471.12	408.31
471.339	400.31
471.558	405.31
471.777	397.31
471.997	369.31
472.216	387.31
472.435	424.31
472.654	429.31
472.873	393.31
473.092	409.31
473.311	369.31
473.53	398.31
473.749	392.31
473.968	413.31
474.187	486.31
474.406	490.31
474.625	416.31
474.844	388.31
475.063	395.31
475.282	389.31
475.501	380.31
475.72	415.31
475.939	388.31
476.158	393.31
476.377	387.31
476.596	400.31
476.814	409.31
477.033	406.31
477.252	422.31
477.471	419.31
477.69	424.31
477.908	424.31
478.127	428.31
478.346	447.31
478.564	460.31
478.783	463.31
479.002	452.31
479.22	440.31
479.439	462.31
479.658	473.31
479.876	479.31
480.095	481.31
480.313	509.31
480.532	491.31
480.751	509.31
480.969	492.31
481.188	530.31
481.406	523.31
481.624	490.31
481.843	457.31
482.061	481.31
482.28	444.31
482.498	464.31
482.717	470.31
482.935	457.31
483.153	441.31
483.372	459.31
483.59	444.31
483.808	457.31
484.027	456.31
484.245	431.31
484.463	459.31
484.681	464.31
484.9	457.31
485.118	452.31
485.336	474.31
485.554	470.31
485.772	468.31
485.99	447.31
486.209	445.31
486.427	486.31
486.645	477.31
486.863	464.31
487.081	486.31
487.299	471.31
487.517	463.31
487.735	491.31
487.953	489.31
488.171	475.31
488.389	477.31
488.607	494.31
488.825	472.31
489.043	468.31
489.261	471.31
489.479	487.31
489.696	504.31
489.914	505.31
490.132	498.31
490.35	510.31
490.568	482.31
490.786	518.31
491.003	522.31
491.221	536.31
491.439	528.31
491.657	563.31
491.874	538.31
492.092	539.31
492.31	553.31
492.527	563.31
492.745	558.31
492.963	564.31
493.18	580.31
493.398	564.31
493.615	565.31
493.833	553.31
494.05	552.31
494.268	554.31
494.485	556.31
494.703	584.31
494.92	553.31
495.138	575.31
495.355	568.31
495.573	573.31
495.79	564.31
496.008	559.31
496.225	569.31
496.442	578.31
496.66	574.31
496.877	574.31
497.094	582.31
497.312	589.31
497.529	598.31
497.746	625.31
497.963	621.31
498.181	614.31
498.398	640.31
498.615	646.31
498.832	712.31
499.049	700.31
499.267	766.31
499.484	747.31
499.701	818.31
499.918	860.31
500.135	936.31
500.352	968.31
500.569	1000.31
500.786	998.31
501.003	965.31
501.22	905.31
501.437	843.31
501.654	824.31
501.871	806.31
502.088	755.31
502.305	701.31
502.522	650.31
502.739	676.31
502.956	643.31
503.172	587.31
503.389	609.31
503.606	602.31
503.823	598.31
504.04	572.31
504.256	572.31
504.473	605.31
504.69	601.31
504.907	576.31
505.123	574.31
505.34	539.31
505.557	560.31
505.773	544.31
505.99	533.31
506.207	535.31
506.423	511.31
506.64	497.31
506.856	522.31
507.073	505.31
507.289	507.31
507.506	492.31
507.722	470.31
507.939	513.31
508.155	504.31
508.372	492.31
508.588	478.31
508.805	463.31
509.021	470.31
509.238	497.31
509.454	530.31
509.67	486.31
509.887	488.31
510.103	498.31
510.319	484.31
510.536	551.31
510.752	805.31
510.968	694.31
511.184	472.31
511.401	466.31
511.617	473.31
511.833	438.31
512.049	475.31
512.265	468.31
512.481	469.31
512.698	452.31
512.914	452.31
513.13	457.31
513.346	451.31
513.562	453.31
513.778	464.31
513.994	454.31
514.21	464.31
514.426	483.31
514.642	521.31
514.858	513.31
515.074	519.31
515.29	611.31
515.506	842.31
515.721	722.31
515.937	521.31
516.153	512.31
516.369	497.31
516.585	520.31
516.801	496.31
517.016	503.31
517.232	533.31
517.448	536.31
517.664	531.31
517.879	530.31
518.095	536.31
518.311	530.31
518.527	520.31
518.742	500.31
518.958	488.31
519.173	496.31
519.389	473.31
519.605	469.31
519.82	456.31
520.036	488.31
520.251	488.31
520.467	492.31
520.682	490.31
520.898	510.31
521.113	483.31
521.329	493.31
521.544	548.31
521.76	663.31
521.975	1029.31
522.19	1050.31
522.406	629.31
522.621	493.31
522.836	460.31
523.052	446.31
523.267	436.31
523.482	412.31
523.698	434.31
523.913	409.31
524.128	438.31
524.343	409.31
524.559	390.31
524.774	396.31
524.989	405.31
525.204	396.31
525.419	398.31
525.634	404.31
525.849	399.31
526.064	394.31
526.28	399.31
526.495	381.31
526.71	389.31
526.925	390.31
527.14	390.31
527.355	388.31
527.57	384.31
527.785	381.31
527.999	372.31
528.214	393.31
528.429	398.31
528.644	384.31
528.859	392.31
529.074	376.31
529.289	424.31
529.503	450.31
529.718	430.31
529.933	412.31
530.148	401.31
530.363	398.31
530.577	389.31
530.792	364.31
531.007	398.31
531.221	390.31
531.436	374.31
531.651	365.31
531.865	371.31
532.08	370.31
532.295	379.31
532.509	374.31
532.724	372.31
532.938	393.31
533.153	382.31
533.367	388.31
533.582	375.31
533.796	377.31
534.011	379.31
534.225	401.31
534.44	372.31
534.654	367.31
534.868	384.31
535.083	369.31
535.297	376.31
535.511	376.31
535.726	386.31
535.94	395.31
536.154	384.31
536.369	374.31
536.583	358.31
536.797	364.31
537.011	339.31
537.225	355.31
537.44	361.31
537.654	382.31
537.868	358.31
538.082	368.31
538.296	372.31
538.51	387.31
538.724	381.31
538.938	376.31
539.153	362.31
539.367	374.31
539.581	353.31
539.795	380.31
540.009	380.31
540.222	369.31
540.436	352.31
540.65	368.31
540.864	365.31
541.078	363.31
541.292	384.31
541.506	375.31
541.72	354.31
541.934	368.31
542.147	357.31
542.361	360.31
542.575	377.31
542.789	376.31
543.002	368.31
543.216	349.31
543.43	380.31
543.644	365.31
543.857	363.31
544.071	393.31
544.285	384.31
544.498	369.31
544.712	361.31
544.925	392.31
545.139	376.31
545.352	360.31
545.566	382.31
545.779	365.31
545.993	382.31
546.206	386.31
546.42	375.31
546.633	371.31
546.847	360.31
547.06	370.31
547.274	350.31
547.487	353.31
547.7	368.31
547.914	369.31
548.127	355.31
548.34	372.31
548.554	378.31
548.767	361.31
548.98	371.31
549.193	359.31
549.407	353.31
549.62	364.31
549.833	340.31
550.046	376.31
550.259	360.31
550.473	362.31
550.686	352.31
550.899	354.31
551.112	362.31
551.325	365.31
551.538	355.31
551.751	362.31
551.964	353.31
552.177	354.31
552.39	355.31
552.603	347.31
552.816	386.31
553.029	374.31
553.242	377.31
553.455	382.31
553.667	389.31
553.88	365.31
554.093	377.31
554.306	349.31
554.519	367.31
554.732	368.31
554.944	355.31
555.157	343.31
555.37	346.31
555.583	355.31
555.795	365.31
556.008	334.31
556.221	328.31
556.433	334.31
556.646	330.31
556.859	312.31
557.071	328.31
557.284	334.31
557.496	317.31
557.709	315.31
557.921	312.31
558.134	328.31
558.346	339.31
558.559	329.31
558.771	311.31
558.984	325.31
559.196	296.31
559.409	330.31
559.621	291.31
559.833	319.31
560.046	310.31
560.258	292.31
560.47	299.31
560.683	336.31
560.895	304.31
561.107	326.31
561.32	306.31
561.532	312.31
561.744	321.31
561.956	324.31
562.168	336.31
562.381	329.31
562.593	312.31
562.805	319.31
563.017	312.31
563.229	319.31
563.441	304.31
563.653	312.31
563.865	316.31
564.077	311.31
564.289	329.31
564.501	306.31
564.713	335.31
564.925	352.31
565.137	349.31
565.349	354.31
565.561	358.31
565.773	370.31
565.985	388.31
566.197	385.31
566.408	390.31
566.62	429.31
566.832	439.31
567.044	428.31
567.255	427.31
567.467	437.31
567.679	450.31
567.891	480.31
568.102	476.31
568.314	461.31
568.526	446.31
568.737	416.31
568.949	394.31
569.161	379.31
569.372	361.31
569.584	364.31
569.795	337.31
570.007	328.31
570.218	353.31
570.43	332.31
570.641	328.31
570.853	325.31
571.064	313.31
571.276	317.31
571.487	310.31
571.698	315.31
571.91	317.31
572.121	307.31
572.333	279.31
572.544	292.31
572.755	270.31
572.966	290.31
573.178	301.31
573.389	278.31
573.6	289.31
573.811	276.31
574.023	284.31
574.234	270.31
574.445	283.31
574.656	269.31
574.867	278.31
575.078	278.31
575.289	277.31
575.501	281.31
575.712	277.31
575.923	278.31
576.134	277.31
576.345	260.31
576.556	269.31
576.767	265.31
576.978	309.31
577.188	279.31
577.399	261.31
577.61	266.31
577.821	258.31
578.032	265.31
578.243	284.31
578.454	391.31
578.665	312.31
578.875	252.31
579.086	257.31
579.297	276.31
579.508	260.31
579.718	247.31
579.929	251.31
580.14	243.31
580.35	278.31
580.561	269.31
580.772	266.31
580.982	246.31
581.193	250.31
581.403	256.31
581.614	259.31
581.825	246.31
582.035	258.31
582.246	260.31
582.456	228.31
582.667	235.31
582.877	258.31
583.087	236.31
583.298	238.31
583.508	229.31
583.719	237.31
583.929	249.31
584.139	242.31
584.35	258.31
584.56	246.31
584.77	250.31
584.981	247.31
585.191	241.31
585.401	246.31
585.611	230.31
585.821	248.31
586.032	256.31
586.242	259.31
586.452	243.31
586.662	232.31
586.872	236.31
587.082	252.31
587.292	252.31
587.502	249.31
587.713	254.31
587.923	241.31
588.133	241.31
588.343	233.31
588.553	243.31
588.762	255.31
588.972	259.31
589.182	256.31
589.392	236.31
589.602	225.31
589.812	253.31
590.022	227.31
590.232	236.31
590.441	234.31
590.651	243.31
590.861	225.31
591.071	236.31
591.281	238.31
591.49	261.31
591.7	250.31
591.91	256.31
592.119	255.31
592.329	258.31
592.539	244.31
592.748	260.31
592.958	264.31
593.167	299.31
593.377	282.31
593.587	283.31
593.796	276.31
594.006	284.31
594.215	271.31
594.424	277.31
594.634	275.31
594.843	296.31
595.053	251.31
595.262	257.31
595.472	256.31
595.681	240.31
595.89	217.31
596.1	225.31
596.309	260.31
596.518	226.31
596.727	240.31
596.937	242.31
597.146	255.31
597.355	244.31
597.564	238.31
597.774	223.31
597.983	215.31
598.192	226.31
598.401	218.31
598.61	235.31
598.819	215.31
599.028	221.31
599.237	212.31
599.446	224.31
599.655	227.31
599.864	228.31
600.073	207.31
600.282	222.31
600.491	222.31
600.7	224.31
600.909	213.31
601.118	227.31
601.327	221.31
601.536	220.31
601.745	227.31
601.953	215.31
602.162	207.31
602.371	223.31
602.58	200.31
602.789	209.31
602.997	220.31
603.206	227.31
603.415	216.31
603.623	192.31
603.832	212.31
604.041	201.31
604.249	198.31
604.458	216.31
604.666	220.31
604.875	199.31
605.084	203.31
605.292	231.31
605.501	218.31
605.709	216.31
605.918	223.31
606.126	193.31
606.334	195.31
606.543	224.31
606.751	215.31
606.96	195.31
607.168	210.31
607.376	202.31
607.585	186.31
607.793	209.31
608.001	222.31
608.21	216.31
608.418	206.31
608.626	202.31
608.834	220.31
609.043	205.31
609.251	229.31
609.459	205.31
609.667	202.31
609.875	205.31
610.083	228.31
610.291	209.31
610.499	196.31
610.707	211.31
610.916	214.31
611.124	214.31
611.332	202.31
611.54	227.31
611.748	221.31
611.955	215.31
612.163	200.31
612.371	202.31
612.579	201.31
612.787	203.31
612.995	220.31
613.203	199.31
613.411	203.31
613.618	205.31
613.826	215.31
614.034	198.31
614.242	196.31
614.449	204.31
614.657	208.31
614.865	202.31
615.072	211.31
615.28	222.31
615.488	194.31
615.695	186.31
615.903	211.31
616.111	201.31
616.318	209.31
616.526	201.31
616.733	210.31
616.941	195.31
617.148	215.31
617.356	203.31
617.563	194.31
617.771	182.31
617.978	205.31
618.185	202.31
618.393	204.31
618.6	210.31
618.807	201.31
619.015	217.31
619.222	198.31
619.429	198.31
619.637	201.31
619.844	210.31
620.051	204.31
620.258	188.31
620.466	183.31
620.673	190.31
620.88	194.31
621.087	196.31
621.294	188.31
621.501	205.31
621.708	205.31
621.915	196.31
622.122	206.31
622.329	212.31
622.536	188.31
622.743	193.31
622.95	196.31
623.157	180.31
623.364	181.31
623.571	175.31
623.778	183.31
623.985	195.31
624.192	190.31
624.399	181.31
624.606	187.31
624.812	184.31
625.019	202.31
625.226	198.31
625.433	198.31
625.639	194.31
625.846	186.31
626.053	189.31
626.259	192.31
626.466	181.31
626.673	179.31
626.879	184.31
627.086	186.31
627.293	189.31
627.499	205.31
627.706	189.31
627.912	181.31
628.119	182.31
628.325	199.31
628.532	190.31
628.738	195.31
628.945	179.31
629.151	178.31
629.357	173.31
629.564	169.31
629.77	170.31
629.976	190.31
630.183	165.31
630.389	170.31
630.595	178.31
630.802	167.31
631.008	150.31
631.214	160.31
631.42	175.31
631.627	181.31
631.833	159.31
632.039	168.31
632.245	184.31
632.451	171.31
632.657	170.31
632.863	171.31
633.069	162.31
633.275	185.31
633.481	148.31
633.688	176.31
633.893	176.31
634.099	158.31
634.305	195.31
634.511	173.31
634.717	164.31
634.923	163.31
635.129	169.31
635.335	171.31
635.541	171.31
635.747	161.31
635.952	165.31
636.158	164.31
636.364	160.31
636.57	151.31
636.775	184.31
636.981	142.31
637.187	159.31
637.392	161.31
637.598	169.31
637.804	166.31
638.009	158.31
638.215	166.31
638.421	149.31
638.626	156.31
638.832	157.31
639.037	158.31
639.243	148.31
639.448	146.31
639.654	150.31
639.859	164.31
640.065	153.31
640.27	161.31
640.475	155.31
640.681	143.31
640.886	152.31
641.091	142.31
641.297	154.31
641.502	148.31
641.707	152.31
641.913	154.31
642.118	163.31
642.323	152.31
642.528	146.31
642.733	142.31
642.939	150.31
643.144	165.31
643.349	142.31
643.554	149.31
643.759	143.31
643.964	160.31
644.169	152.31
644.374	165.31
644.579	150.31
644.784	160.31
644.989	157.31
645.194	148.31
645.399	135.31
645.604	143.31
645.809	154.31
646.014	145.31
646.219	154.31
646.423	142.31
646.628	153.31
646.833	163.31
647.038	148.31
647.243	157.31
647.447	162.31
647.652	132.31
647.857	155.31
648.062	147.31
648.266	149.31
648.471	168.31
648.676	166.31
648.88	150.31
649.085	157.31
649.289	160.31
649.494	160.31
649.698	142.31
649.903	160.31
650.107	157.31
650.312	139.31
650.516	142.31
650.721	154.31
650.925	143.31
651.13	131.31
651.334	165.31
651.539	156.31
651.743	124.31
651.947	140.31
652.152	130.31
652.356	128.31
652.56	130.31
652.764	142.31
652.969	136.31
653.173	120.31
653.377	130.31
653.581	124.31
653.785	146.31
653.99	133.31
654.194	128.31
654.398	121.31
654.602	130.31
654.806	130.31
655.01	144.31
655.214	135.31
655.418	129.31
655.622	124.31
655.826	126.31
656.03	127.31
656.234	137.31
656.438	145.31
656.642	135.31
656.846	125.31
657.049	133.31
657.253	115.31
657.457	107.31
657.661	130.31
657.865	96.31
658.068	103.31
658.272	103.31
658.476	106.31
658.68	115.31
658.883	108.31
659.087	110.31
659.291	81.31
659.494	110.31
659.698	90.31
659.901	88.31
660.105	93.31
660.309	93.31
660.512	89.31
660.716	102.31
660.919	95.31
661.123	97.31
661.326	87.31
661.53	97.31
661.733	78.31
661.936	91.31
662.14	83.31
662.343	89.31
662.546	95.31
662.75	84.31
662.953	77.31
663.156	89.31
663.36	71.31
663.563	73.31
663.766	92.31
663.969	86.31
664.173	87.31
664.376	94.31
664.579	91.31
664.782	84.31
664.985	83.31
665.188	84.31
665.391	82.31
665.594	78.31
665.797	77.31
666	91.31
666.203	71.31
666.406	70.31
666.609	74.31
666.812	89.31
667.015	77.31
667.218	91.31
667.421	80.31
667.624	87.31
667.827	73.31
668.03	88.31
668.232	72.31
668.435	90.31
668.638	66.31
668.841	69.31
669.043	75.31
669.246	86.31
669.449	73.31
669.651	78.31
669.854	88.31
670.057	90.31
670.259	77.31
670.462	78.31
670.665	82.31
670.867	85.31
671.07	81.31
671.272	77.31
671.475	100.31
671.677	79.31
671.88	71.31
672.082	83.31
672.284	81.31
672.487	80.31
672.689	71.31
672.892	94.31
