Data from 1969.PennyLincolnUp.Lamp.En5.5.200Scan.071719.P1._HRD10591_14-54-26-972.txt Node
Date: Thu Jul 18 14:54:26 EDT 2019
User: cochatt
Spectrometer: HR+D1059
Trigger mode: 1
Integration Time (sec): 1.000000E-1
Scans to average: 1
Electric dark correction enabled: true
Nonlinearity correction enabled: false
Boxcar width: 0
XAxis mode: Wavelengths
Number of Pixels in Spectrum: 2048
>>>>>Begin Spectral Data<<<<<
223.165	-21.81
223.4	-21.81
223.635	-21.81
223.869	-17.81
224.104	-32.81
224.338	-16.81
224.573	-13.81
224.808	-5.81
225.042	-15.81
225.277	-17.81
225.511	9.19
225.746	-1.81
225.98	3.19
226.215	19.19
226.449	23.19
226.683	32.19
226.918	25.19
227.152	32.19
227.387	28.19
227.621	44.19
227.856	56.19
228.09	49.19
228.324	50.19
228.559	52.19
228.793	63.19
229.027	75.19
229.262	94.19
229.496	89.19
229.73	94.19
229.964	110.19
230.199	93.19
230.433	94.19
230.667	79.19
230.901	91.19
231.136	94.19
231.37	88.19
231.604	103.19
231.838	104.19
232.072	100.19
232.306	91.19
232.541	100.19
232.775	99.19
233.009	103.19
233.243	101.19
233.477	103.19
233.711	110.19
233.945	97.19
234.179	96.19
234.413	104.19
234.647	106.19
234.881	102.19
235.115	93.19
235.349	106.19
235.583	112.19
235.817	104.19
236.051	110.19
236.285	114.19
236.519	103.19
236.753	122.19
236.987	118.19
237.221	128.19
237.455	157.19
237.689	133.19
237.922	111.19
238.156	90.19
238.39	104.19
238.624	103.19
238.858	111.19
239.091	104.19
239.325	108.19
239.559	94.19
239.793	114.19
240.027	110.19
240.26	123.19
240.494	121.19
240.728	107.19
240.961	116.19
241.195	133.19
241.429	112.19
241.662	103.19
241.896	105.19
242.13	112.19
242.363	130.19
242.597	124.19
242.83	116.19
243.064	106.19
243.298	134.19
243.531	131.19
243.765	115.19
243.998	116.19
244.232	119.19
244.465	117.19
244.699	123.19
244.932	127.19
245.166	120.19
245.399	122.19
245.633	121.19
245.866	132.19
246.099	135.19
246.333	131.19
246.566	139.19
246.8	129.19
247.033	130.19
247.266	122.19
247.5	136.19
247.733	154.19
247.966	146.19
248.2	155.19
248.433	160.19
248.666	144.19
248.899	151.19
249.133	163.19
249.366	137.19
249.599	150.19
249.832	150.19
250.066	154.19
250.299	157.19
250.532	151.19
250.765	149.19
250.998	178.19
251.231	170.19
251.465	162.19
251.698	163.19
251.931	154.19
252.164	159.19
252.397	164.19
252.63	159.19
252.863	169.19
253.096	179.19
253.329	171.19
253.562	175.19
253.795	172.19
254.028	162.19
254.261	174.19
254.494	196.19
254.727	190.19
254.96	206.19
255.193	196.19
255.426	195.19
255.659	175.19
255.892	164.19
256.124	169.19
256.357	190.19
256.59	174.19
256.823	187.19
257.056	180.19
257.289	149.19
257.521	161.19
257.754	178.19
257.987	167.19
258.22	167.19
258.452	171.19
258.685	167.19
258.918	181.19
259.151	172.19
259.383	169.19
259.616	181.19
259.849	167.19
260.081	180.19
260.314	198.19
260.547	205.19
260.779	189.19
261.012	194.19
261.244	181.19
261.477	180.19
261.71	186.19
261.942	180.19
262.175	195.19
262.407	183.19
262.64	167.19
262.872	178.19
263.105	170.19
263.337	176.19
263.57	163.19
263.802	187.19
264.035	177.19
264.267	178.19
264.499	188.19
264.732	171.19
264.964	169.19
265.197	170.19
265.429	153.19
265.661	182.19
265.894	172.19
266.126	185.19
266.358	182.19
266.591	173.19
266.823	187.19
267.055	197.19
267.287	176.19
267.52	187.19
267.752	191.19
267.984	192.19
268.216	190.19
268.448	191.19
268.681	193.19
268.913	211.19
269.145	198.19
269.377	227.19
269.609	217.19
269.841	227.19
270.073	224.19
270.306	225.19
270.538	234.19
270.77	229.19
271.002	222.19
271.234	211.19
271.466	228.19
271.698	227.19
271.93	226.19
272.162	240.19
272.394	248.19
272.626	226.19
272.858	225.19
273.09	232.19
273.322	216.19
273.553	200.19
273.785	235.19
274.017	214.19
274.249	224.19
274.481	204.19
274.713	223.19
274.945	211.19
275.176	222.19
275.408	210.19
275.64	220.19
275.872	223.19
276.104	208.19
276.335	219.19
276.567	224.19
276.799	232.19
277.031	248.19
277.262	247.19
277.494	227.19
277.726	260.19
277.957	254.19
278.189	240.19
278.421	234.19
278.652	225.19
278.884	225.19
279.115	226.19
279.347	225.19
279.579	226.19
279.81	235.19
280.042	211.19
280.273	217.19
280.505	242.19
280.736	220.19
280.968	222.19
281.199	230.19
281.431	225.19
281.662	215.19
281.894	225.19
282.125	234.19
282.356	239.19
282.588	234.19
282.819	224.19
283.051	229.19
283.282	222.19
283.513	235.19
283.745	221.19
283.976	246.19
284.207	239.19
284.439	243.19
284.67	235.19
284.901	233.19
285.132	224.19
285.364	232.19
285.595	231.19
285.826	249.19
286.057	226.19
286.288	238.19
286.52	249.19
286.751	231.19
286.982	241.19
287.213	244.19
287.444	256.19
287.675	283.19
287.906	255.19
288.138	245.19
288.369	234.19
288.6	256.19
288.831	251.19
289.062	244.19
289.293	253.19
289.524	264.19
289.755	241.19
289.986	264.19
290.217	258.19
290.448	241.19
290.679	221.19
290.91	246.19
291.141	244.19
291.371	242.19
291.602	254.19
291.833	253.19
292.064	247.19
292.295	249.19
292.526	263.19
292.757	256.19
292.987	226.19
293.218	258.19
293.449	263.19
293.68	258.19
293.91	228.19
294.141	256.19
294.372	242.19
294.603	262.19
294.833	243.19
295.064	264.19
295.295	252.19
295.525	267.19
295.756	263.19
295.987	234.19
296.217	278.19
296.448	278.19
296.679	247.19
296.909	249.19
297.14	259.19
297.37	255.19
297.601	248.19
297.831	244.19
298.062	263.19
298.292	258.19
298.523	247.19
298.753	260.19
298.984	268.19
299.214	279.19
299.445	272.19
299.675	290.19
299.905	266.19
300.136	272.19
300.366	268.19
300.597	291.19
300.827	286.19
301.057	274.19
301.288	273.19
301.518	283.19
301.748	286.19
301.979	290.19
302.209	292.19
302.439	280.19
302.669	274.19
302.9	280.19
303.13	275.19
303.36	274.19
303.59	280.19
303.82	290.19
304.051	283.19
304.281	256.19
304.511	265.19
304.741	279.19
304.971	278.19
305.201	284.19
305.431	269.19
305.661	289.19
305.891	296.19
306.121	289.19
306.352	274.19
306.582	259.19
306.812	247.19
307.042	281.19
307.272	279.19
307.502	273.19
307.731	280.19
307.961	277.19
308.191	270.19
308.421	280.19
308.651	273.19
308.881	289.19
309.111	271.19
309.341	260.19
309.571	292.19
309.8	282.19
310.03	285.19
310.26	300.19
310.49	293.19
310.72	306.19
310.949	313.19
311.179	306.19
311.409	297.19
311.639	297.19
311.868	297.19
312.098	289.19
312.328	315.19
312.557	311.19
312.787	315.19
313.017	306.19
313.246	300.19
313.476	316.19
313.706	308.19
313.935	319.19
314.165	314.19
314.394	312.19
314.624	302.19
314.853	302.19
315.083	309.19
315.312	311.19
315.542	306.19
315.771	324.19
316.001	302.19
316.23	304.19
316.46	294.19
316.689	305.19
316.919	310.19
317.148	309.19
317.377	330.19
317.607	312.19
317.836	309.19
318.065	308.19
318.295	306.19
318.524	299.19
318.753	278.19
318.983	303.19
319.212	309.19
319.441	317.19
319.67	320.19
319.9	336.19
320.129	308.19
320.358	300.19
320.587	290.19
320.816	337.19
321.046	320.19
321.275	298.19
321.504	320.19
321.733	313.19
321.962	295.19
322.191	317.19
322.42	333.19
322.649	341.19
322.878	338.19
323.108	338.19
323.337	344.19
323.566	366.19
323.795	375.19
324.024	382.19
324.253	450.19
324.482	579.19
324.71	798.19
324.939	1051.19
325.168	854.19
325.397	524.19
325.626	402.19
325.855	370.19
326.084	370.19
326.313	362.19
326.542	378.19
326.77	386.19
326.999	427.19
327.228	515.19
327.457	703.19
327.686	799.19
327.914	576.19
328.143	425.19
328.372	407.19
328.6	393.19
328.829	378.19
329.058	402.19
329.287	410.19
329.515	375.19
329.744	366.19
329.972	363.19
330.201	384.19
330.43	389.19
330.658	426.19
330.887	419.19
331.115	418.19
331.344	394.19
331.572	374.19
331.801	378.19
332.03	356.19
332.258	374.19
332.486	376.19
332.715	375.19
332.943	374.19
333.172	375.19
333.4	399.19
333.629	408.19
333.857	412.19
334.085	408.19
334.314	417.19
334.542	440.19
334.771	428.19
334.999	411.19
335.227	387.19
335.455	374.19
335.684	373.19
335.912	376.19
336.14	368.19
336.369	379.19
336.597	378.19
336.825	361.19
337.053	370.19
337.281	363.19
337.51	362.19
337.738	384.19
337.966	356.19
338.194	354.19
338.422	362.19
338.65	377.19
338.878	350.19
339.106	362.19
339.334	328.19
339.562	356.19
339.79	336.19
340.018	343.19
340.246	337.19
340.474	336.19
340.702	326.19
340.93	340.19
341.158	339.19
341.386	348.19
341.614	367.19
341.842	349.19
342.07	346.19
342.298	341.19
342.526	327.19
342.754	329.19
342.981	337.19
343.209	337.19
343.437	366.19
343.665	354.19
343.893	364.19
344.12	376.19
344.348	372.19
344.576	369.19
344.804	362.19
345.031	374.19
345.259	361.19
345.487	332.19
345.714	339.19
345.942	327.19
346.17	320.19
346.397	353.19
346.625	345.19
346.853	321.19
347.08	320.19
347.308	328.19
347.535	346.19
347.763	335.19
347.99	336.19
348.218	328.19
348.445	329.19
348.673	335.19
348.9	318.19
349.128	333.19
349.355	320.19
349.583	329.19
349.81	325.19
350.037	327.19
350.265	320.19
350.492	324.19
350.72	332.19
350.947	322.19
351.174	339.19
351.402	328.19
351.629	327.19
351.856	324.19
352.083	326.19
352.311	318.19
352.538	329.19
352.765	344.19
352.992	336.19
353.22	322.19
353.447	332.19
353.674	322.19
353.901	321.19
354.128	326.19
354.355	324.19
354.583	313.19
354.81	307.19
355.037	331.19
355.264	321.19
355.491	318.19
355.718	296.19
355.945	320.19
356.172	308.19
356.399	307.19
356.626	319.19
356.853	309.19
357.08	295.19
357.307	330.19
357.534	326.19
357.761	320.19
357.988	318.19
358.215	314.19
358.441	313.19
358.668	304.19
358.895	318.19
359.122	294.19
359.349	336.19
359.576	326.19
359.802	323.19
360.029	343.19
360.256	362.19
360.483	348.19
360.709	351.19
360.936	338.19
361.163	319.19
361.39	326.19
361.616	315.19
361.843	332.19
362.07	338.19
362.296	337.19
362.523	316.19
362.749	336.19
362.976	331.19
363.203	309.19
363.429	319.19
363.656	330.19
363.882	325.19
364.109	309.19
364.335	305.19
364.562	322.19
364.788	316.19
365.015	322.19
365.241	319.19
365.468	320.19
365.694	336.19
365.92	321.19
366.147	313.19
366.373	329.19
366.599	312.19
366.826	296.19
367.052	322.19
367.278	307.19
367.505	306.19
367.731	323.19
367.957	307.19
368.184	304.19
368.41	311.19
368.636	318.19
368.862	316.19
369.089	324.19
369.315	314.19
369.541	336.19
369.767	331.19
369.993	318.19
370.219	306.19
370.445	311.19
370.672	317.19
370.898	310.19
371.124	320.19
371.35	337.19
371.576	321.19
371.802	322.19
372.028	329.19
372.254	332.19
372.48	328.19
372.706	335.19
372.932	326.19
373.158	337.19
373.384	337.19
373.61	334.19
373.835	323.19
374.061	329.19
374.287	338.19
374.513	340.19
374.739	348.19
374.965	330.19
375.191	351.19
375.416	351.19
375.642	346.19
375.868	331.19
376.094	343.19
376.319	323.19
376.545	319.19
376.771	326.19
376.997	328.19
377.222	306.19
377.448	323.19
377.674	323.19
377.899	328.19
378.125	313.19
378.35	322.19
378.576	338.19
378.802	324.19
379.027	314.19
379.253	338.19
379.478	328.19
379.704	323.19
379.929	324.19
380.155	346.19
380.38	318.19
380.606	318.19
380.831	327.19
381.057	330.19
381.282	322.19
381.507	316.19
381.733	321.19
381.958	302.19
382.184	323.19
382.409	324.19
382.634	339.19
382.86	330.19
383.085	336.19
383.31	356.19
383.535	346.19
383.761	338.19
383.986	329.19
384.211	336.19
384.436	344.19
384.662	353.19
384.887	367.19
385.112	333.19
385.337	368.19
385.562	356.19
385.787	361.19
386.013	388.19
386.238	378.19
386.463	374.19
386.688	382.19
386.913	369.19
387.138	355.19
387.363	343.19
387.588	357.19
387.813	356.19
388.038	358.19
388.263	332.19
388.488	368.19
388.713	364.19
388.938	380.19
389.163	376.19
389.387	377.19
389.612	345.19
389.837	361.19
390.062	343.19
390.287	370.19
390.512	346.19
390.736	353.19
390.961	366.19
391.186	368.19
391.411	387.19
391.636	370.19
391.86	368.19
392.085	376.19
392.31	375.19
392.534	379.19
392.759	391.19
392.984	377.19
393.208	391.19
393.433	356.19
393.658	366.19
393.882	378.19
394.107	371.19
394.331	351.19
394.556	353.19
394.78	364.19
395.005	363.19
395.229	368.19
395.454	374.19
395.678	396.19
395.903	397.19
396.127	394.19
396.352	404.19
396.576	370.19
396.801	371.19
397.025	379.19
397.249	383.19
397.474	366.19
397.698	388.19
397.922	403.19
398.147	393.19
398.371	398.19
398.595	423.19
398.82	426.19
399.044	432.19
399.268	454.19
399.492	491.19
399.717	531.19
399.941	543.19
400.165	520.19
400.389	509.19
400.613	474.19
400.837	444.19
401.062	428.19
401.286	409.19
401.51	413.19
401.734	417.19
401.958	444.19
402.182	426.19
402.406	449.19
402.63	443.19
402.854	432.19
403.078	395.19
403.302	449.19
403.526	440.19
403.75	450.19
403.974	452.19
404.198	436.19
404.422	460.19
404.645	456.19
404.869	449.19
405.093	491.19
405.317	499.19
405.541	470.19
405.765	473.19
405.988	463.19
406.212	454.19
406.436	460.19
406.66	508.19
406.883	474.19
407.107	490.19
407.331	514.19
407.555	561.19
407.778	547.19
408.002	496.19
408.226	498.19
408.449	486.19
408.673	480.19
408.896	489.19
409.12	498.19
409.344	466.19
409.567	451.19
409.791	441.19
410.014	450.19
410.238	438.19
410.461	443.19
410.685	455.19
410.908	443.19
411.132	468.19
411.355	473.19
411.578	467.19
411.802	427.19
412.025	448.19
412.249	460.19
412.472	435.19
412.695	438.19
412.919	475.19
413.142	445.19
413.365	438.19
413.589	435.19
413.812	415.19
414.035	417.19
414.258	401.19
414.482	405.19
414.705	412.19
414.928	416.19
415.151	411.19
415.374	420.19
415.597	415.19
415.821	401.19
416.044	403.19
416.267	428.19
416.49	406.19
416.713	408.19
416.936	415.19
417.159	409.19
417.382	402.19
417.605	391.19
417.828	438.19
418.051	444.19
418.274	414.19
418.497	419.19
418.72	413.19
418.943	432.19
419.166	420.19
419.389	465.19
419.611	452.19
419.834	422.19
420.057	448.19
420.28	454.19
420.503	426.19
420.726	421.19
420.948	415.19
421.171	436.19
421.394	459.19
421.617	413.19
421.839	433.19
422.062	417.19
422.285	445.19
422.507	463.19
422.73	484.19
422.953	466.19
423.175	460.19
423.398	447.19
423.621	437.19
423.843	432.19
424.066	453.19
424.288	450.19
424.511	484.19
424.733	515.19
424.956	531.19
425.178	515.19
425.401	498.19
425.623	518.19
425.846	476.19
426.068	430.19
426.291	446.19
426.513	439.19
426.735	430.19
426.958	440.19
427.18	485.19
427.402	553.19
427.625	585.19
427.847	503.19
428.069	464.19
428.292	478.19
428.514	403.19
428.736	402.19
428.958	408.19
429.181	402.19
429.403	408.19
429.625	397.19
429.847	407.19
430.069	446.19
430.292	440.19
430.514	399.19
430.736	396.19
430.958	396.19
431.18	379.19
431.402	380.19
431.624	364.19
431.846	366.19
432.068	366.19
432.29	382.19
432.512	381.19
432.734	382.19
432.956	390.19
433.178	388.19
433.4	406.19
433.622	397.19
433.844	395.19
434.066	388.19
434.287	391.19
434.509	407.19
434.731	411.19
434.953	410.19
435.175	438.19
435.397	449.19
435.618	456.19
435.84	442.19
436.062	490.19
436.284	510.19
436.505	435.19
436.727	417.19
436.949	408.19
437.17	410.19
437.392	390.19
437.614	378.19
437.835	410.19
438.057	450.19
438.278	510.19
438.5	512.19
438.721	546.19
438.943	513.19
439.165	447.19
439.386	414.19
439.608	430.19
439.829	412.19
440.05	446.19
440.272	439.19
440.493	430.19
440.715	398.19
440.936	412.19
441.158	416.19
441.379	416.19
441.6	447.19
441.822	422.19
442.043	466.19
442.264	514.19
442.486	532.19
442.707	460.19
442.928	418.19
443.149	428.19
443.371	467.19
443.592	488.19
443.813	542.19
444.034	557.19
444.255	500.19
444.476	459.19
444.698	464.19
444.919	456.19
445.14	567.19
445.361	521.19
445.582	472.19
445.803	483.19
446.024	506.19
446.245	531.19
446.466	476.19
446.687	423.19
446.908	420.19
447.129	397.19
447.35	403.19
447.571	395.19
447.792	392.19
448.013	382.19
448.234	383.19
448.455	424.19
448.675	491.19
448.896	524.19
449.117	472.19
449.338	482.19
449.559	512.19
449.779	566.19
450	454.19
450.221	420.19
450.442	399.19
450.662	382.19
450.883	395.19
451.104	381.19
451.324	387.19
451.545	374.19
451.766	373.19
451.986	350.19
452.207	357.19
452.428	340.19
452.648	343.19
452.869	346.19
453.089	344.19
453.31	385.19
453.53	378.19
453.751	357.19
453.971	352.19
454.192	372.19
454.412	368.19
454.633	354.19
454.853	354.19
455.073	352.19
455.294	347.19
455.514	389.19
455.734	393.19
455.955	355.19
456.175	341.19
456.395	329.19
456.616	361.19
456.836	326.19
457.056	350.19
457.276	345.19
457.497	352.19
457.717	361.19
457.937	347.19
458.157	348.19
458.377	339.19
458.598	374.19
458.818	394.19
459.038	408.19
459.258	449.19
459.478	419.19
459.698	393.19
459.918	410.19
460.138	402.19
460.358	403.19
460.578	423.19
460.798	420.19
461.018	427.19
461.238	416.19
461.458	413.19
461.678	439.19
461.898	450.19
462.118	404.19
462.338	427.19
462.558	448.19
462.777	446.19
462.997	458.19
463.217	481.19
463.437	503.19
463.657	489.19
463.876	454.19
464.096	458.19
464.316	448.19
464.536	446.19
464.755	470.19
464.975	453.19
465.195	461.19
465.414	468.19
465.634	426.19
465.854	410.19
466.073	396.19
466.293	389.19
466.512	388.19
466.732	384.19
466.951	378.19
467.171	357.19
467.391	380.19
467.61	388.19
467.829	380.19
468.049	403.19
468.268	364.19
468.488	359.19
468.707	379.19
468.927	355.19
469.146	379.19
469.365	379.19
469.585	355.19
469.804	374.19
470.023	379.19
470.243	406.19
470.462	399.19
470.681	418.19
470.901	388.19
471.12	379.19
471.339	366.19
471.558	378.19
471.777	374.19
471.997	385.19
472.216	389.19
472.435	402.19
472.654	369.19
472.873	367.19
473.092	384.19
473.311	370.19
473.53	362.19
473.749	379.19
473.968	405.19
474.187	440.19
474.406	451.19
474.625	397.19
474.844	376.19
475.063	375.19
475.282	390.19
475.501	382.19
475.72	406.19
475.939	388.19
476.158	370.19
476.377	384.19
476.596	393.19
476.814	383.19
477.033	386.19
477.252	396.19
477.471	393.19
477.69	413.19
477.908	396.19
478.127	426.19
478.346	426.19
478.564	408.19
478.783	433.19
479.002	460.19
479.22	441.19
479.439	437.19
479.658	449.19
479.876	458.19
480.095	464.19
480.313	456.19
480.532	471.19
480.751	472.19
480.969	476.19
481.188	507.19
481.406	481.19
481.624	446.19
481.843	435.19
482.061	434.19
482.28	425.19
482.498	445.19
482.717	428.19
482.935	436.19
483.153	446.19
483.372	428.19
483.59	423.19
483.808	423.19
484.027	420.19
484.245	412.19
484.463	418.19
484.681	434.19
484.9	443.19
485.118	430.19
485.336	421.19
485.554	416.19
485.772	420.19
485.99	439.19
486.209	442.19
486.427	443.19
486.645	452.19
486.863	450.19
487.081	483.19
487.299	448.19
487.517	468.19
487.735	434.19
487.953	435.19
488.171	473.19
488.389	451.19
488.607	458.19
488.825	446.19
489.043	457.19
489.261	454.19
489.479	443.19
489.696	465.19
489.914	459.19
490.132	458.19
490.35	484.19
490.568	468.19
490.786	485.19
491.003	491.19
491.221	521.19
491.439	505.19
491.657	508.19
491.874	512.19
492.092	528.19
492.31	534.19
492.527	514.19
492.745	531.19
492.963	522.19
493.18	517.19
493.398	522.19
493.615	541.19
493.833	528.19
494.05	546.19
494.268	536.19
494.485	521.19
494.703	538.19
494.92	547.19
495.138	512.19
495.355	512.19
495.573	534.19
495.79	520.19
496.008	551.19
496.225	530.19
496.442	537.19
496.66	547.19
496.877	533.19
497.094	542.19
497.312	544.19
497.529	561.19
497.746	569.19
497.963	569.19
498.181	593.19
498.398	601.19
498.615	625.19
498.832	666.19
499.049	673.19
499.267	694.19
499.484	746.19
499.701	778.19
499.918	822.19
500.135	890.19
500.352	960.19
500.569	990.19
500.786	960.19
501.003	913.19
501.22	883.19
501.437	842.19
501.654	759.19
501.871	746.19
502.088	698.19
502.305	659.19
502.522	638.19
502.739	622.19
502.956	624.19
503.172	587.19
503.389	566.19
503.606	552.19
503.823	551.19
504.04	571.19
504.256	554.19
504.473	571.19
504.69	566.19
504.907	544.19
505.123	524.19
505.34	529.19
505.557	494.19
505.773	515.19
505.99	510.19
506.207	530.19
506.423	482.19
506.64	514.19
506.856	501.19
507.073	472.19
507.289	480.19
507.506	470.19
507.722	466.19
507.939	511.19
508.155	476.19
508.372	480.19
508.588	466.19
508.805	446.19
509.021	465.19
509.238	468.19
509.454	456.19
509.67	462.19
509.887	447.19
510.103	455.19
510.319	452.19
510.536	474.19
510.752	723.19
510.968	584.19
511.184	440.19
511.401	457.19
511.617	430.19
511.833	424.19
512.049	452.19
512.265	425.19
512.481	458.19
512.698	431.19
512.914	437.19
513.13	454.19
513.346	414.19
513.562	426.19
513.778	431.19
513.994	440.19
514.21	434.19
514.426	449.19
514.642	436.19
514.858	491.19
515.074	479.19
515.29	552.19
515.506	728.19
515.721	619.19
515.937	502.19
516.153	470.19
516.369	464.19
516.585	481.19
516.801	482.19
517.016	473.19
517.232	487.19
517.448	513.19
517.664	516.19
517.879	522.19
518.095	513.19
518.311	497.19
518.527	471.19
518.742	471.19
518.958	466.19
519.173	469.19
519.389	448.19
519.605	446.19
519.82	447.19
520.036	456.19
520.251	448.19
520.467	477.19
520.682	452.19
520.898	457.19
521.113	442.19
521.329	461.19
521.544	517.19
521.76	578.19
521.975	875.19
522.19	884.19
522.406	543.19
522.621	451.19
522.836	417.19
523.052	398.19
523.267	397.19
523.482	401.19
523.698	381.19
523.913	403.19
524.128	395.19
524.343	393.19
524.559	383.19
524.774	385.19
524.989	388.19
525.204	382.19
525.419	367.19
525.634	394.19
525.849	373.19
526.064	378.19
526.28	391.19
526.495	371.19
526.71	385.19
526.925	387.19
527.14	350.19
527.355	384.19
527.57	360.19
527.785	344.19
527.999	379.19
528.214	354.19
528.429	366.19
528.644	377.19
528.859	364.19
529.074	378.19
529.289	378.19
529.503	420.19
529.718	405.19
529.933	376.19
530.148	368.19
530.363	356.19
530.577	361.19
530.792	384.19
531.007	367.19
531.221	372.19
531.436	364.19
531.651	378.19
531.865	366.19
532.08	337.19
532.295	384.19
532.509	368.19
532.724	368.19
532.938	351.19
533.153	366.19
533.367	356.19
533.582	357.19
533.796	340.19
534.011	355.19
534.225	348.19
534.44	368.19
534.654	349.19
534.868	362.19
535.083	346.19
535.297	345.19
535.511	367.19
535.726	353.19
535.94	348.19
536.154	359.19
536.369	357.19
536.583	351.19
536.797	357.19
537.011	353.19
537.225	346.19
537.44	338.19
537.654	358.19
537.868	370.19
538.082	343.19
538.296	356.19
538.51	350.19
538.724	339.19
538.938	351.19
539.153	347.19
539.367	359.19
539.581	340.19
539.795	350.19
540.009	328.19
540.222	352.19
540.436	345.19
540.65	352.19
540.864	355.19
541.078	355.19
541.292	369.19
541.506	368.19
541.72	350.19
541.934	348.19
542.147	358.19
542.361	361.19
542.575	336.19
542.789	334.19
543.002	348.19
543.216	347.19
543.43	355.19
543.644	353.19
543.857	337.19
544.071	347.19
544.285	355.19
544.498	348.19
544.712	358.19
544.925	351.19
545.139	364.19
545.352	350.19
545.566	353.19
545.779	339.19
545.993	336.19
546.206	363.19
546.42	378.19
546.633	359.19
546.847	366.19
547.06	347.19
547.274	340.19
547.487	352.19
547.7	345.19
547.914	334.19
548.127	338.19
548.34	356.19
548.554	325.19
548.767	342.19
548.98	342.19
549.193	351.19
549.407	354.19
549.62	343.19
549.833	358.19
550.046	348.19
550.259	342.19
550.473	345.19
550.686	335.19
550.899	352.19
551.112	343.19
551.325	340.19
551.538	322.19
551.751	329.19
551.964	367.19
552.177	336.19
552.39	335.19
552.603	344.19
552.816	337.19
553.029	375.19
553.242	388.19
553.455	363.19
553.667	374.19
553.88	374.19
554.093	367.19
554.306	362.19
554.519	344.19
554.732	352.19
554.944	327.19
555.157	342.19
555.37	330.19
555.583	319.19
555.795	344.19
556.008	327.19
556.221	323.19
556.433	314.19
556.646	323.19
556.859	328.19
557.071	303.19
557.284	326.19
557.496	294.19
557.709	304.19
557.921	295.19
558.134	314.19
558.346	302.19
558.559	288.19
558.771	293.19
558.984	310.19
559.196	292.19
559.409	312.19
559.621	297.19
559.833	294.19
560.046	304.19
560.258	299.19
560.47	302.19
560.683	297.19
560.895	302.19
561.107	290.19
561.32	314.19
561.532	303.19
561.744	321.19
561.956	311.19
562.168	306.19
562.381	305.19
562.593	290.19
562.805	308.19
563.017	295.19
563.229	293.19
563.441	298.19
563.653	315.19
563.865	312.19
564.077	318.19
564.289	314.19
564.501	324.19
564.713	314.19
564.925	321.19
565.137	331.19
565.349	354.19
565.561	335.19
565.773	352.19
565.985	353.19
566.197	357.19
566.408	386.19
566.62	414.19
566.832	425.19
567.044	416.19
567.255	410.19
567.467	419.19
567.679	446.19
567.891	471.19
568.102	452.19
568.314	437.19
568.526	416.19
568.737	396.19
568.949	390.19
569.161	342.19
569.372	344.19
569.584	322.19
569.795	319.19
570.007	308.19
570.218	326.19
570.43	312.19
570.641	305.19
570.853	292.19
571.064	296.19
571.276	293.19
571.487	297.19
571.698	298.19
571.91	294.19
572.121	285.19
572.333	268.19
572.544	264.19
572.755	261.19
572.966	257.19
573.178	275.19
573.389	280.19
573.6	269.19
573.811	258.19
574.023	245.19
574.234	258.19
574.445	252.19
574.656	255.19
574.867	274.19
575.078	255.19
575.289	242.19
575.501	249.19
575.712	258.19
575.923	251.19
576.134	259.19
576.345	265.19
576.556	257.19
576.767	246.19
576.978	259.19
577.188	267.19
577.399	245.19
577.61	245.19
577.821	248.19
578.032	270.19
578.243	273.19
578.454	379.19
578.665	292.19
578.875	257.19
579.086	244.19
579.297	247.19
579.508	258.19
579.718	244.19
579.929	246.19
580.14	241.19
580.35	245.19
580.561	247.19
580.772	236.19
580.982	262.19
581.193	244.19
581.403	235.19
581.614	246.19
581.825	232.19
582.035	258.19
582.246	244.19
582.456	250.19
582.667	234.19
582.877	231.19
583.087	251.19
583.298	243.19
583.508	245.19
583.719	230.19
583.929	243.19
584.139	229.19
584.35	244.19
584.56	241.19
584.77	238.19
584.981	240.19
585.191	235.19
585.401	229.19
585.611	240.19
585.821	217.19
586.032	238.19
586.242	221.19
586.452	246.19
586.662	236.19
586.872	248.19
587.082	215.19
587.292	219.19
587.502	229.19
587.713	233.19
587.923	234.19
588.133	234.19
588.343	243.19
588.553	233.19
588.762	250.19
588.972	222.19
589.182	234.19
589.392	243.19
589.602	228.19
589.812	239.19
590.022	233.19
590.232	240.19
590.441	243.19
590.651	236.19
590.861	242.19
591.071	234.19
591.281	233.19
591.49	237.19
591.7	252.19
591.91	248.19
592.119	227.19
592.329	241.19
592.539	258.19
592.748	260.19
592.958	267.19
593.167	268.19
593.377	254.19
593.587	264.19
593.796	280.19
594.006	283.19
594.215	262.19
594.424	254.19
594.634	274.19
594.843	274.19
595.053	249.19
595.262	244.19
595.472	266.19
595.681	239.19
595.89	243.19
596.1	224.19
596.309	231.19
596.518	240.19
596.727	227.19
596.937	219.19
597.146	209.19
597.355	236.19
597.564	224.19
597.774	229.19
597.983	220.19
598.192	210.19
598.401	214.19
598.61	210.19
598.819	207.19
599.028	209.19
599.237	202.19
599.446	208.19
599.655	212.19
599.864	218.19
600.073	196.19
600.282	210.19
600.491	231.19
600.7	189.19
600.909	210.19
601.118	215.19
601.327	205.19
601.536	191.19
601.745	213.19
601.953	196.19
602.162	229.19
602.371	212.19
602.58	207.19
602.789	209.19
602.997	198.19
603.206	201.19
603.415	209.19
603.623	203.19
603.832	214.19
604.041	196.19
604.249	182.19
604.458	194.19
604.666	194.19
604.875	205.19
605.084	206.19
605.292	203.19
605.501	193.19
605.709	197.19
605.918	206.19
606.126	206.19
606.334	216.19
606.543	209.19
606.751	192.19
606.96	184.19
607.168	203.19
607.376	198.19
607.585	200.19
607.793	190.19
608.001	197.19
608.21	214.19
608.418	200.19
608.626	205.19
608.834	204.19
609.043	208.19
609.251	202.19
609.459	194.19
609.667	192.19
609.875	194.19
610.083	192.19
610.291	217.19
610.499	201.19
610.707	194.19
610.916	209.19
611.124	214.19
611.332	200.19
611.54	206.19
611.748	219.19
611.955	222.19
612.163	212.19
612.371	207.19
612.579	198.19
612.787	199.19
612.995	192.19
613.203	208.19
613.411	211.19
613.618	203.19
613.826	206.19
614.034	196.19
614.242	198.19
614.449	187.19
614.657	192.19
614.865	191.19
615.072	208.19
615.28	194.19
615.488	201.19
615.695	197.19
615.903	191.19
616.111	198.19
616.318	201.19
616.526	191.19
616.733	211.19
616.941	194.19
617.148	189.19
617.356	197.19
617.563	196.19
617.771	199.19
617.978	195.19
618.185	186.19
618.393	204.19
618.6	187.19
618.807	178.19
619.015	216.19
619.222	193.19
619.429	195.19
619.637	187.19
619.844	202.19
620.051	189.19
620.258	171.19
620.466	202.19
620.673	192.19
620.88	189.19
621.087	180.19
621.294	183.19
621.501	192.19
621.708	184.19
621.915	175.19
622.122	182.19
622.329	191.19
622.536	202.19
622.743	174.19
622.95	175.19
623.157	180.19
623.364	191.19
623.571	182.19
623.778	179.19
623.985	198.19
624.192	178.19
624.399	178.19
624.606	173.19
624.812	186.19
625.019	176.19
625.226	178.19
625.433	195.19
625.639	168.19
625.846	161.19
626.053	195.19
626.259	195.19
626.466	189.19
626.673	178.19
626.879	163.19
627.086	164.19
627.293	160.19
627.499	160.19
627.706	176.19
627.912	177.19
628.119	176.19
628.325	165.19
628.532	150.19
628.738	159.19
628.945	170.19
629.151	150.19
629.357	159.19
629.564	155.19
629.77	174.19
629.976	163.19
630.183	171.19
630.389	170.19
630.595	154.19
630.802	167.19
631.008	167.19
631.214	172.19
631.42	164.19
631.627	167.19
631.833	177.19
632.039	161.19
632.245	162.19
632.451	180.19
632.657	165.19
632.863	159.19
633.069	163.19
633.275	147.19
633.481	149.19
633.688	163.19
633.893	140.19
634.099	156.19
634.305	178.19
634.511	176.19
634.717	150.19
634.923	160.19
635.129	155.19
635.335	150.19
635.541	138.19
635.747	169.19
635.952	164.19
636.158	164.19
636.364	149.19
636.57	155.19
636.775	157.19
636.981	165.19
637.187	168.19
637.392	169.19
637.598	157.19
637.804	154.19
638.009	155.19
638.215	156.19
638.421	151.19
638.626	144.19
638.832	147.19
639.037	144.19
639.243	158.19
639.448	136.19
639.654	170.19
639.859	148.19
640.065	147.19
640.27	159.19
640.475	153.19
640.681	140.19
640.886	155.19
641.091	162.19
641.297	149.19
641.502	136.19
641.707	147.19
641.913	154.19
642.118	140.19
642.323	153.19
642.528	172.19
642.733	173.19
642.939	158.19
643.144	166.19
643.349	136.19
643.554	137.19
643.759	162.19
643.964	152.19
644.169	150.19
644.374	144.19
644.579	149.19
644.784	152.19
644.989	151.19
645.194	140.19
645.399	144.19
645.604	156.19
645.809	156.19
646.014	152.19
646.219	147.19
646.423	142.19
646.628	153.19
646.833	156.19
647.038	145.19
647.243	131.19
647.447	150.19
647.652	135.19
647.857	148.19
648.062	139.19
648.266	150.19
648.471	155.19
648.676	161.19
648.88	163.19
649.085	172.19
649.289	141.19
649.494	146.19
649.698	153.19
649.903	153.19
650.107	157.19
650.312	142.19
650.516	144.19
650.721	143.19
650.925	139.19
651.13	146.19
651.334	144.19
651.539	120.19
651.743	139.19
651.947	146.19
652.152	128.19
652.356	136.19
652.56	138.19
652.764	132.19
652.969	121.19
653.173	129.19
653.377	119.19
653.581	121.19
653.785	133.19
653.99	118.19
654.194	122.19
654.398	128.19
654.602	123.19
654.806	122.19
655.01	126.19
655.214	137.19
655.418	122.19
655.622	124.19
655.826	124.19
656.03	141.19
656.234	122.19
656.438	123.19
656.642	140.19
656.846	141.19
657.049	130.19
657.253	120.19
657.457	116.19
657.661	122.19
657.865	129.19
658.068	107.19
658.272	105.19
658.476	111.19
658.68	106.19
658.883	94.19
659.087	100.19
659.291	97.19
659.494	102.19
659.698	107.19
659.901	90.19
660.105	96.19
660.309	84.19
660.512	91.19
660.716	79.19
660.919	96.19
661.123	84.19
661.326	95.19
661.53	77.19
661.733	88.19
661.936	79.19
662.14	97.19
662.343	95.19
662.546	83.19
662.75	85.19
662.953	100.19
663.156	75.19
663.36	72.19
663.563	88.19
663.766	75.19
663.969	87.19
664.173	80.19
664.376	77.19
664.579	72.19
664.782	81.19
664.985	92.19
665.188	85.19
665.391	82.19
665.594	78.19
665.797	67.19
666	68.19
666.203	75.19
666.406	71.19
666.609	79.19
666.812	83.19
667.015	83.19
667.218	83.19
667.421	74.19
667.624	68.19
667.827	91.19
668.03	64.19
668.232	75.19
668.435	82.19
668.638	73.19
668.841	72.19
669.043	75.19
669.246	80.19
669.449	71.19
669.651	97.19
669.854	66.19
670.057	87.19
670.259	76.19
670.462	85.19
670.665	80.19
670.867	80.19
671.07	79.19
671.272	73.19
671.475	85.19
671.677	78.19
671.88	80.19
672.082	67.19
672.284	82.19
672.487	68.19
672.689	76.19
672.892	79.19
