Data from Location1.07152019.Energy5.Lamp.07192019.3%Agarose_HRD10591_14-30-45-015.txt Node
Date: Fri Jul 19 14:30:45 EDT 2019
User: cochatt
Spectrometer: HR+D1059
Trigger mode: 1
Integration Time (sec): 1.000000E-1
Scans to average: 1
Electric dark correction enabled: true
Nonlinearity correction enabled: false
Boxcar width: 0
XAxis mode: Wavelengths
Number of Pixels in Spectrum: 2048
>>>>>Begin Spectral Data<<<<<
223.165	-26.25
223.4	-26.25
223.635	-26.25
223.869	-6.25
224.104	-33.25
224.338	-2.25
224.573	-10.25
224.808	-17.25
225.042	-8.25
225.277	-10.25
225.511	8.75
225.746	3.75
225.98	2.75
226.215	11.75
226.449	14.75
226.683	9.75
226.918	31.75
227.152	30.75
227.387	33.75
227.621	42.75
227.856	45.75
228.09	34.75
228.324	42.75
228.559	44.75
228.793	68.75
229.027	67.75
229.262	57.75
229.496	61.75
229.73	56.75
229.964	63.75
230.199	73.75
230.433	64.75
230.667	64.75
230.901	81.75
231.136	69.75
231.37	67.75
231.604	70.75
231.838	67.75
232.072	69.75
232.306	66.75
232.541	82.75
232.775	70.75
233.009	79.75
233.243	74.75
233.477	77.75
233.711	67.75
233.945	84.75
234.179	67.75
234.413	80.75
234.647	76.75
234.881	73.75
235.115	88.75
235.349	84.75
235.583	71.75
235.817	66.75
236.051	73.75
236.285	73.75
236.519	81.75
236.753	76.75
236.987	73.75
237.221	80.75
237.455	73.75
237.689	64.75
237.922	62.75
238.156	67.75
238.39	60.75
238.624	78.75
238.858	66.75
239.091	68.75
239.325	69.75
239.559	61.75
239.793	64.75
240.027	68.75
240.26	76.75
240.494	81.75
240.728	72.75
240.961	66.75
241.195	72.75
241.429	78.75
241.662	69.75
241.896	83.75
242.13	67.75
242.363	68.75
242.597	70.75
242.83	75.75
243.064	74.75
243.298	76.75
243.531	69.75
243.765	67.75
243.998	76.75
244.232	61.75
244.465	84.75
244.699	64.75
244.932	83.75
245.166	69.75
245.399	72.75
245.633	82.75
245.866	72.75
246.099	83.75
246.333	69.75
246.566	65.75
246.8	62.75
247.033	70.75
247.266	83.75
247.5	79.75
247.733	71.75
247.966	81.75
248.2	74.75
248.433	71.75
248.666	76.75
248.899	71.75
249.133	79.75
249.366	82.75
249.599	74.75
249.832	75.75
250.066	71.75
250.299	81.75
250.532	75.75
250.765	58.75
250.998	72.75
251.231	50.75
251.465	61.75
251.698	64.75
251.931	76.75
252.164	83.75
252.397	85.75
252.63	71.75
252.863	66.75
253.096	75.75
253.329	71.75
253.562	76.75
253.795	82.75
254.028	78.75
254.261	59.75
254.494	79.75
254.727	74.75
254.96	70.75
255.193	83.75
255.426	75.75
255.659	75.75
255.892	61.75
256.124	72.75
256.357	73.75
256.59	82.75
256.823	83.75
257.056	73.75
257.289	80.75
257.521	86.75
257.754	75.75
257.987	80.75
258.22	84.75
258.452	84.75
258.685	55.75
258.918	71.75
259.151	68.75
259.383	79.75
259.616	84.75
259.849	82.75
260.081	79.75
260.314	68.75
260.547	74.75
260.779	68.75
261.012	66.75
261.244	80.75
261.477	88.75
261.71	81.75
261.942	66.75
262.175	86.75
262.407	68.75
262.64	94.75
262.872	68.75
263.105	82.75
263.337	78.75
263.57	74.75
263.802	74.75
264.035	78.75
264.267	61.75
264.499	70.75
264.732	77.75
264.964	73.75
265.197	63.75
265.429	76.75
265.661	74.75
265.894	94.75
266.126	84.75
266.358	72.75
266.591	79.75
266.823	86.75
267.055	81.75
267.287	76.75
267.52	56.75
267.752	91.75
267.984	86.75
268.216	83.75
268.448	84.75
268.681	83.75
268.913	70.75
269.145	64.75
269.377	77.75
269.609	80.75
269.841	68.75
270.073	80.75
270.306	93.75
270.538	94.75
270.77	72.75
271.002	73.75
271.234	68.75
271.466	69.75
271.698	74.75
271.93	72.75
272.162	73.75
272.394	82.75
272.626	81.75
272.858	66.75
273.09	90.75
273.322	74.75
273.553	75.75
273.785	76.75
274.017	86.75
274.249	72.75
274.481	79.75
274.713	75.75
274.945	75.75
275.176	89.75
275.408	65.75
275.64	72.75
275.872	85.75
276.104	74.75
276.335	84.75
276.567	68.75
276.799	80.75
277.031	80.75
277.262	74.75
277.494	88.75
277.726	73.75
277.957	90.75
278.189	73.75
278.421	85.75
278.652	75.75
278.884	84.75
279.115	76.75
279.347	75.75
279.579	83.75
279.81	84.75
280.042	75.75
280.273	77.75
280.505	84.75
280.736	67.75
280.968	94.75
281.199	68.75
281.431	64.75
281.662	81.75
281.894	86.75
282.125	79.75
282.356	62.75
282.588	78.75
282.819	79.75
283.051	80.75
283.282	85.75
283.513	72.75
283.745	65.75
283.976	83.75
284.207	72.75
284.439	79.75
284.67	80.75
284.901	67.75
285.132	89.75
285.364	65.75
285.595	82.75
285.826	78.75
286.057	59.75
286.288	89.75
286.52	94.75
286.751	66.75
286.982	85.75
287.213	84.75
287.444	78.75
287.675	82.75
287.906	72.75
288.138	66.75
288.369	79.75
288.6	80.75
288.831	72.75
289.062	66.75
289.293	71.75
289.524	80.75
289.755	80.75
289.986	70.75
290.217	81.75
290.448	79.75
290.679	78.75
290.91	71.75
291.141	68.75
291.371	77.75
291.602	72.75
291.833	79.75
292.064	82.75
292.295	92.75
292.526	84.75
292.757	87.75
292.987	81.75
293.218	74.75
293.449	71.75
293.68	76.75
293.91	68.75
294.141	67.75
294.372	80.75
294.603	75.75
294.833	69.75
295.064	63.75
295.295	81.75
295.525	80.75
295.756	84.75
295.987	78.75
296.217	74.75
296.448	80.75
296.679	80.75
296.909	82.75
297.14	81.75
297.37	66.75
297.601	80.75
297.831	82.75
298.062	72.75
298.292	75.75
298.523	71.75
298.753	77.75
298.984	80.75
299.214	72.75
299.445	78.75
299.675	78.75
299.905	94.75
300.136	78.75
300.366	85.75
300.597	84.75
300.827	81.75
301.057	76.75
301.288	83.75
301.518	78.75
301.748	79.75
301.979	82.75
302.209	80.75
302.439	74.75
302.669	76.75
302.9	76.75
303.13	82.75
303.36	72.75
303.59	79.75
303.82	72.75
304.051	77.75
304.281	69.75
304.511	92.75
304.741	81.75
304.971	73.75
305.201	85.75
305.431	86.75
305.661	86.75
305.891	72.75
306.121	95.75
306.352	76.75
306.582	82.75
306.812	89.75
307.042	88.75
307.272	73.75
307.502	74.75
307.731	82.75
307.961	80.75
308.191	88.75
308.421	85.75
308.651	70.75
308.881	68.75
309.111	68.75
309.341	71.75
309.571	73.75
309.8	75.75
310.03	71.75
310.26	84.75
310.49	82.75
310.72	78.75
310.949	68.75
311.179	76.75
311.409	88.75
311.639	80.75
311.868	81.75
312.098	78.75
312.328	77.75
312.557	87.75
312.787	82.75
313.017	74.75
313.246	80.75
313.476	76.75
313.706	81.75
313.935	75.75
314.165	66.75
314.394	87.75
314.624	85.75
314.853	95.75
315.083	75.75
315.312	70.75
315.542	81.75
315.771	86.75
316.001	68.75
316.23	87.75
316.46	71.75
316.689	75.75
316.919	78.75
317.148	91.75
317.377	84.75
317.607	80.75
317.836	80.75
318.065	86.75
318.295	70.75
318.524	91.75
318.753	86.75
318.983	87.75
319.212	70.75
319.441	95.75
319.67	89.75
319.9	78.75
320.129	73.75
320.358	88.75
320.587	77.75
320.816	84.75
321.046	85.75
321.275	78.75
321.504	67.75
321.733	74.75
321.962	71.75
322.191	78.75
322.42	88.75
322.649	74.75
322.878	86.75
323.108	84.75
323.337	85.75
323.566	81.75
323.795	91.75
324.024	82.75
324.253	74.75
324.482	80.75
324.71	82.75
324.939	84.75
325.168	78.75
325.397	79.75
325.626	69.75
325.855	85.75
326.084	69.75
326.313	84.75
326.542	80.75
326.77	94.75
326.999	72.75
327.228	68.75
327.457	81.75
327.686	72.75
327.914	84.75
328.143	91.75
328.372	72.75
328.6	80.75
328.829	67.75
329.058	64.75
329.287	61.75
329.515	93.75
329.744	96.75
329.972	82.75
330.201	79.75
330.43	86.75
330.658	81.75
330.887	70.75
331.115	79.75
331.344	85.75
331.572	72.75
331.801	84.75
332.03	71.75
332.258	73.75
332.486	84.75
332.715	71.75
332.943	92.75
333.172	82.75
333.4	106.75
333.629	63.75
333.857	80.75
334.085	72.75
334.314	70.75
334.542	71.75
334.771	89.75
334.999	72.75
335.227	71.75
335.455	74.75
335.684	74.75
335.912	71.75
336.14	83.75
336.369	80.75
336.597	79.75
336.825	67.75
337.053	76.75
337.281	79.75
337.51	76.75
337.738	84.75
337.966	93.75
338.194	87.75
338.422	86.75
338.65	81.75
338.878	82.75
339.106	79.75
339.334	76.75
339.562	80.75
339.79	67.75
340.018	84.75
340.246	67.75
340.474	87.75
340.702	81.75
340.93	81.75
341.158	89.75
341.386	73.75
341.614	79.75
341.842	67.75
342.07	68.75
342.298	58.75
342.526	86.75
342.754	84.75
342.981	73.75
343.209	77.75
343.437	81.75
343.665	73.75
343.893	74.75
344.12	83.75
344.348	72.75
344.576	78.75
344.804	79.75
345.031	84.75
345.259	99.75
345.487	72.75
345.714	68.75
345.942	72.75
346.17	84.75
346.397	70.75
346.625	73.75
346.853	61.75
347.08	72.75
347.308	76.75
347.535	81.75
347.763	85.75
347.99	73.75
348.218	81.75
348.445	83.75
348.673	87.75
348.9	80.75
349.128	75.75
349.355	72.75
349.583	79.75
349.81	85.75
350.037	74.75
350.265	79.75
350.492	77.75
350.72	71.75
350.947	70.75
351.174	78.75
351.402	75.75
351.629	86.75
351.856	72.75
352.083	80.75
352.311	79.75
352.538	74.75
352.765	81.75
352.992	77.75
353.22	72.75
353.447	86.75
353.674	77.75
353.901	67.75
354.128	78.75
354.355	100.75
354.583	75.75
354.81	81.75
355.037	74.75
355.264	76.75
355.491	82.75
355.718	68.75
355.945	71.75
356.172	73.75
356.399	67.75
356.626	71.75
356.853	75.75
357.08	88.75
357.307	83.75
357.534	72.75
357.761	88.75
357.988	65.75
358.215	66.75
358.441	60.75
358.668	71.75
358.895	66.75
359.122	91.75
359.349	74.75
359.576	67.75
359.802	84.75
360.029	82.75
360.256	79.75
360.483	75.75
360.709	83.75
360.936	80.75
361.163	71.75
361.39	67.75
361.616	82.75
361.843	78.75
362.07	89.75
362.296	87.75
362.523	67.75
362.749	73.75
362.976	68.75
363.203	84.75
363.429	64.75
363.656	79.75
363.882	78.75
364.109	75.75
364.335	73.75
364.562	82.75
364.788	79.75
365.015	63.75
365.241	71.75
365.468	73.75
365.694	68.75
365.92	87.75
366.147	93.75
366.373	78.75
366.599	64.75
366.826	66.75
367.052	75.75
367.278	82.75
367.505	84.75
367.731	81.75
367.957	75.75
368.184	49.75
368.41	80.75
368.636	83.75
368.862	85.75
369.089	70.75
369.315	79.75
369.541	82.75
369.767	85.75
369.993	62.75
370.219	77.75
370.445	85.75
370.672	88.75
370.898	90.75
371.124	86.75
371.35	68.75
371.576	91.75
371.802	86.75
372.028	81.75
372.254	79.75
372.48	84.75
372.706	82.75
372.932	68.75
373.158	72.75
373.384	89.75
373.61	79.75
373.835	85.75
374.061	88.75
374.287	77.75
374.513	90.75
374.739	88.75
374.965	85.75
375.191	77.75
375.416	92.75
375.642	78.75
375.868	100.75
376.094	78.75
376.319	68.75
376.545	79.75
376.771	70.75
376.997	84.75
377.222	96.75
377.448	102.75
377.674	86.75
377.899	90.75
378.125	97.75
378.35	92.75
378.576	78.75
378.802	79.75
379.027	91.75
379.253	81.75
379.478	86.75
379.704	103.75
379.929	85.75
380.155	93.75
380.38	79.75
380.606	82.75
380.831	105.75
381.057	89.75
381.282	99.75
381.507	86.75
381.733	76.75
381.958	79.75
382.184	96.75
382.409	92.75
382.634	103.75
382.86	90.75
383.085	71.75
383.31	88.75
383.535	80.75
383.761	85.75
383.986	71.75
384.211	92.75
384.436	96.75
384.662	78.75
384.887	85.75
385.112	80.75
385.337	83.75
385.562	93.75
385.787	91.75
386.013	100.75
386.238	94.75
386.463	96.75
386.688	112.75
386.913	86.75
387.138	76.75
387.363	92.75
387.588	96.75
387.813	87.75
388.038	88.75
388.263	92.75
388.488	88.75
388.713	94.75
388.938	105.75
389.163	85.75
389.387	88.75
389.612	98.75
389.837	76.75
390.062	103.75
390.287	98.75
390.512	93.75
390.736	92.75
390.961	89.75
391.186	96.75
391.411	98.75
391.636	110.75
391.86	97.75
392.085	86.75
392.31	85.75
392.534	94.75
392.759	81.75
392.984	80.75
393.208	108.75
393.433	105.75
393.658	89.75
393.882	91.75
394.107	94.75
394.331	98.75
394.556	98.75
394.78	113.75
395.005	101.75
395.229	80.75
395.454	88.75
395.678	99.75
395.903	105.75
396.127	108.75
396.352	104.75
396.576	82.75
396.801	102.75
397.025	113.75
397.249	92.75
397.474	101.75
397.698	98.75
397.922	103.75
398.147	101.75
398.371	89.75
398.595	109.75
398.82	94.75
399.044	100.75
399.268	90.75
399.492	108.75
399.717	101.75
399.941	106.75
400.165	101.75
400.389	108.75
400.613	102.75
400.837	107.75
401.062	113.75
401.286	97.75
401.51	89.75
401.734	93.75
401.958	99.75
402.182	104.75
402.406	110.75
402.63	111.75
402.854	109.75
403.078	104.75
403.302	109.75
403.526	108.75
403.75	97.75
403.974	103.75
404.198	118.75
404.422	105.75
404.645	103.75
404.869	119.75
405.093	96.75
405.317	112.75
405.541	112.75
405.765	102.75
405.988	100.75
406.212	110.75
406.436	108.75
406.66	103.75
406.883	104.75
407.107	109.75
407.331	122.75
407.555	100.75
407.778	103.75
408.002	119.75
408.226	83.75
408.449	113.75
408.673	124.75
408.896	114.75
409.12	112.75
409.344	118.75
409.567	105.75
409.791	100.75
410.014	126.75
410.238	120.75
410.461	109.75
410.685	126.75
410.908	122.75
411.132	113.75
411.355	122.75
411.578	121.75
411.802	102.75
412.025	116.75
412.249	112.75
412.472	118.75
412.695	120.75
412.919	126.75
413.142	120.75
413.365	108.75
413.589	125.75
413.812	116.75
414.035	108.75
414.258	101.75
414.482	103.75
414.705	103.75
414.928	117.75
415.151	129.75
415.374	101.75
415.597	97.75
415.821	120.75
416.044	115.75
416.267	116.75
416.49	110.75
416.713	114.75
416.936	116.75
417.159	126.75
417.382	120.75
417.605	114.75
417.828	120.75
418.051	105.75
418.274	120.75
418.497	114.75
418.72	119.75
418.943	110.75
419.166	130.75
419.389	128.75
419.611	138.75
419.834	134.75
420.057	150.75
420.28	120.75
420.503	115.75
420.726	132.75
420.948	119.75
421.171	128.75
421.394	119.75
421.617	123.75
421.839	139.75
422.062	133.75
422.285	130.75
422.507	120.75
422.73	116.75
422.953	113.75
423.175	119.75
423.398	115.75
423.621	134.75
423.843	128.75
424.066	117.75
424.288	125.75
424.511	142.75
424.733	135.75
424.956	132.75
425.178	131.75
425.401	122.75
425.623	144.75
425.846	119.75
426.068	128.75
426.291	130.75
426.513	118.75
426.735	137.75
426.958	118.75
427.18	112.75
427.402	125.75
427.625	121.75
427.847	118.75
428.069	120.75
428.292	122.75
428.514	122.75
428.736	122.75
428.958	104.75
429.181	119.75
429.403	112.75
429.625	117.75
429.847	121.75
430.069	109.75
430.292	116.75
430.514	124.75
430.736	129.75
430.958	126.75
431.18	128.75
431.402	125.75
431.624	131.75
431.846	87.75
432.068	95.75
432.29	93.75
432.512	107.75
432.734	99.75
432.956	120.75
433.178	131.75
433.4	133.75
433.622	125.75
433.844	103.75
434.066	128.75
434.287	100.75
434.509	90.75
434.731	103.75
434.953	110.75
435.175	115.75
435.397	122.75
435.618	114.75
435.84	120.75
436.062	99.75
436.284	105.75
436.505	114.75
436.727	134.75
436.949	124.75
437.17	109.75
437.392	119.75
437.614	121.75
437.835	120.75
438.057	110.75
438.278	95.75
438.5	119.75
438.721	130.75
438.943	128.75
439.165	114.75
439.386	134.75
439.608	125.75
439.829	148.75
440.05	136.75
440.272	129.75
440.493	127.75
440.715	125.75
440.936	132.75
441.158	135.75
441.379	138.75
441.6	131.75
441.822	148.75
442.043	131.75
442.264	126.75
442.486	145.75
442.707	122.75
442.928	116.75
443.149	113.75
443.371	126.75
443.592	135.75
443.813	140.75
444.034	142.75
444.255	145.75
444.476	122.75
444.698	137.75
444.919	139.75
445.14	247.75
445.361	189.75
445.582	160.75
445.803	134.75
446.024	123.75
446.245	137.75
446.466	151.75
446.687	146.75
446.908	156.75
447.129	136.75
447.35	136.75
447.571	133.75
447.792	136.75
448.013	130.75
448.234	135.75
448.455	127.75
448.675	114.75
448.896	129.75
449.117	137.75
449.338	120.75
449.559	127.75
449.779	130.75
450	133.75
450.221	126.75
450.442	122.75
450.662	124.75
450.883	132.75
451.104	126.75
451.324	117.75
451.545	122.75
451.766	114.75
451.986	137.75
452.207	118.75
452.428	118.75
452.648	113.75
452.869	122.75
453.089	121.75
453.31	100.75
453.53	105.75
453.751	102.75
453.971	98.75
454.192	95.75
454.412	116.75
454.633	101.75
454.853	104.75
455.073	103.75
455.294	129.75
455.514	118.75
455.734	116.75
455.955	95.75
456.175	103.75
456.395	109.75
456.616	101.75
456.836	117.75
457.056	110.75
457.276	95.75
457.497	110.75
457.717	98.75
457.937	103.75
458.157	85.75
458.377	87.75
458.598	90.75
458.818	80.75
459.038	81.75
459.258	79.75
459.478	84.75
459.698	92.75
459.918	101.75
460.138	88.75
460.358	100.75
460.578	104.75
460.798	104.75
461.018	112.75
461.238	104.75
461.458	112.75
461.678	116.75
461.898	112.75
462.118	120.75
462.338	111.75
462.558	101.75
462.777	113.75
462.997	99.75
463.217	104.75
463.437	95.75
463.657	99.75
463.876	102.75
464.096	117.75
464.316	87.75
464.536	96.75
464.755	110.75
464.975	104.75
465.195	113.75
465.414	98.75
465.634	108.75
465.854	102.75
466.073	126.75
466.293	113.75
466.512	113.75
466.732	112.75
466.951	120.75
467.171	129.75
467.391	124.75
467.61	136.75
467.829	137.75
468.049	134.75
468.268	116.75
468.488	123.75
468.707	135.75
468.927	122.75
469.146	133.75
469.365	133.75
469.585	141.75
469.804	135.75
470.023	138.75
470.243	129.75
470.462	132.75
470.681	131.75
470.901	126.75
471.12	124.75
471.339	135.75
471.558	121.75
471.777	133.75
471.997	125.75
472.216	122.75
472.435	116.75
472.654	104.75
472.873	90.75
473.092	112.75
473.311	114.75
473.53	113.75
473.749	121.75
473.968	137.75
474.187	115.75
474.406	103.75
474.625	118.75
474.844	120.75
475.063	120.75
475.282	111.75
475.501	85.75
475.72	117.75
475.939	120.75
476.158	115.75
476.377	124.75
476.596	123.75
476.814	96.75
477.033	86.75
477.252	111.75
477.471	118.75
477.69	104.75
477.908	116.75
478.127	130.75
478.346	137.75
478.564	126.75
478.783	125.75
479.002	129.75
479.22	127.75
479.439	116.75
479.658	110.75
479.876	96.75
480.095	99.75
480.313	105.75
480.532	113.75
480.751	112.75
480.969	81.75
481.188	104.75
481.406	89.75
481.624	82.75
481.843	79.75
482.061	99.75
482.28	109.75
482.498	98.75
482.717	100.75
482.935	113.75
483.153	136.75
483.372	146.75
483.59	137.75
483.808	126.75
484.027	123.75
484.245	119.75
484.463	141.75
484.681	159.75
484.9	142.75
485.118	134.75
485.336	132.75
485.554	112.75
485.772	106.75
485.99	103.75
486.209	100.75
486.427	95.75
486.645	111.75
486.863	122.75
487.081	131.75
487.299	129.75
487.517	131.75
487.735	164.75
487.953	172.75
488.171	172.75
488.389	168.75
488.607	132.75
488.825	129.75
489.043	121.75
489.261	126.75
489.479	133.75
489.696	138.75
489.914	143.75
490.132	132.75
490.35	139.75
490.568	152.75
490.786	166.75
491.003	176.75
491.221	190.75
491.439	183.75
491.657	191.75
491.874	205.75
492.092	210.75
492.31	221.75
492.527	230.75
492.745	209.75
492.963	179.75
493.18	182.75
493.398	178.75
493.615	171.75
493.833	165.75
494.05	165.75
494.268	157.75
494.485	155.75
494.703	157.75
494.92	157.75
495.138	172.75
495.355	163.75
495.573	163.75
495.79	158.75
496.008	165.75
496.225	143.75
496.442	167.75
496.66	160.75
496.877	140.75
497.094	157.75
497.312	150.75
497.529	162.75
497.746	137.75
497.963	132.75
498.181	139.75
498.398	122.75
498.615	108.75
498.832	115.75
499.049	112.75
499.267	121.75
499.484	128.75
499.701	117.75
499.918	133.75
500.135	136.75
500.352	133.75
500.569	127.75
500.786	131.75
501.003	145.75
501.22	126.75
501.437	149.75
501.654	134.75
501.871	124.75
502.088	130.75
502.305	126.75
502.522	121.75
502.739	138.75
502.956	120.75
503.172	118.75
503.389	116.75
503.606	101.75
503.823	114.75
504.04	120.75
504.256	113.75
504.473	131.75
504.69	117.75
504.907	118.75
505.123	100.75
505.34	113.75
505.557	110.75
505.773	121.75
505.99	114.75
506.207	109.75
506.423	113.75
506.64	127.75
506.856	125.75
507.073	109.75
507.289	115.75
507.506	105.75
507.722	124.75
507.939	98.75
508.155	123.75
508.372	116.75
508.588	109.75
508.805	97.75
509.021	96.75
509.238	97.75
509.454	93.75
509.67	90.75
509.887	88.75
510.103	96.75
510.319	82.75
510.536	84.75
510.752	96.75
510.968	76.75
511.184	88.75
511.401	77.75
511.617	87.75
511.833	81.75
512.049	81.75
512.265	85.75
512.481	101.75
512.698	85.75
512.914	98.75
513.13	95.75
513.346	86.75
513.562	75.75
513.778	77.75
513.994	90.75
514.21	84.75
514.426	89.75
514.642	88.75
514.858	81.75
515.074	97.75
515.29	78.75
515.506	81.75
515.721	82.75
515.937	77.75
516.153	78.75
516.369	76.75
516.585	71.75
516.801	85.75
517.016	80.75
517.232	89.75
517.448	85.75
517.664	83.75
517.879	110.75
518.095	94.75
518.311	76.75
518.527	87.75
518.742	102.75
518.958	108.75
519.173	114.75
519.389	114.75
519.605	105.75
519.82	103.75
520.036	88.75
520.251	100.75
520.467	101.75
520.682	102.75
520.898	103.75
521.113	80.75
521.329	85.75
521.544	77.75
521.76	83.75
521.975	95.75
522.19	85.75
522.406	84.75
522.621	88.75
522.836	80.75
523.052	106.75
523.267	105.75
523.482	92.75
523.698	92.75
523.913	100.75
524.128	123.75
524.343	98.75
524.559	97.75
524.774	105.75
524.989	109.75
525.204	111.75
525.419	103.75
525.634	103.75
525.849	83.75
526.064	104.75
526.28	86.75
526.495	87.75
526.71	90.75
526.925	81.75
527.14	72.75
527.355	81.75
527.57	82.75
527.785	86.75
527.999	85.75
528.214	102.75
528.429	111.75
528.644	125.75
528.859	128.75
529.074	148.75
529.289	152.75
529.503	149.75
529.718	133.75
529.933	118.75
530.148	97.75
530.363	96.75
530.577	91.75
530.792	82.75
531.007	79.75
531.221	72.75
531.436	86.75
531.651	87.75
531.865	90.75
532.08	88.75
532.295	88.75
532.509	97.75
532.724	81.75
532.938	73.75
533.153	85.75
533.367	99.75
533.582	105.75
533.796	101.75
534.011	103.75
534.225	83.75
534.44	99.75
534.654	91.75
534.868	92.75
535.083	103.75
535.297	101.75
535.511	90.75
535.726	103.75
535.94	88.75
536.154	95.75
536.369	94.75
536.583	85.75
536.797	86.75
537.011	87.75
537.225	94.75
537.44	96.75
537.654	92.75
537.868	101.75
538.082	94.75
538.296	91.75
538.51	115.75
538.724	111.75
538.938	117.75
539.153	136.75
539.367	113.75
539.581	113.75
539.795	113.75
540.009	84.75
540.222	86.75
540.436	109.75
540.65	101.75
540.864	118.75
541.078	133.75
541.292	130.75
541.506	158.75
541.72	174.75
541.934	177.75
542.147	173.75
542.361	169.75
542.575	147.75
542.789	138.75
543.002	124.75
543.216	126.75
543.43	106.75
543.644	124.75
543.857	145.75
544.071	136.75
544.285	144.75
544.498	152.75
544.712	145.75
544.925	146.75
545.139	149.75
545.352	144.75
545.566	159.75
545.779	149.75
545.993	178.75
546.206	172.75
546.42	154.75
546.633	144.75
546.847	165.75
547.06	158.75
547.274	170.75
547.487	172.75
547.7	165.75
547.914	154.75
548.127	156.75
548.34	137.75
548.554	154.75
548.767	160.75
548.98	136.75
549.193	142.75
549.407	143.75
549.62	155.75
549.833	144.75
550.046	158.75
550.259	136.75
550.473	164.75
550.686	145.75
550.899	126.75
551.112	148.75
551.325	150.75
551.538	133.75
551.751	114.75
551.964	109.75
552.177	120.75
552.39	119.75
552.603	133.75
552.816	136.75
553.029	134.75
553.242	157.75
553.455	149.75
553.667	154.75
553.88	138.75
554.093	135.75
554.306	139.75
554.519	142.75
554.732	134.75
554.944	128.75
555.157	145.75
555.37	138.75
555.583	142.75
555.795	144.75
556.008	128.75
556.221	126.75
556.433	124.75
556.646	131.75
556.859	124.75
557.071	138.75
557.284	139.75
557.496	143.75
557.709	137.75
557.921	135.75
558.134	119.75
558.346	118.75
558.559	129.75
558.771	132.75
558.984	114.75
559.196	127.75
559.409	126.75
559.621	129.75
559.833	111.75
560.046	121.75
560.258	124.75
560.47	104.75
560.683	122.75
560.895	118.75
561.107	130.75
561.32	137.75
561.532	122.75
561.744	126.75
561.956	125.75
562.168	120.75
562.381	124.75
562.593	119.75
562.805	122.75
563.017	110.75
563.229	124.75
563.441	118.75
563.653	116.75
563.865	130.75
564.077	115.75
564.289	117.75
564.501	109.75
564.713	104.75
564.925	110.75
565.137	86.75
565.349	92.75
565.561	111.75
565.773	106.75
565.985	117.75
566.197	115.75
566.408	105.75
566.62	116.75
566.832	126.75
567.044	111.75
567.255	105.75
567.467	106.75
567.679	103.75
567.891	91.75
568.102	98.75
568.314	100.75
568.526	81.75
568.737	68.75
568.949	76.75
569.161	84.75
569.372	72.75
569.584	92.75
569.795	82.75
570.007	70.75
570.218	78.75
570.43	86.75
570.641	78.75
570.853	97.75
571.064	120.75
571.276	92.75
571.487	93.75
571.698	87.75
571.91	93.75
572.121	84.75
572.333	88.75
572.544	85.75
572.755	100.75
572.966	89.75
573.178	90.75
573.389	83.75
573.6	69.75
573.811	80.75
574.023	83.75
574.234	77.75
574.445	67.75
574.656	80.75
574.867	96.75
575.078	89.75
575.289	98.75
575.501	102.75
575.712	75.75
575.923	92.75
576.134	86.75
576.345	105.75
576.556	93.75
576.767	97.75
576.978	90.75
577.188	89.75
577.399	88.75
577.61	101.75
577.821	86.75
578.032	76.75
578.243	91.75
578.454	93.75
578.665	98.75
578.875	85.75
579.086	80.75
579.297	80.75
579.508	64.75
579.718	74.75
579.929	80.75
580.14	91.75
580.35	76.75
580.561	77.75
580.772	79.75
580.982	89.75
581.193	90.75
581.403	88.75
581.614	92.75
581.825	78.75
582.035	65.75
582.246	82.75
582.456	92.75
582.667	80.75
582.877	78.75
583.087	91.75
583.298	86.75
583.508	83.75
583.719	74.75
583.929	79.75
584.139	85.75
584.35	79.75
584.56	74.75
584.77	81.75
584.981	87.75
585.191	82.75
585.401	82.75
585.611	86.75
585.821	73.75
586.032	88.75
586.242	71.75
586.452	77.75
586.662	81.75
586.872	75.75
587.082	86.75
587.292	88.75
587.502	89.75
587.713	87.75
587.923	73.75
588.133	70.75
588.343	80.75
588.553	88.75
588.762	75.75
588.972	87.75
589.182	69.75
589.392	73.75
589.602	74.75
589.812	88.75
590.022	84.75
590.232	80.75
590.441	71.75
590.651	76.75
590.861	79.75
591.071	86.75
591.281	82.75
591.49	91.75
591.7	81.75
591.91	85.75
592.119	84.75
592.329	77.75
592.539	79.75
592.748	79.75
592.958	83.75
593.167	79.75
593.377	96.75
593.587	96.75
593.796	88.75
594.006	77.75
594.215	73.75
594.424	92.75
594.634	82.75
594.843	81.75
595.053	108.75
595.262	78.75
595.472	69.75
595.681	84.75
595.89	80.75
596.1	81.75
596.309	84.75
596.518	77.75
596.727	79.75
596.937	98.75
597.146	92.75
597.355	92.75
597.564	97.75
597.774	79.75
597.983	93.75
598.192	84.75
598.401	81.75
598.61	79.75
598.819	74.75
599.028	89.75
599.237	83.75
599.446	73.75
599.655	85.75
599.864	87.75
600.073	83.75
600.282	96.75
600.491	80.75
600.7	87.75
600.909	88.75
601.118	85.75
601.327	111.75
601.536	99.75
601.745	93.75
601.953	89.75
602.162	97.75
602.371	109.75
602.58	88.75
602.789	96.75
602.997	92.75
603.206	93.75
603.415	103.75
603.623	97.75
603.832	89.75
604.041	90.75
604.249	85.75
604.458	92.75
604.666	92.75
604.875	80.75
605.084	108.75
605.292	96.75
605.501	108.75
605.709	110.75
605.918	106.75
606.126	99.75
606.334	94.75
606.543	110.75
606.751	110.75
606.96	102.75
607.168	116.75
607.376	95.75
607.585	111.75
607.793	106.75
608.001	110.75
608.21	124.75
608.418	100.75
608.626	100.75
608.834	116.75
609.043	110.75
609.251	102.75
609.459	102.75
609.667	105.75
609.875	117.75
610.083	106.75
610.291	115.75
610.499	116.75
610.707	107.75
610.916	110.75
611.124	103.75
611.332	112.75
611.54	97.75
611.748	111.75
611.955	108.75
612.163	103.75
612.371	113.75
612.579	113.75
612.787	118.75
612.995	102.75
613.203	99.75
613.411	109.75
613.618	104.75
613.826	101.75
614.034	120.75
614.242	97.75
614.449	90.75
614.657	89.75
614.865	87.75
615.072	103.75
615.28	97.75
615.488	99.75
615.695	108.75
615.903	96.75
616.111	113.75
616.318	106.75
616.526	104.75
616.733	118.75
616.941	94.75
617.148	94.75
617.356	89.75
617.563	101.75
617.771	102.75
617.978	100.75
618.185	104.75
618.393	106.75
618.6	103.75
618.807	102.75
619.015	116.75
619.222	89.75
619.429	111.75
619.637	112.75
619.844	85.75
620.051	95.75
620.258	104.75
620.466	109.75
620.673	108.75
620.88	100.75
621.087	93.75
621.294	100.75
621.501	92.75
621.708	97.75
621.915	98.75
622.122	98.75
622.329	94.75
622.536	99.75
622.743	78.75
622.95	109.75
623.157	97.75
623.364	98.75
623.571	100.75
623.778	101.75
623.985	96.75
624.192	109.75
624.399	100.75
624.606	97.75
624.812	99.75
625.019	89.75
625.226	79.75
625.433	104.75
625.639	91.75
625.846	80.75
626.053	87.75
626.259	87.75
626.466	86.75
626.673	85.75
626.879	85.75
627.086	82.75
627.293	100.75
627.499	102.75
627.706	105.75
627.912	112.75
628.119	90.75
628.325	95.75
628.532	99.75
628.738	104.75
628.945	105.75
629.151	94.75
629.357	87.75
629.564	90.75
629.77	101.75
629.976	86.75
630.183	98.75
630.389	95.75
630.595	89.75
630.802	98.75
631.008	87.75
631.214	94.75
631.42	94.75
631.627	97.75
631.833	105.75
632.039	107.75
632.245	102.75
632.451	87.75
632.657	108.75
632.863	101.75
633.069	108.75
633.275	101.75
633.481	92.75
633.688	88.75
633.893	94.75
634.099	89.75
634.305	99.75
634.511	94.75
634.717	78.75
634.923	95.75
635.129	89.75
635.335	92.75
635.541	87.75
635.747	94.75
635.952	103.75
636.158	98.75
636.364	108.75
636.57	88.75
636.775	101.75
636.981	102.75
637.187	94.75
637.392	100.75
637.598	87.75
637.804	100.75
638.009	89.75
638.215	93.75
638.421	93.75
638.626	99.75
638.832	96.75
639.037	104.75
639.243	103.75
639.448	85.75
639.654	93.75
639.859	77.75
640.065	100.75
640.27	98.75
640.475	91.75
640.681	94.75
640.886	111.75
641.091	97.75
641.297	88.75
641.502	84.75
641.707	89.75
641.913	91.75
642.118	94.75
642.323	88.75
642.528	86.75
642.733	96.75
642.939	96.75
643.144	89.75
643.349	98.75
643.554	91.75
643.759	97.75
643.964	93.75
644.169	97.75
644.374	97.75
644.579	96.75
644.784	86.75
644.989	106.75
645.194	97.75
645.399	86.75
645.604	92.75
645.809	93.75
646.014	105.75
646.219	84.75
646.423	88.75
646.628	96.75
646.833	80.75
647.038	97.75
647.243	81.75
647.447	85.75
647.652	88.75
647.857	88.75
648.062	84.75
648.266	100.75
648.471	87.75
648.676	83.75
648.88	78.75
649.085	95.75
649.289	97.75
649.494	85.75
649.698	87.75
649.903	81.75
650.107	76.75
650.312	96.75
650.516	87.75
650.721	96.75
650.925	87.75
651.13	88.75
651.334	101.75
651.539	86.75
651.743	80.75
651.947	88.75
652.152	110.75
652.356	88.75
652.56	92.75
652.764	97.75
652.969	94.75
653.173	89.75
653.377	86.75
653.581	82.75
653.785	93.75
653.99	88.75
654.194	84.75
654.398	81.75
654.602	87.75
654.806	86.75
655.01	88.75
655.214	89.75
655.418	83.75
655.622	81.75
655.826	83.75
656.03	92.75
656.234	94.75
656.438	77.75
656.642	72.75
656.846	82.75
657.049	80.75
657.253	90.75
657.457	73.75
657.661	89.75
657.865	77.75
658.068	80.75
658.272	77.75
658.476	86.75
658.68	81.75
658.883	82.75
659.087	74.75
659.291	70.75
659.494	71.75
659.698	85.75
659.901	88.75
660.105	82.75
660.309	82.75
660.512	73.75
660.716	71.75
660.919	74.75
661.123	79.75
661.326	77.75
661.53	91.75
661.733	67.75
661.936	67.75
662.14	86.75
662.343	73.75
662.546	72.75
662.75	76.75
662.953	85.75
663.156	74.75
663.36	80.75
663.563	67.75
663.766	80.75
663.969	81.75
664.173	92.75
664.376	78.75
664.579	85.75
664.782	80.75
664.985	71.75
665.188	72.75
665.391	76.75
665.594	71.75
665.797	64.75
666	74.75
666.203	71.75
666.406	80.75
666.609	83.75
666.812	84.75
667.015	93.75
667.218	76.75
667.421	74.75
667.624	64.75
667.827	70.75
668.03	68.75
668.232	85.75
668.435	80.75
668.638	74.75
668.841	78.75
669.043	72.75
669.246	73.75
669.449	73.75
669.651	78.75
669.854	74.75
670.057	79.75
670.259	70.75
670.462	90.75
670.665	80.75
670.867	73.75
671.07	84.75
671.272	65.75
671.475	84.75
671.677	68.75
671.88	78.75
672.082	85.75
672.284	75.75
672.487	81.75
672.689	69.75
672.892	84.75
