Data from Location1.07152019.Energy5.Lamp.07192019.3%Agarose_HRD10591_14-32-52-016.txt Node
Date: Fri Jul 19 14:32:52 EDT 2019
User: cochatt
Spectrometer: HR+D1059
Trigger mode: 1
Integration Time (sec): 1.000000E-1
Scans to average: 1
Electric dark correction enabled: true
Nonlinearity correction enabled: false
Boxcar width: 0
XAxis mode: Wavelengths
Number of Pixels in Spectrum: 2048
>>>>>Begin Spectral Data<<<<<
223.165	-17.56
223.4	-17.56
223.635	-17.56
223.869	-17.56
224.104	-8.56
224.338	-8.56
224.573	-16.56
224.808	-17.56
225.042	-12.56
225.277	-5.56
225.511	-1.56
225.746	10.44
225.98	5.44
226.215	13.44
226.449	18.44
226.683	8.44
226.918	28.44
227.152	21.44
227.387	35.44
227.621	42.44
227.856	40.44
228.09	42.44
228.324	52.44
228.559	59.44
228.793	59.44
229.027	55.44
229.262	80.44
229.496	73.44
229.73	76.44
229.964	65.44
230.199	87.44
230.433	58.44
230.667	74.44
230.901	65.44
231.136	78.44
231.37	74.44
231.604	77.44
231.838	82.44
232.072	87.44
232.306	92.44
232.541	105.44
232.775	91.44
233.009	84.44
233.243	91.44
233.477	85.44
233.711	99.44
233.945	88.44
234.179	73.44
234.413	91.44
234.647	67.44
234.881	84.44
235.115	77.44
235.349	74.44
235.583	86.44
235.817	89.44
236.051	89.44
236.285	80.44
236.519	80.44
236.753	85.44
236.987	79.44
237.221	75.44
237.455	78.44
237.689	84.44
237.922	85.44
238.156	79.44
238.39	78.44
238.624	73.44
238.858	66.44
239.091	79.44
239.325	85.44
239.559	80.44
239.793	75.44
240.027	78.44
240.26	58.44
240.494	75.44
240.728	77.44
240.961	68.44
241.195	79.44
241.429	87.44
241.662	82.44
241.896	97.44
242.13	73.44
242.363	81.44
242.597	76.44
242.83	91.44
243.064	77.44
243.298	79.44
243.531	76.44
243.765	68.44
243.998	80.44
244.232	71.44
244.465	72.44
244.699	93.44
244.932	85.44
245.166	76.44
245.399	94.44
245.633	76.44
245.866	67.44
246.099	90.44
246.333	87.44
246.566	90.44
246.8	74.44
247.033	77.44
247.266	82.44
247.5	80.44
247.733	80.44
247.966	87.44
248.2	69.44
248.433	81.44
248.666	98.44
248.899	94.44
249.133	94.44
249.366	81.44
249.599	65.44
249.832	83.44
250.066	79.44
250.299	74.44
250.532	71.44
250.765	89.44
250.998	75.44
251.231	75.44
251.465	69.44
251.698	83.44
251.931	75.44
252.164	82.44
252.397	92.44
252.63	97.44
252.863	88.44
253.096	85.44
253.329	77.44
253.562	61.44
253.795	78.44
254.028	93.44
254.261	81.44
254.494	73.44
254.727	90.44
254.96	80.44
255.193	71.44
255.426	72.44
255.659	84.44
255.892	88.44
256.124	87.44
256.357	79.44
256.59	73.44
256.823	73.44
257.056	85.44
257.289	76.44
257.521	83.44
257.754	85.44
257.987	88.44
258.22	78.44
258.452	73.44
258.685	81.44
258.918	86.44
259.151	82.44
259.383	74.44
259.616	92.44
259.849	104.44
260.081	84.44
260.314	81.44
260.547	74.44
260.779	72.44
261.012	65.44
261.244	78.44
261.477	83.44
261.71	82.44
261.942	80.44
262.175	84.44
262.407	84.44
262.64	79.44
262.872	89.44
263.105	80.44
263.337	90.44
263.57	85.44
263.802	71.44
264.035	83.44
264.267	68.44
264.499	76.44
264.732	79.44
264.964	77.44
265.197	90.44
265.429	84.44
265.661	89.44
265.894	82.44
266.126	86.44
266.358	82.44
266.591	88.44
266.823	71.44
267.055	89.44
267.287	70.44
267.52	67.44
267.752	91.44
267.984	75.44
268.216	86.44
268.448	80.44
268.681	89.44
268.913	89.44
269.145	88.44
269.377	80.44
269.609	78.44
269.841	84.44
270.073	78.44
270.306	91.44
270.538	89.44
270.77	71.44
271.002	88.44
271.234	87.44
271.466	85.44
271.698	83.44
271.93	84.44
272.162	78.44
272.394	77.44
272.626	85.44
272.858	90.44
273.09	82.44
273.322	94.44
273.553	80.44
273.785	67.44
274.017	82.44
274.249	88.44
274.481	86.44
274.713	78.44
274.945	69.44
275.176	76.44
275.408	87.44
275.64	89.44
275.872	95.44
276.104	81.44
276.335	92.44
276.567	83.44
276.799	77.44
277.031	87.44
277.262	76.44
277.494	77.44
277.726	73.44
277.957	86.44
278.189	79.44
278.421	81.44
278.652	83.44
278.884	91.44
279.115	77.44
279.347	96.44
279.579	74.44
279.81	78.44
280.042	80.44
280.273	74.44
280.505	80.44
280.736	65.44
280.968	90.44
281.199	79.44
281.431	80.44
281.662	93.44
281.894	83.44
282.125	80.44
282.356	79.44
282.588	86.44
282.819	78.44
283.051	89.44
283.282	90.44
283.513	89.44
283.745	86.44
283.976	87.44
284.207	94.44
284.439	97.44
284.67	78.44
284.901	99.44
285.132	92.44
285.364	94.44
285.595	69.44
285.826	75.44
286.057	96.44
286.288	82.44
286.52	76.44
286.751	87.44
286.982	62.44
287.213	73.44
287.444	89.44
287.675	100.44
287.906	85.44
288.138	84.44
288.369	92.44
288.6	77.44
288.831	78.44
289.062	80.44
289.293	96.44
289.524	78.44
289.755	79.44
289.986	73.44
290.217	72.44
290.448	87.44
290.679	84.44
290.91	81.44
291.141	85.44
291.371	88.44
291.602	79.44
291.833	88.44
292.064	91.44
292.295	73.44
292.526	90.44
292.757	83.44
292.987	93.44
293.218	90.44
293.449	79.44
293.68	80.44
293.91	90.44
294.141	91.44
294.372	87.44
294.603	96.44
294.833	79.44
295.064	56.44
295.295	83.44
295.525	88.44
295.756	89.44
295.987	72.44
296.217	81.44
296.448	84.44
296.679	82.44
296.909	75.44
297.14	86.44
297.37	89.44
297.601	89.44
297.831	66.44
298.062	83.44
298.292	93.44
298.523	87.44
298.753	77.44
298.984	85.44
299.214	86.44
299.445	84.44
299.675	84.44
299.905	89.44
300.136	96.44
300.366	78.44
300.597	88.44
300.827	94.44
301.057	75.44
301.288	101.44
301.518	93.44
301.748	80.44
301.979	91.44
302.209	91.44
302.439	89.44
302.669	80.44
302.9	91.44
303.13	69.44
303.36	71.44
303.59	97.44
303.82	91.44
304.051	98.44
304.281	87.44
304.511	94.44
304.741	93.44
304.971	88.44
305.201	82.44
305.431	80.44
305.661	81.44
305.891	76.44
306.121	85.44
306.352	83.44
306.582	80.44
306.812	95.44
307.042	66.44
307.272	84.44
307.502	93.44
307.731	86.44
307.961	81.44
308.191	77.44
308.421	86.44
308.651	97.44
308.881	83.44
309.111	83.44
309.341	69.44
309.571	78.44
309.8	73.44
310.03	90.44
310.26	77.44
310.49	89.44
310.72	80.44
310.949	89.44
311.179	84.44
311.409	70.44
311.639	85.44
311.868	87.44
312.098	75.44
312.328	85.44
312.557	93.44
312.787	77.44
313.017	93.44
313.246	79.44
313.476	84.44
313.706	88.44
313.935	83.44
314.165	81.44
314.394	74.44
314.624	76.44
314.853	85.44
315.083	92.44
315.312	100.44
315.542	92.44
315.771	84.44
316.001	93.44
316.23	75.44
316.46	80.44
316.689	86.44
316.919	82.44
317.148	93.44
317.377	84.44
317.607	98.44
317.836	91.44
318.065	85.44
318.295	81.44
318.524	80.44
318.753	78.44
318.983	85.44
319.212	81.44
319.441	76.44
319.67	89.44
319.9	88.44
320.129	85.44
320.358	83.44
320.587	87.44
320.816	87.44
321.046	81.44
321.275	83.44
321.504	94.44
321.733	73.44
321.962	81.44
322.191	79.44
322.42	84.44
322.649	74.44
322.878	99.44
323.108	90.44
323.337	77.44
323.566	87.44
323.795	73.44
324.024	79.44
324.253	79.44
324.482	92.44
324.71	92.44
324.939	89.44
325.168	93.44
325.397	92.44
325.626	84.44
325.855	89.44
326.084	72.44
326.313	87.44
326.542	89.44
326.77	80.44
326.999	91.44
327.228	83.44
327.457	86.44
327.686	99.44
327.914	88.44
328.143	87.44
328.372	89.44
328.6	84.44
328.829	92.44
329.058	82.44
329.287	74.44
329.515	73.44
329.744	79.44
329.972	80.44
330.201	93.44
330.43	91.44
330.658	82.44
330.887	88.44
331.115	88.44
331.344	87.44
331.572	90.44
331.801	76.44
332.03	81.44
332.258	78.44
332.486	77.44
332.715	93.44
332.943	87.44
333.172	79.44
333.4	88.44
333.629	66.44
333.857	82.44
334.085	88.44
334.314	81.44
334.542	79.44
334.771	85.44
334.999	87.44
335.227	75.44
335.455	87.44
335.684	90.44
335.912	84.44
336.14	89.44
336.369	86.44
336.597	82.44
336.825	84.44
337.053	75.44
337.281	90.44
337.51	78.44
337.738	76.44
337.966	85.44
338.194	70.44
338.422	83.44
338.65	87.44
338.878	78.44
339.106	74.44
339.334	79.44
339.562	70.44
339.79	85.44
340.018	91.44
340.246	79.44
340.474	88.44
340.702	93.44
340.93	80.44
341.158	69.44
341.386	87.44
341.614	90.44
341.842	92.44
342.07	80.44
342.298	79.44
342.526	87.44
342.754	99.44
342.981	87.44
343.209	90.44
343.437	102.44
343.665	95.44
343.893	90.44
344.12	80.44
344.348	86.44
344.576	83.44
344.804	80.44
345.031	79.44
345.259	86.44
345.487	86.44
345.714	76.44
345.942	77.44
346.17	73.44
346.397	79.44
346.625	84.44
346.853	87.44
347.08	79.44
347.308	99.44
347.535	88.44
347.763	83.44
347.99	82.44
348.218	84.44
348.445	86.44
348.673	81.44
348.9	97.44
349.128	92.44
349.355	81.44
349.583	68.44
349.81	89.44
350.037	92.44
350.265	82.44
350.492	77.44
350.72	82.44
350.947	75.44
351.174	80.44
351.402	85.44
351.629	86.44
351.856	83.44
352.083	82.44
352.311	90.44
352.538	97.44
352.765	88.44
352.992	87.44
353.22	84.44
353.447	86.44
353.674	77.44
353.901	69.44
354.128	100.44
354.355	84.44
354.583	90.44
354.81	85.44
355.037	79.44
355.264	87.44
355.491	77.44
355.718	78.44
355.945	80.44
356.172	81.44
356.399	94.44
356.626	80.44
356.853	85.44
357.08	83.44
357.307	83.44
357.534	80.44
357.761	68.44
357.988	79.44
358.215	92.44
358.441	78.44
358.668	92.44
358.895	80.44
359.122	79.44
359.349	78.44
359.576	92.44
359.802	78.44
360.029	85.44
360.256	109.44
360.483	75.44
360.709	89.44
360.936	93.44
361.163	83.44
361.39	84.44
361.616	97.44
361.843	72.44
362.07	89.44
362.296	84.44
362.523	80.44
362.749	88.44
362.976	80.44
363.203	92.44
363.429	83.44
363.656	82.44
363.882	85.44
364.109	83.44
364.335	82.44
364.562	104.44
364.788	81.44
365.015	79.44
365.241	91.44
365.468	90.44
365.694	68.44
365.92	86.44
366.147	85.44
366.373	92.44
366.599	78.44
366.826	87.44
367.052	96.44
367.278	107.44
367.505	81.44
367.731	86.44
367.957	74.44
368.184	93.44
368.41	96.44
368.636	96.44
368.862	95.44
369.089	91.44
369.315	99.44
369.541	94.44
369.767	100.44
369.993	92.44
370.219	90.44
370.445	84.44
370.672	87.44
370.898	84.44
371.124	89.44
371.35	92.44
371.576	88.44
371.802	91.44
372.028	95.44
372.254	94.44
372.48	81.44
372.706	99.44
372.932	89.44
373.158	99.44
373.384	102.44
373.61	98.44
373.835	97.44
374.061	83.44
374.287	82.44
374.513	95.44
374.739	85.44
374.965	84.44
375.191	100.44
375.416	98.44
375.642	96.44
375.868	96.44
376.094	95.44
376.319	102.44
376.545	98.44
376.771	94.44
376.997	100.44
377.222	94.44
377.448	88.44
377.674	100.44
377.899	98.44
378.125	94.44
378.35	90.44
378.576	92.44
378.802	101.44
379.027	103.44
379.253	101.44
379.478	95.44
379.704	102.44
379.929	97.44
380.155	93.44
380.38	103.44
380.606	102.44
380.831	97.44
381.057	104.44
381.282	89.44
381.507	115.44
381.733	95.44
381.958	98.44
382.184	89.44
382.409	96.44
382.634	100.44
382.86	102.44
383.085	103.44
383.31	96.44
383.535	95.44
383.761	77.44
383.986	97.44
384.211	104.44
384.436	94.44
384.662	99.44
384.887	88.44
385.112	101.44
385.337	90.44
385.562	88.44
385.787	104.44
386.013	116.44
386.238	91.44
386.463	91.44
386.688	108.44
386.913	97.44
387.138	111.44
387.363	95.44
387.588	110.44
387.813	107.44
388.038	100.44
388.263	103.44
388.488	105.44
388.713	113.44
388.938	93.44
389.163	107.44
389.387	83.44
389.612	111.44
389.837	120.44
390.062	101.44
390.287	85.44
390.512	103.44
390.736	91.44
390.961	90.44
391.186	95.44
391.411	117.44
391.636	106.44
391.86	109.44
392.085	102.44
392.31	118.44
392.534	97.44
392.759	89.44
392.984	111.44
393.208	108.44
393.433	97.44
393.658	102.44
393.882	108.44
394.107	107.44
394.331	106.44
394.556	104.44
394.78	105.44
395.005	107.44
395.229	106.44
395.454	91.44
395.678	115.44
395.903	104.44
396.127	115.44
396.352	127.44
396.576	106.44
396.801	104.44
397.025	99.44
397.249	98.44
397.474	113.44
397.698	105.44
397.922	124.44
398.147	102.44
398.371	107.44
398.595	116.44
398.82	107.44
399.044	99.44
399.268	107.44
399.492	116.44
399.717	97.44
399.941	114.44
400.165	108.44
400.389	118.44
400.613	109.44
400.837	106.44
401.062	119.44
401.286	117.44
401.51	107.44
401.734	112.44
401.958	121.44
402.182	116.44
402.406	111.44
402.63	118.44
402.854	119.44
403.078	124.44
403.302	112.44
403.526	129.44
403.75	114.44
403.974	116.44
404.198	127.44
404.422	113.44
404.645	115.44
404.869	115.44
405.093	119.44
405.317	120.44
405.541	125.44
405.765	115.44
405.988	120.44
406.212	131.44
406.436	111.44
406.66	113.44
406.883	121.44
407.107	126.44
407.331	123.44
407.555	111.44
407.778	109.44
408.002	118.44
408.226	112.44
408.449	101.44
408.673	111.44
408.896	109.44
409.12	120.44
409.344	121.44
409.567	119.44
409.791	119.44
410.014	119.44
410.238	124.44
410.461	113.44
410.685	127.44
410.908	112.44
411.132	124.44
411.355	110.44
411.578	124.44
411.802	115.44
412.025	117.44
412.249	136.44
412.472	127.44
412.695	105.44
412.919	115.44
413.142	113.44
413.365	119.44
413.589	119.44
413.812	120.44
414.035	114.44
414.258	115.44
414.482	123.44
414.705	122.44
414.928	127.44
415.151	134.44
415.374	110.44
415.597	105.44
415.821	119.44
416.044	115.44
416.267	132.44
416.49	124.44
416.713	129.44
416.936	130.44
417.159	119.44
417.382	113.44
417.605	117.44
417.828	109.44
418.051	129.44
418.274	134.44
418.497	123.44
418.72	127.44
418.943	120.44
419.166	128.44
419.389	129.44
419.611	131.44
419.834	127.44
420.057	119.44
420.28	128.44
420.503	118.44
420.726	143.44
420.948	143.44
421.171	135.44
421.394	134.44
421.617	143.44
421.839	131.44
422.062	140.44
422.285	140.44
422.507	139.44
422.73	136.44
422.953	135.44
423.175	131.44
423.398	124.44
423.621	134.44
423.843	124.44
424.066	131.44
424.288	129.44
424.511	142.44
424.733	155.44
424.956	143.44
425.178	138.44
425.401	150.44
425.623	154.44
425.846	142.44
426.068	141.44
426.291	131.44
426.513	124.44
426.735	124.44
426.958	127.44
427.18	126.44
427.402	126.44
427.625	132.44
427.847	119.44
428.069	125.44
428.292	128.44
428.514	126.44
428.736	126.44
428.958	115.44
429.181	116.44
429.403	144.44
429.625	127.44
429.847	127.44
430.069	121.44
430.292	131.44
430.514	122.44
430.736	120.44
430.958	127.44
431.18	131.44
431.402	107.44
431.624	136.44
431.846	122.44
432.068	105.44
432.29	98.44
432.512	123.44
432.734	127.44
432.956	119.44
433.178	125.44
433.4	126.44
433.622	133.44
433.844	146.44
434.066	119.44
434.287	110.44
434.509	88.44
434.731	109.44
434.953	115.44
435.175	110.44
435.397	141.44
435.618	121.44
435.84	115.44
436.062	116.44
436.284	123.44
436.505	123.44
436.727	135.44
436.949	127.44
437.17	128.44
437.392	144.44
437.614	133.44
437.835	112.44
438.057	110.44
438.278	118.44
438.5	128.44
438.721	136.44
438.943	124.44
439.165	150.44
439.386	130.44
439.608	117.44
439.829	136.44
440.05	145.44
440.272	149.44
440.493	133.44
440.715	136.44
440.936	152.44
441.158	132.44
441.379	141.44
441.6	140.44
441.822	137.44
442.043	133.44
442.264	142.44
442.486	124.44
442.707	136.44
442.928	156.44
443.149	135.44
443.371	120.44
443.592	135.44
443.813	135.44
444.034	123.44
444.255	135.44
444.476	153.44
444.698	149.44
444.919	144.44
445.14	254.44
445.361	193.44
445.582	150.44
445.803	154.44
446.024	155.44
446.245	155.44
446.466	161.44
446.687	156.44
446.908	165.44
447.129	136.44
447.35	139.44
447.571	164.44
447.792	142.44
448.013	144.44
448.234	141.44
448.455	161.44
448.675	150.44
448.896	135.44
449.117	134.44
449.338	133.44
449.559	141.44
449.779	128.44
450	131.44
450.221	142.44
450.442	119.44
450.662	135.44
450.883	140.44
451.104	133.44
451.324	124.44
451.545	144.44
451.766	140.44
451.986	119.44
452.207	120.44
452.428	120.44
452.648	114.44
452.869	122.44
453.089	120.44
453.31	119.44
453.53	121.44
453.751	96.44
453.971	115.44
454.192	117.44
454.412	110.44
454.633	113.44
454.853	110.44
455.073	123.44
455.294	126.44
455.514	108.44
455.734	117.44
455.955	121.44
456.175	109.44
456.395	106.44
456.616	116.44
456.836	110.44
457.056	110.44
457.276	108.44
457.497	104.44
457.717	106.44
457.937	112.44
458.157	97.44
458.377	119.44
458.598	100.44
458.818	101.44
459.038	83.44
459.258	103.44
459.478	90.44
459.698	107.44
459.918	82.44
460.138	106.44
460.358	113.44
460.578	105.44
460.798	119.44
461.018	108.44
461.238	125.44
461.458	109.44
461.678	106.44
461.898	105.44
462.118	125.44
462.338	119.44
462.558	112.44
462.777	111.44
462.997	113.44
463.217	121.44
463.437	115.44
463.657	93.44
463.876	101.44
464.096	122.44
464.316	101.44
464.536	100.44
464.755	116.44
464.975	111.44
465.195	110.44
465.414	113.44
465.634	131.44
465.854	111.44
466.073	121.44
466.293	112.44
466.512	137.44
466.732	113.44
466.951	119.44
467.171	127.44
467.391	128.44
467.61	143.44
467.829	128.44
468.049	126.44
468.268	139.44
468.488	127.44
468.707	134.44
468.927	139.44
469.146	129.44
469.365	135.44
469.585	141.44
469.804	132.44
470.023	151.44
470.243	135.44
470.462	138.44
470.681	121.44
470.901	138.44
471.12	153.44
471.339	149.44
471.558	151.44
471.777	150.44
471.997	123.44
472.216	126.44
472.435	116.44
472.654	120.44
472.873	109.44
473.092	116.44
473.311	129.44
473.53	137.44
473.749	135.44
473.968	139.44
474.187	119.44
474.406	112.44
474.625	125.44
474.844	137.44
475.063	124.44
475.282	127.44
475.501	120.44
475.72	134.44
475.939	130.44
476.158	119.44
476.377	139.44
476.596	121.44
476.814	124.44
477.033	104.44
477.252	108.44
477.471	99.44
477.69	131.44
477.908	135.44
478.127	137.44
478.346	144.44
478.564	133.44
478.783	125.44
479.002	141.44
479.22	138.44
479.439	126.44
479.658	107.44
479.876	119.44
480.095	119.44
480.313	103.44
480.532	113.44
480.751	101.44
480.969	111.44
481.188	97.44
481.406	93.44
481.624	75.44
481.843	97.44
482.061	88.44
482.28	112.44
482.498	125.44
482.717	119.44
482.935	110.44
483.153	148.44
483.372	146.44
483.59	140.44
483.808	136.44
484.027	142.44
484.245	142.44
484.463	160.44
484.681	166.44
484.9	147.44
485.118	145.44
485.336	125.44
485.554	112.44
485.772	91.44
485.99	112.44
486.209	111.44
486.427	108.44
486.645	125.44
486.863	136.44
487.081	146.44
487.299	128.44
487.517	135.44
487.735	160.44
487.953	168.44
488.171	188.44
488.389	168.44
488.607	155.44
488.825	131.44
489.043	123.44
489.261	139.44
489.479	136.44
489.696	137.44
489.914	149.44
490.132	148.44
490.35	146.44
490.568	180.44
490.786	174.44
491.003	179.44
491.221	179.44
491.439	188.44
491.657	181.44
491.874	198.44
492.092	220.44
492.31	239.44
492.527	236.44
492.745	199.44
492.963	199.44
493.18	174.44
493.398	171.44
493.615	180.44
493.833	164.44
494.05	180.44
494.268	176.44
494.485	159.44
494.703	186.44
494.92	188.44
495.138	168.44
495.355	169.44
495.573	166.44
495.79	173.44
496.008	186.44
496.225	159.44
496.442	175.44
496.66	175.44
496.877	161.44
497.094	163.44
497.312	159.44
497.529	165.44
497.746	159.44
497.963	143.44
498.181	121.44
498.398	118.44
498.615	115.44
498.832	124.44
499.049	111.44
499.267	141.44
499.484	135.44
499.701	127.44
499.918	141.44
500.135	142.44
500.352	139.44
500.569	147.44
500.786	148.44
501.003	135.44
501.22	139.44
501.437	142.44
501.654	127.44
501.871	131.44
502.088	127.44
502.305	135.44
502.522	129.44
502.739	131.44
502.956	131.44
503.172	117.44
503.389	139.44
503.606	121.44
503.823	112.44
504.04	127.44
504.256	117.44
504.473	125.44
504.69	116.44
504.907	124.44
505.123	126.44
505.34	129.44
505.557	117.44
505.773	116.44
505.99	118.44
506.207	113.44
506.423	126.44
506.64	121.44
506.856	118.44
507.073	124.44
507.289	117.44
507.506	126.44
507.722	113.44
507.939	109.44
508.155	129.44
508.372	116.44
508.588	117.44
508.805	118.44
509.021	105.44
509.238	110.44
509.454	104.44
509.67	104.44
509.887	113.44
510.103	102.44
510.319	89.44
510.536	89.44
510.752	84.44
510.968	87.44
511.184	75.44
511.401	85.44
511.617	102.44
511.833	89.44
512.049	91.44
512.265	105.44
512.481	101.44
512.698	93.44
512.914	88.44
513.13	105.44
513.346	89.44
513.562	81.44
513.778	92.44
513.994	92.44
514.21	106.44
514.426	84.44
514.642	101.44
514.858	106.44
515.074	109.44
515.29	84.44
515.506	98.44
515.721	85.44
515.937	87.44
516.153	90.44
516.369	88.44
516.585	97.44
516.801	98.44
517.016	94.44
517.232	76.44
517.448	81.44
517.664	105.44
517.879	87.44
518.095	104.44
518.311	80.44
518.527	100.44
518.742	96.44
518.958	106.44
519.173	105.44
519.389	102.44
519.605	114.44
519.82	104.44
520.036	104.44
520.251	103.44
520.467	101.44
520.682	99.44
520.898	84.44
521.113	104.44
521.329	93.44
521.544	93.44
521.76	97.44
521.975	99.44
522.19	95.44
522.406	100.44
522.621	106.44
522.836	115.44
523.052	101.44
523.267	101.44
523.482	105.44
523.698	107.44
523.913	124.44
524.128	125.44
524.343	108.44
524.559	115.44
524.774	115.44
524.989	121.44
525.204	91.44
525.419	103.44
525.634	118.44
525.849	99.44
526.064	111.44
526.28	104.44
526.495	98.44
526.71	93.44
526.925	95.44
527.14	87.44
527.355	94.44
527.57	84.44
527.785	98.44
527.999	89.44
528.214	113.44
528.429	110.44
528.644	115.44
528.859	137.44
529.074	144.44
529.289	149.44
529.503	139.44
529.718	146.44
529.933	133.44
530.148	111.44
530.363	89.44
530.577	84.44
530.792	90.44
531.007	96.44
531.221	78.44
531.436	82.44
531.651	78.44
531.865	90.44
532.08	98.44
532.295	77.44
532.509	88.44
532.724	77.44
532.938	84.44
533.153	107.44
533.367	100.44
533.582	133.44
533.796	139.44
534.011	110.44
534.225	102.44
534.44	88.44
534.654	99.44
534.868	101.44
535.083	84.44
535.297	93.44
535.511	100.44
535.726	116.44
535.94	111.44
536.154	108.44
536.369	101.44
536.583	90.44
536.797	85.44
537.011	86.44
537.225	93.44
537.44	80.44
537.654	89.44
537.868	91.44
538.082	94.44
538.296	98.44
538.51	116.44
538.724	115.44
538.938	105.44
539.153	128.44
539.367	127.44
539.581	110.44
539.795	106.44
540.009	116.44
540.222	90.44
540.436	104.44
540.65	117.44
540.864	134.44
541.078	133.44
541.292	149.44
541.506	166.44
541.72	175.44
541.934	179.44
542.147	195.44
542.361	190.44
542.575	161.44
542.789	139.44
543.002	126.44
543.216	132.44
543.43	128.44
543.644	149.44
543.857	131.44
544.071	159.44
544.285	164.44
544.498	166.44
544.712	151.44
544.925	153.44
545.139	156.44
545.352	133.44
545.566	133.44
545.779	166.44
545.993	155.44
546.206	161.44
546.42	168.44
546.633	170.44
546.847	161.44
547.06	159.44
547.274	166.44
547.487	160.44
547.7	170.44
547.914	177.44
548.127	171.44
548.34	171.44
548.554	152.44
548.767	153.44
548.98	175.44
549.193	147.44
549.407	156.44
549.62	167.44
549.833	133.44
550.046	145.44
550.259	149.44
550.473	152.44
550.686	161.44
550.899	146.44
551.112	144.44
551.325	166.44
551.538	134.44
551.751	111.44
551.964	131.44
552.177	124.44
552.39	133.44
552.603	130.44
552.816	149.44
553.029	157.44
553.242	165.44
553.455	166.44
553.667	160.44
553.88	165.44
554.093	142.44
554.306	149.44
554.519	146.44
554.732	151.44
554.944	144.44
555.157	155.44
555.37	154.44
555.583	130.44
555.795	151.44
556.008	132.44
556.221	126.44
556.433	129.44
556.646	128.44
556.859	154.44
557.071	151.44
557.284	145.44
557.496	151.44
557.709	145.44
557.921	145.44
558.134	133.44
558.346	151.44
558.559	137.44
558.771	143.44
558.984	128.44
559.196	140.44
559.409	137.44
559.621	121.44
559.833	132.44
560.046	124.44
560.258	124.44
560.47	128.44
560.683	131.44
560.895	115.44
561.107	124.44
561.32	124.44
561.532	121.44
561.744	141.44
561.956	143.44
562.168	127.44
562.381	130.44
562.593	131.44
562.805	143.44
563.017	128.44
563.229	137.44
563.441	119.44
563.653	131.44
563.865	128.44
564.077	131.44
564.289	122.44
564.501	104.44
564.713	128.44
564.925	133.44
565.137	120.44
565.349	113.44
565.561	110.44
565.773	117.44
565.985	110.44
566.197	116.44
566.408	108.44
566.62	115.44
566.832	115.44
567.044	120.44
567.255	121.44
567.467	125.44
567.679	109.44
567.891	116.44
568.102	110.44
568.314	94.44
568.526	92.44
568.737	83.44
568.949	86.44
569.161	92.44
569.372	91.44
569.584	77.44
569.795	89.44
570.007	94.44
570.218	75.44
570.43	85.44
570.641	67.44
570.853	107.44
571.064	96.44
571.276	117.44
571.487	106.44
571.698	104.44
571.91	94.44
572.121	98.44
572.333	93.44
572.544	106.44
572.755	105.44
572.966	86.44
573.178	104.44
573.389	83.44
573.6	93.44
573.811	99.44
574.023	93.44
574.234	94.44
574.445	92.44
574.656	79.44
574.867	78.44
575.078	81.44
575.289	91.44
575.501	93.44
575.712	80.44
575.923	97.44
576.134	90.44
576.345	82.44
576.556	110.44
576.767	95.44
576.978	92.44
577.188	95.44
577.399	95.44
577.61	89.44
577.821	100.44
578.032	92.44
578.243	86.44
578.454	93.44
578.665	102.44
578.875	84.44
579.086	78.44
579.297	81.44
579.508	93.44
579.718	90.44
579.929	81.44
580.14	82.44
580.35	83.44
580.561	99.44
580.772	92.44
580.982	101.44
581.193	97.44
581.403	92.44
581.614	97.44
581.825	96.44
582.035	92.44
582.246	109.44
582.456	78.44
582.667	94.44
582.877	90.44
583.087	92.44
583.298	87.44
583.508	92.44
583.719	90.44
583.929	83.44
584.139	84.44
584.35	88.44
584.56	84.44
584.77	73.44
584.981	77.44
585.191	74.44
585.401	100.44
585.611	77.44
585.821	91.44
586.032	96.44
586.242	89.44
586.452	75.44
586.662	91.44
586.872	72.44
587.082	87.44
587.292	91.44
587.502	88.44
587.713	98.44
587.923	91.44
588.133	93.44
588.343	86.44
588.553	85.44
588.762	89.44
588.972	92.44
589.182	89.44
589.392	87.44
589.602	88.44
589.812	81.44
590.022	77.44
590.232	80.44
590.441	95.44
590.651	91.44
590.861	85.44
591.071	79.44
591.281	94.44
591.49	94.44
591.7	78.44
591.91	86.44
592.119	94.44
592.329	106.44
592.539	87.44
592.748	97.44
592.958	89.44
593.167	90.44
593.377	84.44
593.587	98.44
593.796	80.44
594.006	73.44
594.215	72.44
594.424	85.44
594.634	92.44
594.843	76.44
595.053	92.44
595.262	103.44
595.472	108.44
595.681	94.44
595.89	76.44
596.1	97.44
596.309	94.44
596.518	99.44
596.727	91.44
596.937	100.44
597.146	95.44
597.355	87.44
597.564	93.44
597.774	98.44
597.983	89.44
598.192	104.44
598.401	96.44
598.61	98.44
598.819	95.44
599.028	91.44
599.237	100.44
599.446	89.44
599.655	99.44
599.864	73.44
600.073	91.44
600.282	104.44
600.491	99.44
600.7	92.44
600.909	97.44
601.118	80.44
601.327	99.44
601.536	89.44
601.745	104.44
601.953	106.44
602.162	106.44
602.371	113.44
602.58	116.44
602.789	103.44
602.997	121.44
603.206	101.44
603.415	97.44
603.623	106.44
603.832	108.44
604.041	100.44
604.249	104.44
604.458	88.44
604.666	103.44
604.875	102.44
605.084	97.44
605.292	115.44
605.501	106.44
605.709	129.44
605.918	127.44
606.126	112.44
606.334	109.44
606.543	100.44
606.751	97.44
606.96	115.44
607.168	107.44
607.376	104.44
607.585	108.44
607.793	108.44
608.001	116.44
608.21	100.44
608.418	125.44
608.626	117.44
608.834	116.44
609.043	107.44
609.251	117.44
609.459	122.44
609.667	109.44
609.875	96.44
610.083	119.44
610.291	99.44
610.499	114.44
610.707	113.44
610.916	121.44
611.124	124.44
611.332	122.44
611.54	112.44
611.748	133.44
611.955	109.44
612.163	104.44
612.371	112.44
612.579	118.44
612.787	97.44
612.995	110.44
613.203	118.44
613.411	119.44
613.618	120.44
613.826	106.44
614.034	118.44
614.242	103.44
614.449	99.44
614.657	99.44
614.865	118.44
615.072	118.44
615.28	103.44
615.488	105.44
615.695	108.44
615.903	120.44
616.111	107.44
616.318	98.44
616.526	105.44
616.733	99.44
616.941	112.44
617.148	126.44
617.356	113.44
617.563	104.44
617.771	113.44
617.978	120.44
618.185	109.44
618.393	125.44
618.6	86.44
618.807	121.44
619.015	98.44
619.222	113.44
619.429	111.44
619.637	108.44
619.844	97.44
620.051	118.44
620.258	94.44
620.466	108.44
620.673	101.44
620.88	105.44
621.087	97.44
621.294	116.44
621.501	94.44
621.708	117.44
621.915	103.44
622.122	89.44
622.329	102.44
622.536	113.44
622.743	103.44
622.95	116.44
623.157	115.44
623.364	111.44
623.571	131.44
623.778	113.44
623.985	116.44
624.192	108.44
624.399	119.44
624.606	99.44
624.812	106.44
625.019	119.44
625.226	104.44
625.433	117.44
625.639	93.44
625.846	86.44
626.053	107.44
626.259	94.44
626.466	99.44
626.673	104.44
626.879	89.44
627.086	93.44
627.293	104.44
627.499	103.44
627.706	111.44
627.912	98.44
628.119	110.44
628.325	112.44
628.532	102.44
628.738	102.44
628.945	106.44
629.151	95.44
629.357	97.44
629.564	93.44
629.77	103.44
629.976	100.44
630.183	104.44
630.389	89.44
630.595	106.44
630.802	101.44
631.008	101.44
631.214	111.44
631.42	103.44
631.627	94.44
631.833	103.44
632.039	105.44
632.245	102.44
632.451	111.44
632.657	97.44
632.863	103.44
633.069	85.44
633.275	108.44
633.481	97.44
633.688	109.44
633.893	113.44
634.099	87.44
634.305	99.44
634.511	97.44
634.717	103.44
634.923	86.44
635.129	103.44
635.335	101.44
635.541	95.44
635.747	93.44
635.952	101.44
636.158	101.44
636.364	102.44
636.57	101.44
636.775	102.44
636.981	102.44
637.187	92.44
637.392	92.44
637.598	81.44
637.804	107.44
638.009	104.44
638.215	97.44
638.421	102.44
638.626	92.44
638.832	92.44
639.037	94.44
639.243	99.44
639.448	106.44
639.654	97.44
639.859	88.44
640.065	88.44
640.27	108.44
640.475	95.44
640.681	97.44
640.886	91.44
641.091	85.44
641.297	95.44
641.502	104.44
641.707	102.44
641.913	114.44
642.118	107.44
642.323	97.44
642.528	95.44
642.733	104.44
642.939	101.44
643.144	105.44
643.349	110.44
643.554	93.44
643.759	87.44
643.964	97.44
644.169	100.44
644.374	85.44
644.579	100.44
644.784	100.44
644.989	99.44
645.194	95.44
645.399	85.44
645.604	99.44
645.809	107.44
646.014	79.44
646.219	95.44
646.423	97.44
646.628	92.44
646.833	86.44
647.038	92.44
647.243	103.44
647.447	85.44
647.652	101.44
647.857	90.44
648.062	98.44
648.266	107.44
648.471	102.44
648.676	111.44
648.88	101.44
649.085	100.44
649.289	97.44
649.494	90.44
649.698	110.44
649.903	95.44
650.107	100.44
650.312	107.44
650.516	98.44
650.721	98.44
650.925	108.44
651.13	108.44
651.334	88.44
651.539	93.44
651.743	101.44
651.947	106.44
652.152	92.44
652.356	104.44
652.56	102.44
652.764	87.44
652.969	94.44
653.173	96.44
653.377	93.44
653.581	93.44
653.785	87.44
653.99	94.44
654.194	102.44
654.398	99.44
654.602	93.44
654.806	82.44
655.01	95.44
655.214	88.44
655.418	93.44
655.622	85.44
655.826	88.44
656.03	89.44
656.234	93.44
656.438	71.44
656.642	81.44
656.846	98.44
657.049	87.44
657.253	101.44
657.457	88.44
657.661	103.44
657.865	95.44
658.068	101.44
658.272	96.44
658.476	88.44
658.68	81.44
658.883	82.44
659.087	84.44
659.291	85.44
659.494	91.44
659.698	102.44
659.901	84.44
660.105	87.44
660.309	84.44
660.512	88.44
660.716	104.44
660.919	91.44
661.123	76.44
661.326	85.44
661.53	82.44
661.733	79.44
661.936	82.44
662.14	79.44
662.343	81.44
662.546	81.44
662.75	76.44
662.953	77.44
663.156	85.44
663.36	79.44
663.563	80.44
663.766	81.44
663.969	80.44
664.173	79.44
664.376	78.44
664.579	92.44
664.782	90.44
664.985	84.44
665.188	87.44
665.391	85.44
665.594	95.44
665.797	79.44
666	83.44
666.203	78.44
666.406	78.44
666.609	78.44
666.812	91.44
667.015	84.44
667.218	84.44
667.421	72.44
667.624	88.44
667.827	76.44
668.03	92.44
668.232	81.44
668.435	80.44
668.638	78.44
668.841	89.44
669.043	81.44
669.246	84.44
669.449	81.44
669.651	87.44
669.854	81.44
670.057	85.44
670.259	91.44
670.462	72.44
670.665	86.44
670.867	84.44
671.07	90.44
671.272	86.44
671.475	81.44
671.677	88.44
671.88	92.44
672.082	78.44
672.284	90.44
672.487	82.44
672.689	89.44
672.892	78.44
