Data from Location1.07152019.Energy5.Lamp.07192019.3%Agarose_HRD10591_14-31-48-015.txt Node
Date: Fri Jul 19 14:31:48 EDT 2019
User: cochatt
Spectrometer: HR+D1059
Trigger mode: 1
Integration Time (sec): 1.000000E-1
Scans to average: 1
Electric dark correction enabled: true
Nonlinearity correction enabled: false
Boxcar width: 0
XAxis mode: Wavelengths
Number of Pixels in Spectrum: 2048
>>>>>Begin Spectral Data<<<<<
223.165	-26.44
223.4	-26.44
223.635	-26.44
223.869	-13.44
224.104	-19.44
224.338	-13.44
224.573	-29.44
224.808	-5.44
225.042	-15.44
225.277	-11.44
225.511	-1.44
225.746	20.56
225.98	4.56
226.215	11.56
226.449	15.56
226.683	13.56
226.918	26.56
227.152	43.56
227.387	38.56
227.621	44.56
227.856	42.56
228.09	38.56
228.324	46.56
228.559	54.56
228.793	34.56
229.027	56.56
229.262	65.56
229.496	53.56
229.73	70.56
229.964	61.56
230.199	72.56
230.433	66.56
230.667	65.56
230.901	71.56
231.136	74.56
231.37	72.56
231.604	74.56
231.838	74.56
232.072	72.56
232.306	82.56
232.541	81.56
232.775	80.56
233.009	74.56
233.243	79.56
233.477	93.56
233.711	82.56
233.945	77.56
234.179	79.56
234.413	70.56
234.647	81.56
234.881	79.56
235.115	77.56
235.349	77.56
235.583	79.56
235.817	70.56
236.051	70.56
236.285	76.56
236.519	80.56
236.753	76.56
236.987	74.56
237.221	76.56
237.455	90.56
237.689	75.56
237.922	72.56
238.156	82.56
238.39	80.56
238.624	65.56
238.858	79.56
239.091	67.56
239.325	77.56
239.559	58.56
239.793	73.56
240.027	70.56
240.26	67.56
240.494	86.56
240.728	75.56
240.961	88.56
241.195	71.56
241.429	76.56
241.662	70.56
241.896	66.56
242.13	68.56
242.363	83.56
242.597	75.56
242.83	81.56
243.064	72.56
243.298	82.56
243.531	71.56
243.765	79.56
243.998	83.56
244.232	63.56
244.465	85.56
244.699	75.56
244.932	77.56
245.166	81.56
245.399	64.56
245.633	87.56
245.866	75.56
246.099	76.56
246.333	73.56
246.566	65.56
246.8	80.56
247.033	60.56
247.266	82.56
247.5	80.56
247.733	92.56
247.966	76.56
248.2	76.56
248.433	84.56
248.666	77.56
248.899	79.56
249.133	69.56
249.366	83.56
249.599	69.56
249.832	84.56
250.066	78.56
250.299	80.56
250.532	82.56
250.765	84.56
250.998	81.56
251.231	82.56
251.465	78.56
251.698	80.56
251.931	61.56
252.164	69.56
252.397	85.56
252.63	90.56
252.863	82.56
253.096	92.56
253.329	77.56
253.562	93.56
253.795	82.56
254.028	70.56
254.261	81.56
254.494	72.56
254.727	68.56
254.96	79.56
255.193	70.56
255.426	71.56
255.659	72.56
255.892	87.56
256.124	88.56
256.357	75.56
256.59	77.56
256.823	79.56
257.056	94.56
257.289	76.56
257.521	74.56
257.754	69.56
257.987	86.56
258.22	80.56
258.452	80.56
258.685	92.56
258.918	85.56
259.151	68.56
259.383	78.56
259.616	85.56
259.849	73.56
260.081	77.56
260.314	83.56
260.547	78.56
260.779	72.56
261.012	78.56
261.244	85.56
261.477	83.56
261.71	84.56
261.942	85.56
262.175	88.56
262.407	77.56
262.64	79.56
262.872	78.56
263.105	71.56
263.337	94.56
263.57	76.56
263.802	86.56
264.035	74.56
264.267	78.56
264.499	84.56
264.732	95.56
264.964	73.56
265.197	84.56
265.429	87.56
265.661	56.56
265.894	85.56
266.126	83.56
266.358	77.56
266.591	84.56
266.823	93.56
267.055	77.56
267.287	86.56
267.52	79.56
267.752	74.56
267.984	93.56
268.216	77.56
268.448	92.56
268.681	79.56
268.913	79.56
269.145	73.56
269.377	84.56
269.609	82.56
269.841	77.56
270.073	80.56
270.306	57.56
270.538	67.56
270.77	83.56
271.002	83.56
271.234	85.56
271.466	89.56
271.698	85.56
271.93	81.56
272.162	75.56
272.394	79.56
272.626	88.56
272.858	90.56
273.09	87.56
273.322	78.56
273.553	83.56
273.785	82.56
274.017	77.56
274.249	82.56
274.481	74.56
274.713	87.56
274.945	77.56
275.176	81.56
275.408	86.56
275.64	90.56
275.872	97.56
276.104	97.56
276.335	66.56
276.567	76.56
276.799	74.56
277.031	82.56
277.262	88.56
277.494	86.56
277.726	91.56
277.957	89.56
278.189	88.56
278.421	79.56
278.652	87.56
278.884	88.56
279.115	80.56
279.347	94.56
279.579	75.56
279.81	79.56
280.042	82.56
280.273	78.56
280.505	84.56
280.736	83.56
280.968	71.56
281.199	102.56
281.431	82.56
281.662	86.56
281.894	85.56
282.125	80.56
282.356	83.56
282.588	77.56
282.819	86.56
283.051	86.56
283.282	87.56
283.513	98.56
283.745	75.56
283.976	86.56
284.207	93.56
284.439	77.56
284.67	86.56
284.901	90.56
285.132	93.56
285.364	93.56
285.595	78.56
285.826	72.56
286.057	89.56
286.288	77.56
286.52	83.56
286.751	67.56
286.982	69.56
287.213	86.56
287.444	90.56
287.675	89.56
287.906	87.56
288.138	76.56
288.369	75.56
288.6	77.56
288.831	67.56
289.062	81.56
289.293	89.56
289.524	92.56
289.755	79.56
289.986	87.56
290.217	85.56
290.448	93.56
290.679	85.56
290.91	74.56
291.141	84.56
291.371	82.56
291.602	71.56
291.833	85.56
292.064	78.56
292.295	93.56
292.526	90.56
292.757	82.56
292.987	86.56
293.218	74.56
293.449	94.56
293.68	77.56
293.91	92.56
294.141	92.56
294.372	90.56
294.603	85.56
294.833	89.56
295.064	80.56
295.295	78.56
295.525	77.56
295.756	103.56
295.987	89.56
296.217	65.56
296.448	93.56
296.679	67.56
296.909	83.56
297.14	90.56
297.37	96.56
297.601	83.56
297.831	90.56
298.062	85.56
298.292	91.56
298.523	84.56
298.753	81.56
298.984	99.56
299.214	77.56
299.445	87.56
299.675	77.56
299.905	88.56
300.136	83.56
300.366	73.56
300.597	79.56
300.827	83.56
301.057	81.56
301.288	76.56
301.518	76.56
301.748	81.56
301.979	69.56
302.209	73.56
302.439	65.56
302.669	75.56
302.9	73.56
303.13	83.56
303.36	92.56
303.59	78.56
303.82	75.56
304.051	83.56
304.281	77.56
304.511	100.56
304.741	82.56
304.971	85.56
305.201	84.56
305.431	80.56
305.661	70.56
305.891	97.56
306.121	83.56
306.352	92.56
306.582	91.56
306.812	79.56
307.042	83.56
307.272	86.56
307.502	87.56
307.731	80.56
307.961	88.56
308.191	75.56
308.421	80.56
308.651	90.56
308.881	89.56
309.111	84.56
309.341	69.56
309.571	69.56
309.8	99.56
310.03	90.56
310.26	89.56
310.49	97.56
310.72	98.56
310.949	85.56
311.179	94.56
311.409	74.56
311.639	93.56
311.868	88.56
312.098	76.56
312.328	89.56
312.557	84.56
312.787	93.56
313.017	105.56
313.246	89.56
313.476	76.56
313.706	86.56
313.935	79.56
314.165	86.56
314.394	101.56
314.624	88.56
314.853	85.56
315.083	100.56
315.312	95.56
315.542	83.56
315.771	90.56
316.001	84.56
316.23	95.56
316.46	89.56
316.689	80.56
316.919	86.56
317.148	85.56
317.377	88.56
317.607	87.56
317.836	90.56
318.065	81.56
318.295	94.56
318.524	82.56
318.753	78.56
318.983	84.56
319.212	83.56
319.441	94.56
319.67	83.56
319.9	101.56
320.129	75.56
320.358	102.56
320.587	84.56
320.816	73.56
321.046	95.56
321.275	91.56
321.504	78.56
321.733	86.56
321.962	84.56
322.191	84.56
322.42	84.56
322.649	100.56
322.878	87.56
323.108	89.56
323.337	84.56
323.566	92.56
323.795	90.56
324.024	82.56
324.253	80.56
324.482	91.56
324.71	96.56
324.939	86.56
325.168	82.56
325.397	82.56
325.626	95.56
325.855	81.56
326.084	94.56
326.313	95.56
326.542	86.56
326.77	89.56
326.999	81.56
327.228	84.56
327.457	93.56
327.686	92.56
327.914	84.56
328.143	93.56
328.372	91.56
328.6	83.56
328.829	84.56
329.058	88.56
329.287	77.56
329.515	92.56
329.744	82.56
329.972	84.56
330.201	91.56
330.43	76.56
330.658	88.56
330.887	90.56
331.115	75.56
331.344	86.56
331.572	79.56
331.801	74.56
332.03	67.56
332.258	103.56
332.486	88.56
332.715	89.56
332.943	88.56
333.172	77.56
333.4	97.56
333.629	99.56
333.857	81.56
334.085	83.56
334.314	87.56
334.542	81.56
334.771	90.56
334.999	95.56
335.227	82.56
335.455	80.56
335.684	85.56
335.912	74.56
336.14	83.56
336.369	85.56
336.597	83.56
336.825	79.56
337.053	73.56
337.281	86.56
337.51	86.56
337.738	91.56
337.966	97.56
338.194	92.56
338.422	94.56
338.65	102.56
338.878	77.56
339.106	86.56
339.334	85.56
339.562	84.56
339.79	82.56
340.018	74.56
340.246	78.56
340.474	77.56
340.702	81.56
340.93	83.56
341.158	78.56
341.386	87.56
341.614	88.56
341.842	97.56
342.07	82.56
342.298	77.56
342.526	85.56
342.754	75.56
342.981	66.56
343.209	104.56
343.437	75.56
343.665	90.56
343.893	86.56
344.12	81.56
344.348	92.56
344.576	86.56
344.804	78.56
345.031	78.56
345.259	91.56
345.487	81.56
345.714	84.56
345.942	89.56
346.17	81.56
346.397	83.56
346.625	80.56
346.853	85.56
347.08	94.56
347.308	79.56
347.535	78.56
347.763	72.56
347.99	83.56
348.218	77.56
348.445	86.56
348.673	84.56
348.9	96.56
349.128	77.56
349.355	75.56
349.583	82.56
349.81	79.56
350.037	84.56
350.265	73.56
350.492	92.56
350.72	81.56
350.947	88.56
351.174	98.56
351.402	71.56
351.629	78.56
351.856	80.56
352.083	81.56
352.311	89.56
352.538	82.56
352.765	86.56
352.992	84.56
353.22	82.56
353.447	76.56
353.674	93.56
353.901	87.56
354.128	81.56
354.355	78.56
354.583	95.56
354.81	90.56
355.037	95.56
355.264	81.56
355.491	82.56
355.718	84.56
355.945	75.56
356.172	77.56
356.399	93.56
356.626	74.56
356.853	73.56
357.08	93.56
357.307	91.56
357.534	72.56
357.761	90.56
357.988	92.56
358.215	81.56
358.441	102.56
358.668	84.56
358.895	84.56
359.122	74.56
359.349	88.56
359.576	81.56
359.802	79.56
360.029	84.56
360.256	91.56
360.483	86.56
360.709	93.56
360.936	86.56
361.163	84.56
361.39	76.56
361.616	78.56
361.843	87.56
362.07	74.56
362.296	93.56
362.523	75.56
362.749	85.56
362.976	85.56
363.203	84.56
363.429	85.56
363.656	93.56
363.882	81.56
364.109	87.56
364.335	88.56
364.562	86.56
364.788	98.56
365.015	94.56
365.241	90.56
365.468	82.56
365.694	84.56
365.92	89.56
366.147	85.56
366.373	80.56
366.599	90.56
366.826	74.56
367.052	78.56
367.278	93.56
367.505	77.56
367.731	76.56
367.957	88.56
368.184	67.56
368.41	86.56
368.636	107.56
368.862	94.56
369.089	93.56
369.315	90.56
369.541	81.56
369.767	88.56
369.993	103.56
370.219	100.56
370.445	92.56
370.672	102.56
370.898	86.56
371.124	84.56
371.35	91.56
371.576	93.56
371.802	100.56
372.028	108.56
372.254	89.56
372.48	93.56
372.706	74.56
372.932	88.56
373.158	103.56
373.384	90.56
373.61	109.56
373.835	89.56
374.061	99.56
374.287	98.56
374.513	100.56
374.739	97.56
374.965	92.56
375.191	85.56
375.416	92.56
375.642	98.56
375.868	85.56
376.094	99.56
376.319	75.56
376.545	86.56
376.771	97.56
376.997	84.56
377.222	97.56
377.448	91.56
377.674	93.56
377.899	96.56
378.125	90.56
378.35	89.56
378.576	92.56
378.802	90.56
379.027	96.56
379.253	98.56
379.478	90.56
379.704	83.56
379.929	103.56
380.155	97.56
380.38	92.56
380.606	106.56
380.831	109.56
381.057	103.56
381.282	94.56
381.507	98.56
381.733	99.56
381.958	90.56
382.184	110.56
382.409	95.56
382.634	83.56
382.86	93.56
383.085	87.56
383.31	91.56
383.535	84.56
383.761	102.56
383.986	78.56
384.211	92.56
384.436	94.56
384.662	108.56
384.887	101.56
385.112	100.56
385.337	91.56
385.562	106.56
385.787	96.56
386.013	98.56
386.238	100.56
386.463	101.56
386.688	99.56
386.913	88.56
387.138	105.56
387.363	104.56
387.588	103.56
387.813	87.56
388.038	101.56
388.263	95.56
388.488	105.56
388.713	105.56
388.938	104.56
389.163	100.56
389.387	106.56
389.612	108.56
389.837	106.56
390.062	107.56
390.287	97.56
390.512	107.56
390.736	101.56
390.961	107.56
391.186	92.56
391.411	110.56
391.636	97.56
391.86	110.56
392.085	106.56
392.31	110.56
392.534	106.56
392.759	95.56
392.984	113.56
393.208	103.56
393.433	97.56
393.658	103.56
393.882	102.56
394.107	110.56
394.331	105.56
394.556	103.56
394.78	97.56
395.005	105.56
395.229	120.56
395.454	91.56
395.678	104.56
395.903	103.56
396.127	106.56
396.352	105.56
396.576	99.56
396.801	118.56
397.025	95.56
397.249	89.56
397.474	108.56
397.698	107.56
397.922	116.56
398.147	107.56
398.371	109.56
398.595	129.56
398.82	111.56
399.044	104.56
399.268	111.56
399.492	106.56
399.717	118.56
399.941	113.56
400.165	113.56
400.389	115.56
400.613	93.56
400.837	111.56
401.062	96.56
401.286	133.56
401.51	121.56
401.734	113.56
401.958	107.56
402.182	118.56
402.406	103.56
402.63	99.56
402.854	106.56
403.078	110.56
403.302	121.56
403.526	105.56
403.75	123.56
403.974	102.56
404.198	109.56
404.422	108.56
404.645	124.56
404.869	121.56
405.093	140.56
405.317	115.56
405.541	115.56
405.765	102.56
405.988	121.56
406.212	97.56
406.436	106.56
406.66	104.56
406.883	114.56
407.107	118.56
407.331	112.56
407.555	124.56
407.778	109.56
408.002	121.56
408.226	104.56
408.449	102.56
408.673	110.56
408.896	109.56
409.12	122.56
409.344	117.56
409.567	129.56
409.791	105.56
410.014	120.56
410.238	128.56
410.461	123.56
410.685	115.56
410.908	118.56
411.132	122.56
411.355	109.56
411.578	114.56
411.802	121.56
412.025	127.56
412.249	122.56
412.472	118.56
412.695	107.56
412.919	112.56
413.142	125.56
413.365	122.56
413.589	122.56
413.812	119.56
414.035	122.56
414.258	119.56
414.482	119.56
414.705	124.56
414.928	119.56
415.151	114.56
415.374	136.56
415.597	125.56
415.821	125.56
416.044	118.56
416.267	130.56
416.49	119.56
416.713	124.56
416.936	125.56
417.159	111.56
417.382	128.56
417.605	117.56
417.828	114.56
418.051	124.56
418.274	123.56
418.497	126.56
418.72	135.56
418.943	130.56
419.166	129.56
419.389	133.56
419.611	128.56
419.834	136.56
420.057	139.56
420.28	142.56
420.503	133.56
420.726	134.56
420.948	123.56
421.171	142.56
421.394	133.56
421.617	137.56
421.839	128.56
422.062	132.56
422.285	133.56
422.507	115.56
422.73	133.56
422.953	133.56
423.175	117.56
423.398	110.56
423.621	125.56
423.843	117.56
424.066	124.56
424.288	148.56
424.511	129.56
424.733	140.56
424.956	121.56
425.178	126.56
425.401	129.56
425.623	141.56
425.846	136.56
426.068	134.56
426.291	126.56
426.513	132.56
426.735	134.56
426.958	130.56
427.18	131.56
427.402	119.56
427.625	134.56
427.847	128.56
428.069	127.56
428.292	116.56
428.514	123.56
428.736	118.56
428.958	116.56
429.181	131.56
429.403	124.56
429.625	124.56
429.847	127.56
430.069	115.56
430.292	129.56
430.514	121.56
430.736	134.56
430.958	125.56
431.18	115.56
431.402	106.56
431.624	113.56
431.846	108.56
432.068	101.56
432.29	98.56
432.512	101.56
432.734	111.56
432.956	128.56
433.178	131.56
433.4	125.56
433.622	133.56
433.844	141.56
434.066	108.56
434.287	103.56
434.509	94.56
434.731	94.56
434.953	103.56
435.175	117.56
435.397	122.56
435.618	124.56
435.84	116.56
436.062	123.56
436.284	117.56
436.505	103.56
436.727	107.56
436.949	109.56
437.17	124.56
437.392	124.56
437.614	123.56
437.835	104.56
438.057	93.56
438.278	113.56
438.5	121.56
438.721	122.56
438.943	138.56
439.165	142.56
439.386	130.56
439.608	137.56
439.829	154.56
440.05	136.56
440.272	128.56
440.493	136.56
440.715	143.56
440.936	133.56
441.158	146.56
441.379	142.56
441.6	141.56
441.822	151.56
442.043	151.56
442.264	141.56
442.486	149.56
442.707	125.56
442.928	124.56
443.149	136.56
443.371	142.56
443.592	125.56
443.813	141.56
444.034	129.56
444.255	145.56
444.476	144.56
444.698	142.56
444.919	135.56
445.14	280.56
445.361	184.56
445.582	164.56
445.803	137.56
446.024	137.56
446.245	146.56
446.466	148.56
446.687	150.56
446.908	152.56
447.129	149.56
447.35	165.56
447.571	155.56
447.792	141.56
448.013	130.56
448.234	146.56
448.455	155.56
448.675	136.56
448.896	137.56
449.117	111.56
449.338	123.56
449.559	139.56
449.779	137.56
450	138.56
450.221	146.56
450.442	131.56
450.662	139.56
450.883	117.56
451.104	141.56
451.324	125.56
451.545	127.56
451.766	145.56
451.986	139.56
452.207	135.56
452.428	131.56
452.648	117.56
452.869	117.56
453.089	122.56
453.31	123.56
453.53	116.56
453.751	114.56
453.971	107.56
454.192	113.56
454.412	113.56
454.633	118.56
454.853	125.56
455.073	137.56
455.294	123.56
455.514	120.56
455.734	122.56
455.955	132.56
456.175	115.56
456.395	118.56
456.616	109.56
456.836	103.56
457.056	108.56
457.276	110.56
457.497	100.56
457.717	118.56
457.937	115.56
458.157	93.56
458.377	96.56
458.598	96.56
458.818	74.56
459.038	87.56
459.258	97.56
459.478	79.56
459.698	84.56
459.918	94.56
460.138	111.56
460.358	104.56
460.578	102.56
460.798	126.56
461.018	112.56
461.238	119.56
461.458	126.56
461.678	120.56
461.898	110.56
462.118	120.56
462.338	134.56
462.558	110.56
462.777	119.56
462.997	104.56
463.217	97.56
463.437	109.56
463.657	96.56
463.876	113.56
464.096	106.56
464.316	105.56
464.536	97.56
464.755	118.56
464.975	104.56
465.195	107.56
465.414	117.56
465.634	125.56
465.854	119.56
466.073	119.56
466.293	134.56
466.512	133.56
466.732	140.56
466.951	120.56
467.171	128.56
467.391	131.56
467.61	144.56
467.829	141.56
468.049	134.56
468.268	139.56
468.488	128.56
468.707	135.56
468.927	123.56
469.146	138.56
469.365	140.56
469.585	131.56
469.804	141.56
470.023	134.56
470.243	128.56
470.462	147.56
470.681	139.56
470.901	141.56
471.12	143.56
471.339	136.56
471.558	134.56
471.777	138.56
471.997	131.56
472.216	134.56
472.435	123.56
472.654	106.56
472.873	106.56
473.092	119.56
473.311	117.56
473.53	118.56
473.749	109.56
473.968	129.56
474.187	129.56
474.406	112.56
474.625	123.56
474.844	131.56
475.063	134.56
475.282	119.56
475.501	127.56
475.72	118.56
475.939	130.56
476.158	126.56
476.377	127.56
476.596	111.56
476.814	110.56
477.033	110.56
477.252	106.56
477.471	114.56
477.69	139.56
477.908	137.56
478.127	141.56
478.346	143.56
478.564	143.56
478.783	142.56
479.002	142.56
479.22	143.56
479.439	139.56
479.658	132.56
479.876	111.56
480.095	112.56
480.313	120.56
480.532	103.56
480.751	95.56
480.969	103.56
481.188	90.56
481.406	93.56
481.624	87.56
481.843	97.56
482.061	118.56
482.28	113.56
482.498	113.56
482.717	98.56
482.935	125.56
483.153	127.56
483.372	146.56
483.59	157.56
483.808	139.56
484.027	129.56
484.245	142.56
484.463	145.56
484.681	151.56
484.9	148.56
485.118	141.56
485.336	114.56
485.554	111.56
485.772	101.56
485.99	113.56
486.209	101.56
486.427	120.56
486.645	134.56
486.863	125.56
487.081	128.56
487.299	131.56
487.517	156.56
487.735	160.56
487.953	178.56
488.171	162.56
488.389	165.56
488.607	137.56
488.825	134.56
489.043	129.56
489.261	130.56
489.479	136.56
489.696	148.56
489.914	139.56
490.132	157.56
490.35	156.56
490.568	173.56
490.786	168.56
491.003	167.56
491.221	166.56
491.439	178.56
491.657	190.56
491.874	204.56
492.092	204.56
492.31	234.56
492.527	206.56
492.745	213.56
492.963	206.56
493.18	178.56
493.398	163.56
493.615	185.56
493.833	168.56
494.05	169.56
494.268	167.56
494.485	171.56
494.703	170.56
494.92	175.56
495.138	176.56
495.355	164.56
495.573	177.56
495.79	176.56
496.008	165.56
496.225	150.56
496.442	182.56
496.66	174.56
496.877	170.56
497.094	163.56
497.312	164.56
497.529	164.56
497.746	154.56
497.963	121.56
498.181	131.56
498.398	117.56
498.615	117.56
498.832	122.56
499.049	123.56
499.267	122.56
499.484	113.56
499.701	125.56
499.918	139.56
500.135	138.56
500.352	147.56
500.569	152.56
500.786	129.56
501.003	142.56
501.22	136.56
501.437	142.56
501.654	133.56
501.871	126.56
502.088	132.56
502.305	126.56
502.522	133.56
502.739	139.56
502.956	137.56
503.172	117.56
503.389	118.56
503.606	135.56
503.823	126.56
504.04	118.56
504.256	105.56
504.473	97.56
504.69	106.56
504.907	116.56
505.123	111.56
505.34	115.56
505.557	129.56
505.773	116.56
505.99	130.56
506.207	113.56
506.423	110.56
506.64	125.56
506.856	108.56
507.073	118.56
507.289	128.56
507.506	116.56
507.722	134.56
507.939	129.56
508.155	120.56
508.372	129.56
508.588	114.56
508.805	118.56
509.021	122.56
509.238	110.56
509.454	97.56
509.67	93.56
509.887	108.56
510.103	95.56
510.319	89.56
510.536	91.56
510.752	90.56
510.968	77.56
511.184	91.56
511.401	75.56
511.617	83.56
511.833	86.56
512.049	89.56
512.265	78.56
512.481	100.56
512.698	101.56
512.914	106.56
513.13	88.56
513.346	97.56
513.562	90.56
513.778	85.56
513.994	81.56
514.21	90.56
514.426	88.56
514.642	88.56
514.858	76.56
515.074	85.56
515.29	93.56
515.506	90.56
515.721	87.56
515.937	99.56
516.153	86.56
516.369	81.56
516.585	92.56
516.801	73.56
517.016	79.56
517.232	95.56
517.448	99.56
517.664	92.56
517.879	93.56
518.095	84.56
518.311	89.56
518.527	97.56
518.742	98.56
518.958	95.56
519.173	97.56
519.389	115.56
519.605	102.56
519.82	114.56
520.036	106.56
520.251	106.56
520.467	92.56
520.682	87.56
520.898	94.56
521.113	94.56
521.329	82.56
521.544	89.56
521.76	102.56
521.975	86.56
522.19	94.56
522.406	87.56
522.621	98.56
522.836	100.56
523.052	98.56
523.267	104.56
523.482	95.56
523.698	97.56
523.913	120.56
524.128	133.56
524.343	105.56
524.559	112.56
524.774	125.56
524.989	114.56
525.204	114.56
525.419	106.56
525.634	113.56
525.849	115.56
526.064	86.56
526.28	115.56
526.495	81.56
526.71	89.56
526.925	80.56
527.14	61.56
527.355	77.56
527.57	70.56
527.785	84.56
527.999	96.56
528.214	92.56
528.429	110.56
528.644	118.56
528.859	129.56
529.074	133.56
529.289	152.56
529.503	153.56
529.718	144.56
529.933	120.56
530.148	108.56
530.363	92.56
530.577	93.56
530.792	97.56
531.007	85.56
531.221	87.56
531.436	86.56
531.651	91.56
531.865	79.56
532.08	89.56
532.295	74.56
532.509	80.56
532.724	83.56
532.938	89.56
533.153	96.56
533.367	107.56
533.582	125.56
533.796	121.56
534.011	108.56
534.225	97.56
534.44	92.56
534.654	110.56
534.868	94.56
535.083	95.56
535.297	89.56
535.511	109.56
535.726	95.56
535.94	99.56
536.154	97.56
536.369	96.56
536.583	90.56
536.797	90.56
537.011	78.56
537.225	99.56
537.44	89.56
537.654	96.56
537.868	86.56
538.082	81.56
538.296	87.56
538.51	93.56
538.724	92.56
538.938	109.56
539.153	117.56
539.367	112.56
539.581	113.56
539.795	104.56
540.009	87.56
540.222	87.56
540.436	106.56
540.65	101.56
540.864	121.56
541.078	140.56
541.292	146.56
541.506	159.56
541.72	174.56
541.934	181.56
542.147	183.56
542.361	189.56
542.575	160.56
542.789	144.56
543.002	130.56
543.216	128.56
543.43	127.56
543.644	127.56
543.857	140.56
544.071	167.56
544.285	154.56
544.498	162.56
544.712	163.56
544.925	145.56
545.139	140.56
545.352	157.56
545.566	163.56
545.779	158.56
545.993	177.56
546.206	160.56
546.42	159.56
546.633	157.56
546.847	169.56
547.06	147.56
547.274	174.56
547.487	164.56
547.7	159.56
547.914	168.56
548.127	167.56
548.34	165.56
548.554	162.56
548.767	154.56
548.98	159.56
549.193	146.56
549.407	139.56
549.62	152.56
549.833	145.56
550.046	159.56
550.259	143.56
550.473	139.56
550.686	138.56
550.899	152.56
551.112	141.56
551.325	140.56
551.538	122.56
551.751	127.56
551.964	116.56
552.177	129.56
552.39	137.56
552.603	140.56
552.816	142.56
553.029	145.56
553.242	134.56
553.455	149.56
553.667	140.56
553.88	158.56
554.093	142.56
554.306	150.56
554.519	149.56
554.732	142.56
554.944	134.56
555.157	154.56
555.37	146.56
555.583	132.56
555.795	131.56
556.008	125.56
556.221	137.56
556.433	133.56
556.646	147.56
556.859	136.56
557.071	144.56
557.284	137.56
557.496	144.56
557.709	129.56
557.921	135.56
558.134	152.56
558.346	150.56
558.559	138.56
558.771	135.56
558.984	126.56
559.196	113.56
559.409	124.56
559.621	135.56
559.833	128.56
560.046	118.56
560.258	132.56
560.47	137.56
560.683	125.56
560.895	131.56
561.107	125.56
561.32	127.56
561.532	130.56
561.744	127.56
561.956	143.56
562.168	146.56
562.381	119.56
562.593	119.56
562.805	123.56
563.017	122.56
563.229	119.56
563.441	115.56
563.653	118.56
563.865	115.56
564.077	115.56
564.289	109.56
564.501	119.56
564.713	125.56
564.925	101.56
565.137	121.56
565.349	113.56
565.561	118.56
565.773	124.56
565.985	115.56
566.197	123.56
566.408	122.56
566.62	131.56
566.832	128.56
567.044	116.56
567.255	114.56
567.467	103.56
567.679	106.56
567.891	92.56
568.102	109.56
568.314	70.56
568.526	89.56
568.737	83.56
568.949	80.56
569.161	102.56
569.372	91.56
569.584	87.56
569.795	92.56
570.007	86.56
570.218	91.56
570.43	83.56
570.641	84.56
570.853	90.56
571.064	113.56
571.276	102.56
571.487	88.56
571.698	94.56
571.91	92.56
572.121	106.56
572.333	113.56
572.544	89.56
572.755	104.56
572.966	92.56
573.178	83.56
573.389	97.56
573.6	83.56
573.811	87.56
574.023	82.56
574.234	76.56
574.445	85.56
574.656	78.56
574.867	87.56
575.078	104.56
575.289	90.56
575.501	104.56
575.712	90.56
575.923	90.56
576.134	93.56
576.345	82.56
576.556	98.56
576.767	91.56
576.978	91.56
577.188	93.56
577.399	102.56
577.61	81.56
577.821	97.56
578.032	95.56
578.243	99.56
578.454	93.56
578.665	89.56
578.875	89.56
579.086	85.56
579.297	78.56
579.508	85.56
579.718	86.56
579.929	81.56
580.14	81.56
580.35	64.56
580.561	86.56
580.772	83.56
580.982	89.56
581.193	82.56
581.403	102.56
581.614	91.56
581.825	105.56
582.035	80.56
582.246	89.56
582.456	87.56
582.667	84.56
582.877	107.56
583.087	75.56
583.298	78.56
583.508	80.56
583.719	81.56
583.929	91.56
584.139	77.56
584.35	72.56
584.56	89.56
584.77	87.56
584.981	95.56
585.191	82.56
585.401	96.56
585.611	94.56
585.821	75.56
586.032	78.56
586.242	96.56
586.452	89.56
586.662	79.56
586.872	98.56
587.082	87.56
587.292	90.56
587.502	77.56
587.713	79.56
587.923	87.56
588.133	90.56
588.343	87.56
588.553	69.56
588.762	83.56
588.972	63.56
589.182	91.56
589.392	79.56
589.602	98.56
589.812	79.56
590.022	74.56
590.232	90.56
590.441	88.56
590.651	90.56
590.861	87.56
591.071	82.56
591.281	78.56
591.49	99.56
591.7	93.56
591.91	93.56
592.119	73.56
592.329	74.56
592.539	85.56
592.748	71.56
592.958	86.56
593.167	90.56
593.377	90.56
593.587	85.56
593.796	74.56
594.006	85.56
594.215	84.56
594.424	84.56
594.634	98.56
594.843	77.56
595.053	105.56
595.262	92.56
595.472	82.56
595.681	102.56
595.89	85.56
596.1	86.56
596.309	87.56
596.518	86.56
596.727	94.56
596.937	107.56
597.146	90.56
597.355	88.56
597.564	103.56
597.774	92.56
597.983	106.56
598.192	84.56
598.401	84.56
598.61	82.56
598.819	82.56
599.028	91.56
599.237	98.56
599.446	91.56
599.655	99.56
599.864	94.56
600.073	86.56
600.282	95.56
600.491	103.56
600.7	90.56
600.909	83.56
601.118	103.56
601.327	96.56
601.536	90.56
601.745	109.56
601.953	105.56
602.162	106.56
602.371	107.56
602.58	118.56
602.789	97.56
602.997	95.56
603.206	102.56
603.415	114.56
603.623	117.56
603.832	95.56
604.041	120.56
604.249	105.56
604.458	96.56
604.666	99.56
604.875	92.56
605.084	105.56
605.292	94.56
605.501	122.56
605.709	117.56
605.918	128.56
606.126	128.56
606.334	119.56
606.543	114.56
606.751	109.56
606.96	115.56
607.168	115.56
607.376	103.56
607.585	104.56
607.793	97.56
608.001	107.56
608.21	108.56
608.418	117.56
608.626	107.56
608.834	111.56
609.043	123.56
609.251	101.56
609.459	112.56
609.667	107.56
609.875	117.56
610.083	109.56
610.291	115.56
610.499	118.56
610.707	119.56
610.916	110.56
611.124	115.56
611.332	115.56
611.54	104.56
611.748	110.56
611.955	115.56
612.163	114.56
612.371	94.56
612.579	117.56
612.787	106.56
612.995	113.56
613.203	101.56
613.411	102.56
613.618	103.56
613.826	101.56
614.034	105.56
614.242	107.56
614.449	110.56
614.657	120.56
614.865	110.56
615.072	116.56
615.28	129.56
615.488	119.56
615.695	109.56
615.903	113.56
616.111	119.56
616.318	113.56
616.526	106.56
616.733	104.56
616.941	110.56
617.148	100.56
617.356	115.56
617.563	110.56
617.771	109.56
617.978	110.56
618.185	107.56
618.393	108.56
618.6	96.56
618.807	118.56
619.015	125.56
619.222	116.56
619.429	99.56
619.637	111.56
619.844	106.56
620.051	101.56
620.258	99.56
620.466	104.56
620.673	107.56
620.88	118.56
621.087	118.56
621.294	114.56
621.501	89.56
621.708	93.56
621.915	119.56
622.122	113.56
622.329	115.56
622.536	109.56
622.743	111.56
622.95	97.56
623.157	107.56
623.364	109.56
623.571	105.56
623.778	100.56
623.985	105.56
624.192	97.56
624.399	103.56
624.606	112.56
624.812	98.56
625.019	118.56
625.226	101.56
625.433	115.56
625.639	91.56
625.846	91.56
626.053	94.56
626.259	85.56
626.466	87.56
626.673	104.56
626.879	88.56
627.086	94.56
627.293	98.56
627.499	94.56
627.706	116.56
627.912	111.56
628.119	98.56
628.325	105.56
628.532	106.56
628.738	119.56
628.945	108.56
629.151	106.56
629.357	99.56
629.564	98.56
629.77	106.56
629.976	113.56
630.183	97.56
630.389	91.56
630.595	98.56
630.802	100.56
631.008	110.56
631.214	113.56
631.42	102.56
631.627	107.56
631.833	97.56
632.039	92.56
632.245	92.56
632.451	114.56
632.657	116.56
632.863	91.56
633.069	93.56
633.275	96.56
633.481	88.56
633.688	104.56
633.893	99.56
634.099	81.56
634.305	109.56
634.511	89.56
634.717	87.56
634.923	96.56
635.129	95.56
635.335	81.56
635.541	85.56
635.747	105.56
635.952	97.56
636.158	97.56
636.364	92.56
636.57	89.56
636.775	92.56
636.981	103.56
637.187	94.56
637.392	103.56
637.598	94.56
637.804	94.56
638.009	88.56
638.215	104.56
638.421	94.56
638.626	92.56
638.832	108.56
639.037	82.56
639.243	109.56
639.448	103.56
639.654	103.56
639.859	103.56
640.065	79.56
640.27	113.56
640.475	111.56
640.681	107.56
640.886	110.56
641.091	96.56
641.297	108.56
641.502	104.56
641.707	94.56
641.913	106.56
642.118	109.56
642.323	106.56
642.528	91.56
642.733	89.56
642.939	91.56
643.144	96.56
643.349	94.56
643.554	98.56
643.759	103.56
643.964	92.56
644.169	96.56
644.374	100.56
644.579	99.56
644.784	97.56
644.989	99.56
645.194	104.56
645.399	99.56
645.604	99.56
645.809	105.56
646.014	99.56
646.219	98.56
646.423	116.56
646.628	88.56
646.833	103.56
647.038	106.56
647.243	94.56
647.447	108.56
647.652	94.56
647.857	92.56
648.062	113.56
648.266	81.56
648.471	101.56
648.676	92.56
648.88	95.56
649.085	98.56
649.289	92.56
649.494	88.56
649.698	97.56
649.903	88.56
650.107	98.56
650.312	99.56
650.516	92.56
650.721	86.56
650.925	94.56
651.13	101.56
651.334	103.56
651.539	101.56
651.743	93.56
651.947	78.56
652.152	102.56
652.356	86.56
652.56	100.56
652.764	100.56
652.969	92.56
653.173	106.56
653.377	90.56
653.581	88.56
653.785	93.56
653.99	101.56
654.194	83.56
654.398	94.56
654.602	94.56
654.806	95.56
655.01	83.56
655.214	91.56
655.418	94.56
655.622	89.56
655.826	93.56
656.03	85.56
656.234	93.56
656.438	92.56
656.642	90.56
656.846	89.56
657.049	92.56
657.253	98.56
657.457	93.56
657.661	89.56
657.865	90.56
658.068	90.56
658.272	86.56
658.476	77.56
658.68	86.56
658.883	76.56
659.087	82.56
659.291	78.56
659.494	89.56
659.698	103.56
659.901	78.56
660.105	84.56
660.309	92.56
660.512	90.56
660.716	71.56
660.919	93.56
661.123	88.56
661.326	79.56
661.53	85.56
661.733	98.56
661.936	81.56
662.14	93.56
662.343	77.56
662.546	88.56
662.75	97.56
662.953	98.56
663.156	92.56
663.36	82.56
663.563	75.56
663.766	78.56
663.969	77.56
664.173	94.56
664.376	78.56
664.579	92.56
664.782	77.56
664.985	86.56
665.188	74.56
665.391	94.56
665.594	79.56
665.797	73.56
666	79.56
666.203	99.56
666.406	74.56
666.609	79.56
666.812	87.56
667.015	76.56
667.218	87.56
667.421	82.56
667.624	95.56
667.827	81.56
668.03	85.56
668.232	79.56
668.435	87.56
668.638	79.56
668.841	73.56
669.043	86.56
669.246	78.56
669.449	83.56
669.651	80.56
669.854	81.56
670.057	80.56
670.259	80.56
670.462	73.56
670.665	89.56
670.867	85.56
671.07	85.56
671.272	82.56
671.475	86.56
671.677	69.56
671.88	76.56
672.082	77.56
672.284	73.56
672.487	91.56
672.689	66.56
672.892	81.56
