Data from Location1.07152019.Energy5.Lamp.07192019.3%Agarose_HRD10591_14-31-06-015.txt Node
Date: Fri Jul 19 14:31:06 EDT 2019
User: cochatt
Spectrometer: HR+D1059
Trigger mode: 1
Integration Time (sec): 1.000000E-1
Scans to average: 1
Electric dark correction enabled: true
Nonlinearity correction enabled: false
Boxcar width: 0
XAxis mode: Wavelengths
Number of Pixels in Spectrum: 2048
>>>>>Begin Spectral Data<<<<<
223.165	-14.5
223.4	-14.5
223.635	-14.5
223.869	-9.5
224.104	-15.5
224.338	-1.5
224.573	-10.5
224.808	-17.5
225.042	-9.5
225.277	-4.5
225.511	-0.5
225.746	-1.5
225.98	0.5
226.215	3.5
226.449	-2.5
226.683	20.5
226.918	24.5
227.152	38.5
227.387	35.5
227.621	41.5
227.856	49.5
228.09	30.5
228.324	42.5
228.559	56.5
228.793	58.5
229.027	73.5
229.262	66.5
229.496	55.5
229.73	67.5
229.964	77.5
230.199	57.5
230.433	62.5
230.667	79.5
230.901	76.5
231.136	75.5
231.37	73.5
231.604	91.5
231.838	79.5
232.072	81.5
232.306	73.5
232.541	79.5
232.775	74.5
233.009	72.5
233.243	82.5
233.477	86.5
233.711	89.5
233.945	83.5
234.179	86.5
234.413	71.5
234.647	70.5
234.881	72.5
235.115	87.5
235.349	79.5
235.583	89.5
235.817	76.5
236.051	93.5
236.285	96.5
236.519	84.5
236.753	91.5
236.987	70.5
237.221	69.5
237.455	73.5
237.689	77.5
237.922	76.5
238.156	77.5
238.39	75.5
238.624	73.5
238.858	86.5
239.091	83.5
239.325	89.5
239.559	65.5
239.793	71.5
240.027	79.5
240.26	77.5
240.494	92.5
240.728	73.5
240.961	75.5
241.195	76.5
241.429	78.5
241.662	93.5
241.896	62.5
242.13	67.5
242.363	78.5
242.597	83.5
242.83	84.5
243.064	72.5
243.298	78.5
243.531	85.5
243.765	79.5
243.998	73.5
244.232	74.5
244.465	86.5
244.699	75.5
244.932	81.5
245.166	77.5
245.399	80.5
245.633	93.5
245.866	93.5
246.099	82.5
246.333	81.5
246.566	70.5
246.8	66.5
247.033	77.5
247.266	73.5
247.5	69.5
247.733	75.5
247.966	80.5
248.2	73.5
248.433	76.5
248.666	83.5
248.899	79.5
249.133	75.5
249.366	84.5
249.599	79.5
249.832	63.5
250.066	82.5
250.299	89.5
250.532	71.5
250.765	69.5
250.998	77.5
251.231	72.5
251.465	73.5
251.698	84.5
251.931	81.5
252.164	66.5
252.397	85.5
252.63	92.5
252.863	83.5
253.096	81.5
253.329	72.5
253.562	81.5
253.795	79.5
254.028	74.5
254.261	70.5
254.494	69.5
254.727	75.5
254.96	85.5
255.193	78.5
255.426	81.5
255.659	71.5
255.892	84.5
256.124	90.5
256.357	87.5
256.59	83.5
256.823	83.5
257.056	85.5
257.289	85.5
257.521	97.5
257.754	85.5
257.987	79.5
258.22	85.5
258.452	90.5
258.685	68.5
258.918	83.5
259.151	85.5
259.383	94.5
259.616	93.5
259.849	76.5
260.081	83.5
260.314	68.5
260.547	79.5
260.779	88.5
261.012	73.5
261.244	89.5
261.477	84.5
261.71	71.5
261.942	69.5
262.175	82.5
262.407	88.5
262.64	85.5
262.872	96.5
263.105	84.5
263.337	79.5
263.57	91.5
263.802	82.5
264.035	64.5
264.267	68.5
264.499	89.5
264.732	73.5
264.964	85.5
265.197	85.5
265.429	89.5
265.661	62.5
265.894	94.5
266.126	79.5
266.358	92.5
266.591	70.5
266.823	75.5
267.055	86.5
267.287	80.5
267.52	72.5
267.752	79.5
267.984	89.5
268.216	68.5
268.448	83.5
268.681	79.5
268.913	75.5
269.145	81.5
269.377	73.5
269.609	81.5
269.841	76.5
270.073	83.5
270.306	90.5
270.538	86.5
270.77	88.5
271.002	76.5
271.234	83.5
271.466	90.5
271.698	77.5
271.93	75.5
272.162	83.5
272.394	91.5
272.626	79.5
272.858	72.5
273.09	94.5
273.322	68.5
273.553	72.5
273.785	93.5
274.017	90.5
274.249	94.5
274.481	92.5
274.713	81.5
274.945	78.5
275.176	79.5
275.408	82.5
275.64	83.5
275.872	86.5
276.104	83.5
276.335	91.5
276.567	73.5
276.799	88.5
277.031	98.5
277.262	73.5
277.494	79.5
277.726	81.5
277.957	79.5
278.189	79.5
278.421	76.5
278.652	69.5
278.884	87.5
279.115	79.5
279.347	84.5
279.579	91.5
279.81	74.5
280.042	92.5
280.273	80.5
280.505	80.5
280.736	102.5
280.968	82.5
281.199	71.5
281.431	93.5
281.662	71.5
281.894	90.5
282.125	95.5
282.356	85.5
282.588	73.5
282.819	81.5
283.051	85.5
283.282	79.5
283.513	89.5
283.745	84.5
283.976	93.5
284.207	73.5
284.439	76.5
284.67	86.5
284.901	83.5
285.132	90.5
285.364	74.5
285.595	90.5
285.826	90.5
286.057	93.5
286.288	87.5
286.52	90.5
286.751	91.5
286.982	89.5
287.213	89.5
287.444	80.5
287.675	76.5
287.906	85.5
288.138	85.5
288.369	76.5
288.6	92.5
288.831	92.5
289.062	84.5
289.293	91.5
289.524	93.5
289.755	86.5
289.986	81.5
290.217	76.5
290.448	99.5
290.679	101.5
290.91	86.5
291.141	89.5
291.371	88.5
291.602	86.5
291.833	81.5
292.064	77.5
292.295	88.5
292.526	87.5
292.757	93.5
292.987	73.5
293.218	77.5
293.449	85.5
293.68	81.5
293.91	85.5
294.141	99.5
294.372	89.5
294.603	81.5
294.833	83.5
295.064	78.5
295.295	81.5
295.525	95.5
295.756	87.5
295.987	99.5
296.217	95.5
296.448	97.5
296.679	95.5
296.909	81.5
297.14	88.5
297.37	70.5
297.601	66.5
297.831	78.5
298.062	91.5
298.292	77.5
298.523	81.5
298.753	88.5
298.984	92.5
299.214	81.5
299.445	83.5
299.675	73.5
299.905	79.5
300.136	78.5
300.366	93.5
300.597	94.5
300.827	100.5
301.057	91.5
301.288	83.5
301.518	83.5
301.748	84.5
301.979	85.5
302.209	90.5
302.439	88.5
302.669	81.5
302.9	93.5
303.13	79.5
303.36	89.5
303.59	81.5
303.82	88.5
304.051	67.5
304.281	80.5
304.511	91.5
304.741	84.5
304.971	94.5
305.201	86.5
305.431	99.5
305.661	90.5
305.891	79.5
306.121	85.5
306.352	76.5
306.582	110.5
306.812	89.5
307.042	85.5
307.272	95.5
307.502	85.5
307.731	78.5
307.961	83.5
308.191	86.5
308.421	85.5
308.651	82.5
308.881	75.5
309.111	74.5
309.341	86.5
309.571	101.5
309.8	92.5
310.03	76.5
310.26	87.5
310.49	87.5
310.72	87.5
310.949	83.5
311.179	84.5
311.409	87.5
311.639	83.5
311.868	89.5
312.098	84.5
312.328	81.5
312.557	81.5
312.787	85.5
313.017	77.5
313.246	107.5
313.476	90.5
313.706	79.5
313.935	85.5
314.165	89.5
314.394	96.5
314.624	79.5
314.853	82.5
315.083	86.5
315.312	69.5
315.542	90.5
315.771	78.5
316.001	89.5
316.23	84.5
316.46	94.5
316.689	83.5
316.919	76.5
317.148	76.5
317.377	69.5
317.607	83.5
317.836	87.5
318.065	72.5
318.295	100.5
318.524	88.5
318.753	75.5
318.983	85.5
319.212	83.5
319.441	70.5
319.67	88.5
319.9	75.5
320.129	85.5
320.358	97.5
320.587	85.5
320.816	81.5
321.046	93.5
321.275	93.5
321.504	92.5
321.733	85.5
321.962	88.5
322.191	91.5
322.42	83.5
322.649	83.5
322.878	95.5
323.108	80.5
323.337	74.5
323.566	83.5
323.795	87.5
324.024	88.5
324.253	96.5
324.482	85.5
324.71	75.5
324.939	86.5
325.168	74.5
325.397	76.5
325.626	78.5
325.855	94.5
326.084	77.5
326.313	76.5
326.542	104.5
326.77	72.5
326.999	91.5
327.228	85.5
327.457	86.5
327.686	82.5
327.914	79.5
328.143	76.5
328.372	85.5
328.6	87.5
328.829	97.5
329.058	81.5
329.287	70.5
329.515	74.5
329.744	88.5
329.972	84.5
330.201	82.5
330.43	84.5
330.658	84.5
330.887	90.5
331.115	72.5
331.344	93.5
331.572	99.5
331.801	83.5
332.03	86.5
332.258	78.5
332.486	70.5
332.715	87.5
332.943	86.5
333.172	90.5
333.4	99.5
333.629	98.5
333.857	82.5
334.085	89.5
334.314	80.5
334.542	85.5
334.771	83.5
334.999	88.5
335.227	86.5
335.455	80.5
335.684	83.5
335.912	79.5
336.14	97.5
336.369	91.5
336.597	88.5
336.825	81.5
337.053	84.5
337.281	90.5
337.51	82.5
337.738	90.5
337.966	68.5
338.194	89.5
338.422	78.5
338.65	83.5
338.878	77.5
339.106	73.5
339.334	89.5
339.562	94.5
339.79	92.5
340.018	85.5
340.246	76.5
340.474	77.5
340.702	78.5
340.93	90.5
341.158	83.5
341.386	79.5
341.614	80.5
341.842	79.5
342.07	81.5
342.298	97.5
342.526	75.5
342.754	79.5
342.981	76.5
343.209	87.5
343.437	79.5
343.665	76.5
343.893	86.5
344.12	82.5
344.348	78.5
344.576	61.5
344.804	76.5
345.031	72.5
345.259	91.5
345.487	81.5
345.714	89.5
345.942	83.5
346.17	92.5
346.397	71.5
346.625	79.5
346.853	84.5
347.08	85.5
347.308	94.5
347.535	87.5
347.763	90.5
347.99	94.5
348.218	87.5
348.445	75.5
348.673	88.5
348.9	99.5
349.128	89.5
349.355	93.5
349.583	76.5
349.81	86.5
350.037	76.5
350.265	74.5
350.492	87.5
350.72	75.5
350.947	67.5
351.174	85.5
351.402	79.5
351.629	86.5
351.856	88.5
352.083	61.5
352.311	87.5
352.538	75.5
352.765	77.5
352.992	84.5
353.22	95.5
353.447	74.5
353.674	90.5
353.901	92.5
354.128	77.5
354.355	88.5
354.583	73.5
354.81	83.5
355.037	68.5
355.264	77.5
355.491	81.5
355.718	85.5
355.945	82.5
356.172	79.5
356.399	74.5
356.626	87.5
356.853	79.5
357.08	85.5
357.307	70.5
357.534	89.5
357.761	86.5
357.988	85.5
358.215	67.5
358.441	90.5
358.668	77.5
358.895	75.5
359.122	82.5
359.349	80.5
359.576	73.5
359.802	98.5
360.029	71.5
360.256	79.5
360.483	87.5
360.709	73.5
360.936	89.5
361.163	85.5
361.39	69.5
361.616	77.5
361.843	80.5
362.07	74.5
362.296	79.5
362.523	72.5
362.749	80.5
362.976	68.5
363.203	82.5
363.429	87.5
363.656	83.5
363.882	71.5
364.109	79.5
364.335	79.5
364.562	84.5
364.788	82.5
365.015	83.5
365.241	76.5
365.468	77.5
365.694	62.5
365.92	82.5
366.147	79.5
366.373	78.5
366.599	80.5
366.826	85.5
367.052	102.5
367.278	76.5
367.505	87.5
367.731	92.5
367.957	88.5
368.184	86.5
368.41	79.5
368.636	89.5
368.862	88.5
369.089	89.5
369.315	84.5
369.541	96.5
369.767	98.5
369.993	93.5
370.219	95.5
370.445	86.5
370.672	86.5
370.898	86.5
371.124	88.5
371.35	90.5
371.576	90.5
371.802	89.5
372.028	86.5
372.254	90.5
372.48	102.5
372.706	87.5
372.932	84.5
373.158	88.5
373.384	88.5
373.61	99.5
373.835	94.5
374.061	81.5
374.287	94.5
374.513	90.5
374.739	88.5
374.965	98.5
375.191	86.5
375.416	89.5
375.642	94.5
375.868	87.5
376.094	89.5
376.319	92.5
376.545	88.5
376.771	78.5
376.997	85.5
377.222	86.5
377.448	97.5
377.674	90.5
377.899	87.5
378.125	86.5
378.35	102.5
378.576	84.5
378.802	83.5
379.027	94.5
379.253	98.5
379.478	89.5
379.704	95.5
379.929	90.5
380.155	103.5
380.38	94.5
380.606	81.5
380.831	95.5
381.057	99.5
381.282	101.5
381.507	104.5
381.733	98.5
381.958	91.5
382.184	80.5
382.409	89.5
382.634	96.5
382.86	97.5
383.085	87.5
383.31	98.5
383.535	95.5
383.761	97.5
383.986	90.5
384.211	100.5
384.436	99.5
384.662	89.5
384.887	99.5
385.112	99.5
385.337	94.5
385.562	86.5
385.787	111.5
386.013	99.5
386.238	101.5
386.463	101.5
386.688	93.5
386.913	92.5
387.138	85.5
387.363	86.5
387.588	96.5
387.813	93.5
388.038	85.5
388.263	97.5
388.488	106.5
388.713	101.5
388.938	106.5
389.163	106.5
389.387	106.5
389.612	95.5
389.837	94.5
390.062	111.5
390.287	86.5
390.512	110.5
390.736	102.5
390.961	91.5
391.186	90.5
391.411	94.5
391.636	93.5
391.86	89.5
392.085	107.5
392.31	104.5
392.534	119.5
392.759	106.5
392.984	102.5
393.208	96.5
393.433	97.5
393.658	107.5
393.882	100.5
394.107	87.5
394.331	102.5
394.556	104.5
394.78	105.5
395.005	96.5
395.229	116.5
395.454	124.5
395.678	107.5
395.903	117.5
396.127	94.5
396.352	95.5
396.576	113.5
396.801	106.5
397.025	94.5
397.249	114.5
397.474	116.5
397.698	105.5
397.922	127.5
398.147	99.5
398.371	102.5
398.595	100.5
398.82	99.5
399.044	94.5
399.268	102.5
399.492	109.5
399.717	101.5
399.941	119.5
400.165	95.5
400.389	121.5
400.613	117.5
400.837	104.5
401.062	97.5
401.286	93.5
401.51	104.5
401.734	122.5
401.958	118.5
402.182	107.5
402.406	112.5
402.63	117.5
402.854	106.5
403.078	109.5
403.302	105.5
403.526	95.5
403.75	118.5
403.974	118.5
404.198	107.5
404.422	123.5
404.645	108.5
404.869	107.5
405.093	116.5
405.317	117.5
405.541	111.5
405.765	91.5
405.988	117.5
406.212	118.5
406.436	110.5
406.66	121.5
406.883	119.5
407.107	117.5
407.331	123.5
407.555	121.5
407.778	111.5
408.002	120.5
408.226	137.5
408.449	110.5
408.673	118.5
408.896	113.5
409.12	132.5
409.344	120.5
409.567	99.5
409.791	121.5
410.014	117.5
410.238	115.5
410.461	116.5
410.685	125.5
410.908	113.5
411.132	111.5
411.355	122.5
411.578	116.5
411.802	107.5
412.025	113.5
412.249	102.5
412.472	102.5
412.695	124.5
412.919	121.5
413.142	114.5
413.365	119.5
413.589	114.5
413.812	123.5
414.035	110.5
414.258	118.5
414.482	117.5
414.705	115.5
414.928	120.5
415.151	122.5
415.374	120.5
415.597	116.5
415.821	116.5
416.044	118.5
416.267	113.5
416.49	125.5
416.713	108.5
416.936	113.5
417.159	132.5
417.382	115.5
417.605	117.5
417.828	120.5
418.051	115.5
418.274	123.5
418.497	136.5
418.72	135.5
418.943	128.5
419.166	137.5
419.389	136.5
419.611	137.5
419.834	120.5
420.057	122.5
420.28	127.5
420.503	125.5
420.726	135.5
420.948	127.5
421.171	131.5
421.394	133.5
421.617	147.5
421.839	138.5
422.062	120.5
422.285	128.5
422.507	139.5
422.73	129.5
422.953	138.5
423.175	133.5
423.398	123.5
423.621	132.5
423.843	133.5
424.066	130.5
424.288	136.5
424.511	158.5
424.733	137.5
424.956	143.5
425.178	131.5
425.401	129.5
425.623	122.5
425.846	135.5
426.068	135.5
426.291	126.5
426.513	130.5
426.735	131.5
426.958	132.5
427.18	112.5
427.402	125.5
427.625	126.5
427.847	139.5
428.069	126.5
428.292	130.5
428.514	115.5
428.736	133.5
428.958	127.5
429.181	141.5
429.403	127.5
429.625	123.5
429.847	124.5
430.069	115.5
430.292	127.5
430.514	121.5
430.736	122.5
430.958	131.5
431.18	117.5
431.402	132.5
431.624	115.5
431.846	114.5
432.068	99.5
432.29	97.5
432.512	93.5
432.734	133.5
432.956	115.5
433.178	125.5
433.4	115.5
433.622	129.5
433.844	145.5
434.066	118.5
434.287	107.5
434.509	90.5
434.731	94.5
434.953	103.5
435.175	113.5
435.397	130.5
435.618	129.5
435.84	101.5
436.062	117.5
436.284	124.5
436.505	125.5
436.727	133.5
436.949	127.5
437.17	139.5
437.392	127.5
437.614	106.5
437.835	113.5
438.057	104.5
438.278	123.5
438.5	107.5
438.721	137.5
438.943	144.5
439.165	135.5
439.386	133.5
439.608	135.5
439.829	129.5
440.05	142.5
440.272	161.5
440.493	135.5
440.715	152.5
440.936	133.5
441.158	151.5
441.379	140.5
441.6	151.5
441.822	141.5
442.043	144.5
442.264	139.5
442.486	141.5
442.707	129.5
442.928	138.5
443.149	141.5
443.371	130.5
443.592	116.5
443.813	134.5
444.034	138.5
444.255	131.5
444.476	125.5
444.698	124.5
444.919	147.5
445.14	259.5
445.361	187.5
445.582	142.5
445.803	157.5
446.024	123.5
446.245	149.5
446.466	147.5
446.687	165.5
446.908	143.5
447.129	150.5
447.35	140.5
447.571	140.5
447.792	146.5
448.013	133.5
448.234	128.5
448.455	122.5
448.675	124.5
448.896	142.5
449.117	130.5
449.338	140.5
449.559	129.5
449.779	145.5
450	147.5
450.221	134.5
450.442	141.5
450.662	128.5
450.883	135.5
451.104	141.5
451.324	124.5
451.545	122.5
451.766	119.5
451.986	125.5
452.207	137.5
452.428	129.5
452.648	124.5
452.869	122.5
453.089	110.5
453.31	110.5
453.53	103.5
453.751	78.5
453.971	104.5
454.192	104.5
454.412	111.5
454.633	123.5
454.853	105.5
455.073	110.5
455.294	125.5
455.514	133.5
455.734	125.5
455.955	122.5
456.175	118.5
456.395	114.5
456.616	103.5
456.836	100.5
457.056	100.5
457.276	117.5
457.497	99.5
457.717	113.5
457.937	112.5
458.157	89.5
458.377	96.5
458.598	108.5
458.818	88.5
459.038	85.5
459.258	91.5
459.478	84.5
459.698	100.5
459.918	94.5
460.138	89.5
460.358	110.5
460.578	111.5
460.798	118.5
461.018	114.5
461.238	110.5
461.458	113.5
461.678	123.5
461.898	125.5
462.118	119.5
462.338	120.5
462.558	101.5
462.777	102.5
462.997	110.5
463.217	91.5
463.437	106.5
463.657	97.5
463.876	118.5
464.096	120.5
464.316	103.5
464.536	110.5
464.755	101.5
464.975	106.5
465.195	106.5
465.414	117.5
465.634	111.5
465.854	115.5
466.073	117.5
466.293	110.5
466.512	117.5
466.732	123.5
466.951	127.5
467.171	133.5
467.391	126.5
467.61	133.5
467.829	123.5
468.049	131.5
468.268	129.5
468.488	141.5
468.707	141.5
468.927	126.5
469.146	133.5
469.365	119.5
469.585	138.5
469.804	133.5
470.023	130.5
470.243	130.5
470.462	124.5
470.681	136.5
470.901	137.5
471.12	110.5
471.339	145.5
471.558	134.5
471.777	141.5
471.997	126.5
472.216	118.5
472.435	135.5
472.654	107.5
472.873	106.5
473.092	131.5
473.311	127.5
473.53	122.5
473.749	131.5
473.968	133.5
474.187	125.5
474.406	121.5
474.625	130.5
474.844	127.5
475.063	138.5
475.282	119.5
475.501	105.5
475.72	121.5
475.939	143.5
476.158	146.5
476.377	115.5
476.596	124.5
476.814	121.5
477.033	115.5
477.252	115.5
477.471	123.5
477.69	134.5
477.908	124.5
478.127	141.5
478.346	135.5
478.564	142.5
478.783	130.5
479.002	139.5
479.22	143.5
479.439	140.5
479.658	122.5
479.876	105.5
480.095	101.5
480.313	111.5
480.532	114.5
480.751	110.5
480.969	101.5
481.188	107.5
481.406	93.5
481.624	92.5
481.843	92.5
482.061	98.5
482.28	99.5
482.498	105.5
482.717	108.5
482.935	123.5
483.153	157.5
483.372	147.5
483.59	149.5
483.808	151.5
484.027	132.5
484.245	140.5
484.463	135.5
484.681	147.5
484.9	128.5
485.118	135.5
485.336	123.5
485.554	118.5
485.772	105.5
485.99	110.5
486.209	100.5
486.427	109.5
486.645	125.5
486.863	138.5
487.081	127.5
487.299	130.5
487.517	143.5
487.735	151.5
487.953	197.5
488.171	185.5
488.389	169.5
488.607	169.5
488.825	141.5
489.043	125.5
489.261	142.5
489.479	137.5
489.696	150.5
489.914	141.5
490.132	147.5
490.35	142.5
490.568	147.5
490.786	167.5
491.003	175.5
491.221	181.5
491.439	184.5
491.657	166.5
491.874	193.5
492.092	222.5
492.31	220.5
492.527	232.5
492.745	210.5
492.963	191.5
493.18	182.5
493.398	179.5
493.615	157.5
493.833	171.5
494.05	175.5
494.268	165.5
494.485	164.5
494.703	159.5
494.92	180.5
495.138	156.5
495.355	167.5
495.573	181.5
495.79	172.5
496.008	166.5
496.225	186.5
496.442	180.5
496.66	161.5
496.877	146.5
497.094	166.5
497.312	150.5
497.529	154.5
497.746	138.5
497.963	137.5
498.181	126.5
498.398	126.5
498.615	124.5
498.832	105.5
499.049	113.5
499.267	132.5
499.484	122.5
499.701	127.5
499.918	147.5
500.135	133.5
500.352	139.5
500.569	142.5
500.786	135.5
501.003	128.5
501.22	136.5
501.437	127.5
501.654	139.5
501.871	129.5
502.088	124.5
502.305	119.5
502.522	135.5
502.739	106.5
502.956	125.5
503.172	131.5
503.389	131.5
503.606	127.5
503.823	106.5
504.04	129.5
504.256	124.5
504.473	142.5
504.69	113.5
504.907	121.5
505.123	118.5
505.34	109.5
505.557	129.5
505.773	114.5
505.99	110.5
506.207	115.5
506.423	115.5
506.64	116.5
506.856	122.5
507.073	122.5
507.289	132.5
507.506	120.5
507.722	118.5
507.939	107.5
508.155	105.5
508.372	119.5
508.588	122.5
508.805	115.5
509.021	98.5
509.238	106.5
509.454	117.5
509.67	102.5
509.887	108.5
510.103	89.5
510.319	100.5
510.536	76.5
510.752	90.5
510.968	84.5
511.184	96.5
511.401	83.5
511.617	91.5
511.833	87.5
512.049	73.5
512.265	94.5
512.481	99.5
512.698	93.5
512.914	95.5
513.13	94.5
513.346	93.5
513.562	79.5
513.778	93.5
513.994	84.5
514.21	86.5
514.426	100.5
514.642	94.5
514.858	100.5
515.074	83.5
515.29	86.5
515.506	90.5
515.721	103.5
515.937	84.5
516.153	83.5
516.369	75.5
516.585	86.5
516.801	88.5
517.016	97.5
517.232	83.5
517.448	93.5
517.664	104.5
517.879	103.5
518.095	99.5
518.311	95.5
518.527	102.5
518.742	99.5
518.958	89.5
519.173	103.5
519.389	103.5
519.605	102.5
519.82	111.5
520.036	100.5
520.251	84.5
520.467	100.5
520.682	92.5
520.898	94.5
521.113	86.5
521.329	88.5
521.544	104.5
521.76	98.5
521.975	99.5
522.19	86.5
522.406	95.5
522.621	100.5
522.836	107.5
523.052	102.5
523.267	113.5
523.482	113.5
523.698	108.5
523.913	128.5
524.128	123.5
524.343	121.5
524.559	123.5
524.774	116.5
524.989	107.5
525.204	115.5
525.419	104.5
525.634	113.5
525.849	95.5
526.064	110.5
526.28	102.5
526.495	77.5
526.71	87.5
526.925	76.5
527.14	89.5
527.355	85.5
527.57	92.5
527.785	93.5
527.999	91.5
528.214	107.5
528.429	101.5
528.644	120.5
528.859	133.5
529.074	129.5
529.289	162.5
529.503	143.5
529.718	134.5
529.933	119.5
530.148	101.5
530.363	88.5
530.577	85.5
530.792	86.5
531.007	83.5
531.221	69.5
531.436	77.5
531.651	69.5
531.865	87.5
532.08	97.5
532.295	83.5
532.509	92.5
532.724	93.5
532.938	84.5
533.153	77.5
533.367	105.5
533.582	117.5
533.796	123.5
534.011	107.5
534.225	83.5
534.44	91.5
534.654	92.5
534.868	94.5
535.083	100.5
535.297	86.5
535.511	92.5
535.726	103.5
535.94	103.5
536.154	114.5
536.369	93.5
536.583	88.5
536.797	85.5
537.011	89.5
537.225	103.5
537.44	88.5
537.654	92.5
537.868	107.5
538.082	88.5
538.296	97.5
538.51	114.5
538.724	100.5
538.938	110.5
539.153	121.5
539.367	108.5
539.581	110.5
539.795	108.5
540.009	94.5
540.222	91.5
540.436	99.5
540.65	106.5
540.864	129.5
541.078	125.5
541.292	158.5
541.506	158.5
541.72	163.5
541.934	185.5
542.147	191.5
542.361	177.5
542.575	157.5
542.789	134.5
543.002	142.5
543.216	118.5
543.43	118.5
543.644	131.5
543.857	144.5
544.071	154.5
544.285	171.5
544.498	157.5
544.712	145.5
544.925	167.5
545.139	141.5
545.352	153.5
545.566	159.5
545.779	141.5
545.993	149.5
546.206	149.5
546.42	151.5
546.633	162.5
546.847	137.5
547.06	174.5
547.274	179.5
547.487	172.5
547.7	162.5
547.914	166.5
548.127	160.5
548.34	161.5
548.554	154.5
548.767	143.5
548.98	165.5
549.193	144.5
549.407	145.5
549.62	152.5
549.833	148.5
550.046	151.5
550.259	151.5
550.473	143.5
550.686	150.5
550.899	136.5
551.112	153.5
551.325	129.5
551.538	139.5
551.751	137.5
551.964	105.5
552.177	133.5
552.39	140.5
552.603	155.5
552.816	143.5
553.029	143.5
553.242	150.5
553.455	169.5
553.667	165.5
553.88	154.5
554.093	153.5
554.306	163.5
554.519	137.5
554.732	141.5
554.944	138.5
555.157	143.5
555.37	149.5
555.583	137.5
555.795	129.5
556.008	121.5
556.221	138.5
556.433	128.5
556.646	127.5
556.859	137.5
557.071	125.5
557.284	127.5
557.496	142.5
557.709	137.5
557.921	147.5
558.134	135.5
558.346	133.5
558.559	132.5
558.771	118.5
558.984	127.5
559.196	131.5
559.409	150.5
559.621	127.5
559.833	130.5
560.046	125.5
560.258	125.5
560.47	124.5
560.683	121.5
560.895	129.5
561.107	132.5
561.32	124.5
561.532	135.5
561.744	133.5
561.956	146.5
562.168	123.5
562.381	118.5
562.593	117.5
562.805	132.5
563.017	110.5
563.229	121.5
563.441	113.5
563.653	133.5
563.865	129.5
564.077	129.5
564.289	122.5
564.501	123.5
564.713	125.5
564.925	124.5
565.137	119.5
565.349	113.5
565.561	103.5
565.773	110.5
565.985	121.5
566.197	115.5
566.408	121.5
566.62	123.5
566.832	110.5
567.044	120.5
567.255	122.5
567.467	105.5
567.679	104.5
567.891	100.5
568.102	97.5
568.314	104.5
568.526	115.5
568.737	99.5
568.949	93.5
569.161	88.5
569.372	78.5
569.584	91.5
569.795	76.5
570.007	77.5
570.218	82.5
570.43	79.5
570.641	95.5
570.853	85.5
571.064	106.5
571.276	101.5
571.487	113.5
571.698	92.5
571.91	97.5
572.121	99.5
572.333	89.5
572.544	99.5
572.755	94.5
572.966	93.5
573.178	97.5
573.389	91.5
573.6	89.5
573.811	82.5
574.023	84.5
574.234	88.5
574.445	83.5
574.656	97.5
574.867	89.5
575.078	90.5
575.289	96.5
575.501	94.5
575.712	92.5
575.923	88.5
576.134	97.5
576.345	88.5
576.556	104.5
576.767	100.5
576.978	98.5
577.188	103.5
577.399	94.5
577.61	81.5
577.821	95.5
578.032	93.5
578.243	98.5
578.454	91.5
578.665	94.5
578.875	78.5
579.086	87.5
579.297	93.5
579.508	78.5
579.718	83.5
579.929	79.5
580.14	84.5
580.35	79.5
580.561	82.5
580.772	90.5
580.982	94.5
581.193	88.5
581.403	90.5
581.614	96.5
581.825	90.5
582.035	91.5
582.246	91.5
582.456	85.5
582.667	87.5
582.877	85.5
583.087	87.5
583.298	99.5
583.508	67.5
583.719	78.5
583.929	84.5
584.139	85.5
584.35	81.5
584.56	74.5
584.77	80.5
584.981	91.5
585.191	94.5
585.401	88.5
585.611	87.5
585.821	86.5
586.032	76.5
586.242	78.5
586.452	82.5
586.662	77.5
586.872	82.5
587.082	72.5
587.292	76.5
587.502	92.5
587.713	87.5
587.923	83.5
588.133	79.5
588.343	77.5
588.553	79.5
588.762	83.5
588.972	94.5
589.182	83.5
589.392	93.5
589.602	97.5
589.812	79.5
590.022	85.5
590.232	75.5
590.441	71.5
590.651	67.5
590.861	84.5
591.071	73.5
591.281	90.5
591.49	103.5
591.7	87.5
591.91	86.5
592.119	70.5
592.329	81.5
592.539	72.5
592.748	90.5
592.958	83.5
593.167	87.5
593.377	79.5
593.587	93.5
593.796	84.5
594.006	66.5
594.215	80.5
594.424	98.5
594.634	86.5
594.843	93.5
595.053	97.5
595.262	100.5
595.472	97.5
595.681	84.5
595.89	86.5
596.1	90.5
596.309	101.5
596.518	95.5
596.727	97.5
596.937	90.5
597.146	97.5
597.355	105.5
597.564	90.5
597.774	91.5
597.983	82.5
598.192	80.5
598.401	80.5
598.61	91.5
598.819	91.5
599.028	90.5
599.237	87.5
599.446	108.5
599.655	87.5
599.864	85.5
600.073	97.5
600.282	105.5
600.491	94.5
600.7	97.5
600.909	88.5
601.118	100.5
601.327	88.5
601.536	105.5
601.745	100.5
601.953	106.5
602.162	102.5
602.371	98.5
602.58	126.5
602.789	95.5
602.997	105.5
603.206	105.5
603.415	105.5
603.623	116.5
603.832	119.5
604.041	104.5
604.249	102.5
604.458	103.5
604.666	98.5
604.875	103.5
605.084	92.5
605.292	103.5
605.501	116.5
605.709	107.5
605.918	117.5
606.126	115.5
606.334	118.5
606.543	103.5
606.751	111.5
606.96	103.5
607.168	103.5
607.376	99.5
607.585	114.5
607.793	104.5
608.001	103.5
608.21	105.5
608.418	92.5
608.626	114.5
608.834	95.5
609.043	101.5
609.251	111.5
609.459	111.5
609.667	113.5
609.875	113.5
610.083	103.5
610.291	127.5
610.499	107.5
610.707	115.5
610.916	117.5
611.124	110.5
611.332	109.5
611.54	100.5
611.748	110.5
611.955	108.5
612.163	115.5
612.371	107.5
612.579	109.5
612.787	119.5
612.995	121.5
613.203	112.5
613.411	118.5
613.618	114.5
613.826	110.5
614.034	108.5
614.242	111.5
614.449	119.5
614.657	107.5
614.865	110.5
615.072	109.5
615.28	102.5
615.488	112.5
615.695	109.5
615.903	119.5
616.111	107.5
616.318	106.5
616.526	125.5
616.733	97.5
616.941	107.5
617.148	111.5
617.356	113.5
617.563	95.5
617.771	109.5
617.978	102.5
618.185	111.5
618.393	115.5
618.6	118.5
618.807	108.5
619.015	95.5
619.222	101.5
619.429	107.5
619.637	106.5
619.844	103.5
620.051	102.5
620.258	99.5
620.466	103.5
620.673	101.5
620.88	106.5
621.087	107.5
621.294	91.5
621.501	87.5
621.708	107.5
621.915	97.5
622.122	101.5
622.329	104.5
622.536	107.5
622.743	95.5
622.95	107.5
623.157	101.5
623.364	117.5
623.571	101.5
623.778	98.5
623.985	116.5
624.192	104.5
624.399	101.5
624.606	102.5
624.812	108.5
625.019	101.5
625.226	98.5
625.433	109.5
625.639	99.5
625.846	102.5
626.053	102.5
626.259	88.5
626.466	100.5
626.673	99.5
626.879	98.5
627.086	86.5
627.293	77.5
627.499	93.5
627.706	107.5
627.912	109.5
628.119	98.5
628.325	108.5
628.532	108.5
628.738	93.5
628.945	98.5
629.151	102.5
629.357	115.5
629.564	99.5
629.77	101.5
629.976	94.5
630.183	105.5
630.389	98.5
630.595	105.5
630.802	91.5
631.008	105.5
631.214	108.5
631.42	97.5
631.627	98.5
631.833	97.5
632.039	102.5
632.245	93.5
632.451	93.5
632.657	94.5
632.863	98.5
633.069	97.5
633.275	92.5
633.481	92.5
633.688	100.5
633.893	108.5
634.099	107.5
634.305	90.5
634.511	96.5
634.717	110.5
634.923	99.5
635.129	92.5
635.335	95.5
635.541	89.5
635.747	107.5
635.952	94.5
636.158	95.5
636.364	91.5
636.57	91.5
636.775	103.5
636.981	101.5
637.187	94.5
637.392	89.5
637.598	110.5
637.804	108.5
638.009	98.5
638.215	89.5
638.421	95.5
638.626	97.5
638.832	92.5
639.037	97.5
639.243	100.5
639.448	100.5
639.654	109.5
639.859	107.5
640.065	95.5
640.27	109.5
640.475	104.5
640.681	114.5
640.886	107.5
641.091	90.5
641.297	102.5
641.502	97.5
641.707	100.5
641.913	108.5
642.118	102.5
642.323	97.5
642.528	88.5
642.733	99.5
642.939	101.5
643.144	91.5
643.349	99.5
643.554	92.5
643.759	88.5
643.964	96.5
644.169	106.5
644.374	101.5
644.579	107.5
644.784	93.5
644.989	91.5
645.194	84.5
645.399	95.5
645.604	91.5
645.809	86.5
646.014	100.5
646.219	101.5
646.423	102.5
646.628	110.5
646.833	95.5
647.038	88.5
647.243	90.5
647.447	93.5
647.652	95.5
647.857	102.5
648.062	94.5
648.266	97.5
648.471	81.5
648.676	82.5
648.88	100.5
649.085	84.5
649.289	89.5
649.494	89.5
649.698	100.5
649.903	103.5
650.107	88.5
650.312	103.5
650.516	80.5
650.721	106.5
650.925	97.5
651.13	87.5
651.334	93.5
651.539	85.5
651.743	91.5
651.947	90.5
652.152	92.5
652.356	106.5
652.56	93.5
652.764	77.5
652.969	91.5
653.173	93.5
653.377	81.5
653.581	83.5
653.785	85.5
653.99	78.5
654.194	99.5
654.398	106.5
654.602	108.5
654.806	91.5
655.01	78.5
655.214	89.5
655.418	79.5
655.622	84.5
655.826	85.5
656.03	88.5
656.234	91.5
656.438	98.5
656.642	101.5
656.846	84.5
657.049	81.5
657.253	78.5
657.457	90.5
657.661	91.5
657.865	83.5
658.068	92.5
658.272	86.5
658.476	85.5
658.68	91.5
658.883	99.5
659.087	86.5
659.291	90.5
659.494	86.5
659.698	86.5
659.901	82.5
660.105	98.5
660.309	80.5
660.512	83.5
660.716	95.5
660.919	84.5
661.123	89.5
661.326	75.5
661.53	70.5
661.733	78.5
661.936	71.5
662.14	85.5
662.343	83.5
662.546	87.5
662.75	84.5
662.953	86.5
663.156	70.5
663.36	77.5
663.563	79.5
663.766	84.5
663.969	80.5
664.173	79.5
664.376	67.5
664.579	81.5
664.782	81.5
664.985	75.5
665.188	85.5
665.391	73.5
665.594	75.5
665.797	74.5
666	92.5
666.203	78.5
666.406	82.5
666.609	85.5
666.812	78.5
667.015	83.5
667.218	85.5
667.421	76.5
667.624	86.5
667.827	71.5
668.03	69.5
668.232	71.5
668.435	85.5
668.638	88.5
668.841	77.5
669.043	66.5
669.246	75.5
669.449	85.5
669.651	77.5
669.854	73.5
670.057	73.5
670.259	92.5
670.462	72.5
670.665	79.5
670.867	84.5
671.07	92.5
671.272	82.5
671.475	80.5
671.677	81.5
671.88	77.5
672.082	74.5
672.284	74.5
672.487	77.5
672.689	70.5
672.892	85.5
