Data from 1970.PennyLincolnUp.Lamp.En5.5.200Scan.071719.P1._HRD10591_15-13-05-843.txt Node
Date: Thu Jul 18 15:13:05 EDT 2019
User: cochatt
Spectrometer: HR+D1059
Trigger mode: 1
Integration Time (sec): 1.000000E-1
Scans to average: 1
Electric dark correction enabled: true
Nonlinearity correction enabled: false
Boxcar width: 0
XAxis mode: Wavelengths
Number of Pixels in Spectrum: 2048
>>>>>Begin Spectral Data<<<<<
223.165	-20.56
223.4	-20.56
223.635	-20.56
223.869	-13.56
224.104	-33.56
224.338	-6.56
224.573	-14.56
224.808	-8.56
225.042	4.44
225.277	-1.56
225.511	-3.56
225.746	-8.56
225.98	9.44
226.215	11.44
226.449	9.44
226.683	21.44
226.918	14.44
227.152	40.44
227.387	26.44
227.621	43.44
227.856	25.44
228.09	40.44
228.324	49.44
228.559	44.44
228.793	59.44
229.027	86.44
229.262	89.44
229.496	109.44
229.73	117.44
229.964	125.44
230.199	124.44
230.433	112.44
230.667	104.44
230.901	110.44
231.136	115.44
231.37	94.44
231.604	124.44
231.838	91.44
232.072	117.44
232.306	112.44
232.541	106.44
232.775	99.44
233.009	106.44
233.243	114.44
233.477	101.44
233.711	104.44
233.945	113.44
234.179	124.44
234.413	119.44
234.647	106.44
234.881	118.44
235.115	116.44
235.349	110.44
235.583	104.44
235.817	103.44
236.051	108.44
236.285	117.44
236.519	116.44
236.753	125.44
236.987	119.44
237.221	149.44
237.455	210.44
237.689	171.44
237.922	139.44
238.156	118.44
238.39	122.44
238.624	110.44
238.858	116.44
239.091	108.44
239.325	113.44
239.559	115.44
239.793	129.44
240.027	111.44
240.26	131.44
240.494	131.44
240.728	129.44
240.961	137.44
241.195	141.44
241.429	158.44
241.662	137.44
241.896	121.44
242.13	112.44
242.363	127.44
242.597	126.44
242.83	134.44
243.064	140.44
243.298	134.44
243.531	121.44
243.765	125.44
243.998	126.44
244.232	113.44
244.465	131.44
244.699	131.44
244.932	131.44
245.166	126.44
245.399	139.44
245.633	142.44
245.866	138.44
246.099	121.44
246.333	155.44
246.566	128.44
246.8	145.44
247.033	119.44
247.266	139.44
247.5	162.44
247.733	158.44
247.966	154.44
248.2	170.44
248.433	158.44
248.666	152.44
248.899	169.44
249.133	167.44
249.366	200.44
249.599	191.44
249.832	182.44
250.066	166.44
250.299	168.44
250.532	168.44
250.765	189.44
250.998	199.44
251.231	213.44
251.465	194.44
251.698	200.44
251.931	196.44
252.164	195.44
252.397	177.44
252.63	192.44
252.863	182.44
253.096	210.44
253.329	207.44
253.562	206.44
253.795	210.44
254.028	203.44
254.261	186.44
254.494	211.44
254.727	223.44
254.96	231.44
255.193	243.44
255.426	230.44
255.659	219.44
255.892	205.44
256.124	203.44
256.357	197.44
256.59	214.44
256.823	199.44
257.056	179.44
257.289	189.44
257.521	195.44
257.754	207.44
257.987	180.44
258.22	198.44
258.452	198.44
258.685	174.44
258.918	180.44
259.151	212.44
259.383	190.44
259.616	189.44
259.849	187.44
260.081	213.44
260.314	226.44
260.547	218.44
260.779	212.44
261.012	197.44
261.244	198.44
261.477	191.44
261.71	201.44
261.942	195.44
262.175	204.44
262.407	189.44
262.64	174.44
262.872	187.44
263.105	206.44
263.337	179.44
263.57	181.44
263.802	174.44
264.035	188.44
264.267	173.44
264.499	179.44
264.732	195.44
264.964	182.44
265.197	174.44
265.429	189.44
265.661	182.44
265.894	189.44
266.126	186.44
266.358	179.44
266.591	195.44
266.823	177.44
267.055	187.44
267.287	200.44
267.52	173.44
267.752	187.44
267.984	215.44
268.216	194.44
268.448	204.44
268.681	202.44
268.913	204.44
269.145	201.44
269.377	203.44
269.609	222.44
269.841	229.44
270.073	218.44
270.306	249.44
270.538	239.44
270.77	245.44
271.002	243.44
271.234	226.44
271.466	237.44
271.698	263.44
271.93	258.44
272.162	249.44
272.394	241.44
272.626	231.44
272.858	250.44
273.09	230.44
273.322	232.44
273.553	225.44
273.785	230.44
274.017	225.44
274.249	244.44
274.481	218.44
274.713	213.44
274.945	215.44
275.176	229.44
275.408	232.44
275.64	206.44
275.872	231.44
276.104	232.44
276.335	222.44
276.567	236.44
276.799	232.44
277.031	224.44
277.262	250.44
277.494	257.44
277.726	239.44
277.957	215.44
278.189	216.44
278.421	217.44
278.652	199.44
278.884	220.44
279.115	211.44
279.347	215.44
279.579	213.44
279.81	221.44
280.042	228.44
280.273	231.44
280.505	219.44
280.736	197.44
280.968	206.44
281.199	212.44
281.431	222.44
281.662	202.44
281.894	224.44
282.125	208.44
282.356	225.44
282.588	237.44
282.819	226.44
283.051	213.44
283.282	215.44
283.513	217.44
283.745	233.44
283.976	222.44
284.207	214.44
284.439	223.44
284.67	225.44
284.901	225.44
285.132	217.44
285.364	222.44
285.595	222.44
285.826	220.44
286.057	222.44
286.288	223.44
286.52	219.44
286.751	218.44
286.982	208.44
287.213	219.44
287.444	226.44
287.675	235.44
287.906	228.44
288.138	229.44
288.369	227.44
288.6	243.44
288.831	222.44
289.062	228.44
289.293	217.44
289.524	225.44
289.755	219.44
289.986	227.44
290.217	234.44
290.448	221.44
290.679	239.44
290.91	233.44
291.141	219.44
291.371	235.44
291.602	241.44
291.833	230.44
292.064	226.44
292.295	236.44
292.526	229.44
292.757	231.44
292.987	230.44
293.218	229.44
293.449	218.44
293.68	243.44
293.91	233.44
294.141	219.44
294.372	245.44
294.603	223.44
294.833	222.44
295.064	227.44
295.295	245.44
295.525	235.44
295.756	237.44
295.987	238.44
296.217	255.44
296.448	275.44
296.679	245.44
296.909	235.44
297.14	235.44
297.37	231.44
297.601	251.44
297.831	229.44
298.062	250.44
298.292	234.44
298.523	239.44
298.753	232.44
298.984	244.44
299.214	237.44
299.445	232.44
299.675	266.44
299.905	235.44
300.136	244.44
300.366	222.44
300.597	248.44
300.827	265.44
301.057	246.44
301.288	249.44
301.518	261.44
301.748	245.44
301.979	261.44
302.209	260.44
302.439	257.44
302.669	249.44
302.9	258.44
303.13	257.44
303.36	243.44
303.59	242.44
303.82	249.44
304.051	272.44
304.281	258.44
304.511	258.44
304.741	253.44
304.971	257.44
305.201	246.44
305.431	264.44
305.661	257.44
305.891	244.44
306.121	242.44
306.352	266.44
306.582	266.44
306.812	267.44
307.042	265.44
307.272	269.44
307.502	270.44
307.731	267.44
307.961	270.44
308.191	265.44
308.421	264.44
308.651	277.44
308.881	262.44
309.111	277.44
309.341	285.44
309.571	282.44
309.8	279.44
310.03	299.44
310.26	307.44
310.49	297.44
310.72	287.44
310.949	301.44
311.179	321.44
311.409	305.44
311.639	292.44
311.868	276.44
312.098	294.44
312.328	301.44
312.557	317.44
312.787	315.44
313.017	310.44
313.246	301.44
313.476	296.44
313.706	290.44
313.935	286.44
314.165	306.44
314.394	306.44
314.624	289.44
314.853	298.44
315.083	309.44
315.312	294.44
315.542	292.44
315.771	293.44
316.001	290.44
316.23	317.44
316.46	286.44
316.689	275.44
316.919	326.44
317.148	317.44
317.377	300.44
317.607	303.44
317.836	286.44
318.065	291.44
318.295	301.44
318.524	306.44
318.753	310.44
318.983	291.44
319.212	297.44
319.441	294.44
319.67	313.44
319.9	320.44
320.129	300.44
320.358	291.44
320.587	290.44
320.816	302.44
321.046	300.44
321.275	291.44
321.504	300.44
321.733	305.44
321.962	330.44
322.191	335.44
322.42	325.44
322.649	335.44
322.878	334.44
323.108	354.44
323.337	349.44
323.566	377.44
323.795	409.44
324.024	435.44
324.253	482.44
324.482	698.44
324.71	1038.44
324.939	1486.44
325.168	1303.44
325.397	682.44
325.626	458.44
325.855	400.44
326.084	379.44
326.313	372.44
326.542	400.44
326.77	408.44
326.999	463.44
327.228	631.44
327.457	957.44
327.686	1151.44
327.914	755.44
328.143	533.44
328.372	461.44
328.6	423.44
328.829	400.44
329.058	428.44
329.287	444.44
329.515	421.44
329.744	374.44
329.972	386.44
330.201	405.44
330.43	422.44
330.658	440.44
330.887	449.44
331.115	444.44
331.344	389.44
331.572	384.44
331.801	367.44
332.03	374.44
332.258	373.44
332.486	367.44
332.715	359.44
332.943	358.44
333.172	338.44
333.4	355.44
333.629	353.44
333.857	370.44
334.085	361.44
334.314	376.44
334.542	386.44
334.771	383.44
334.999	366.44
335.227	354.44
335.455	358.44
335.684	351.44
335.912	357.44
336.14	347.44
336.369	335.44
336.597	355.44
336.825	343.44
337.053	346.44
337.281	356.44
337.51	345.44
337.738	361.44
337.966	353.44
338.194	357.44
338.422	362.44
338.65	354.44
338.878	339.44
339.106	329.44
339.334	339.44
339.562	342.44
339.79	342.44
340.018	330.44
340.246	329.44
340.474	349.44
340.702	347.44
340.93	349.44
341.158	336.44
341.386	341.44
341.614	350.44
341.842	342.44
342.07	345.44
342.298	341.44
342.526	335.44
342.754	323.44
342.981	320.44
343.209	338.44
343.437	339.44
343.665	350.44
343.893	356.44
344.12	340.44
344.348	356.44
344.576	341.44
344.804	356.44
345.031	361.44
345.259	362.44
345.487	346.44
345.714	354.44
345.942	349.44
346.17	342.44
346.397	337.44
346.625	352.44
346.853	339.44
347.08	338.44
347.308	344.44
347.535	342.44
347.763	354.44
347.99	334.44
348.218	330.44
348.445	341.44
348.673	345.44
348.9	324.44
349.128	318.44
349.355	332.44
349.583	319.44
349.81	333.44
350.037	323.44
350.265	339.44
350.492	331.44
350.72	329.44
350.947	337.44
351.174	335.44
351.402	343.44
351.629	334.44
351.856	349.44
352.083	341.44
352.311	355.44
352.538	345.44
352.765	352.44
352.992	359.44
353.22	354.44
353.447	335.44
353.674	343.44
353.901	329.44
354.128	307.44
354.355	323.44
354.583	335.44
354.81	323.44
355.037	366.44
355.264	307.44
355.491	323.44
355.718	323.44
355.945	323.44
356.172	329.44
356.399	309.44
356.626	327.44
356.853	323.44
357.08	338.44
357.307	323.44
357.534	324.44
357.761	339.44
357.988	332.44
358.215	326.44
358.441	307.44
358.668	342.44
358.895	343.44
359.122	335.44
359.349	350.44
359.576	343.44
359.802	371.44
360.029	387.44
360.256	363.44
360.483	359.44
360.709	342.44
360.936	366.44
361.163	358.44
361.39	361.44
361.616	351.44
361.843	351.44
362.07	350.44
362.296	345.44
362.523	324.44
362.749	331.44
362.976	354.44
363.203	347.44
363.429	339.44
363.656	345.44
363.882	337.44
364.109	350.44
364.335	326.44
364.562	353.44
364.788	337.44
365.015	329.44
365.241	341.44
365.468	355.44
365.694	332.44
365.92	341.44
366.147	346.44
366.373	353.44
366.599	331.44
366.826	331.44
367.052	342.44
367.278	330.44
367.505	314.44
367.731	349.44
367.957	335.44
368.184	331.44
368.41	326.44
368.636	353.44
368.862	356.44
369.089	328.44
369.315	334.44
369.541	327.44
369.767	325.44
369.993	342.44
370.219	357.44
370.445	343.44
370.672	337.44
370.898	339.44
371.124	342.44
371.35	347.44
371.576	351.44
371.802	357.44
372.028	361.44
372.254	332.44
372.48	337.44
372.706	351.44
372.932	362.44
373.158	354.44
373.384	355.44
373.61	357.44
373.835	370.44
374.061	353.44
374.287	365.44
374.513	354.44
374.739	380.44
374.965	349.44
375.191	349.44
375.416	354.44
375.642	345.44
375.868	361.44
376.094	349.44
376.319	351.44
376.545	343.44
376.771	338.44
376.997	346.44
377.222	355.44
377.448	361.44
377.674	337.44
377.899	349.44
378.125	345.44
378.35	354.44
378.576	350.44
378.802	329.44
379.027	350.44
379.253	350.44
379.478	346.44
379.704	355.44
379.929	363.44
380.155	354.44
380.38	346.44
380.606	339.44
380.831	347.44
381.057	353.44
381.282	343.44
381.507	382.44
381.733	360.44
381.958	359.44
382.184	363.44
382.409	373.44
382.634	358.44
382.86	368.44
383.085	377.44
383.31	359.44
383.535	375.44
383.761	377.44
383.986	389.44
384.211	361.44
384.436	382.44
384.662	377.44
384.887	366.44
385.112	360.44
385.337	388.44
385.562	383.44
385.787	384.44
386.013	375.44
386.238	380.44
386.463	389.44
386.688	397.44
386.913	382.44
387.138	385.44
387.363	399.44
387.588	369.44
387.813	403.44
388.038	397.44
388.263	415.44
388.488	393.44
388.713	397.44
388.938	382.44
389.163	399.44
389.387	375.44
389.612	380.44
389.837	389.44
390.062	382.44
390.287	379.44
390.512	399.44
390.736	389.44
390.961	405.44
391.186	394.44
391.411	376.44
391.636	400.44
391.86	376.44
392.085	386.44
392.31	389.44
392.534	398.44
392.759	396.44
392.984	391.44
393.208	433.44
393.433	460.44
393.658	462.44
393.882	402.44
394.107	386.44
394.331	375.44
394.556	396.44
394.78	372.44
395.005	386.44
395.229	378.44
395.454	405.44
395.678	406.44
395.903	394.44
396.127	413.44
396.352	425.44
396.576	405.44
396.801	421.44
397.025	457.44
397.249	445.44
397.474	430.44
397.698	391.44
397.922	435.44
398.147	419.44
398.371	456.44
398.595	441.44
398.82	430.44
399.044	425.44
399.268	449.44
399.492	463.44
399.717	479.44
399.941	499.44
400.165	515.44
400.389	516.44
400.613	485.44
400.837	470.44
401.062	445.44
401.286	433.44
401.51	454.44
401.734	440.44
401.958	425.44
402.182	443.44
402.406	451.44
402.63	452.44
402.854	418.44
403.078	429.44
403.302	438.44
403.526	449.44
403.75	441.44
403.974	461.44
404.198	443.44
404.422	447.44
404.645	456.44
404.869	469.44
405.093	483.44
405.317	501.44
405.541	541.44
405.765	503.44
405.988	457.44
406.212	466.44
406.436	517.44
406.66	490.44
406.883	500.44
407.107	515.44
407.331	517.44
407.555	596.44
407.778	582.44
408.002	533.44
408.226	478.44
408.449	495.44
408.673	517.44
408.896	509.44
409.12	558.44
409.344	533.44
409.567	492.44
409.791	473.44
410.014	463.44
410.238	458.44
410.461	463.44
410.685	460.44
410.908	500.44
411.132	510.44
411.355	546.44
411.578	509.44
411.802	485.44
412.025	465.44
412.249	455.44
412.472	484.44
412.695	503.44
412.919	484.44
413.142	469.44
413.365	469.44
413.589	443.44
413.812	421.44
414.035	427.44
414.258	446.44
414.482	422.44
414.705	419.44
414.928	411.44
415.151	436.44
415.374	413.44
415.597	436.44
415.821	438.44
416.044	441.44
416.267	457.44
416.49	438.44
416.713	437.44
416.936	435.44
417.159	442.44
417.382	431.44
417.605	429.44
417.828	448.44
418.051	467.44
418.274	439.44
418.497	429.44
418.72	445.44
418.943	438.44
419.166	452.44
419.389	465.44
419.611	453.44
419.834	467.44
420.057	442.44
420.28	451.44
420.503	458.44
420.726	453.44
420.948	454.44
421.171	517.44
421.394	550.44
421.617	474.44
421.839	447.44
422.062	460.44
422.285	494.44
422.507	511.44
422.73	573.44
422.953	569.44
423.175	483.44
423.398	475.44
423.621	486.44
423.843	495.44
424.066	478.44
424.288	483.44
424.511	486.44
424.733	554.44
424.956	620.44
425.178	584.44
425.401	581.44
425.623	606.44
425.846	541.44
426.068	490.44
426.291	499.44
426.513	483.44
426.735	493.44
426.958	540.44
427.18	586.44
427.402	699.44
427.625	756.44
427.847	677.44
428.069	597.44
428.292	535.44
428.514	480.44
428.736	462.44
428.958	454.44
429.181	454.44
429.403	458.44
429.625	503.44
429.847	492.44
430.069	560.44
430.292	545.44
430.514	481.44
430.736	461.44
430.958	439.44
431.18	468.44
431.402	459.44
431.624	443.44
431.846	421.44
432.068	436.44
432.29	422.44
432.512	441.44
432.734	452.44
432.956	444.44
433.178	462.44
433.4	468.44
433.622	445.44
433.844	433.44
434.066	428.44
434.287	436.44
434.509	456.44
434.731	449.44
434.953	449.44
435.175	475.44
435.397	501.44
435.618	487.44
435.84	522.44
436.062	601.44
436.284	659.44
436.505	587.44
436.727	513.44
436.949	503.44
437.17	466.44
437.392	452.44
437.614	468.44
437.835	507.44
438.057	588.44
438.278	661.44
438.5	699.44
438.721	712.44
438.943	677.44
439.165	580.44
439.386	506.44
439.608	487.44
439.829	495.44
440.05	539.44
440.272	547.44
440.493	542.44
440.715	521.44
440.936	481.44
441.158	479.44
441.379	476.44
441.6	483.44
441.822	503.44
442.043	528.44
442.264	616.44
442.486	631.44
442.707	543.44
442.928	499.44
443.149	505.44
443.371	533.44
443.592	566.44
443.813	654.44
444.034	702.44
444.255	598.44
444.476	518.44
444.698	515.44
444.919	521.44
445.14	617.44
445.361	560.44
445.582	543.44
445.803	595.44
446.024	663.44
446.245	646.44
446.466	598.44
446.687	531.44
446.908	499.44
447.129	476.44
447.35	469.44
447.571	467.44
447.792	477.44
448.013	444.44
448.234	501.44
448.455	545.44
448.675	637.44
448.896	720.44
449.117	602.44
449.338	587.44
449.559	681.44
449.779	749.44
450	618.44
450.221	518.44
450.442	478.44
450.662	456.44
450.883	463.44
451.104	460.44
451.324	440.44
451.545	430.44
451.766	408.44
451.986	422.44
452.207	406.44
452.428	400.44
452.648	404.44
452.869	405.44
453.089	414.44
453.31	407.44
453.53	415.44
453.751	402.44
453.971	412.44
454.192	409.44
454.412	427.44
454.633	411.44
454.853	412.44
455.073	396.44
455.294	437.44
455.514	467.44
455.734	469.44
455.955	421.44
456.175	396.44
456.395	395.44
456.616	392.44
456.836	391.44
457.056	383.44
457.276	396.44
457.497	411.44
457.717	390.44
457.937	397.44
458.157	391.44
458.377	412.44
458.598	433.44
458.818	460.44
459.038	515.44
459.258	535.44
459.478	483.44
459.698	451.44
459.918	424.44
460.138	438.44
460.358	445.44
460.578	441.44
460.798	431.44
461.018	451.44
461.238	432.44
461.458	420.44
461.678	438.44
461.898	433.44
462.118	444.44
462.338	451.44
462.558	442.44
462.777	455.44
462.997	490.44
463.217	469.44
463.437	463.44
463.657	474.44
463.876	467.44
464.096	483.44
464.316	466.44
464.536	478.44
464.755	473.44
464.975	482.44
465.195	501.44
465.414	521.44
465.634	520.44
465.854	455.44
466.073	443.44
466.293	445.44
466.512	436.44
466.732	425.44
466.951	416.44
467.171	435.44
467.391	421.44
467.61	427.44
467.829	437.44
468.049	451.44
468.268	428.44
468.488	411.44
468.707	401.44
468.927	441.44
469.146	425.44
469.365	416.44
469.585	442.44
469.804	418.44
470.023	429.44
470.243	411.44
470.462	441.44
470.681	420.44
470.901	455.44
471.12	436.44
471.339	459.44
471.558	443.44
471.777	438.44
471.997	439.44
472.216	444.44
472.435	449.44
472.654	461.44
472.873	411.44
473.092	439.44
473.311	446.44
473.53	454.44
473.749	459.44
473.968	476.44
474.187	546.44
474.406	567.44
474.625	477.44
474.844	462.44
475.063	442.44
475.282	421.44
475.501	453.44
475.72	455.44
475.939	460.44
476.158	455.44
476.377	463.44
476.596	449.44
476.814	476.44
477.033	462.44
477.252	434.44
477.471	490.44
477.69	468.44
477.908	453.44
478.127	490.44
478.346	478.44
478.564	477.44
478.783	499.44
479.002	494.44
479.22	510.44
479.439	523.44
479.658	506.44
479.876	554.44
480.095	535.44
480.313	541.44
480.532	509.44
480.751	540.44
480.969	531.44
481.188	554.44
481.406	568.44
481.624	541.44
481.843	521.44
482.061	511.44
482.28	525.44
482.498	520.44
482.717	516.44
482.935	500.44
483.153	534.44
483.372	533.44
483.59	523.44
483.808	521.44
484.027	521.44
484.245	532.44
484.463	528.44
484.681	523.44
484.9	523.44
485.118	530.44
485.336	536.44
485.554	506.44
485.772	521.44
485.99	518.44
486.209	555.44
486.427	534.44
486.645	554.44
486.863	566.44
487.081	572.44
487.299	564.44
487.517	566.44
487.735	549.44
487.953	557.44
488.171	569.44
488.389	557.44
488.607	548.44
488.825	564.44
489.043	589.44
489.261	571.44
489.479	572.44
489.696	574.44
489.914	562.44
490.132	600.44
490.35	570.44
490.568	603.44
490.786	607.44
491.003	606.44
491.221	604.44
491.439	594.44
491.657	617.44
491.874	639.44
492.092	633.44
492.31	630.44
492.527	651.44
492.745	638.44
492.963	655.44
493.18	657.44
493.398	651.44
493.615	649.44
493.833	666.44
494.05	643.44
494.268	641.44
494.485	682.44
494.703	682.44
494.92	666.44
495.138	678.44
495.355	666.44
495.573	676.44
495.79	678.44
496.008	687.44
496.225	677.44
496.442	685.44
496.66	684.44
496.877	666.44
497.094	693.44
497.312	673.44
497.529	691.44
497.746	691.44
497.963	686.44
498.181	739.44
498.398	715.44
498.615	753.44
498.832	728.44
499.049	766.44
499.267	756.44
499.484	795.44
499.701	806.44
499.918	833.44
500.135	851.44
500.352	852.44
500.569	916.44
500.786	893.44
501.003	882.44
501.22	851.44
501.437	843.44
501.654	852.44
501.871	851.44
502.088	807.44
502.305	776.44
502.522	741.44
502.739	745.44
502.956	710.44
503.172	713.44
503.389	717.44
503.606	701.44
503.823	693.44
504.04	721.44
504.256	707.44
504.473	673.44
504.69	654.44
504.907	664.44
505.123	643.44
505.34	655.44
505.557	664.44
505.773	665.44
505.99	630.44
506.207	633.44
506.423	650.44
506.64	601.44
506.856	635.44
507.073	633.44
507.289	631.44
507.506	630.44
507.722	605.44
507.939	649.44
508.155	614.44
508.372	600.44
508.588	597.44
508.805	577.44
509.021	590.44
509.238	607.44
509.454	607.44
509.67	609.44
509.887	624.44
510.103	608.44
510.319	630.44
510.536	669.44
510.752	979.44
510.968	817.44
511.184	622.44
511.401	578.44
511.617	587.44
511.833	609.44
512.049	573.44
512.265	573.44
512.481	561.44
512.698	530.44
512.914	597.44
513.13	585.44
513.346	580.44
513.562	562.44
513.778	577.44
513.994	578.44
514.21	563.44
514.426	582.44
514.642	608.44
514.858	639.44
515.074	666.44
515.29	765.44
515.506	1029.44
515.721	869.44
515.937	659.44
516.153	621.44
516.369	609.44
516.585	591.44
516.801	612.44
517.016	581.44
517.232	593.44
517.448	589.44
517.664	602.44
517.879	617.44
518.095	587.44
518.311	575.44
518.527	575.44
518.742	590.44
518.958	585.44
519.173	558.44
519.389	569.44
519.605	566.44
519.82	561.44
520.036	558.44
520.251	580.44
520.467	615.44
520.682	605.44
520.898	625.44
521.113	624.44
521.329	662.44
521.544	681.44
521.76	824.44
521.975	1250.44
522.19	1278.44
522.406	770.44
522.621	619.44
522.836	600.44
523.052	555.44
523.267	549.44
523.482	552.44
523.698	532.44
523.913	537.44
524.128	539.44
524.343	494.44
524.559	515.44
524.774	498.44
524.989	506.44
525.204	527.44
525.419	518.44
525.634	503.44
525.849	516.44
526.064	482.44
526.28	486.44
526.495	477.44
526.71	449.44
526.925	485.44
527.14	474.44
527.355	462.44
527.57	489.44
527.785	504.44
527.999	490.44
528.214	487.44
528.429	499.44
528.644	471.44
528.859	474.44
529.074	479.44
529.289	502.44
529.503	552.44
529.718	522.44
529.933	479.44
530.148	478.44
530.363	469.44
530.577	478.44
530.792	466.44
531.007	478.44
531.221	464.44
531.436	463.44
531.651	468.44
531.865	463.44
532.08	467.44
532.295	481.44
532.509	439.44
532.724	462.44
532.938	452.44
533.153	448.44
533.367	456.44
533.582	465.44
533.796	467.44
534.011	444.44
534.225	455.44
534.44	458.44
534.654	455.44
534.868	454.44
535.083	454.44
535.297	441.44
535.511	456.44
535.726	460.44
535.94	469.44
536.154	456.44
536.369	433.44
536.583	424.44
536.797	445.44
537.011	437.44
537.225	427.44
537.44	452.44
537.654	465.44
537.868	446.44
538.082	440.44
538.296	430.44
538.51	434.44
538.724	439.44
538.938	435.44
539.153	441.44
539.367	463.44
539.581	444.44
539.795	439.44
540.009	451.44
540.222	428.44
540.436	453.44
540.65	440.44
540.864	446.44
541.078	428.44
541.292	445.44
541.506	444.44
541.72	453.44
541.934	436.44
542.147	453.44
542.361	457.44
542.575	431.44
542.789	449.44
543.002	449.44
543.216	439.44
543.43	424.44
543.644	457.44
543.857	427.44
544.071	436.44
544.285	446.44
544.498	433.44
544.712	431.44
544.925	442.44
545.139	452.44
545.352	436.44
545.566	418.44
545.779	438.44
545.993	443.44
546.206	439.44
546.42	430.44
546.633	451.44
546.847	445.44
547.06	424.44
547.274	433.44
547.487	443.44
547.7	457.44
547.914	436.44
548.127	426.44
548.34	422.44
548.554	424.44
548.767	408.44
548.98	435.44
549.193	441.44
549.407	415.44
549.62	420.44
549.833	438.44
550.046	439.44
550.259	428.44
550.473	407.44
550.686	413.44
550.899	405.44
551.112	413.44
551.325	433.44
551.538	415.44
551.751	427.44
551.964	403.44
552.177	418.44
552.39	417.44
552.603	421.44
552.816	417.44
553.029	433.44
553.242	438.44
553.455	435.44
553.667	453.44
553.88	440.44
554.093	420.44
554.306	442.44
554.519	407.44
554.732	397.44
554.944	415.44
555.157	404.44
555.37	399.44
555.583	392.44
555.795	417.44
556.008	398.44
556.221	417.44
556.433	386.44
556.646	386.44
556.859	380.44
557.071	410.44
557.284	410.44
557.496	395.44
557.709	391.44
557.921	408.44
558.134	382.44
558.346	385.44
558.559	399.44
558.771	392.44
558.984	372.44
559.196	397.44
559.409	383.44
559.621	372.44
559.833	371.44
560.046	389.44
560.258	377.44
560.47	375.44
560.683	389.44
560.895	365.44
561.107	373.44
561.32	385.44
561.532	391.44
561.744	376.44
561.956	391.44
562.168	364.44
562.381	360.44
562.593	363.44
562.805	378.44
563.017	381.44
563.229	369.44
563.441	386.44
563.653	389.44
563.865	396.44
564.077	377.44
564.289	378.44
564.501	403.44
564.713	399.44
564.925	382.44
565.137	406.44
565.349	405.44
565.561	398.44
565.773	398.44
565.985	414.44
566.197	435.44
566.408	447.44
566.62	438.44
566.832	443.44
567.044	433.44
567.255	428.44
567.467	460.44
567.679	426.44
567.891	433.44
568.102	433.44
568.314	422.44
568.526	439.44
568.737	427.44
568.949	401.44
569.161	388.44
569.372	393.44
569.584	379.44
569.795	380.44
570.007	389.44
570.218	401.44
570.43	395.44
570.641	372.44
570.853	354.44
571.064	353.44
571.276	360.44
571.487	369.44
571.698	377.44
571.91	357.44
572.121	344.44
572.333	346.44
572.544	320.44
572.755	347.44
572.966	347.44
573.178	337.44
573.389	339.44
573.6	343.44
573.811	335.44
574.023	332.44
574.234	333.44
574.445	338.44
574.656	345.44
574.867	319.44
575.078	331.44
575.289	335.44
575.501	326.44
575.712	329.44
575.923	322.44
576.134	345.44
576.345	312.44
576.556	323.44
576.767	312.44
576.978	324.44
577.188	325.44
577.399	315.44
577.61	327.44
577.821	305.44
578.032	320.44
578.243	338.44
578.454	477.44
578.665	385.44
578.875	306.44
579.086	303.44
579.297	317.44
579.508	315.44
579.718	289.44
579.929	300.44
580.14	293.44
580.35	307.44
580.561	303.44
580.772	295.44
580.982	302.44
581.193	295.44
581.403	302.44
581.614	298.44
581.825	308.44
582.035	281.44
582.246	311.44
582.456	300.44
582.667	316.44
582.877	293.44
583.087	285.44
583.298	294.44
583.508	294.44
583.719	300.44
583.929	292.44
584.139	285.44
584.35	276.44
584.56	316.44
584.77	295.44
584.981	289.44
585.191	301.44
585.401	308.44
585.611	294.44
585.821	290.44
586.032	294.44
586.242	273.44
586.452	280.44
586.662	284.44
586.872	289.44
587.082	290.44
587.292	285.44
587.502	284.44
587.713	282.44
587.923	289.44
588.133	299.44
588.343	297.44
588.553	305.44
588.762	283.44
588.972	288.44
589.182	319.44
589.392	307.44
589.602	289.44
589.812	294.44
590.022	284.44
590.232	306.44
590.441	305.44
590.651	284.44
590.861	289.44
591.071	283.44
591.281	275.44
591.49	276.44
591.7	275.44
591.91	305.44
592.119	329.44
592.329	293.44
592.539	294.44
592.748	302.44
592.958	300.44
593.167	294.44
593.377	296.44
593.587	300.44
593.796	314.44
594.006	297.44
594.215	295.44
594.424	278.44
594.634	292.44
594.843	298.44
595.053	298.44
595.262	298.44
595.472	280.44
595.681	284.44
595.89	284.44
596.1	267.44
596.309	274.44
596.518	271.44
596.727	275.44
596.937	286.44
597.146	274.44
597.355	287.44
597.564	291.44
597.774	259.44
597.983	251.44
598.192	262.44
598.401	245.44
598.61	254.44
598.819	256.44
599.028	282.44
599.237	244.44
599.446	253.44
599.655	270.44
599.864	249.44
600.073	258.44
600.282	251.44
600.491	272.44
600.7	256.44
600.909	232.44
601.118	259.44
601.327	250.44
601.536	260.44
601.745	265.44
601.953	251.44
602.162	269.44
602.371	235.44
602.58	261.44
602.789	266.44
602.997	259.44
603.206	243.44
603.415	258.44
603.623	260.44
603.832	230.44
604.041	233.44
604.249	230.44
604.458	243.44
604.666	248.44
604.875	249.44
605.084	263.44
605.292	245.44
605.501	262.44
605.709	244.44
605.918	245.44
606.126	250.44
606.334	245.44
606.543	238.44
606.751	244.44
606.96	234.44
607.168	241.44
607.376	230.44
607.585	243.44
607.793	233.44
608.001	237.44
608.21	237.44
608.418	246.44
608.626	235.44
608.834	245.44
609.043	233.44
609.251	243.44
609.459	241.44
609.667	255.44
609.875	258.44
610.083	229.44
610.291	241.44
610.499	234.44
610.707	245.44
610.916	248.44
611.124	243.44
611.332	264.44
611.54	245.44
611.748	254.44
611.955	246.44
612.163	226.44
612.371	243.44
612.579	241.44
612.787	253.44
612.995	240.44
613.203	230.44
613.411	227.44
613.618	245.44
613.826	220.44
614.034	223.44
614.242	237.44
614.449	233.44
614.657	246.44
614.865	215.44
615.072	225.44
615.28	234.44
615.488	229.44
615.695	237.44
615.903	238.44
616.111	216.44
616.318	235.44
616.526	246.44
616.733	227.44
616.941	236.44
617.148	216.44
617.356	234.44
617.563	227.44
617.771	234.44
617.978	221.44
618.185	230.44
618.393	222.44
618.6	223.44
618.807	237.44
619.015	218.44
619.222	230.44
619.429	218.44
619.637	222.44
619.844	213.44
620.051	231.44
620.258	221.44
620.466	223.44
620.673	219.44
620.88	226.44
621.087	228.44
621.294	220.44
621.501	232.44
621.708	226.44
621.915	206.44
622.122	226.44
622.329	219.44
622.536	221.44
622.743	213.44
622.95	209.44
623.157	215.44
623.364	236.44
623.571	223.44
623.778	205.44
623.985	227.44
624.192	213.44
624.399	216.44
624.606	206.44
624.812	218.44
625.019	219.44
625.226	219.44
625.433	197.44
625.639	200.44
625.846	194.44
626.053	213.44
626.259	214.44
626.466	211.44
626.673	204.44
626.879	195.44
627.086	205.44
627.293	197.44
627.499	217.44
627.706	230.44
627.912	216.44
628.119	205.44
628.325	210.44
628.532	203.44
628.738	202.44
628.945	207.44
629.151	211.44
629.357	196.44
629.564	198.44
629.77	194.44
629.976	199.44
630.183	193.44
630.389	180.44
630.595	218.44
630.802	203.44
631.008	195.44
631.214	197.44
631.42	185.44
631.627	202.44
631.833	200.44
632.039	185.44
632.245	200.44
632.451	195.44
632.657	201.44
632.863	189.44
633.069	184.44
633.275	183.44
633.481	177.44
633.688	170.44
633.893	174.44
634.099	197.44
634.305	196.44
634.511	185.44
634.717	172.44
634.923	171.44
635.129	172.44
635.335	180.44
635.541	177.44
635.747	192.44
635.952	166.44
636.158	175.44
636.364	183.44
636.57	172.44
636.775	183.44
636.981	181.44
637.187	192.44
637.392	174.44
637.598	185.44
637.804	178.44
638.009	176.44
638.215	181.44
638.421	166.44
638.626	175.44
638.832	179.44
639.037	181.44
639.243	171.44
639.448	181.44
639.654	185.44
639.859	181.44
640.065	159.44
640.27	174.44
640.475	177.44
640.681	180.44
640.886	187.44
641.091	169.44
641.297	169.44
641.502	182.44
641.707	181.44
641.913	174.44
642.118	174.44
642.323	164.44
642.528	181.44
642.733	154.44
642.939	180.44
643.144	155.44
643.349	166.44
643.554	165.44
643.759	165.44
643.964	163.44
644.169	171.44
644.374	168.44
644.579	155.44
644.784	170.44
644.989	170.44
645.194	162.44
645.399	164.44
645.604	156.44
645.809	157.44
646.014	157.44
646.219	158.44
646.423	165.44
646.628	174.44
646.833	155.44
647.038	172.44
647.243	172.44
647.447	159.44
647.652	165.44
647.857	165.44
648.062	154.44
648.266	170.44
648.471	171.44
648.676	168.44
648.88	176.44
649.085	171.44
649.289	170.44
649.494	147.44
649.698	162.44
649.903	173.44
650.107	177.44
650.312	169.44
650.516	177.44
650.721	167.44
650.925	156.44
651.13	153.44
651.334	145.44
651.539	161.44
651.743	138.44
651.947	155.44
652.152	149.44
652.356	143.44
652.56	143.44
652.764	152.44
652.969	149.44
653.173	132.44
653.377	139.44
653.581	142.44
653.785	133.44
653.99	141.44
654.194	144.44
654.398	149.44
654.602	134.44
654.806	134.44
655.01	136.44
655.214	125.44
655.418	126.44
655.622	141.44
655.826	136.44
656.03	119.44
656.234	148.44
656.438	131.44
656.642	139.44
656.846	132.44
657.049	137.44
657.253	111.44
657.457	114.44
657.661	124.44
657.865	106.44
658.068	113.44
658.272	109.44
658.476	105.44
658.68	108.44
658.883	110.44
659.087	115.44
659.291	93.44
659.494	93.44
659.698	108.44
659.901	92.44
660.105	99.44
660.309	86.44
660.512	108.44
660.716	94.44
660.919	105.44
661.123	105.44
661.326	92.44
661.53	97.44
661.733	89.44
661.936	88.44
662.14	86.44
662.343	87.44
662.546	95.44
662.75	86.44
662.953	86.44
663.156	63.44
663.36	73.44
663.563	89.44
663.766	86.44
663.969	85.44
664.173	78.44
664.376	86.44
664.579	82.44
664.782	85.44
664.985	80.44
665.188	98.44
665.391	79.44
665.594	86.44
665.797	76.44
666	83.44
666.203	68.44
666.406	75.44
666.609	77.44
666.812	80.44
667.015	83.44
667.218	80.44
667.421	83.44
667.624	70.44
667.827	89.44
668.03	99.44
668.232	87.44
668.435	80.44
668.638	83.44
668.841	97.44
669.043	66.44
669.246	79.44
669.449	72.44
669.651	83.44
669.854	77.44
670.057	79.44
670.259	69.44
670.462	73.44
670.665	92.44
670.867	87.44
671.07	92.44
671.272	78.44
671.475	87.44
671.677	81.44
671.88	79.44
672.082	93.44
672.284	77.44
672.487	80.44
672.689	105.44
672.892	90.44
