Data from 1970.PennyLincolnUp.Lamp.En5.5.200Scan.071719.P1._HRD10591_15-14-45-842.txt Node
Date: Thu Jul 18 15:14:45 EDT 2019
User: cochatt
Spectrometer: HR+D1059
Trigger mode: 1
Integration Time (sec): 1.000000E-1
Scans to average: 1
Electric dark correction enabled: true
Nonlinearity correction enabled: false
Boxcar width: 0
XAxis mode: Wavelengths
Number of Pixels in Spectrum: 2048
>>>>>Begin Spectral Data<<<<<
223.165	-8.38
223.4	-8.38
223.635	-8.38
223.869	-21.38
224.104	-18.38
224.338	-8.38
224.573	-13.38
224.808	-8.38
225.042	-10.38
225.277	-14.38
225.511	-0.38
225.746	-3.38
225.98	19.62
226.215	8.62
226.449	12.62
226.683	22.62
226.918	25.62
227.152	17.62
227.387	37.62
227.621	31.62
227.856	41.62
228.09	56.62
228.324	44.62
228.559	56.62
228.793	72.62
229.027	109.62
229.262	118.62
229.496	130.62
229.73	157.62
229.964	175.62
230.199	156.62
230.433	136.62
230.667	122.62
230.901	127.62
231.136	122.62
231.37	116.62
231.604	124.62
231.838	117.62
232.072	108.62
232.306	114.62
232.541	112.62
232.775	115.62
233.009	128.62
233.243	131.62
233.477	118.62
233.711	126.62
233.945	138.62
234.179	128.62
234.413	126.62
234.647	111.62
234.881	120.62
235.115	129.62
235.349	143.62
235.583	109.62
235.817	134.62
236.051	139.62
236.285	131.62
236.519	144.62
236.753	157.62
236.987	152.62
237.221	197.62
237.455	257.62
237.689	214.62
237.922	172.62
238.156	152.62
238.39	142.62
238.624	134.62
238.858	146.62
239.091	123.62
239.325	138.62
239.559	125.62
239.793	141.62
240.027	139.62
240.26	147.62
240.494	159.62
240.728	159.62
240.961	152.62
241.195	165.62
241.429	169.62
241.662	133.62
241.896	144.62
242.13	144.62
242.363	153.62
242.597	132.62
242.83	151.62
243.064	137.62
243.298	160.62
243.531	154.62
243.765	163.62
243.998	151.62
244.232	163.62
244.465	160.62
244.699	160.62
244.932	144.62
245.166	151.62
245.399	153.62
245.633	141.62
245.866	159.62
246.099	153.62
246.333	150.62
246.566	164.62
246.8	172.62
247.033	166.62
247.266	162.62
247.5	172.62
247.733	179.62
247.966	191.62
248.2	200.62
248.433	190.62
248.666	197.62
248.899	198.62
249.133	219.62
249.366	231.62
249.599	224.62
249.832	205.62
250.066	205.62
250.299	213.62
250.532	216.62
250.765	239.62
250.998	254.62
251.231	256.62
251.465	252.62
251.698	233.62
251.931	214.62
252.164	210.62
252.397	224.62
252.63	226.62
252.863	224.62
253.096	228.62
253.329	255.62
253.562	262.62
253.795	255.62
254.028	262.62
254.261	241.62
254.494	247.62
254.727	279.62
254.96	316.62
255.193	306.62
255.426	284.62
255.659	275.62
255.892	260.62
256.124	268.62
256.357	281.62
256.59	267.62
256.823	240.62
257.056	242.62
257.289	242.62
257.521	242.62
257.754	247.62
257.987	225.62
258.22	222.62
258.452	225.62
258.685	224.62
258.918	224.62
259.151	223.62
259.383	239.62
259.616	231.62
259.849	246.62
260.081	254.62
260.314	280.62
260.547	301.62
260.779	269.62
261.012	264.62
261.244	244.62
261.477	277.62
261.71	235.62
261.942	262.62
262.175	262.62
262.407	263.62
262.64	239.62
262.872	226.62
263.105	227.62
263.337	220.62
263.57	231.62
263.802	252.62
264.035	227.62
264.267	235.62
264.499	230.62
264.732	229.62
264.964	228.62
265.197	216.62
265.429	212.62
265.661	223.62
265.894	224.62
266.126	231.62
266.358	239.62
266.591	223.62
266.823	254.62
267.055	246.62
267.287	230.62
267.52	219.62
267.752	248.62
267.984	246.62
268.216	258.62
268.448	243.62
268.681	260.62
268.913	248.62
269.145	272.62
269.377	291.62
269.609	285.62
269.841	280.62
270.073	286.62
270.306	318.62
270.538	347.62
270.77	351.62
271.002	333.62
271.234	324.62
271.466	322.62
271.698	348.62
271.93	319.62
272.162	319.62
272.394	345.62
272.626	342.62
272.858	322.62
273.09	316.62
273.322	295.62
273.553	298.62
273.785	287.62
274.017	271.62
274.249	294.62
274.481	262.62
274.713	284.62
274.945	291.62
275.176	272.62
275.408	255.62
275.64	279.62
275.872	259.62
276.104	278.62
276.335	268.62
276.567	284.62
276.799	311.62
277.031	319.62
277.262	355.62
277.494	347.62
277.726	323.62
277.957	297.62
278.189	290.62
278.421	258.62
278.652	279.62
278.884	273.62
279.115	270.62
279.347	279.62
279.579	283.62
279.81	296.62
280.042	275.62
280.273	278.62
280.505	294.62
280.736	267.62
280.968	269.62
281.199	264.62
281.431	282.62
281.662	250.62
281.894	267.62
282.125	274.62
282.356	306.62
282.588	311.62
282.819	303.62
283.051	291.62
283.282	266.62
283.513	270.62
283.745	264.62
283.976	276.62
284.207	278.62
284.439	268.62
284.67	283.62
284.901	265.62
285.132	265.62
285.364	279.62
285.595	279.62
285.826	274.62
286.057	279.62
286.288	284.62
286.52	272.62
286.751	281.62
286.982	273.62
287.213	274.62
287.444	279.62
287.675	304.62
287.906	290.62
288.138	306.62
288.369	310.62
288.6	294.62
288.831	296.62
289.062	296.62
289.293	298.62
289.524	294.62
289.755	297.62
289.986	294.62
290.217	296.62
290.448	279.62
290.679	269.62
290.91	284.62
291.141	293.62
291.371	288.62
291.602	292.62
291.833	293.62
292.064	281.62
292.295	291.62
292.526	300.62
292.757	296.62
292.987	281.62
293.218	281.62
293.449	286.62
293.68	300.62
293.91	300.62
294.141	298.62
294.372	298.62
294.603	287.62
294.833	302.62
295.064	298.62
295.295	293.62
295.525	313.62
295.756	306.62
295.987	304.62
296.217	348.62
296.448	355.62
296.679	334.62
296.909	294.62
297.14	288.62
297.37	283.62
297.601	283.62
297.831	311.62
298.062	310.62
298.292	309.62
298.523	303.62
298.753	301.62
298.984	300.62
299.214	308.62
299.445	298.62
299.675	313.62
299.905	342.62
300.136	322.62
300.366	310.62
300.597	320.62
300.827	312.62
301.057	316.62
301.288	335.62
301.518	325.62
301.748	327.62
301.979	341.62
302.209	330.62
302.439	345.62
302.669	318.62
302.9	321.62
303.13	329.62
303.36	327.62
303.59	316.62
303.82	333.62
304.051	338.62
304.281	320.62
304.511	312.62
304.741	330.62
304.971	326.62
305.201	299.62
305.431	329.62
305.661	330.62
305.891	324.62
306.121	323.62
306.352	358.62
306.582	334.62
306.812	347.62
307.042	334.62
307.272	333.62
307.502	340.62
307.731	332.62
307.961	320.62
308.191	340.62
308.421	342.62
308.651	333.62
308.881	334.62
309.111	352.62
309.341	359.62
309.571	350.62
309.8	359.62
310.03	392.62
310.26	386.62
310.49	387.62
310.72	380.62
310.949	408.62
311.179	408.62
311.409	406.62
311.639	397.62
311.868	400.62
312.098	406.62
312.328	422.62
312.557	432.62
312.787	456.62
313.017	427.62
313.246	419.62
313.476	387.62
313.706	387.62
313.935	385.62
314.165	413.62
314.394	434.62
314.624	404.62
314.853	408.62
315.083	408.62
315.312	403.62
315.542	400.62
315.771	394.62
316.001	371.62
316.23	379.62
316.46	383.62
316.689	386.62
316.919	403.62
317.148	406.62
317.377	418.62
317.607	405.62
317.836	398.62
318.065	392.62
318.295	386.62
318.524	382.62
318.753	378.62
318.983	384.62
319.212	392.62
319.441	410.62
319.67	399.62
319.9	392.62
320.129	377.62
320.358	396.62
320.587	383.62
320.816	412.62
321.046	424.62
321.275	427.62
321.504	434.62
321.733	424.62
321.962	440.62
322.191	447.62
322.42	466.62
322.649	473.62
322.878	511.62
323.108	515.62
323.337	526.62
323.566	557.62
323.795	599.62
324.024	671.62
324.253	799.62
324.482	1165.62
324.71	1748.62
324.939	2509.62
325.168	2214.62
325.397	1181.62
325.626	758.62
325.855	629.62
326.084	566.62
326.313	559.62
326.542	590.62
326.77	606.62
326.999	743.62
327.228	1024.62
327.457	1538.62
327.686	1899.62
327.914	1309.62
328.143	855.62
328.372	728.62
328.6	677.62
328.829	657.62
329.058	665.62
329.287	675.62
329.515	624.62
329.744	574.62
329.972	580.62
330.201	583.62
330.43	644.62
330.658	690.62
330.887	709.62
331.115	684.62
331.344	582.62
331.572	544.62
331.801	552.62
332.03	546.62
332.258	516.62
332.486	476.62
332.715	491.62
332.943	468.62
333.172	480.62
333.4	466.62
333.629	505.62
333.857	514.62
334.085	534.62
334.314	527.62
334.542	573.62
334.771	592.62
334.999	547.62
335.227	480.62
335.455	472.62
335.684	464.62
335.912	467.62
336.14	453.62
336.369	470.62
336.597	461.62
336.825	466.62
337.053	461.62
337.281	447.62
337.51	444.62
337.738	446.62
337.966	444.62
338.194	443.62
338.422	474.62
338.65	459.62
338.878	430.62
339.106	444.62
339.334	442.62
339.562	416.62
339.79	428.62
340.018	431.62
340.246	457.62
340.474	450.62
340.702	446.62
340.93	438.62
341.158	443.62
341.386	448.62
341.614	468.62
341.842	449.62
342.07	428.62
342.298	444.62
342.526	407.62
342.754	434.62
342.981	424.62
343.209	447.62
343.437	429.62
343.665	446.62
343.893	442.62
344.12	442.62
344.348	461.62
344.576	438.62
344.804	454.62
345.031	464.62
345.259	482.62
345.487	468.62
345.714	468.62
345.942	462.62
346.17	436.62
346.397	430.62
346.625	439.62
346.853	444.62
347.08	447.62
347.308	462.62
347.535	467.62
347.763	454.62
347.99	466.62
348.218	460.62
348.445	469.62
348.673	466.62
348.9	442.62
349.128	454.62
349.355	420.62
349.583	418.62
349.81	420.62
350.037	435.62
350.265	428.62
350.492	410.62
350.72	432.62
350.947	445.62
351.174	464.62
351.402	478.62
351.629	456.62
351.856	441.62
352.083	472.62
352.311	451.62
352.538	472.62
352.765	453.62
352.992	458.62
353.22	471.62
353.447	455.62
353.674	444.62
353.901	418.62
354.128	427.62
354.355	413.62
354.583	410.62
354.81	413.62
355.037	445.62
355.264	400.62
355.491	393.62
355.718	411.62
355.945	419.62
356.172	437.62
356.399	404.62
356.626	406.62
356.853	440.62
357.08	396.62
357.307	419.62
357.534	409.62
357.761	403.62
357.988	420.62
358.215	405.62
358.441	407.62
358.668	429.62
358.895	424.62
359.122	414.62
359.349	429.62
359.576	460.62
359.802	479.62
360.029	515.62
360.256	540.62
360.483	534.62
360.709	457.62
360.936	472.62
361.163	454.62
361.39	487.62
361.616	447.62
361.843	438.62
362.07	447.62
362.296	464.62
362.523	435.62
362.749	440.62
362.976	455.62
363.203	444.62
363.429	413.62
363.656	436.62
363.882	416.62
364.109	427.62
364.335	425.62
364.562	427.62
364.788	431.62
365.015	412.62
365.241	401.62
365.468	420.62
365.694	429.62
365.92	438.62
366.147	426.62
366.373	422.62
366.599	429.62
366.826	411.62
367.052	424.62
367.278	428.62
367.505	423.62
367.731	431.62
367.957	431.62
368.184	434.62
368.41	430.62
368.636	438.62
368.862	444.62
369.089	444.62
369.315	437.62
369.541	435.62
369.767	429.62
369.993	432.62
370.219	416.62
370.445	424.62
370.672	435.62
370.898	437.62
371.124	431.62
371.35	440.62
371.576	422.62
371.802	418.62
372.028	428.62
372.254	423.62
372.48	421.62
372.706	429.62
372.932	436.62
373.158	431.62
373.384	414.62
373.61	456.62
373.835	420.62
374.061	436.62
374.287	410.62
374.513	438.62
374.739	429.62
374.965	426.62
375.191	442.62
375.416	425.62
375.642	438.62
375.868	422.62
376.094	436.62
376.319	401.62
376.545	438.62
376.771	444.62
376.997	418.62
377.222	427.62
377.448	415.62
377.674	430.62
377.899	439.62
378.125	426.62
378.35	412.62
378.576	429.62
378.802	430.62
379.027	433.62
379.253	418.62
379.478	424.62
379.704	406.62
379.929	436.62
380.155	429.62
380.38	429.62
380.606	428.62
380.831	441.62
381.057	430.62
381.282	428.62
381.507	429.62
381.733	435.62
381.958	414.62
382.184	404.62
382.409	452.62
382.634	435.62
382.86	442.62
383.085	426.62
383.31	431.62
383.535	412.62
383.761	435.62
383.986	439.62
384.211	463.62
384.436	425.62
384.662	463.62
384.887	451.62
385.112	421.62
385.337	430.62
385.562	446.62
385.787	452.62
386.013	459.62
386.238	468.62
386.463	478.62
386.688	448.62
386.913	440.62
387.138	442.62
387.363	468.62
387.588	469.62
387.813	451.62
388.038	463.62
388.263	475.62
388.488	449.62
388.713	451.62
388.938	463.62
389.163	466.62
389.387	459.62
389.612	455.62
389.837	423.62
390.062	460.62
390.287	448.62
390.512	464.62
390.736	470.62
390.961	451.62
391.186	447.62
391.411	447.62
391.636	443.62
391.86	467.62
392.085	471.62
392.31	464.62
392.534	445.62
392.759	459.62
392.984	469.62
393.208	459.62
393.433	486.62
393.658	464.62
393.882	480.62
394.107	467.62
394.331	457.62
394.556	468.62
394.78	464.62
395.005	476.62
395.229	478.62
395.454	469.62
395.678	470.62
395.903	494.62
396.127	497.62
396.352	510.62
396.576	492.62
396.801	502.62
397.025	498.62
397.249	501.62
397.474	490.62
397.698	490.62
397.922	528.62
398.147	519.62
398.371	528.62
398.595	504.62
398.82	526.62
399.044	529.62
399.268	534.62
399.492	540.62
399.717	577.62
399.941	614.62
400.165	629.62
400.389	662.62
400.613	603.62
400.837	557.62
401.062	536.62
401.286	562.62
401.51	538.62
401.734	516.62
401.958	536.62
402.182	522.62
402.406	533.62
402.63	548.62
402.854	550.62
403.078	554.62
403.302	555.62
403.526	532.62
403.75	539.62
403.974	551.62
404.198	541.62
404.422	534.62
404.645	567.62
404.869	575.62
405.093	587.62
405.317	656.62
405.541	688.62
405.765	640.62
405.988	545.62
406.212	588.62
406.436	646.62
406.66	642.62
406.883	622.62
407.107	599.62
407.331	649.62
407.555	710.62
407.778	748.62
408.002	686.62
408.226	624.62
408.449	607.62
408.673	609.62
408.896	641.62
409.12	674.62
409.344	655.62
409.567	592.62
409.791	570.62
410.014	557.62
410.238	549.62
410.461	549.62
410.685	576.62
410.908	582.62
411.132	616.62
411.355	662.62
411.578	615.62
411.802	562.62
412.025	560.62
412.249	558.62
412.472	591.62
412.695	623.62
412.919	611.62
413.142	591.62
413.365	565.62
413.589	546.62
413.812	538.62
414.035	532.62
414.258	536.62
414.482	532.62
414.705	532.62
414.928	509.62
415.151	550.62
415.374	532.62
415.597	515.62
415.821	524.62
416.044	518.62
416.267	548.62
416.49	517.62
416.713	534.62
416.936	521.62
417.159	507.62
417.382	522.62
417.605	538.62
417.828	560.62
418.051	555.62
418.274	542.62
418.497	539.62
418.72	527.62
418.943	536.62
419.166	552.62
419.389	600.62
419.611	565.62
419.834	559.62
420.057	591.62
420.28	572.62
420.503	581.62
420.726	562.62
420.948	588.62
421.171	623.62
421.394	664.62
421.617	616.62
421.839	586.62
422.062	572.62
422.285	580.62
422.507	615.62
422.73	727.62
422.953	672.62
423.175	597.62
423.398	618.62
423.621	587.62
423.843	601.62
424.066	623.62
424.288	614.62
424.511	639.62
424.733	682.62
424.956	803.62
425.178	740.62
425.401	759.62
425.623	749.62
425.846	687.62
426.068	628.62
426.291	634.62
426.513	621.62
426.735	638.62
426.958	694.62
427.18	776.62
427.402	878.62
427.625	976.62
427.847	896.62
428.069	807.62
428.292	702.62
428.514	656.62
428.736	643.62
428.958	592.62
429.181	580.62
429.403	596.62
429.625	584.62
429.847	623.62
430.069	713.62
430.292	696.62
430.514	629.62
430.736	580.62
430.958	572.62
431.18	555.62
431.402	545.62
431.624	532.62
431.846	538.62
432.068	548.62
432.29	551.62
432.512	541.62
432.734	542.62
432.956	556.62
433.178	561.62
433.4	574.62
433.622	540.62
433.844	551.62
434.066	544.62
434.287	537.62
434.509	540.62
434.731	561.62
434.953	546.62
435.175	587.62
435.397	620.62
435.618	604.62
435.84	672.62
436.062	787.62
436.284	847.62
436.505	734.62
436.727	639.62
436.949	597.62
437.17	608.62
437.392	566.62
437.614	616.62
437.835	642.62
438.057	767.62
438.278	862.62
438.5	851.62
438.721	950.62
438.943	882.62
439.165	721.62
439.386	678.62
439.608	656.62
439.829	633.62
440.05	690.62
440.272	696.62
440.493	675.62
440.715	623.62
440.936	598.62
441.158	585.62
441.379	588.62
441.6	603.62
441.822	617.62
442.043	666.62
442.264	768.62
442.486	825.62
442.707	687.62
442.928	630.62
443.149	675.62
443.371	664.62
443.592	706.62
443.813	842.62
444.034	882.62
444.255	744.62
444.476	674.62
444.698	642.62
444.919	624.62
445.14	708.62
445.361	698.62
445.582	663.62
445.803	742.62
446.024	858.62
446.245	856.62
446.466	792.62
446.687	703.62
446.908	646.62
447.129	587.62
447.35	555.62
447.571	578.62
447.792	583.62
448.013	578.62
448.234	610.62
448.455	668.62
448.675	788.62
448.896	912.62
449.117	791.62
449.338	730.62
449.559	834.62
449.779	933.62
450	788.62
450.221	655.62
450.442	613.62
450.662	602.62
450.883	579.62
451.104	601.62
451.324	621.62
451.545	590.62
451.766	548.62
451.986	534.62
452.207	546.62
452.428	508.62
452.648	523.62
452.869	540.62
453.089	550.62
453.31	557.62
453.53	519.62
453.751	529.62
453.971	519.62
454.192	547.62
454.412	548.62
454.633	511.62
454.853	499.62
455.073	514.62
455.294	558.62
455.514	630.62
455.734	631.62
455.955	541.62
456.175	502.62
456.395	514.62
456.616	478.62
456.836	508.62
457.056	506.62
457.276	493.62
457.497	500.62
457.717	498.62
457.937	490.62
458.157	486.62
458.377	503.62
458.598	543.62
458.818	629.62
459.038	712.62
459.258	736.62
459.478	623.62
459.698	549.62
459.918	543.62
460.138	526.62
460.358	536.62
460.578	519.62
460.798	542.62
461.018	535.62
461.238	542.62
461.458	506.62
461.678	504.62
461.898	520.62
462.118	540.62
462.338	512.62
462.558	507.62
462.777	559.62
462.997	549.62
463.217	562.62
463.437	571.62
463.657	547.62
463.876	540.62
464.096	551.62
464.316	562.62
464.536	562.62
464.755	559.62
464.975	568.62
465.195	636.62
465.414	745.62
465.634	655.62
465.854	619.62
466.073	559.62
466.293	555.62
466.512	566.62
466.732	514.62
466.951	537.62
467.171	534.62
467.391	518.62
467.61	565.62
467.829	574.62
468.049	567.62
468.268	551.62
468.488	560.62
468.707	539.62
468.927	512.62
469.146	509.62
469.365	542.62
469.585	509.62
469.804	529.62
470.023	538.62
470.243	555.62
470.462	554.62
470.681	570.62
470.901	551.62
471.12	542.62
471.339	536.62
471.558	555.62
471.777	543.62
471.997	552.62
472.216	562.62
472.435	592.62
472.654	571.62
472.873	557.62
473.092	533.62
473.311	534.62
473.53	541.62
473.749	558.62
473.968	608.62
474.187	727.62
474.406	749.62
474.625	622.62
474.844	556.62
475.063	554.62
475.282	563.62
475.501	536.62
475.72	534.62
475.939	558.62
476.158	559.62
476.377	559.62
476.596	558.62
476.814	564.62
477.033	588.62
477.252	576.62
477.471	568.62
477.69	574.62
477.908	585.62
478.127	595.62
478.346	568.62
478.564	608.62
478.783	592.62
479.002	605.62
479.22	628.62
479.439	628.62
479.658	630.62
479.876	677.62
480.095	657.62
480.313	700.62
480.532	666.62
480.751	640.62
480.969	667.62
481.188	783.62
481.406	807.62
481.624	725.62
481.843	698.62
482.061	684.62
482.28	671.62
482.498	637.62
482.717	640.62
482.935	660.62
483.153	636.62
483.372	645.62
483.59	655.62
483.808	643.62
484.027	639.62
484.245	649.62
484.463	639.62
484.681	664.62
484.9	657.62
485.118	633.62
485.336	656.62
485.554	674.62
485.772	664.62
485.99	655.62
486.209	686.62
486.427	673.62
486.645	700.62
486.863	707.62
487.081	721.62
487.299	708.62
487.517	720.62
487.735	691.62
487.953	716.62
488.171	719.62
488.389	713.62
488.607	697.62
488.825	693.62
489.043	709.62
489.261	712.62
489.479	703.62
489.696	738.62
489.914	722.62
490.132	741.62
490.35	727.62
490.568	742.62
490.786	776.62
491.003	792.62
491.221	783.62
491.439	801.62
491.657	805.62
491.874	810.62
492.092	831.62
492.31	843.62
492.527	861.62
492.745	838.62
492.963	843.62
493.18	831.62
493.398	870.62
493.615	836.62
493.833	855.62
494.05	861.62
494.268	859.62
494.485	857.62
494.703	843.62
494.92	845.62
495.138	848.62
495.355	855.62
495.573	868.62
495.79	855.62
496.008	859.62
496.225	885.62
496.442	862.62
496.66	871.62
496.877	850.62
497.094	854.62
497.312	859.62
497.529	875.62
497.746	880.62
497.963	892.62
498.181	901.62
498.398	877.62
498.615	923.62
498.832	900.62
499.049	908.62
499.267	915.62
499.484	952.62
499.701	977.62
499.918	1011.62
500.135	1026.62
500.352	1028.62
500.569	1056.62
500.786	1036.62
501.003	1051.62
501.22	1029.62
501.437	1019.62
501.654	992.62
501.871	1031.62
502.088	999.62
502.305	955.62
502.522	924.62
502.739	920.62
502.956	898.62
503.172	888.62
503.389	874.62
503.606	890.62
503.823	857.62
504.04	866.62
504.256	866.62
504.473	834.62
504.69	839.62
504.907	828.62
505.123	848.62
505.34	826.62
505.557	826.62
505.773	836.62
505.99	825.62
506.207	814.62
506.423	835.62
506.64	820.62
506.856	802.62
507.073	813.62
507.289	804.62
507.506	819.62
507.722	858.62
507.939	808.62
508.155	805.62
508.372	813.62
508.588	767.62
508.805	769.62
509.021	790.62
509.238	798.62
509.454	814.62
509.67	801.62
509.887	803.62
510.103	779.62
510.319	782.62
510.536	916.62
510.752	1538.62
510.968	1267.62
511.184	854.62
511.401	776.62
511.617	775.62
511.833	730.62
512.049	755.62
512.265	734.62
512.481	758.62
512.698	745.62
512.914	759.62
513.13	765.62
513.346	751.62
513.562	744.62
513.778	745.62
513.994	772.62
514.21	797.62
514.426	807.62
514.642	858.62
514.858	898.62
515.074	952.62
515.29	1158.62
515.506	1723.62
515.721	1409.62
515.937	924.62
516.153	840.62
516.369	827.62
516.585	774.62
516.801	740.62
517.016	747.62
517.232	755.62
517.448	777.62
517.664	761.62
517.879	740.62
518.095	735.62
518.311	756.62
518.527	739.62
518.742	732.62
518.958	737.62
519.173	746.62
519.389	747.62
519.605	731.62
519.82	749.62
520.036	779.62
520.251	775.62
520.467	824.62
520.682	808.62
520.898	851.62
521.113	858.62
521.329	960.62
521.544	1074.62
521.76	1396.62
521.975	2238.62
522.19	2264.62
522.406	1238.62
522.621	902.62
522.836	795.62
523.052	777.62
523.267	742.62
523.482	690.62
523.698	681.62
523.913	706.62
524.128	701.62
524.343	674.62
524.559	659.62
524.774	654.62
524.989	659.62
525.204	682.62
525.419	671.62
525.634	643.62
525.849	637.62
526.064	607.62
526.28	588.62
526.495	605.62
526.71	602.62
526.925	587.62
527.14	588.62
527.355	613.62
527.57	571.62
527.785	588.62
527.999	581.62
528.214	599.62
528.429	596.62
528.644	609.62
528.859	602.62
529.074	600.62
529.289	613.62
529.503	745.62
529.718	715.62
529.933	642.62
530.148	643.62
530.363	615.62
530.577	588.62
530.792	570.62
531.007	607.62
531.221	575.62
531.436	562.62
531.651	570.62
531.865	548.62
532.08	547.62
532.295	558.62
532.509	566.62
532.724	553.62
532.938	564.62
533.153	548.62
533.367	558.62
533.582	569.62
533.796	548.62
534.011	550.62
534.225	525.62
534.44	540.62
534.654	545.62
534.868	551.62
535.083	543.62
535.297	559.62
535.511	565.62
535.726	567.62
535.94	578.62
536.154	549.62
536.369	566.62
536.583	538.62
536.797	562.62
537.011	556.62
537.225	534.62
537.44	523.62
537.654	536.62
537.868	518.62
538.082	533.62
538.296	525.62
538.51	526.62
538.724	550.62
538.938	544.62
539.153	571.62
539.367	552.62
539.581	552.62
539.795	554.62
540.009	508.62
540.222	548.62
540.436	543.62
540.65	525.62
540.864	532.62
541.078	542.62
541.292	569.62
541.506	539.62
541.72	526.62
541.934	542.62
542.147	544.62
542.361	518.62
542.575	540.62
542.789	554.62
543.002	527.62
543.216	543.62
543.43	563.62
543.644	526.62
543.857	538.62
544.071	530.62
544.285	536.62
544.498	522.62
544.712	557.62
544.925	544.62
545.139	516.62
545.352	515.62
545.566	500.62
545.779	524.62
545.993	524.62
546.206	541.62
546.42	525.62
546.633	511.62
546.847	507.62
547.06	523.62
547.274	524.62
547.487	521.62
547.7	483.62
547.914	492.62
548.127	501.62
548.34	492.62
548.554	495.62
548.767	514.62
548.98	500.62
549.193	501.62
549.407	491.62
549.62	498.62
549.833	506.62
550.046	491.62
550.259	491.62
550.473	495.62
550.686	499.62
550.899	502.62
551.112	495.62
551.325	482.62
551.538	491.62
551.751	488.62
551.964	477.62
552.177	499.62
552.39	483.62
552.603	503.62
552.816	507.62
553.029	515.62
553.242	490.62
553.455	499.62
553.667	514.62
553.88	524.62
554.093	518.62
554.306	514.62
554.519	503.62
554.732	497.62
554.944	480.62
555.157	489.62
555.37	502.62
555.583	499.62
555.795	502.62
556.008	477.62
556.221	455.62
556.433	447.62
556.646	448.62
556.859	455.62
557.071	451.62
557.284	462.62
557.496	446.62
557.709	439.62
557.921	454.62
558.134	423.62
558.346	469.62
558.559	455.62
558.771	447.62
558.984	438.62
559.196	447.62
559.409	455.62
559.621	439.62
559.833	457.62
560.046	453.62
560.258	439.62
560.47	421.62
560.683	441.62
560.895	442.62
561.107	462.62
561.32	442.62
561.532	436.62
561.744	452.62
561.956	447.62
562.168	444.62
562.381	461.62
562.593	459.62
562.805	439.62
563.017	458.62
563.229	452.62
563.441	447.62
563.653	448.62
563.865	467.62
564.077	456.62
564.289	439.62
564.501	446.62
564.713	482.62
564.925	456.62
565.137	480.62
565.349	463.62
565.561	464.62
565.773	468.62
565.985	490.62
566.197	482.62
566.408	518.62
566.62	488.62
566.832	517.62
567.044	514.62
567.255	501.62
567.467	528.62
567.679	495.62
567.891	514.62
568.102	500.62
568.314	499.62
568.526	489.62
568.737	480.62
568.949	471.62
569.161	464.62
569.372	454.62
569.584	443.62
569.795	436.62
570.007	413.62
570.218	503.62
570.43	466.62
570.641	445.62
570.853	430.62
571.064	421.62
571.276	426.62
571.487	418.62
571.698	404.62
571.91	394.62
572.121	413.62
572.333	405.62
572.544	386.62
572.755	384.62
572.966	389.62
573.178	413.62
573.389	392.62
573.6	391.62
573.811	399.62
574.023	378.62
574.234	373.62
574.445	376.62
574.656	364.62
574.867	375.62
575.078	399.62
575.289	380.62
575.501	376.62
575.712	366.62
575.923	375.62
576.134	374.62
576.345	365.62
576.556	380.62
576.767	367.62
576.978	370.62
577.188	367.62
577.399	371.62
577.61	357.62
577.821	379.62
578.032	374.62
578.243	432.62
578.454	728.62
578.665	530.62
578.875	368.62
579.086	374.62
579.297	365.62
579.508	345.62
579.718	341.62
579.929	340.62
580.14	346.62
580.35	346.62
580.561	363.62
580.772	343.62
580.982	344.62
581.193	336.62
581.403	325.62
581.614	336.62
581.825	339.62
582.035	340.62
582.246	346.62
582.456	338.62
582.667	348.62
582.877	342.62
583.087	338.62
583.298	359.62
583.508	336.62
583.719	354.62
583.929	347.62
584.139	339.62
584.35	333.62
584.56	350.62
584.77	354.62
584.981	331.62
585.191	345.62
585.401	342.62
585.611	323.62
585.821	327.62
586.032	321.62
586.242	333.62
586.452	337.62
586.662	329.62
586.872	322.62
587.082	339.62
587.292	354.62
587.502	332.62
587.713	327.62
587.923	338.62
588.133	319.62
588.343	332.62
588.553	335.62
588.762	323.62
588.972	341.62
589.182	339.62
589.392	327.62
589.602	333.62
589.812	325.62
590.022	328.62
590.232	335.62
590.441	318.62
590.651	330.62
590.861	325.62
591.071	328.62
591.281	350.62
591.49	323.62
591.7	327.62
591.91	319.62
592.119	320.62
592.329	333.62
592.539	355.62
592.748	340.62
592.958	336.62
593.167	333.62
593.377	323.62
593.587	324.62
593.796	327.62
594.006	324.62
594.215	338.62
594.424	322.62
594.634	330.62
594.843	314.62
595.053	336.62
595.262	330.62
595.472	313.62
595.681	320.62
595.89	322.62
596.1	315.62
596.309	319.62
596.518	307.62
596.727	313.62
596.937	287.62
597.146	302.62
597.355	307.62
597.564	292.62
597.774	305.62
597.983	292.62
598.192	308.62
598.401	306.62
598.61	308.62
598.819	299.62
599.028	291.62
599.237	310.62
599.446	294.62
599.655	296.62
599.864	290.62
600.073	283.62
600.282	299.62
600.491	292.62
600.7	298.62
600.909	275.62
601.118	284.62
601.327	287.62
601.536	284.62
601.745	282.62
601.953	282.62
602.162	299.62
602.371	291.62
602.58	287.62
602.789	291.62
602.997	287.62
603.206	282.62
603.415	286.62
603.623	274.62
603.832	275.62
604.041	296.62
604.249	280.62
604.458	290.62
604.666	281.62
604.875	272.62
605.084	264.62
605.292	278.62
605.501	285.62
605.709	266.62
605.918	243.62
606.126	313.62
606.334	264.62
606.543	268.62
606.751	285.62
606.96	285.62
607.168	275.62
607.376	279.62
607.585	272.62
607.793	269.62
608.001	274.62
608.21	282.62
608.418	264.62
608.626	258.62
608.834	263.62
609.043	280.62
609.251	267.62
609.459	268.62
609.667	281.62
609.875	282.62
610.083	285.62
610.291	273.62
610.499	281.62
610.707	264.62
610.916	262.62
611.124	281.62
611.332	272.62
611.54	271.62
611.748	287.62
611.955	288.62
612.163	253.62
612.371	298.62
612.579	274.62
612.787	264.62
612.995	275.62
613.203	274.62
613.411	270.62
613.618	247.62
613.826	265.62
614.034	270.62
614.242	253.62
614.449	242.62
614.657	253.62
614.865	267.62
615.072	269.62
615.28	270.62
615.488	280.62
615.695	242.62
615.903	264.62
616.111	264.62
616.318	268.62
616.526	264.62
616.733	280.62
616.941	260.62
617.148	259.62
617.356	252.62
617.563	273.62
617.771	263.62
617.978	264.62
618.185	256.62
618.393	256.62
618.6	270.62
618.807	251.62
619.015	270.62
619.222	272.62
619.429	253.62
619.637	252.62
619.844	263.62
620.051	244.62
620.258	252.62
620.466	245.62
620.673	240.62
620.88	253.62
621.087	245.62
621.294	245.62
621.501	237.62
621.708	262.62
621.915	246.62
622.122	249.62
622.329	238.62
622.536	235.62
622.743	258.62
622.95	246.62
623.157	234.62
623.364	248.62
623.571	244.62
623.778	232.62
623.985	244.62
624.192	245.62
624.399	252.62
624.606	237.62
624.812	244.62
625.019	258.62
625.226	253.62
625.433	264.62
625.639	228.62
625.846	237.62
626.053	229.62
626.259	244.62
626.466	233.62
626.673	238.62
626.879	219.62
627.086	222.62
627.293	234.62
627.499	223.62
627.706	232.62
627.912	231.62
628.119	216.62
628.325	230.62
628.532	226.62
628.738	221.62
628.945	221.62
629.151	221.62
629.357	219.62
629.564	226.62
629.77	211.62
629.976	206.62
630.183	220.62
630.389	211.62
630.595	199.62
630.802	200.62
631.008	203.62
631.214	237.62
631.42	215.62
631.627	224.62
631.833	213.62
632.039	202.62
632.245	211.62
632.451	212.62
632.657	205.62
632.863	204.62
633.069	210.62
633.275	199.62
633.481	194.62
633.688	189.62
633.893	211.62
634.099	221.62
634.305	202.62
634.511	222.62
634.717	195.62
634.923	199.62
635.129	210.62
635.335	202.62
635.541	192.62
635.747	210.62
635.952	213.62
636.158	226.62
636.364	212.62
636.57	220.62
636.775	190.62
636.981	204.62
637.187	194.62
637.392	197.62
637.598	207.62
637.804	197.62
638.009	198.62
638.215	184.62
638.421	184.62
638.626	194.62
638.832	209.62
639.037	202.62
639.243	191.62
639.448	202.62
639.654	196.62
639.859	179.62
640.065	182.62
640.27	196.62
640.475	197.62
640.681	193.62
640.886	184.62
641.091	184.62
641.297	195.62
641.502	200.62
641.707	180.62
641.913	180.62
642.118	180.62
642.323	187.62
642.528	170.62
642.733	159.62
642.939	185.62
643.144	167.62
643.349	194.62
643.554	191.62
643.759	179.62
643.964	188.62
644.169	178.62
644.374	167.62
644.579	184.62
644.784	182.62
644.989	179.62
645.194	176.62
645.399	175.62
645.604	181.62
645.809	194.62
646.014	149.62
646.219	180.62
646.423	184.62
646.628	167.62
646.833	174.62
647.038	184.62
647.243	181.62
647.447	182.62
647.652	179.62
647.857	172.62
648.062	191.62
648.266	164.62
648.471	180.62
648.676	182.62
648.88	190.62
649.085	171.62
649.289	186.62
649.494	179.62
649.698	198.62
649.903	180.62
650.107	195.62
650.312	175.62
650.516	168.62
650.721	182.62
650.925	173.62
651.13	180.62
651.334	181.62
651.539	148.62
651.743	162.62
651.947	184.62
652.152	175.62
652.356	158.62
652.56	148.62
652.764	151.62
652.969	169.62
653.173	148.62
653.377	146.62
653.581	144.62
653.785	148.62
653.99	139.62
654.194	131.62
654.398	138.62
654.602	132.62
654.806	136.62
655.01	167.62
655.214	152.62
655.418	150.62
655.622	143.62
655.826	148.62
656.03	130.62
656.234	147.62
656.438	144.62
656.642	125.62
656.846	137.62
657.049	126.62
657.253	139.62
657.457	125.62
657.661	116.62
657.865	120.62
658.068	111.62
658.272	122.62
658.476	108.62
658.68	116.62
658.883	106.62
659.087	117.62
659.291	99.62
659.494	96.62
659.698	118.62
659.901	100.62
660.105	99.62
660.309	112.62
660.512	104.62
660.716	87.62
660.919	100.62
661.123	89.62
661.326	94.62
661.53	104.62
661.733	96.62
661.936	84.62
662.14	99.62
662.343	98.62
662.546	86.62
662.75	87.62
662.953	86.62
663.156	89.62
663.36	81.62
663.563	93.62
663.766	95.62
663.969	88.62
664.173	88.62
664.376	92.62
664.579	87.62
664.782	75.62
664.985	89.62
665.188	90.62
665.391	90.62
665.594	80.62
665.797	94.62
666	85.62
666.203	89.62
666.406	75.62
666.609	80.62
666.812	85.62
667.015	81.62
667.218	90.62
667.421	82.62
667.624	76.62
667.827	81.62
668.03	86.62
668.232	79.62
668.435	78.62
668.638	92.62
668.841	84.62
669.043	84.62
669.246	98.62
669.449	96.62
669.651	91.62
669.854	87.62
670.057	78.62
670.259	89.62
670.462	74.62
670.665	93.62
670.867	94.62
671.07	73.62
671.272	75.62
671.475	71.62
671.677	86.62
671.88	87.62
672.082	66.62
672.284	82.62
672.487	98.62
672.689	93.62
672.892	101.62
