Data from 1970.PennyLincolnUp.Lamp.En5.5.200Scan.071719.P1._HRD10591_15-15-47-841.txt Node
Date: Thu Jul 18 15:15:47 EDT 2019
User: cochatt
Spectrometer: HR+D1059
Trigger mode: 1
Integration Time (sec): 1.000000E-1
Scans to average: 1
Electric dark correction enabled: true
Nonlinearity correction enabled: false
Boxcar width: 0
XAxis mode: Wavelengths
Number of Pixels in Spectrum: 2048
>>>>>Begin Spectral Data<<<<<
223.165	-14.38
223.4	-14.38
223.635	-14.38
223.869	-19.38
224.104	-16.38
224.338	-10.38
224.573	-9.38
224.808	-23.38
225.042	-12.38
225.277	-2.38
225.511	1.62
225.746	8.62
225.98	7.62
226.215	10.62
226.449	-1.38
226.683	21.62
226.918	21.62
227.152	37.62
227.387	29.62
227.621	24.62
227.856	44.62
228.09	49.62
228.324	44.62
228.559	60.62
228.793	60.62
229.027	103.62
229.262	122.62
229.496	114.62
229.73	148.62
229.964	167.62
230.199	139.62
230.433	128.62
230.667	122.62
230.901	119.62
231.136	121.62
231.37	124.62
231.604	124.62
231.838	105.62
232.072	92.62
232.306	134.62
232.541	119.62
232.775	124.62
233.009	112.62
233.243	128.62
233.477	119.62
233.711	125.62
233.945	106.62
234.179	123.62
234.413	120.62
234.647	134.62
234.881	128.62
235.115	129.62
235.349	127.62
235.583	134.62
235.817	128.62
236.051	125.62
236.285	132.62
236.519	123.62
236.753	153.62
236.987	150.62
237.221	202.62
237.455	257.62
237.689	209.62
237.922	157.62
238.156	137.62
238.39	130.62
238.624	147.62
238.858	131.62
239.091	122.62
239.325	126.62
239.559	145.62
239.793	140.62
240.027	145.62
240.26	156.62
240.494	184.62
240.728	168.62
240.961	165.62
241.195	148.62
241.429	147.62
241.662	144.62
241.896	136.62
242.13	121.62
242.363	140.62
242.597	147.62
242.83	141.62
243.064	137.62
243.298	139.62
243.531	151.62
243.765	147.62
243.998	145.62
244.232	147.62
244.465	141.62
244.699	147.62
244.932	163.62
245.166	145.62
245.399	165.62
245.633	171.62
245.866	154.62
246.099	152.62
246.333	147.62
246.566	152.62
246.8	154.62
247.033	170.62
247.266	180.62
247.5	175.62
247.733	175.62
247.966	188.62
248.2	181.62
248.433	192.62
248.666	195.62
248.899	193.62
249.133	214.62
249.366	227.62
249.599	203.62
249.832	199.62
250.066	200.62
250.299	200.62
250.532	201.62
250.765	225.62
250.998	241.62
251.231	243.62
251.465	239.62
251.698	232.62
251.931	224.62
252.164	205.62
252.397	236.62
252.63	235.62
252.863	235.62
253.096	236.62
253.329	257.62
253.562	259.62
253.795	241.62
254.028	246.62
254.261	241.62
254.494	249.62
254.727	280.62
254.96	307.62
255.193	305.62
255.426	284.62
255.659	260.62
255.892	256.62
256.124	264.62
256.357	273.62
256.59	225.62
256.823	254.62
257.056	210.62
257.289	227.62
257.521	227.62
257.754	224.62
257.987	241.62
258.22	237.62
258.452	215.62
258.685	228.62
258.918	219.62
259.151	214.62
259.383	221.62
259.616	220.62
259.849	255.62
260.081	242.62
260.314	273.62
260.547	277.62
260.779	268.62
261.012	261.62
261.244	240.62
261.477	255.62
261.71	237.62
261.942	253.62
262.175	253.62
262.407	261.62
262.64	250.62
262.872	222.62
263.105	218.62
263.337	243.62
263.57	225.62
263.802	219.62
264.035	239.62
264.267	221.62
264.499	228.62
264.732	240.62
264.964	216.62
265.197	220.62
265.429	225.62
265.661	224.62
265.894	219.62
266.126	211.62
266.358	204.62
266.591	236.62
266.823	226.62
267.055	235.62
267.287	229.62
267.52	244.62
267.752	217.62
267.984	247.62
268.216	238.62
268.448	250.62
268.681	252.62
268.913	264.62
269.145	276.62
269.377	291.62
269.609	276.62
269.841	283.62
270.073	293.62
270.306	308.62
270.538	327.62
270.77	349.62
271.002	324.62
271.234	311.62
271.466	312.62
271.698	320.62
271.93	350.62
272.162	334.62
272.394	331.62
272.626	324.62
272.858	313.62
273.09	297.62
273.322	279.62
273.553	278.62
273.785	283.62
274.017	257.62
274.249	271.62
274.481	281.62
274.713	276.62
274.945	287.62
275.176	291.62
275.408	280.62
275.64	277.62
275.872	263.62
276.104	273.62
276.335	282.62
276.567	287.62
276.799	295.62
277.031	309.62
277.262	323.62
277.494	339.62
277.726	327.62
277.957	306.62
278.189	310.62
278.421	296.62
278.652	280.62
278.884	282.62
279.115	263.62
279.347	265.62
279.579	265.62
279.81	276.62
280.042	276.62
280.273	265.62
280.505	265.62
280.736	258.62
280.968	267.62
281.199	260.62
281.431	271.62
281.662	280.62
281.894	280.62
282.125	296.62
282.356	289.62
282.588	318.62
282.819	318.62
283.051	274.62
283.282	271.62
283.513	277.62
283.745	281.62
283.976	276.62
284.207	279.62
284.439	287.62
284.67	299.62
284.901	276.62
285.132	277.62
285.364	289.62
285.595	277.62
285.826	280.62
286.057	294.62
286.288	280.62
286.52	272.62
286.751	267.62
286.982	267.62
287.213	269.62
287.444	281.62
287.675	285.62
287.906	320.62
288.138	298.62
288.369	296.62
288.6	308.62
288.831	298.62
289.062	308.62
289.293	291.62
289.524	305.62
289.755	276.62
289.986	291.62
290.217	277.62
290.448	296.62
290.679	289.62
290.91	302.62
291.141	290.62
291.371	284.62
291.602	277.62
291.833	283.62
292.064	278.62
292.295	285.62
292.526	284.62
292.757	285.62
292.987	282.62
293.218	271.62
293.449	274.62
293.68	296.62
293.91	277.62
294.141	266.62
294.372	272.62
294.603	262.62
294.833	290.62
295.064	294.62
295.295	297.62
295.525	299.62
295.756	283.62
295.987	305.62
296.217	339.62
296.448	360.62
296.679	305.62
296.909	287.62
297.14	290.62
297.37	285.62
297.601	299.62
297.831	303.62
298.062	294.62
298.292	290.62
298.523	316.62
298.753	300.62
298.984	295.62
299.214	323.62
299.445	301.62
299.675	320.62
299.905	309.62
300.136	312.62
300.366	295.62
300.597	309.62
300.827	323.62
301.057	305.62
301.288	304.62
301.518	329.62
301.748	322.62
301.979	335.62
302.209	342.62
302.439	310.62
302.669	337.62
302.9	321.62
303.13	307.62
303.36	319.62
303.59	322.62
303.82	329.62
304.051	343.62
304.281	322.62
304.511	327.62
304.741	323.62
304.971	321.62
305.201	316.62
305.431	324.62
305.661	329.62
305.891	339.62
306.121	325.62
306.352	337.62
306.582	345.62
306.812	331.62
307.042	322.62
307.272	339.62
307.502	332.62
307.731	334.62
307.961	337.62
308.191	339.62
308.421	343.62
308.651	331.62
308.881	338.62
309.111	354.62
309.341	362.62
309.571	341.62
309.8	367.62
310.03	370.62
310.26	414.62
310.49	409.62
310.72	410.62
310.949	407.62
311.179	415.62
311.409	406.62
311.639	391.62
311.868	377.62
312.098	390.62
312.328	383.62
312.557	403.62
312.787	425.62
313.017	414.62
313.246	400.62
313.476	398.62
313.706	409.62
313.935	403.62
314.165	418.62
314.394	412.62
314.624	423.62
314.853	413.62
315.083	400.62
315.312	385.62
315.542	377.62
315.771	368.62
316.001	379.62
316.23	378.62
316.46	380.62
316.689	361.62
316.919	411.62
317.148	401.62
317.377	409.62
317.607	391.62
317.836	397.62
318.065	368.62
318.295	363.62
318.524	393.62
318.753	390.62
318.983	397.62
319.212	372.62
319.441	399.62
319.67	412.62
319.9	385.62
320.129	383.62
320.358	393.62
320.587	408.62
320.816	401.62
321.046	420.62
321.275	416.62
321.504	434.62
321.733	410.62
321.962	429.62
322.191	453.62
322.42	465.62
322.649	474.62
322.878	486.62
323.108	483.62
323.337	540.62
323.566	571.62
323.795	581.62
324.024	658.62
324.253	823.62
324.482	1146.62
324.71	1812.62
324.939	2543.62
325.168	2181.62
325.397	1157.62
325.626	777.62
325.855	617.62
326.084	583.62
326.313	582.62
326.542	542.62
326.77	643.62
326.999	740.62
327.228	1033.62
327.457	1568.62
327.686	1921.62
327.914	1290.62
328.143	825.62
328.372	746.62
328.6	671.62
328.829	636.62
329.058	643.62
329.287	665.62
329.515	624.62
329.744	561.62
329.972	568.62
330.201	623.62
330.43	641.62
330.658	675.62
330.887	700.62
331.115	682.62
331.344	575.62
331.572	547.62
331.801	538.62
332.03	531.62
332.258	489.62
332.486	480.62
332.715	489.62
332.943	474.62
333.172	465.62
333.4	480.62
333.629	477.62
333.857	481.62
334.085	523.62
334.314	541.62
334.542	565.62
334.771	616.62
334.999	563.62
335.227	499.62
335.455	476.62
335.684	437.62
335.912	481.62
336.14	452.62
336.369	468.62
336.597	457.62
336.825	470.62
337.053	426.62
337.281	435.62
337.51	453.62
337.738	450.62
337.966	460.62
338.194	457.62
338.422	478.62
338.65	451.62
338.878	436.62
339.106	436.62
339.334	443.62
339.562	413.62
339.79	442.62
340.018	440.62
340.246	433.62
340.474	468.62
340.702	465.62
340.93	428.62
341.158	457.62
341.386	441.62
341.614	439.62
341.842	436.62
342.07	459.62
342.298	445.62
342.526	433.62
342.754	429.62
342.981	421.62
343.209	412.62
343.437	436.62
343.665	427.62
343.893	426.62
344.12	452.62
344.348	435.62
344.576	458.62
344.804	452.62
345.031	439.62
345.259	447.62
345.487	463.62
345.714	462.62
345.942	454.62
346.17	426.62
346.397	417.62
346.625	447.62
346.853	427.62
347.08	430.62
347.308	431.62
347.535	448.62
347.763	453.62
347.99	439.62
348.218	459.62
348.445	473.62
348.673	450.62
348.9	429.62
349.128	422.62
349.355	397.62
349.583	412.62
349.81	435.62
350.037	409.62
350.265	410.62
350.492	419.62
350.72	436.62
350.947	431.62
351.174	444.62
351.402	456.62
351.629	473.62
351.856	447.62
352.083	449.62
352.311	457.62
352.538	456.62
352.765	464.62
352.992	448.62
353.22	424.62
353.447	434.62
353.674	439.62
353.901	432.62
354.128	387.62
354.355	405.62
354.583	388.62
354.81	413.62
355.037	397.62
355.264	420.62
355.491	413.62
355.718	383.62
355.945	393.62
356.172	390.62
356.399	411.62
356.626	399.62
356.853	393.62
357.08	393.62
357.307	392.62
357.534	407.62
357.761	387.62
357.988	415.62
358.215	417.62
358.441	403.62
358.668	401.62
358.895	421.62
359.122	425.62
359.349	408.62
359.576	424.62
359.802	472.62
360.029	498.62
360.256	531.62
360.483	509.62
360.709	463.62
360.936	433.62
361.163	431.62
361.39	466.62
361.616	457.62
361.843	432.62
362.07	435.62
362.296	446.62
362.523	433.62
362.749	458.62
362.976	427.62
363.203	428.62
363.429	440.62
363.656	412.62
363.882	431.62
364.109	403.62
364.335	415.62
364.562	423.62
364.788	410.62
365.015	436.62
365.241	404.62
365.468	433.62
365.694	422.62
365.92	425.62
366.147	443.62
366.373	419.62
366.599	432.62
366.826	399.62
367.052	416.62
367.278	401.62
367.505	415.62
367.731	429.62
367.957	415.62
368.184	419.62
368.41	419.62
368.636	449.62
368.862	434.62
369.089	433.62
369.315	435.62
369.541	420.62
369.767	422.62
369.993	420.62
370.219	409.62
370.445	409.62
370.672	409.62
370.898	438.62
371.124	413.62
371.35	431.62
371.576	411.62
371.802	411.62
372.028	405.62
372.254	412.62
372.48	400.62
372.706	407.62
372.932	408.62
373.158	410.62
373.384	411.62
373.61	421.62
373.835	410.62
374.061	421.62
374.287	433.62
374.513	425.62
374.739	432.62
374.965	430.62
375.191	417.62
375.416	405.62
375.642	402.62
375.868	414.62
376.094	423.62
376.319	417.62
376.545	434.62
376.771	412.62
376.997	413.62
377.222	425.62
377.448	415.62
377.674	410.62
377.899	412.62
378.125	401.62
378.35	424.62
378.576	393.62
378.802	407.62
379.027	427.62
379.253	427.62
379.478	401.62
379.704	400.62
379.929	417.62
380.155	388.62
380.38	439.62
380.606	417.62
380.831	423.62
381.057	423.62
381.282	420.62
381.507	429.62
381.733	415.62
381.958	409.62
382.184	421.62
382.409	428.62
382.634	420.62
382.86	435.62
383.085	431.62
383.31	427.62
383.535	427.62
383.761	429.62
383.986	434.62
384.211	437.62
384.436	421.62
384.662	421.62
384.887	441.62
385.112	435.62
385.337	451.62
385.562	454.62
385.787	439.62
386.013	470.62
386.238	476.62
386.463	461.62
386.688	456.62
386.913	454.62
387.138	445.62
387.363	455.62
387.588	442.62
387.813	456.62
388.038	458.62
388.263	428.62
388.488	451.62
388.713	431.62
388.938	447.62
389.163	436.62
389.387	454.62
389.612	428.62
389.837	433.62
390.062	453.62
390.287	437.62
390.512	457.62
390.736	436.62
390.961	446.62
391.186	443.62
391.411	462.62
391.636	450.62
391.86	450.62
392.085	475.62
392.31	460.62
392.534	481.62
392.759	461.62
392.984	441.62
393.208	479.62
393.433	472.62
393.658	464.62
393.882	452.62
394.107	443.62
394.331	449.62
394.556	457.62
394.78	452.62
395.005	482.62
395.229	461.62
395.454	467.62
395.678	467.62
395.903	496.62
396.127	505.62
396.352	521.62
396.576	490.62
396.801	479.62
397.025	482.62
397.249	470.62
397.474	495.62
397.698	477.62
397.922	500.62
398.147	487.62
398.371	505.62
398.595	509.62
398.82	508.62
399.044	513.62
399.268	556.62
399.492	520.62
399.717	567.62
399.941	583.62
400.165	626.62
400.389	619.62
400.613	587.62
400.837	552.62
401.062	534.62
401.286	523.62
401.51	491.62
401.734	509.62
401.958	518.62
402.182	513.62
402.406	552.62
402.63	544.62
402.854	520.62
403.078	524.62
403.302	547.62
403.526	535.62
403.75	548.62
403.974	531.62
404.198	530.62
404.422	521.62
404.645	549.62
404.869	552.62
405.093	588.62
405.317	629.62
405.541	655.62
405.765	607.62
405.988	593.62
406.212	609.62
406.436	608.62
406.66	625.62
406.883	593.62
407.107	612.62
407.331	665.62
407.555	712.62
407.778	715.62
408.002	659.62
408.226	619.62
408.449	584.62
408.673	620.62
408.896	641.62
409.12	636.62
409.344	644.62
409.567	584.62
409.791	579.62
410.014	575.62
410.238	550.62
410.461	558.62
410.685	560.62
410.908	586.62
411.132	620.62
411.355	634.62
411.578	604.62
411.802	555.62
412.025	543.62
412.249	545.62
412.472	583.62
412.695	613.62
412.919	626.62
413.142	573.62
413.365	539.62
413.589	539.62
413.812	536.62
414.035	527.62
414.258	531.62
414.482	528.62
414.705	499.62
414.928	514.62
415.151	511.62
415.374	498.62
415.597	504.62
415.821	486.62
416.044	511.62
416.267	531.62
416.49	515.62
416.713	511.62
416.936	512.62
417.159	515.62
417.382	543.62
417.605	533.62
417.828	551.62
418.051	563.62
418.274	535.62
418.497	525.62
418.72	527.62
418.943	506.62
419.166	543.62
419.389	563.62
419.611	556.62
419.834	546.62
420.057	543.62
420.28	565.62
420.503	559.62
420.726	565.62
420.948	565.62
421.171	605.62
421.394	656.62
421.617	589.62
421.839	545.62
422.062	551.62
422.285	564.62
422.507	625.62
422.73	714.62
422.953	679.62
423.175	599.62
423.398	583.62
423.621	575.62
423.843	594.62
424.066	607.62
424.288	593.62
424.511	638.62
424.733	688.62
424.956	778.62
425.178	739.62
425.401	758.62
425.623	728.62
425.846	663.62
426.068	590.62
426.291	605.62
426.513	594.62
426.735	624.62
426.958	675.62
427.18	764.62
427.402	890.62
427.625	971.62
427.847	896.62
428.069	796.62
428.292	696.62
428.514	629.62
428.736	597.62
428.958	600.62
429.181	567.62
429.403	569.62
429.625	587.62
429.847	618.62
430.069	643.62
430.292	679.62
430.514	589.62
430.736	595.62
430.958	570.62
431.18	528.62
431.402	523.62
431.624	539.62
431.846	521.62
432.068	494.62
432.29	527.62
432.512	517.62
432.734	535.62
432.956	532.62
433.178	560.62
433.4	584.62
433.622	564.62
433.844	525.62
434.066	537.62
434.287	521.62
434.509	521.62
434.731	537.62
434.953	548.62
435.175	565.62
435.397	582.62
435.618	596.62
435.84	639.62
436.062	747.62
436.284	813.62
436.505	724.62
436.727	659.62
436.949	608.62
437.17	556.62
437.392	569.62
437.614	598.62
437.835	649.62
438.057	763.62
438.278	837.62
438.5	860.62
438.721	917.62
438.943	897.62
439.165	713.62
439.386	675.62
439.608	650.62
439.829	625.62
440.05	662.62
440.272	734.62
440.493	681.62
440.715	624.62
440.936	598.62
441.158	584.62
441.379	598.62
441.6	585.62
441.822	617.62
442.043	655.62
442.264	752.62
442.486	812.62
442.707	673.62
442.928	644.62
443.149	683.62
443.371	651.62
443.592	703.62
443.813	792.62
444.034	880.62
444.255	705.62
444.476	637.62
444.698	612.62
444.919	633.62
445.14	763.62
445.361	672.62
445.582	643.62
445.803	738.62
446.024	825.62
446.245	886.62
446.466	797.62
446.687	669.62
446.908	641.62
447.129	608.62
447.35	580.62
447.571	568.62
447.792	569.62
448.013	589.62
448.234	625.62
448.455	663.62
448.675	781.62
448.896	869.62
449.117	769.62
449.338	735.62
449.559	820.62
449.779	924.62
450	777.62
450.221	659.62
450.442	600.62
450.662	582.62
450.883	586.62
451.104	587.62
451.324	596.62
451.545	575.62
451.766	540.62
451.986	523.62
452.207	518.62
452.428	531.62
452.648	503.62
452.869	511.62
453.089	537.62
453.31	542.62
453.53	527.62
453.751	499.62
453.971	535.62
454.192	578.62
454.412	541.62
454.633	515.62
454.853	533.62
455.073	507.62
455.294	568.62
455.514	628.62
455.734	597.62
455.955	541.62
456.175	495.62
456.395	500.62
456.616	488.62
456.836	465.62
457.056	454.62
457.276	468.62
457.497	475.62
457.717	479.62
457.937	518.62
458.157	487.62
458.377	502.62
458.598	548.62
458.818	604.62
459.038	677.62
459.258	705.62
459.478	580.62
459.698	540.62
459.918	529.62
460.138	516.62
460.358	512.62
460.578	518.62
460.798	536.62
461.018	537.62
461.238	506.62
461.458	507.62
461.678	518.62
461.898	540.62
462.118	515.62
462.338	532.62
462.558	547.62
462.777	535.62
462.997	526.62
463.217	531.62
463.437	555.62
463.657	529.62
463.876	545.62
464.096	562.62
464.316	561.62
464.536	588.62
464.755	580.62
464.975	574.62
465.195	626.62
465.414	733.62
465.634	663.62
465.854	565.62
466.073	574.62
466.293	549.62
466.512	524.62
466.732	539.62
466.951	533.62
467.171	515.62
467.391	530.62
467.61	523.62
467.829	568.62
468.049	564.62
468.268	551.62
468.488	521.62
468.707	522.62
468.927	533.62
469.146	518.62
469.365	523.62
469.585	490.62
469.804	525.62
470.023	533.62
470.243	539.62
470.462	537.62
470.681	567.62
470.901	579.62
471.12	546.62
471.339	549.62
471.558	539.62
471.777	534.62
471.997	551.62
472.216	561.62
472.435	609.62
472.654	563.62
472.873	568.62
473.092	526.62
473.311	536.62
473.53	533.62
473.749	569.62
473.968	612.62
474.187	692.62
474.406	712.62
474.625	607.62
474.844	563.62
475.063	525.62
475.282	531.62
475.501	546.62
475.72	551.62
475.939	530.62
476.158	539.62
476.377	562.62
476.596	552.62
476.814	552.62
477.033	585.62
477.252	565.62
477.471	546.62
477.69	583.62
477.908	587.62
478.127	581.62
478.346	564.62
478.564	576.62
478.783	577.62
479.002	594.62
479.22	604.62
479.439	619.62
479.658	671.62
479.876	651.62
480.095	659.62
480.313	691.62
480.532	661.62
480.751	661.62
480.969	655.62
481.188	760.62
481.406	831.62
481.624	712.62
481.843	683.62
482.061	671.62
482.28	659.62
482.498	647.62
482.717	646.62
482.935	652.62
483.153	650.62
483.372	654.62
483.59	636.62
483.808	638.62
484.027	636.62
484.245	639.62
484.463	621.62
484.681	649.62
484.9	628.62
485.118	639.62
485.336	659.62
485.554	656.62
485.772	680.62
485.99	688.62
486.209	676.62
486.427	669.62
486.645	702.62
486.863	701.62
487.081	691.62
487.299	705.62
487.517	715.62
487.735	673.62
487.953	712.62
488.171	700.62
488.389	688.62
488.607	701.62
488.825	694.62
489.043	693.62
489.261	712.62
489.479	709.62
489.696	710.62
489.914	718.62
490.132	748.62
490.35	729.62
490.568	762.62
490.786	736.62
491.003	789.62
491.221	787.62
491.439	783.62
491.657	815.62
491.874	804.62
492.092	813.62
492.31	846.62
492.527	839.62
492.745	840.62
492.963	824.62
493.18	812.62
493.398	863.62
493.615	837.62
493.833	828.62
494.05	842.62
494.268	853.62
494.485	828.62
494.703	839.62
494.92	852.62
495.138	864.62
495.355	854.62
495.573	833.62
495.79	845.62
496.008	843.62
496.225	836.62
496.442	835.62
496.66	852.62
496.877	813.62
497.094	834.62
497.312	841.62
497.529	856.62
497.746	861.62
497.963	865.62
498.181	890.62
498.398	902.62
498.615	896.62
498.832	912.62
499.049	909.62
499.267	923.62
499.484	926.62
499.701	958.62
499.918	994.62
500.135	987.62
500.352	1026.62
500.569	1042.62
500.786	1025.62
501.003	1017.62
501.22	1010.62
501.437	998.62
501.654	1014.62
501.871	1001.62
502.088	994.62
502.305	945.62
502.522	917.62
502.739	902.62
502.956	899.62
503.172	864.62
503.389	871.62
503.606	895.62
503.823	874.62
504.04	859.62
504.256	831.62
504.473	839.62
504.69	796.62
504.907	808.62
505.123	813.62
505.34	816.62
505.557	814.62
505.773	816.62
505.99	832.62
506.207	813.62
506.423	808.62
506.64	809.62
506.856	818.62
507.073	819.62
507.289	793.62
507.506	790.62
507.722	797.62
507.939	830.62
508.155	799.62
508.372	777.62
508.588	785.62
508.805	760.62
509.021	771.62
509.238	770.62
509.454	784.62
509.67	805.62
509.887	788.62
510.103	781.62
510.319	785.62
510.536	913.62
510.752	1526.62
510.968	1258.62
511.184	825.62
511.401	785.62
511.617	778.62
511.833	741.62
512.049	744.62
512.265	713.62
512.481	709.62
512.698	717.62
512.914	730.62
513.13	743.62
513.346	738.62
513.562	734.62
513.778	725.62
513.994	735.62
514.21	764.62
514.426	782.62
514.642	842.62
514.858	887.62
515.074	960.62
515.29	1136.62
515.506	1706.62
515.721	1398.62
515.937	948.62
516.153	834.62
516.369	801.62
516.585	757.62
516.801	770.62
517.016	765.62
517.232	754.62
517.448	731.62
517.664	742.62
517.879	729.62
518.095	727.62
518.311	743.62
518.527	713.62
518.742	708.62
518.958	736.62
519.173	712.62
519.389	725.62
519.605	722.62
519.82	746.62
520.036	778.62
520.251	790.62
520.467	860.62
520.682	812.62
520.898	819.62
521.113	869.62
521.329	921.62
521.544	1094.62
521.76	1362.62
521.975	2260.62
522.19	2235.62
522.406	1206.62
522.621	885.62
522.836	799.62
523.052	744.62
523.267	720.62
523.482	691.62
523.698	683.62
523.913	676.62
524.128	703.62
524.343	652.62
524.559	670.62
524.774	630.62
524.989	638.62
525.204	641.62
525.419	653.62
525.634	631.62
525.849	611.62
526.064	625.62
526.28	617.62
526.495	580.62
526.71	608.62
526.925	604.62
527.14	608.62
527.355	594.62
527.57	575.62
527.785	581.62
527.999	553.62
528.214	594.62
528.429	578.62
528.644	597.62
528.859	589.62
529.074	565.62
529.289	635.62
529.503	745.62
529.718	727.62
529.933	639.62
530.148	615.62
530.363	581.62
530.577	574.62
530.792	586.62
531.007	595.62
531.221	565.62
531.436	564.62
531.651	587.62
531.865	573.62
532.08	563.62
532.295	569.62
532.509	556.62
532.724	550.62
532.938	575.62
533.153	550.62
533.367	538.62
533.582	571.62
533.796	541.62
534.011	548.62
534.225	545.62
534.44	535.62
534.654	534.62
534.868	545.62
535.083	535.62
535.297	536.62
535.511	540.62
535.726	579.62
535.94	581.62
536.154	560.62
536.369	569.62
536.583	515.62
536.797	528.62
537.011	541.62
537.225	513.62
537.44	516.62
537.654	523.62
537.868	524.62
538.082	531.62
538.296	535.62
538.51	538.62
538.724	545.62
538.938	546.62
539.153	546.62
539.367	553.62
539.581	568.62
539.795	541.62
540.009	523.62
540.222	530.62
540.436	527.62
540.65	536.62
540.864	540.62
541.078	533.62
541.292	544.62
541.506	564.62
541.72	524.62
541.934	524.62
542.147	530.62
542.361	548.62
542.575	517.62
542.789	532.62
543.002	532.62
543.216	525.62
543.43	528.62
543.644	538.62
543.857	545.62
544.071	535.62
544.285	511.62
544.498	510.62
544.712	514.62
544.925	526.62
545.139	521.62
545.352	519.62
545.566	530.62
545.779	515.62
545.993	496.62
546.206	528.62
546.42	527.62
546.633	512.62
546.847	512.62
547.06	477.62
547.274	490.62
547.487	513.62
547.7	500.62
547.914	511.62
548.127	510.62
548.34	509.62
548.554	511.62
548.767	491.62
548.98	501.62
549.193	499.62
549.407	508.62
549.62	480.62
549.833	494.62
550.046	507.62
550.259	496.62
550.473	499.62
550.686	475.62
550.899	495.62
551.112	499.62
551.325	470.62
551.538	489.62
551.751	488.62
551.964	468.62
552.177	462.62
552.39	486.62
552.603	487.62
552.816	492.62
553.029	504.62
553.242	487.62
553.455	513.62
553.667	532.62
553.88	496.62
554.093	523.62
554.306	482.62
554.519	474.62
554.732	492.62
554.944	493.62
555.157	471.62
555.37	465.62
555.583	457.62
555.795	468.62
556.008	460.62
556.221	451.62
556.433	444.62
556.646	461.62
556.859	438.62
557.071	443.62
557.284	449.62
557.496	440.62
557.709	452.62
557.921	464.62
558.134	470.62
558.346	460.62
558.559	433.62
558.771	436.62
558.984	455.62
559.196	417.62
559.409	432.62
559.621	460.62
559.833	438.62
560.046	440.62
560.258	446.62
560.47	414.62
560.683	450.62
560.895	433.62
561.107	420.62
561.32	443.62
561.532	417.62
561.744	436.62
561.956	427.62
562.168	435.62
562.381	423.62
562.593	416.62
562.805	429.62
563.017	432.62
563.229	428.62
563.441	417.62
563.653	433.62
563.865	419.62
564.077	455.62
564.289	447.62
564.501	442.62
564.713	437.62
564.925	437.62
565.137	457.62
565.349	460.62
565.561	467.62
565.773	474.62
565.985	484.62
566.197	477.62
566.408	488.62
566.62	487.62
566.832	492.62
567.044	493.62
567.255	499.62
567.467	497.62
567.679	469.62
567.891	493.62
568.102	499.62
568.314	483.62
568.526	498.62
568.737	472.62
568.949	445.62
569.161	451.62
569.372	465.62
569.584	428.62
569.795	447.62
570.007	448.62
570.218	479.62
570.43	489.62
570.641	427.62
570.853	407.62
571.064	415.62
571.276	402.62
571.487	421.62
571.698	434.62
571.91	404.62
572.121	405.62
572.333	413.62
572.544	398.62
572.755	377.62
572.966	380.62
573.178	377.62
573.389	391.62
573.6	371.62
573.811	384.62
574.023	381.62
574.234	360.62
574.445	378.62
574.656	379.62
574.867	363.62
575.078	383.62
575.289	362.62
575.501	371.62
575.712	373.62
575.923	375.62
576.134	361.62
576.345	364.62
576.556	368.62
576.767	377.62
576.978	385.62
577.188	356.62
577.399	379.62
577.61	354.62
577.821	369.62
578.032	371.62
578.243	396.62
578.454	702.62
578.665	521.62
578.875	386.62
579.086	340.62
579.297	359.62
579.508	338.62
579.718	340.62
579.929	338.62
580.14	323.62
580.35	343.62
580.561	349.62
580.772	345.62
580.982	355.62
581.193	363.62
581.403	359.62
581.614	355.62
581.825	327.62
582.035	348.62
582.246	337.62
582.456	324.62
582.667	337.62
582.877	323.62
583.087	342.62
583.298	325.62
583.508	333.62
583.719	331.62
583.929	325.62
584.139	328.62
584.35	324.62
584.56	348.62
584.77	346.62
584.981	331.62
585.191	316.62
585.401	325.62
585.611	328.62
585.821	323.62
586.032	327.62
586.242	324.62
586.452	329.62
586.662	305.62
586.872	333.62
587.082	307.62
587.292	323.62
587.502	323.62
587.713	324.62
587.923	342.62
588.133	334.62
588.343	319.62
588.553	333.62
588.762	333.62
588.972	309.62
589.182	313.62
589.392	318.62
589.602	323.62
589.812	312.62
590.022	308.62
590.232	312.62
590.441	319.62
590.651	333.62
590.861	317.62
591.071	315.62
591.281	313.62
591.49	338.62
591.7	314.62
591.91	311.62
592.119	322.62
592.329	324.62
592.539	354.62
592.748	318.62
592.958	324.62
593.167	313.62
593.377	331.62
593.587	319.62
593.796	320.62
594.006	319.62
594.215	328.62
594.424	319.62
594.634	345.62
594.843	321.62
595.053	319.62
595.262	338.62
595.472	299.62
595.681	321.62
595.89	305.62
596.1	296.62
596.309	319.62
596.518	313.62
596.727	288.62
596.937	307.62
597.146	307.62
597.355	299.62
597.564	313.62
597.774	311.62
597.983	280.62
598.192	290.62
598.401	310.62
598.61	281.62
598.819	319.62
599.028	307.62
599.237	277.62
599.446	301.62
599.655	281.62
599.864	288.62
600.073	280.62
600.282	282.62
600.491	279.62
600.7	293.62
600.909	276.62
601.118	272.62
601.327	294.62
601.536	296.62
601.745	275.62
601.953	289.62
602.162	273.62
602.371	295.62
602.58	265.62
602.789	280.62
602.997	280.62
603.206	282.62
603.415	268.62
603.623	269.62
603.832	284.62
604.041	268.62
604.249	266.62
604.458	253.62
604.666	276.62
604.875	261.62
605.084	263.62
605.292	258.62
605.501	273.62
605.709	264.62
605.918	285.62
606.126	269.62
606.334	277.62
606.543	265.62
606.751	267.62
606.96	267.62
607.168	275.62
607.376	267.62
607.585	269.62
607.793	269.62
608.001	264.62
608.21	268.62
608.418	262.62
608.626	280.62
608.834	264.62
609.043	268.62
609.251	282.62
609.459	273.62
609.667	278.62
609.875	278.62
610.083	272.62
610.291	270.62
610.499	273.62
610.707	275.62
610.916	268.62
611.124	248.62
611.332	267.62
611.54	271.62
611.748	255.62
611.955	257.62
612.163	260.62
612.371	275.62
612.579	259.62
612.787	268.62
612.995	248.62
613.203	275.62
613.411	280.62
613.618	266.62
613.826	264.62
614.034	254.62
614.242	263.62
614.449	261.62
614.657	263.62
614.865	261.62
615.072	270.62
615.28	246.62
615.488	256.62
615.695	253.62
615.903	244.62
616.111	247.62
616.318	266.62
616.526	251.62
616.733	268.62
616.941	252.62
617.148	245.62
617.356	252.62
617.563	251.62
617.771	246.62
617.978	252.62
618.185	239.62
618.393	231.62
618.6	237.62
618.807	280.62
619.015	271.62
619.222	244.62
619.429	243.62
619.637	239.62
619.844	244.62
620.051	250.62
620.258	239.62
620.466	254.62
620.673	233.62
620.88	232.62
621.087	231.62
621.294	243.62
621.501	247.62
621.708	241.62
621.915	218.62
622.122	268.62
622.329	244.62
622.536	256.62
622.743	257.62
622.95	260.62
623.157	247.62
623.364	237.62
623.571	235.62
623.778	244.62
623.985	236.62
624.192	231.62
624.399	224.62
624.606	248.62
624.812	226.62
625.019	227.62
625.226	231.62
625.433	218.62
625.639	235.62
625.846	217.62
626.053	225.62
626.259	218.62
626.466	232.62
626.673	225.62
626.879	220.62
627.086	227.62
627.293	212.62
627.499	215.62
627.706	214.62
627.912	215.62
628.119	228.62
628.325	220.62
628.532	221.62
628.738	219.62
628.945	229.62
629.151	217.62
629.357	212.62
629.564	215.62
629.77	206.62
629.976	218.62
630.183	200.62
630.389	208.62
630.595	198.62
630.802	211.62
631.008	199.62
631.214	208.62
631.42	203.62
631.627	209.62
631.833	215.62
632.039	202.62
632.245	206.62
632.451	208.62
632.657	206.62
632.863	208.62
633.069	193.62
633.275	210.62
633.481	203.62
633.688	192.62
633.893	186.62
634.099	200.62
634.305	182.62
634.511	194.62
634.717	200.62
634.923	188.62
635.129	181.62
635.335	201.62
635.541	219.62
635.747	185.62
635.952	198.62
636.158	191.62
636.364	224.62
636.57	189.62
636.775	214.62
636.981	204.62
637.187	189.62
637.392	185.62
637.598	194.62
637.804	199.62
638.009	192.62
638.215	195.62
638.421	172.62
638.626	167.62
638.832	180.62
639.037	185.62
639.243	178.62
639.448	177.62
639.654	196.62
639.859	179.62
640.065	187.62
640.27	186.62
640.475	181.62
640.681	171.62
640.886	185.62
641.091	184.62
641.297	192.62
641.502	181.62
641.707	171.62
641.913	175.62
642.118	170.62
642.323	176.62
642.528	177.62
642.733	177.62
642.939	178.62
643.144	192.62
643.349	175.62
643.554	177.62
643.759	171.62
643.964	179.62
644.169	161.62
644.374	165.62
644.579	183.62
644.784	170.62
644.989	179.62
645.194	182.62
645.399	188.62
645.604	184.62
645.809	188.62
646.014	185.62
646.219	165.62
646.423	180.62
646.628	163.62
646.833	173.62
647.038	176.62
647.243	177.62
647.447	172.62
647.652	175.62
647.857	167.62
648.062	168.62
648.266	194.62
648.471	175.62
648.676	174.62
648.88	155.62
649.085	161.62
649.289	179.62
649.494	173.62
649.698	179.62
649.903	185.62
650.107	182.62
650.312	176.62
650.516	172.62
650.721	155.62
650.925	163.62
651.13	162.62
651.334	150.62
651.539	152.62
651.743	149.62
651.947	162.62
652.152	133.62
652.356	145.62
652.56	139.62
652.764	152.62
652.969	130.62
653.173	138.62
653.377	129.62
653.581	153.62
653.785	143.62
653.99	158.62
654.194	135.62
654.398	134.62
654.602	131.62
654.806	137.62
655.01	150.62
655.214	155.62
655.418	130.62
655.622	131.62
655.826	133.62
656.03	118.62
656.234	125.62
656.438	131.62
656.642	130.62
656.846	135.62
657.049	119.62
657.253	135.62
657.457	102.62
657.661	115.62
657.865	115.62
658.068	120.62
658.272	112.62
658.476	100.62
658.68	111.62
658.883	107.62
659.087	109.62
659.291	106.62
659.494	99.62
659.698	96.62
659.901	105.62
660.105	97.62
660.309	107.62
660.512	82.62
660.716	88.62
660.919	97.62
661.123	104.62
661.326	88.62
661.53	100.62
661.733	96.62
661.936	84.62
662.14	89.62
662.343	87.62
662.546	78.62
662.75	83.62
662.953	78.62
663.156	74.62
663.36	95.62
663.563	74.62
663.766	80.62
663.969	96.62
664.173	88.62
664.376	83.62
664.579	92.62
664.782	86.62
664.985	82.62
665.188	83.62
665.391	73.62
665.594	81.62
665.797	94.62
666	73.62
666.203	73.62
666.406	75.62
666.609	76.62
666.812	71.62
667.015	83.62
667.218	71.62
667.421	82.62
667.624	69.62
667.827	83.62
668.03	89.62
668.232	79.62
668.435	80.62
668.638	93.62
668.841	92.62
669.043	81.62
669.246	95.62
669.449	85.62
669.651	77.62
669.854	77.62
670.057	89.62
670.259	76.62
670.462	75.62
670.665	78.62
670.867	82.62
671.07	87.62
671.272	76.62
671.475	86.62
671.677	92.62
671.88	75.62
672.082	76.62
672.284	86.62
672.487	91.62
672.689	76.62
672.892	78.62
