Data from 1970.PennyLincolnUp.Lamp.En5.5.200Scan.071719.P1._HRD10591_15-15-03-841.txt Node
Date: Thu Jul 18 15:15:03 EDT 2019
User: cochatt
Spectrometer: HR+D1059
Trigger mode: 1
Integration Time (sec): 1.000000E-1
Scans to average: 1
Electric dark correction enabled: true
Nonlinearity correction enabled: false
Boxcar width: 0
XAxis mode: Wavelengths
Number of Pixels in Spectrum: 2048
>>>>>Begin Spectral Data<<<<<
223.165	-15.06
223.4	-15.06
223.635	-15.06
223.869	-17.06
224.104	-7.06
224.338	-25.06
224.573	-21.06
224.808	-13.06
225.042	-2.06
225.277	10.94
225.511	-10.06
225.746	2.94
225.98	18.94
226.215	0.94
226.449	10.94
226.683	20.94
226.918	21.94
227.152	22.94
227.387	38.94
227.621	48.94
227.856	42.94
228.09	53.94
228.324	67.94
228.559	49.94
228.793	82.94
229.027	98.94
229.262	111.94
229.496	129.94
229.73	163.94
229.964	179.94
230.199	154.94
230.433	131.94
230.667	126.94
230.901	120.94
231.136	108.94
231.37	109.94
231.604	128.94
231.838	132.94
232.072	137.94
232.306	122.94
232.541	123.94
232.775	119.94
233.009	119.94
233.243	123.94
233.477	110.94
233.711	127.94
233.945	121.94
234.179	115.94
234.413	127.94
234.647	134.94
234.881	133.94
235.115	126.94
235.349	113.94
235.583	138.94
235.817	126.94
236.051	141.94
236.285	127.94
236.519	153.94
236.753	141.94
236.987	167.94
237.221	200.94
237.455	274.94
237.689	214.94
237.922	167.94
238.156	163.94
238.39	149.94
238.624	129.94
238.858	124.94
239.091	137.94
239.325	129.94
239.559	138.94
239.793	143.94
240.027	136.94
240.26	151.94
240.494	171.94
240.728	156.94
240.961	159.94
241.195	169.94
241.429	147.94
241.662	144.94
241.896	151.94
242.13	163.94
242.363	148.94
242.597	143.94
242.83	144.94
243.064	144.94
243.298	171.94
243.531	151.94
243.765	151.94
243.998	156.94
244.232	159.94
244.465	163.94
244.699	149.94
244.932	152.94
245.166	159.94
245.399	144.94
245.633	167.94
245.866	168.94
246.099	159.94
246.333	177.94
246.566	159.94
246.8	163.94
247.033	159.94
247.266	169.94
247.5	167.94
247.733	181.94
247.966	203.94
248.2	190.94
248.433	188.94
248.666	199.94
248.899	210.94
249.133	217.94
249.366	253.94
249.599	227.94
249.832	219.94
250.066	200.94
250.299	209.94
250.532	212.94
250.765	215.94
250.998	255.94
251.231	259.94
251.465	255.94
251.698	247.94
251.931	232.94
252.164	209.94
252.397	215.94
252.63	226.94
252.863	234.94
253.096	256.94
253.329	250.94
253.562	264.94
253.795	247.94
254.028	237.94
254.261	245.94
254.494	254.94
254.727	287.94
254.96	322.94
255.193	311.94
255.426	284.94
255.659	262.94
255.892	263.94
256.124	273.94
256.357	269.94
256.59	268.94
256.823	225.94
257.056	242.94
257.289	242.94
257.521	233.94
257.754	224.94
257.987	222.94
258.22	222.94
258.452	225.94
258.685	229.94
258.918	202.94
259.151	240.94
259.383	234.94
259.616	233.94
259.849	240.94
260.081	267.94
260.314	296.94
260.547	291.94
260.779	291.94
261.012	264.94
261.244	250.94
261.477	243.94
261.71	273.94
261.942	269.94
262.175	266.94
262.407	268.94
262.64	247.94
262.872	239.94
263.105	238.94
263.337	231.94
263.57	221.94
263.802	243.94
264.035	230.94
264.267	227.94
264.499	227.94
264.732	223.94
264.964	233.94
265.197	228.94
265.429	216.94
265.661	220.94
265.894	217.94
266.126	237.94
266.358	239.94
266.591	238.94
266.823	236.94
267.055	249.94
267.287	232.94
267.52	249.94
267.752	251.94
267.984	242.94
268.216	229.94
268.448	247.94
268.681	253.94
268.913	261.94
269.145	286.94
269.377	293.94
269.609	299.94
269.841	284.94
270.073	301.94
270.306	318.94
270.538	336.94
270.77	348.94
271.002	335.94
271.234	319.94
271.466	328.94
271.698	326.94
271.93	351.94
272.162	349.94
272.394	341.94
272.626	344.94
272.858	310.94
273.09	305.94
273.322	301.94
273.553	271.94
273.785	285.94
274.017	285.94
274.249	291.94
274.481	283.94
274.713	272.94
274.945	287.94
275.176	278.94
275.408	282.94
275.64	296.94
275.872	285.94
276.104	282.94
276.335	257.94
276.567	284.94
276.799	288.94
277.031	328.94
277.262	333.94
277.494	323.94
277.726	309.94
277.957	316.94
278.189	305.94
278.421	309.94
278.652	283.94
278.884	293.94
279.115	281.94
279.347	268.94
279.579	271.94
279.81	284.94
280.042	288.94
280.273	262.94
280.505	270.94
280.736	260.94
280.968	275.94
281.199	246.94
281.431	255.94
281.662	261.94
281.894	255.94
282.125	278.94
282.356	281.94
282.588	321.94
282.819	326.94
283.051	282.94
283.282	284.94
283.513	273.94
283.745	279.94
283.976	277.94
284.207	264.94
284.439	269.94
284.67	285.94
284.901	279.94
285.132	270.94
285.364	283.94
285.595	271.94
285.826	263.94
286.057	273.94
286.288	283.94
286.52	285.94
286.751	267.94
286.982	245.94
287.213	279.94
287.444	287.94
287.675	272.94
287.906	309.94
288.138	311.94
288.369	302.94
288.6	296.94
288.831	270.94
289.062	303.94
289.293	294.94
289.524	276.94
289.755	285.94
289.986	295.94
290.217	289.94
290.448	282.94
290.679	289.94
290.91	282.94
291.141	302.94
291.371	280.94
291.602	293.94
291.833	289.94
292.064	272.94
292.295	296.94
292.526	284.94
292.757	288.94
292.987	298.94
293.218	283.94
293.449	275.94
293.68	285.94
293.91	272.94
294.141	287.94
294.372	299.94
294.603	289.94
294.833	280.94
295.064	288.94
295.295	296.94
295.525	280.94
295.756	294.94
295.987	311.94
296.217	335.94
296.448	352.94
296.679	327.94
296.909	293.94
297.14	298.94
297.37	299.94
297.601	296.94
297.831	300.94
298.062	304.94
298.292	289.94
298.523	283.94
298.753	311.94
298.984	294.94
299.214	311.94
299.445	309.94
299.675	304.94
299.905	319.94
300.136	307.94
300.366	315.94
300.597	298.94
300.827	323.94
301.057	311.94
301.288	328.94
301.518	347.94
301.748	312.94
301.979	329.94
302.209	335.94
302.439	312.94
302.669	333.94
302.9	320.94
303.13	323.94
303.36	328.94
303.59	331.94
303.82	351.94
304.051	337.94
304.281	319.94
304.511	318.94
304.741	320.94
304.971	327.94
305.201	328.94
305.431	333.94
305.661	321.94
305.891	334.94
306.121	318.94
306.352	327.94
306.582	351.94
306.812	339.94
307.042	332.94
307.272	336.94
307.502	356.94
307.731	328.94
307.961	342.94
308.191	328.94
308.421	347.94
308.651	337.94
308.881	333.94
309.111	348.94
309.341	356.94
309.571	363.94
309.8	373.94
310.03	388.94
310.26	398.94
310.49	397.94
310.72	395.94
310.949	432.94
311.179	425.94
311.409	393.94
311.639	404.94
311.868	403.94
312.098	395.94
312.328	393.94
312.557	414.94
312.787	429.94
313.017	422.94
313.246	420.94
313.476	400.94
313.706	392.94
313.935	393.94
314.165	413.94
314.394	421.94
314.624	423.94
314.853	400.94
315.083	383.94
315.312	387.94
315.542	384.94
315.771	383.94
316.001	375.94
316.23	385.94
316.46	401.94
316.689	392.94
316.919	391.94
317.148	410.94
317.377	417.94
317.607	405.94
317.836	403.94
318.065	372.94
318.295	399.94
318.524	403.94
318.753	385.94
318.983	379.94
319.212	397.94
319.441	409.94
319.67	416.94
319.9	405.94
320.129	390.94
320.358	407.94
320.587	422.94
320.816	421.94
321.046	411.94
321.275	413.94
321.504	408.94
321.733	413.94
321.962	442.94
322.191	454.94
322.42	452.94
322.649	480.94
322.878	520.94
323.108	499.94
323.337	538.94
323.566	548.94
323.795	600.94
324.024	651.94
324.253	778.94
324.482	1127.94
324.71	1781.94
324.939	2517.94
325.168	2197.94
325.397	1148.94
325.626	785.94
325.855	612.94
326.084	589.94
326.313	567.94
326.542	567.94
326.77	625.94
326.999	738.94
327.228	996.94
327.457	1544.94
327.686	1881.94
327.914	1287.94
328.143	848.94
328.372	741.94
328.6	671.94
328.829	635.94
329.058	661.94
329.287	665.94
329.515	625.94
329.744	592.94
329.972	568.94
330.201	594.94
330.43	642.94
330.658	675.94
330.887	725.94
331.115	668.94
331.344	589.94
331.572	546.94
331.801	525.94
332.03	525.94
332.258	500.94
332.486	495.94
332.715	485.94
332.943	452.94
333.172	465.94
333.4	469.94
333.629	487.94
333.857	502.94
334.085	488.94
334.314	549.94
334.542	571.94
334.771	575.94
334.999	526.94
335.227	494.94
335.455	480.94
335.684	455.94
335.912	443.94
336.14	463.94
336.369	465.94
336.597	468.94
336.825	472.94
337.053	481.94
337.281	458.94
337.51	445.94
337.738	488.94
337.966	454.94
338.194	462.94
338.422	470.94
338.65	443.94
338.878	445.94
339.106	459.94
339.334	432.94
339.562	450.94
339.79	426.94
340.018	433.94
340.246	441.94
340.474	465.94
340.702	450.94
340.93	445.94
341.158	447.94
341.386	446.94
341.614	447.94
341.842	456.94
342.07	448.94
342.298	447.94
342.526	437.94
342.754	435.94
342.981	401.94
343.209	431.94
343.437	444.94
343.665	439.94
343.893	441.94
344.12	447.94
344.348	446.94
344.576	462.94
344.804	457.94
345.031	470.94
345.259	488.94
345.487	469.94
345.714	450.94
345.942	423.94
346.17	438.94
346.397	441.94
346.625	436.94
346.853	437.94
347.08	443.94
347.308	445.94
347.535	455.94
347.763	461.94
347.99	471.94
348.218	471.94
348.445	485.94
348.673	437.94
348.9	445.94
349.128	445.94
349.355	421.94
349.583	425.94
349.81	432.94
350.037	405.94
350.265	418.94
350.492	446.94
350.72	430.94
350.947	431.94
351.174	439.94
351.402	451.94
351.629	455.94
351.856	445.94
352.083	445.94
352.311	454.94
352.538	461.94
352.765	461.94
352.992	459.94
353.22	455.94
353.447	473.94
353.674	438.94
353.901	441.94
354.128	417.94
354.355	426.94
354.583	412.94
354.81	404.94
355.037	392.94
355.264	404.94
355.491	412.94
355.718	411.94
355.945	416.94
356.172	412.94
356.399	397.94
356.626	401.94
356.853	402.94
357.08	409.94
357.307	395.94
357.534	381.94
357.761	395.94
357.988	385.94
358.215	408.94
358.441	411.94
358.668	414.94
358.895	417.94
359.122	417.94
359.349	438.94
359.576	455.94
359.802	470.94
360.029	519.94
360.256	542.94
360.483	502.94
360.709	474.94
360.936	477.94
361.163	451.94
361.39	439.94
361.616	458.94
361.843	456.94
362.07	436.94
362.296	460.94
362.523	450.94
362.749	459.94
362.976	450.94
363.203	433.94
363.429	421.94
363.656	435.94
363.882	431.94
364.109	423.94
364.335	428.94
364.562	408.94
364.788	431.94
365.015	425.94
365.241	407.94
365.468	421.94
365.694	439.94
365.92	438.94
366.147	421.94
366.373	417.94
366.599	422.94
366.826	425.94
367.052	427.94
367.278	407.94
367.505	415.94
367.731	407.94
367.957	401.94
368.184	435.94
368.41	435.94
368.636	438.94
368.862	448.94
369.089	446.94
369.315	440.94
369.541	436.94
369.767	424.94
369.993	419.94
370.219	410.94
370.445	427.94
370.672	408.94
370.898	437.94
371.124	437.94
371.35	414.94
371.576	419.94
371.802	420.94
372.028	411.94
372.254	397.94
372.48	416.94
372.706	414.94
372.932	420.94
373.158	427.94
373.384	419.94
373.61	415.94
373.835	423.94
374.061	421.94
374.287	425.94
374.513	433.94
374.739	430.94
374.965	421.94
375.191	426.94
375.416	431.94
375.642	426.94
375.868	449.94
376.094	419.94
376.319	422.94
376.545	415.94
376.771	424.94
376.997	446.94
377.222	435.94
377.448	408.94
377.674	408.94
377.899	427.94
378.125	415.94
378.35	422.94
378.576	409.94
378.802	429.94
379.027	413.94
379.253	424.94
379.478	417.94
379.704	417.94
379.929	415.94
380.155	429.94
380.38	436.94
380.606	411.94
380.831	429.94
381.057	413.94
381.282	415.94
381.507	428.94
381.733	411.94
381.958	425.94
382.184	426.94
382.409	429.94
382.634	418.94
382.86	438.94
383.085	433.94
383.31	435.94
383.535	431.94
383.761	439.94
383.986	447.94
384.211	419.94
384.436	465.94
384.662	432.94
384.887	465.94
385.112	437.94
385.337	455.94
385.562	432.94
385.787	441.94
386.013	457.94
386.238	473.94
386.463	467.94
386.688	459.94
386.913	458.94
387.138	461.94
387.363	442.94
387.588	463.94
387.813	462.94
388.038	449.94
388.263	453.94
388.488	472.94
388.713	453.94
388.938	474.94
389.163	455.94
389.387	479.94
389.612	461.94
389.837	461.94
390.062	445.94
390.287	449.94
390.512	457.94
390.736	445.94
390.961	461.94
391.186	471.94
391.411	462.94
391.636	460.94
391.86	448.94
392.085	463.94
392.31	456.94
392.534	483.94
392.759	469.94
392.984	449.94
393.208	464.94
393.433	478.94
393.658	467.94
393.882	464.94
394.107	469.94
394.331	449.94
394.556	462.94
394.78	465.94
395.005	465.94
395.229	454.94
395.454	486.94
395.678	471.94
395.903	469.94
396.127	503.94
396.352	519.94
396.576	494.94
396.801	468.94
397.025	490.94
397.249	474.94
397.474	495.94
397.698	471.94
397.922	521.94
398.147	534.94
398.371	517.94
398.595	517.94
398.82	500.94
399.044	527.94
399.268	537.94
399.492	571.94
399.717	581.94
399.941	620.94
400.165	637.94
400.389	622.94
400.613	599.94
400.837	555.94
401.062	526.94
401.286	542.94
401.51	525.94
401.734	515.94
401.958	535.94
402.182	533.94
402.406	553.94
402.63	542.94
402.854	525.94
403.078	517.94
403.302	546.94
403.526	542.94
403.75	540.94
403.974	541.94
404.198	528.94
404.422	539.94
404.645	567.94
404.869	574.94
405.093	600.94
405.317	643.94
405.541	667.94
405.765	625.94
405.988	581.94
406.212	583.94
406.436	607.94
406.66	634.94
406.883	589.94
407.107	632.94
407.331	645.94
407.555	723.94
407.778	707.94
408.002	648.94
408.226	623.94
408.449	612.94
408.673	604.94
408.896	678.94
409.12	669.94
409.344	663.94
409.567	589.94
409.791	579.94
410.014	570.94
410.238	568.94
410.461	552.94
410.685	568.94
410.908	586.94
411.132	596.94
411.355	661.94
411.578	609.94
411.802	572.94
412.025	552.94
412.249	557.94
412.472	604.94
412.695	647.94
412.919	661.94
413.142	565.94
413.365	548.94
413.589	545.94
413.812	523.94
414.035	541.94
414.258	539.94
414.482	546.94
414.705	499.94
414.928	513.94
415.151	525.94
415.374	518.94
415.597	505.94
415.821	513.94
416.044	533.94
416.267	531.94
416.49	508.94
416.713	511.94
416.936	499.94
417.159	505.94
417.382	524.94
417.605	531.94
417.828	539.94
418.051	557.94
418.274	555.94
418.497	539.94
418.72	528.94
418.943	525.94
419.166	541.94
419.389	560.94
419.611	548.94
419.834	556.94
420.057	569.94
420.28	549.94
420.503	560.94
420.726	571.94
420.948	561.94
421.171	614.94
421.394	679.94
421.617	584.94
421.839	584.94
422.062	564.94
422.285	568.94
422.507	651.94
422.73	711.94
422.953	701.94
423.175	620.94
423.398	565.94
423.621	585.94
423.843	608.94
424.066	607.94
424.288	588.94
424.511	615.94
424.733	691.94
424.956	759.94
425.178	767.94
425.401	756.94
425.623	772.94
425.846	663.94
426.068	614.94
426.291	591.94
426.513	637.94
426.735	643.94
426.958	691.94
427.18	775.94
427.402	862.94
427.625	971.94
427.847	900.94
428.069	772.94
428.292	692.94
428.514	623.94
428.736	601.94
428.958	583.94
429.181	574.94
429.403	584.94
429.625	594.94
429.847	662.94
430.069	706.94
430.292	701.94
430.514	624.94
430.736	581.94
430.958	579.94
431.18	554.94
431.402	583.94
431.624	522.94
431.846	537.94
432.068	538.94
432.29	544.94
432.512	520.94
432.734	551.94
432.956	547.94
433.178	576.94
433.4	571.94
433.622	553.94
433.844	545.94
434.066	555.94
434.287	509.94
434.509	541.94
434.731	543.94
434.953	559.94
435.175	583.94
435.397	604.94
435.618	601.94
435.84	683.94
436.062	777.94
436.284	848.94
436.505	708.94
436.727	647.94
436.949	597.94
437.17	601.94
437.392	573.94
437.614	595.94
437.835	671.94
438.057	755.94
438.278	852.94
438.5	860.94
438.721	913.94
438.943	883.94
439.165	713.94
439.386	647.94
439.608	647.94
439.829	642.94
440.05	671.94
440.272	703.94
440.493	685.94
440.715	648.94
440.936	612.94
441.158	596.94
441.379	566.94
441.6	616.94
441.822	636.94
442.043	658.94
442.264	760.94
442.486	803.94
442.707	709.94
442.928	638.94
443.149	644.94
443.371	670.94
443.592	691.94
443.813	817.94
444.034	849.94
444.255	733.94
444.476	651.94
444.698	639.94
444.919	616.94
445.14	744.94
445.361	683.94
445.582	651.94
445.803	739.94
446.024	856.94
446.245	843.94
446.466	797.94
446.687	676.94
446.908	662.94
447.129	613.94
447.35	606.94
447.571	599.94
447.792	579.94
448.013	591.94
448.234	593.94
448.455	663.94
448.675	797.94
448.896	848.94
449.117	786.94
449.338	753.94
449.559	836.94
449.779	928.94
450	779.94
450.221	649.94
450.442	600.94
450.662	605.94
450.883	585.94
451.104	610.94
451.324	608.94
451.545	565.94
451.766	579.94
451.986	540.94
452.207	538.94
452.428	531.94
452.648	506.94
452.869	519.94
453.089	527.94
453.31	547.94
453.53	532.94
453.751	526.94
453.971	535.94
454.192	551.94
454.412	534.94
454.633	527.94
454.853	521.94
455.073	534.94
455.294	556.94
455.514	623.94
455.734	619.94
455.955	547.94
456.175	505.94
456.395	489.94
456.616	488.94
456.836	500.94
457.056	469.94
457.276	474.94
457.497	477.94
457.717	479.94
457.937	509.94
458.157	491.94
458.377	512.94
458.598	533.94
458.818	599.94
459.038	707.94
459.258	726.94
459.478	601.94
459.698	544.94
459.918	547.94
460.138	528.94
460.358	518.94
460.578	551.94
460.798	537.94
461.018	553.94
461.238	538.94
461.458	541.94
461.678	524.94
461.898	536.94
462.118	551.94
462.338	534.94
462.558	551.94
462.777	541.94
462.997	550.94
463.217	549.94
463.437	553.94
463.657	543.94
463.876	535.94
464.096	568.94
464.316	537.94
464.536	593.94
464.755	560.94
464.975	590.94
465.195	641.94
465.414	735.94
465.634	661.94
465.854	586.94
466.073	575.94
466.293	557.94
466.512	542.94
466.732	522.94
466.951	539.94
467.171	539.94
467.391	537.94
467.61	560.94
467.829	580.94
468.049	541.94
468.268	542.94
468.488	545.94
468.707	524.94
468.927	512.94
469.146	510.94
469.365	528.94
469.585	516.94
469.804	546.94
470.023	543.94
470.243	523.94
470.462	557.94
470.681	571.94
470.901	552.94
471.12	541.94
471.339	543.94
471.558	539.94
471.777	540.94
471.997	529.94
472.216	554.94
472.435	604.94
472.654	580.94
472.873	550.94
473.092	547.94
473.311	536.94
473.53	547.94
473.749	535.94
473.968	611.94
474.187	727.94
474.406	761.94
474.625	632.94
474.844	576.94
475.063	551.94
475.282	561.94
475.501	570.94
475.72	541.94
475.939	560.94
476.158	555.94
476.377	553.94
476.596	548.94
476.814	564.94
477.033	559.94
477.252	566.94
477.471	567.94
477.69	581.94
477.908	563.94
478.127	600.94
478.346	585.94
478.564	598.94
478.783	605.94
479.002	612.94
479.22	602.94
479.439	638.94
479.658	637.94
479.876	658.94
480.095	631.94
480.313	699.94
480.532	673.94
480.751	661.94
480.969	679.94
481.188	757.94
481.406	811.94
481.624	732.94
481.843	671.94
482.061	662.94
482.28	661.94
482.498	664.94
482.717	650.94
482.935	657.94
483.153	650.94
483.372	648.94
483.59	634.94
483.808	645.94
484.027	643.94
484.245	648.94
484.463	651.94
484.681	649.94
484.9	657.94
485.118	663.94
485.336	644.94
485.554	661.94
485.772	651.94
485.99	675.94
486.209	683.94
486.427	674.94
486.645	697.94
486.863	713.94
487.081	719.94
487.299	698.94
487.517	691.94
487.735	703.94
487.953	715.94
488.171	703.94
488.389	699.94
488.607	699.94
488.825	702.94
489.043	741.94
489.261	715.94
489.479	716.94
489.696	707.94
489.914	699.94
490.132	745.94
490.35	728.94
490.568	753.94
490.786	757.94
491.003	742.94
491.221	759.94
491.439	805.94
491.657	795.94
491.874	811.94
492.092	815.94
492.31	863.94
492.527	820.94
492.745	827.94
492.963	830.94
493.18	860.94
493.398	855.94
493.615	848.94
493.833	851.94
494.05	867.94
494.268	848.94
494.485	824.94
494.703	841.94
494.92	861.94
495.138	872.94
495.355	864.94
495.573	858.94
495.79	837.94
496.008	852.94
496.225	829.94
496.442	853.94
496.66	862.94
496.877	845.94
497.094	885.94
497.312	862.94
497.529	878.94
497.746	870.94
497.963	897.94
498.181	879.94
498.398	889.94
498.615	887.94
498.832	917.94
499.049	900.94
499.267	913.94
499.484	939.94
499.701	968.94
499.918	998.94
500.135	997.94
500.352	1038.94
500.569	1015.94
500.786	1064.94
501.003	1056.94
501.22	1048.94
501.437	1036.94
501.654	1036.94
501.871	1005.94
502.088	967.94
502.305	964.94
502.522	899.94
502.739	911.94
502.956	895.94
503.172	880.94
503.389	863.94
503.606	883.94
503.823	869.94
504.04	875.94
504.256	846.94
504.473	832.94
504.69	823.94
504.907	831.94
505.123	827.94
505.34	790.94
505.557	815.94
505.773	803.94
505.99	823.94
506.207	827.94
506.423	806.94
506.64	811.94
506.856	787.94
507.073	801.94
507.289	819.94
507.506	802.94
507.722	831.94
507.939	823.94
508.155	785.94
508.372	804.94
508.588	781.94
508.805	790.94
509.021	809.94
509.238	794.94
509.454	789.94
509.67	803.94
509.887	783.94
510.103	758.94
510.319	814.94
510.536	901.94
510.752	1533.94
510.968	1261.94
511.184	839.94
511.401	793.94
511.617	788.94
511.833	751.94
512.049	730.94
512.265	752.94
512.481	772.94
512.698	742.94
512.914	744.94
513.13	752.94
513.346	755.94
513.562	748.94
513.778	745.94
513.994	773.94
514.21	746.94
514.426	801.94
514.642	873.94
514.858	899.94
515.074	953.94
515.29	1134.94
515.506	1651.94
515.721	1388.94
515.937	945.94
516.153	838.94
516.369	784.94
516.585	761.94
516.801	767.94
517.016	746.94
517.232	744.94
517.448	750.94
517.664	718.94
517.879	758.94
518.095	738.94
518.311	726.94
518.527	749.94
518.742	758.94
518.958	723.94
519.173	716.94
519.389	719.94
519.605	721.94
519.82	721.94
520.036	769.94
520.251	814.94
520.467	823.94
520.682	823.94
520.898	855.94
521.113	876.94
521.329	933.94
521.544	1052.94
521.76	1320.94
521.975	2224.94
522.19	2160.94
522.406	1204.94
522.621	885.94
522.836	806.94
523.052	737.94
523.267	740.94
523.482	708.94
523.698	703.94
523.913	711.94
524.128	712.94
524.343	674.94
524.559	638.94
524.774	614.94
524.989	653.94
525.204	661.94
525.419	659.94
525.634	636.94
525.849	629.94
526.064	605.94
526.28	617.94
526.495	615.94
526.71	617.94
526.925	596.94
527.14	599.94
527.355	603.94
527.57	598.94
527.785	576.94
527.999	598.94
528.214	581.94
528.429	587.94
528.644	586.94
528.859	609.94
529.074	603.94
529.289	638.94
529.503	764.94
529.718	727.94
529.933	671.94
530.148	644.94
530.363	608.94
530.577	589.94
530.792	592.94
531.007	604.94
531.221	584.94
531.436	567.94
531.651	588.94
531.865	592.94
532.08	565.94
532.295	567.94
532.509	561.94
532.724	575.94
532.938	550.94
533.153	555.94
533.367	563.94
533.582	557.94
533.796	552.94
534.011	518.94
534.225	531.94
534.44	543.94
534.654	568.94
534.868	543.94
535.083	536.94
535.297	545.94
535.511	544.94
535.726	596.94
535.94	585.94
536.154	577.94
536.369	566.94
536.583	543.94
536.797	550.94
537.011	535.94
537.225	538.94
537.44	515.94
537.654	534.94
537.868	528.94
538.082	544.94
538.296	541.94
538.51	540.94
538.724	540.94
538.938	514.94
539.153	535.94
539.367	550.94
539.581	551.94
539.795	521.94
540.009	516.94
540.222	542.94
540.436	564.94
540.65	545.94
540.864	531.94
541.078	563.94
541.292	569.94
541.506	556.94
541.72	566.94
541.934	522.94
542.147	546.94
542.361	516.94
542.575	524.94
542.789	538.94
543.002	518.94
543.216	522.94
543.43	561.94
543.644	527.94
543.857	552.94
544.071	551.94
544.285	534.94
544.498	540.94
544.712	544.94
544.925	554.94
545.139	528.94
545.352	541.94
545.566	507.94
545.779	526.94
545.993	529.94
546.206	513.94
546.42	520.94
546.633	522.94
546.847	503.94
547.06	497.94
547.274	509.94
547.487	492.94
547.7	513.94
547.914	515.94
548.127	519.94
548.34	515.94
548.554	496.94
548.767	507.94
548.98	515.94
549.193	504.94
549.407	510.94
549.62	494.94
549.833	510.94
550.046	501.94
550.259	490.94
550.473	492.94
550.686	516.94
550.899	493.94
551.112	482.94
551.325	490.94
551.538	484.94
551.751	496.94
551.964	485.94
552.177	474.94
552.39	484.94
552.603	481.94
552.816	492.94
553.029	483.94
553.242	518.94
553.455	505.94
553.667	518.94
553.88	523.94
554.093	518.94
554.306	489.94
554.519	479.94
554.732	494.94
554.944	477.94
555.157	478.94
555.37	478.94
555.583	488.94
555.795	466.94
556.008	481.94
556.221	472.94
556.433	469.94
556.646	456.94
556.859	437.94
557.071	457.94
557.284	469.94
557.496	454.94
557.709	473.94
557.921	468.94
558.134	461.94
558.346	459.94
558.559	451.94
558.771	452.94
558.984	449.94
559.196	441.94
559.409	463.94
559.621	459.94
559.833	440.94
560.046	435.94
560.258	436.94
560.47	421.94
560.683	446.94
560.895	447.94
561.107	425.94
561.32	437.94
561.532	421.94
561.744	457.94
561.956	446.94
562.168	448.94
562.381	442.94
562.593	447.94
562.805	420.94
563.017	435.94
563.229	446.94
563.441	445.94
563.653	463.94
563.865	427.94
564.077	442.94
564.289	455.94
564.501	435.94
564.713	448.94
564.925	459.94
565.137	479.94
565.349	476.94
565.561	448.94
565.773	464.94
565.985	479.94
566.197	467.94
566.408	489.94
566.62	491.94
566.832	500.94
567.044	511.94
567.255	511.94
567.467	507.94
567.679	499.94
567.891	501.94
568.102	515.94
568.314	495.94
568.526	489.94
568.737	466.94
568.949	460.94
569.161	459.94
569.372	450.94
569.584	453.94
569.795	440.94
570.007	456.94
570.218	518.94
570.43	471.94
570.641	428.94
570.853	433.94
571.064	421.94
571.276	409.94
571.487	393.94
571.698	411.94
571.91	411.94
572.121	408.94
572.333	405.94
572.544	399.94
572.755	383.94
572.966	391.94
573.178	383.94
573.389	392.94
573.6	390.94
573.811	396.94
574.023	363.94
574.234	344.94
574.445	368.94
574.656	363.94
574.867	385.94
575.078	393.94
575.289	362.94
575.501	381.94
575.712	384.94
575.923	367.94
576.134	365.94
576.345	364.94
576.556	379.94
576.767	377.94
576.978	383.94
577.188	372.94
577.399	377.94
577.61	360.94
577.821	371.94
578.032	356.94
578.243	423.94
578.454	703.94
578.665	517.94
578.875	378.94
579.086	346.94
579.297	359.94
579.508	371.94
579.718	353.94
579.929	354.94
580.14	358.94
580.35	354.94
580.561	352.94
580.772	340.94
580.982	342.94
581.193	366.94
581.403	355.94
581.614	347.94
581.825	342.94
582.035	350.94
582.246	345.94
582.456	322.94
582.667	327.94
582.877	352.94
583.087	347.94
583.298	325.94
583.508	345.94
583.719	339.94
583.929	345.94
584.139	343.94
584.35	330.94
584.56	326.94
584.77	326.94
584.981	336.94
585.191	348.94
585.401	344.94
585.611	330.94
585.821	328.94
586.032	327.94
586.242	326.94
586.452	324.94
586.662	338.94
586.872	323.94
587.082	333.94
587.292	321.94
587.502	324.94
587.713	315.94
587.923	341.94
588.133	316.94
588.343	310.94
588.553	341.94
588.762	332.94
588.972	314.94
589.182	331.94
589.392	323.94
589.602	346.94
589.812	329.94
590.022	312.94
590.232	341.94
590.441	331.94
590.651	325.94
590.861	321.94
591.071	323.94
591.281	329.94
591.49	311.94
591.7	337.94
591.91	335.94
592.119	332.94
592.329	313.94
592.539	322.94
592.748	327.94
592.958	317.94
593.167	335.94
593.377	356.94
593.587	355.94
593.796	350.94
594.006	325.94
594.215	317.94
594.424	341.94
594.634	347.94
594.843	321.94
595.053	335.94
595.262	308.94
595.472	323.94
595.681	311.94
595.89	332.94
596.1	325.94
596.309	307.94
596.518	321.94
596.727	321.94
596.937	324.94
597.146	310.94
597.355	293.94
597.564	309.94
597.774	299.94
597.983	309.94
598.192	317.94
598.401	327.94
598.61	317.94
598.819	295.94
599.028	299.94
599.237	293.94
599.446	290.94
599.655	279.94
599.864	285.94
600.073	301.94
600.282	279.94
600.491	302.94
600.7	297.94
600.909	286.94
601.118	291.94
601.327	291.94
601.536	281.94
601.745	285.94
601.953	289.94
602.162	289.94
602.371	303.94
602.58	281.94
602.789	276.94
602.997	287.94
603.206	303.94
603.415	289.94
603.623	276.94
603.832	287.94
604.041	275.94
604.249	273.94
604.458	270.94
604.666	284.94
604.875	276.94
605.084	269.94
605.292	265.94
605.501	292.94
605.709	297.94
605.918	285.94
606.126	287.94
606.334	275.94
606.543	283.94
606.751	264.94
606.96	268.94
607.168	284.94
607.376	278.94
607.585	279.94
607.793	284.94
608.001	282.94
608.21	290.94
608.418	267.94
608.626	274.94
608.834	274.94
609.043	279.94
609.251	294.94
609.459	263.94
609.667	278.94
609.875	282.94
610.083	266.94
610.291	271.94
610.499	262.94
610.707	269.94
610.916	271.94
611.124	278.94
611.332	290.94
611.54	279.94
611.748	269.94
611.955	280.94
612.163	283.94
612.371	263.94
612.579	261.94
612.787	267.94
612.995	259.94
613.203	278.94
613.411	268.94
613.618	250.94
613.826	280.94
614.034	276.94
614.242	259.94
614.449	261.94
614.657	272.94
614.865	244.94
615.072	266.94
615.28	266.94
615.488	278.94
615.695	261.94
615.903	275.94
616.111	255.94
616.318	269.94
616.526	262.94
616.733	255.94
616.941	279.94
617.148	273.94
617.356	263.94
617.563	268.94
617.771	265.94
617.978	260.94
618.185	248.94
618.393	252.94
618.6	257.94
618.807	264.94
619.015	255.94
619.222	261.94
619.429	270.94
619.637	257.94
619.844	269.94
620.051	238.94
620.258	243.94
620.466	241.94
620.673	243.94
620.88	256.94
621.087	239.94
621.294	250.94
621.501	237.94
621.708	228.94
621.915	247.94
622.122	259.94
622.329	257.94
622.536	259.94
622.743	251.94
622.95	245.94
623.157	240.94
623.364	232.94
623.571	236.94
623.778	228.94
623.985	229.94
624.192	249.94
624.399	236.94
624.606	232.94
624.812	253.94
625.019	247.94
625.226	238.94
625.433	243.94
625.639	233.94
625.846	232.94
626.053	237.94
626.259	232.94
626.466	246.94
626.673	231.94
626.879	242.94
627.086	204.94
627.293	213.94
627.499	230.94
627.706	239.94
627.912	232.94
628.119	227.94
628.325	240.94
628.532	237.94
628.738	232.94
628.945	220.94
629.151	228.94
629.357	211.94
629.564	218.94
629.77	224.94
629.976	241.94
630.183	211.94
630.389	230.94
630.595	221.94
630.802	211.94
631.008	210.94
631.214	230.94
631.42	215.94
631.627	217.94
631.833	201.94
632.039	210.94
632.245	217.94
632.451	211.94
632.657	231.94
632.863	209.94
633.069	204.94
633.275	197.94
633.481	216.94
633.688	217.94
633.893	217.94
634.099	201.94
634.305	208.94
634.511	209.94
634.717	208.94
634.923	196.94
635.129	211.94
635.335	217.94
635.541	209.94
635.747	215.94
635.952	212.94
636.158	193.94
636.364	205.94
636.57	204.94
636.775	202.94
636.981	203.94
637.187	189.94
637.392	199.94
637.598	195.94
637.804	198.94
638.009	200.94
638.215	199.94
638.421	215.94
638.626	186.94
638.832	191.94
639.037	185.94
639.243	196.94
639.448	192.94
639.654	191.94
639.859	198.94
640.065	186.94
640.27	191.94
640.475	189.94
640.681	189.94
640.886	187.94
641.091	193.94
641.297	210.94
641.502	200.94
641.707	192.94
641.913	192.94
642.118	191.94
642.323	179.94
642.528	175.94
642.733	177.94
642.939	192.94
643.144	182.94
643.349	179.94
643.554	185.94
643.759	174.94
643.964	179.94
644.169	186.94
644.374	183.94
644.579	186.94
644.784	169.94
644.989	179.94
645.194	180.94
645.399	179.94
645.604	168.94
645.809	173.94
646.014	177.94
646.219	175.94
646.423	183.94
646.628	188.94
646.833	188.94
647.038	190.94
647.243	182.94
647.447	189.94
647.652	169.94
647.857	183.94
648.062	197.94
648.266	179.94
648.471	175.94
648.676	191.94
648.88	184.94
649.085	204.94
649.289	176.94
649.494	172.94
649.698	196.94
649.903	196.94
650.107	186.94
650.312	186.94
650.516	179.94
650.721	183.94
650.925	186.94
651.13	160.94
651.334	168.94
651.539	155.94
651.743	151.94
651.947	155.94
652.152	159.94
652.356	154.94
652.56	169.94
652.764	156.94
652.969	150.94
653.173	140.94
653.377	133.94
653.581	143.94
653.785	151.94
653.99	141.94
654.194	129.94
654.398	162.94
654.602	136.94
654.806	141.94
655.01	151.94
655.214	145.94
655.418	132.94
655.622	146.94
655.826	135.94
656.03	141.94
656.234	133.94
656.438	133.94
656.642	136.94
656.846	145.94
657.049	139.94
657.253	133.94
657.457	130.94
657.661	118.94
657.865	124.94
658.068	116.94
658.272	118.94
658.476	128.94
658.68	112.94
658.883	99.94
659.087	103.94
659.291	95.94
659.494	103.94
659.698	105.94
659.901	106.94
660.105	86.94
660.309	94.94
660.512	94.94
660.716	93.94
660.919	101.94
661.123	92.94
661.326	91.94
661.53	89.94
661.733	98.94
661.936	85.94
662.14	100.94
662.343	81.94
662.546	71.94
662.75	79.94
662.953	85.94
663.156	81.94
663.36	83.94
663.563	86.94
663.766	99.94
663.969	86.94
664.173	84.94
664.376	87.94
664.579	93.94
664.782	92.94
664.985	87.94
665.188	93.94
665.391	88.94
665.594	91.94
665.797	77.94
666	79.94
666.203	82.94
666.406	92.94
666.609	81.94
666.812	90.94
667.015	77.94
667.218	68.94
667.421	78.94
667.624	79.94
667.827	79.94
668.03	84.94
668.232	89.94
668.435	85.94
668.638	75.94
668.841	59.94
669.043	73.94
669.246	86.94
669.449	84.94
669.651	89.94
669.854	71.94
670.057	79.94
670.259	89.94
670.462	79.94
670.665	88.94
670.867	82.94
671.07	86.94
671.272	82.94
671.475	88.94
671.677	88.94
671.88	89.94
672.082	90.94
672.284	70.94
672.487	99.94
672.689	83.94
672.892	80.94
