Data from 1970.PennyLincolnUp.Lamp.En5.5.200Scan.071719.P1._HRD10591_15-15-27-842.txt Node
Date: Thu Jul 18 15:15:27 EDT 2019
User: cochatt
Spectrometer: HR+D1059
Trigger mode: 1
Integration Time (sec): 1.000000E-1
Scans to average: 1
Electric dark correction enabled: true
Nonlinearity correction enabled: false
Boxcar width: 0
XAxis mode: Wavelengths
Number of Pixels in Spectrum: 2048
>>>>>Begin Spectral Data<<<<<
223.165	-25
223.4	-25
223.635	-25
223.869	-20
224.104	-29
224.338	-8
224.573	-11
224.808	-13
225.042	-14
225.277	0
225.511	0
225.746	6
225.98	14
226.215	11
226.449	14
226.683	20
226.918	29
227.152	26
227.387	27
227.621	31
227.856	20
228.09	33
228.324	39
228.559	59
228.793	74
229.027	107
229.262	117
229.496	122
229.73	131
229.964	173
230.199	141
230.433	125
230.667	118
230.901	121
231.136	99
231.37	105
231.604	124
231.838	102
232.072	119
232.306	124
232.541	105
232.775	118
233.009	129
233.243	121
233.477	122
233.711	127
233.945	118
234.179	130
234.413	122
234.647	119
234.881	114
235.115	116
235.349	125
235.583	116
235.817	134
236.051	107
236.285	154
236.519	132
236.753	147
236.987	160
237.221	197
237.455	258
237.689	194
237.922	135
238.156	134
238.39	134
238.624	138
238.858	129
239.091	128
239.325	114
239.559	132
239.793	131
240.027	137
240.26	158
240.494	186
240.728	156
240.961	151
241.195	157
241.429	142
241.662	156
241.896	137
242.13	147
242.363	137
242.597	132
242.83	129
243.064	148
243.298	139
243.531	132
243.765	143
243.998	148
244.232	146
244.465	148
244.699	161
244.932	162
245.166	166
245.399	163
245.633	160
245.866	162
246.099	139
246.333	160
246.566	163
246.8	146
247.033	154
247.266	156
247.5	171
247.733	184
247.966	193
248.2	182
248.433	185
248.666	175
248.899	199
249.133	217
249.366	222
249.599	215
249.832	192
250.066	206
250.299	195
250.532	205
250.765	225
250.998	252
251.231	255
251.465	245
251.698	228
251.931	218
252.164	214
252.397	224
252.63	206
252.863	227
253.096	229
253.329	250
253.562	237
253.795	256
254.028	228
254.261	257
254.494	270
254.727	293
254.96	300
255.193	309
255.426	278
255.659	292
255.892	260
256.124	269
256.357	250
256.59	235
256.823	235
257.056	236
257.289	237
257.521	240
257.754	224
257.987	217
258.22	226
258.452	221
258.685	242
258.918	216
259.151	227
259.383	243
259.616	236
259.849	233
260.081	257
260.314	270
260.547	278
260.779	281
261.012	238
261.244	246
261.477	261
261.71	216
261.942	260
262.175	240
262.407	244
262.64	229
262.872	237
263.105	236
263.337	232
263.57	228
263.802	211
264.035	219
264.267	216
264.499	219
264.732	230
264.964	212
265.197	231
265.429	217
265.661	223
265.894	229
266.126	226
266.358	213
266.591	232
266.823	221
267.055	216
267.287	237
267.52	227
267.752	237
267.984	253
268.216	240
268.448	223
268.681	221
268.913	247
269.145	264
269.377	287
269.609	275
269.841	279
270.073	273
270.306	315
270.538	328
270.77	322
271.002	299
271.234	289
271.466	304
271.698	339
271.93	339
272.162	341
272.394	344
272.626	333
272.858	313
273.09	286
273.322	288
273.553	268
273.785	287
274.017	269
274.249	276
274.481	263
274.713	297
274.945	279
275.176	283
275.408	278
275.64	282
275.872	276
276.104	266
276.335	260
276.567	288
276.799	277
277.031	302
277.262	332
277.494	331
277.726	329
277.957	296
278.189	305
278.421	279
278.652	258
278.884	277
279.115	276
279.347	273
279.579	274
279.81	268
280.042	282
280.273	274
280.505	283
280.736	243
280.968	279
281.199	260
281.431	256
281.662	265
281.894	264
282.125	262
282.356	277
282.588	314
282.819	320
283.051	274
283.282	271
283.513	270
283.745	269
283.976	267
284.207	265
284.439	268
284.67	265
284.901	261
285.132	280
285.364	285
285.595	269
285.826	284
286.057	268
286.288	274
286.52	256
286.751	246
286.982	263
287.213	264
287.444	278
287.675	264
287.906	296
288.138	308
288.369	298
288.6	309
288.831	302
289.062	294
289.293	283
289.524	294
289.755	265
289.986	275
290.217	288
290.448	287
290.679	278
290.91	296
291.141	266
291.371	294
291.602	294
291.833	282
292.064	289
292.295	285
292.526	288
292.757	280
292.987	271
293.218	280
293.449	283
293.68	287
293.91	272
294.141	260
294.372	283
294.603	297
294.833	275
295.064	277
295.295	295
295.525	307
295.756	308
295.987	294
296.217	322
296.448	344
296.679	302
296.909	292
297.14	269
297.37	285
297.601	296
297.831	288
298.062	298
298.292	292
298.523	299
298.753	286
298.984	299
299.214	304
299.445	300
299.675	304
299.905	301
300.136	294
300.366	294
300.597	299
300.827	307
301.057	314
301.288	308
301.518	317
301.748	314
301.979	310
302.209	312
302.439	315
302.669	341
302.9	301
303.13	309
303.36	341
303.59	331
303.82	333
304.051	312
304.281	330
304.511	315
304.741	323
304.971	315
305.201	314
305.431	333
305.661	312
305.891	307
306.121	315
306.352	342
306.582	344
306.812	329
307.042	338
307.272	336
307.502	348
307.731	317
307.961	324
308.191	331
308.421	305
308.651	334
308.881	347
309.111	356
309.341	358
309.571	350
309.8	371
310.03	356
310.26	382
310.49	368
310.72	398
310.949	381
311.179	416
311.409	413
311.639	382
311.868	380
312.098	386
312.328	404
312.557	406
312.787	427
313.017	423
313.246	401
313.476	377
313.706	360
313.935	402
314.165	394
314.394	433
314.624	419
314.853	385
315.083	370
315.312	387
315.542	367
315.771	376
316.001	364
316.23	378
316.46	384
316.689	378
316.919	385
317.148	392
317.377	378
317.607	376
317.836	386
318.065	373
318.295	385
318.524	366
318.753	370
318.983	390
319.212	408
319.441	397
319.67	394
319.9	396
320.129	395
320.358	389
320.587	402
320.816	394
321.046	401
321.275	427
321.504	411
321.733	380
321.962	406
322.191	453
322.42	441
322.649	480
322.878	492
323.108	492
323.337	520
323.566	544
323.795	594
324.024	634
324.253	755
324.482	1124
324.71	1715
324.939	2429
325.168	2122
325.397	1151
325.626	760
325.855	595
326.084	548
326.313	562
326.542	549
326.77	607
326.999	701
327.228	966
327.457	1480
327.686	1803
327.914	1247
328.143	832
328.372	728
328.6	673
328.829	630
329.058	632
329.287	651
329.515	601
329.744	544
329.972	572
330.201	566
330.43	633
330.658	649
330.887	679
331.115	670
331.344	558
331.572	519
331.801	540
332.03	504
332.258	492
332.486	454
332.715	454
332.943	446
333.172	456
333.4	460
333.629	462
333.857	491
334.085	515
334.314	518
334.542	556
334.771	578
334.999	522
335.227	501
335.455	466
335.684	454
335.912	456
336.14	430
336.369	443
336.597	478
336.825	460
337.053	433
337.281	448
337.51	456
337.738	455
337.966	438
338.194	484
338.422	464
338.65	433
338.878	435
339.106	426
339.334	432
339.562	418
339.79	430
340.018	425
340.246	422
340.474	440
340.702	443
340.93	426
341.158	444
341.386	431
341.614	437
341.842	436
342.07	436
342.298	426
342.526	414
342.754	422
342.981	400
343.209	412
343.437	432
343.665	436
343.893	444
344.12	458
344.348	439
344.576	440
344.804	450
345.031	459
345.259	474
345.487	456
345.714	441
345.942	421
346.17	421
346.397	420
346.625	421
346.853	419
347.08	424
347.308	448
347.535	432
347.763	457
347.99	437
348.218	444
348.445	435
348.673	431
348.9	433
349.128	429
349.355	408
349.583	418
349.81	421
350.037	402
350.265	413
350.492	423
350.72	421
350.947	422
351.174	438
351.402	438
351.629	437
351.856	426
352.083	458
352.311	467
352.538	457
352.765	460
352.992	434
353.22	430
353.447	429
353.674	425
353.901	426
354.128	414
354.355	413
354.583	420
354.81	405
355.037	395
355.264	409
355.491	390
355.718	390
355.945	399
356.172	420
356.399	410
356.626	394
356.853	388
357.08	391
357.307	396
357.534	405
357.761	398
357.988	409
358.215	392
358.441	392
358.668	382
358.895	420
359.122	402
359.349	424
359.576	454
359.802	460
360.029	501
360.256	524
360.483	465
360.709	482
360.936	426
361.163	455
361.39	452
361.616	457
361.843	430
362.07	428
362.296	448
362.523	452
362.749	428
362.976	444
363.203	439
363.429	417
363.656	408
363.882	427
364.109	428
364.335	401
364.562	412
364.788	422
365.015	436
365.241	440
365.468	430
365.694	425
365.92	422
366.147	401
366.373	425
366.599	405
366.826	419
367.052	420
367.278	409
367.505	417
367.731	439
367.957	420
368.184	413
368.41	438
368.636	427
368.862	457
369.089	416
369.315	417
369.541	426
369.767	424
369.993	419
370.219	428
370.445	406
370.672	416
370.898	405
371.124	402
371.35	393
371.576	413
371.802	412
372.028	412
372.254	424
372.48	401
372.706	404
372.932	418
373.158	420
373.384	411
373.61	417
373.835	426
374.061	398
374.287	413
374.513	438
374.739	432
374.965	437
375.191	407
375.416	417
375.642	403
375.868	413
376.094	424
376.319	391
376.545	406
376.771	415
376.997	409
377.222	384
377.448	393
377.674	406
377.899	407
378.125	424
378.35	402
378.576	408
378.802	405
379.027	395
379.253	409
379.478	409
379.704	413
379.929	438
380.155	406
380.38	420
380.606	405
380.831	414
381.057	415
381.282	430
381.507	427
381.733	399
381.958	418
382.184	440
382.409	423
382.634	419
382.86	418
383.085	419
383.31	418
383.535	432
383.761	423
383.986	414
384.211	428
384.436	426
384.662	421
384.887	419
385.112	425
385.337	425
385.562	476
385.787	440
386.013	438
386.238	451
386.463	460
386.688	440
386.913	440
387.138	445
387.363	453
387.588	450
387.813	429
388.038	450
388.263	445
388.488	440
388.713	466
388.938	444
389.163	458
389.387	469
389.612	441
389.837	445
390.062	444
390.287	451
390.512	425
390.736	452
390.961	456
391.186	423
391.411	429
391.636	433
391.86	457
392.085	473
392.31	440
392.534	435
392.759	459
392.984	452
393.208	430
393.433	453
393.658	478
393.882	455
394.107	455
394.331	455
394.556	453
394.78	441
395.005	445
395.229	451
395.454	457
395.678	477
395.903	470
396.127	478
396.352	513
396.576	461
396.801	463
397.025	472
397.249	474
397.474	465
397.698	463
397.922	508
398.147	506
398.371	504
398.595	500
398.82	510
399.044	500
399.268	526
399.492	521
399.717	564
399.941	568
400.165	595
400.389	590
400.613	570
400.837	538
401.062	540
401.286	514
401.51	506
401.734	500
401.958	516
402.182	521
402.406	530
402.63	530
402.854	530
403.078	516
403.302	518
403.526	533
403.75	534
403.974	532
404.198	526
404.422	525
404.645	526
404.869	543
405.093	578
405.317	613
405.541	676
405.765	627
405.988	564
406.212	588
406.436	613
406.66	625
406.883	596
407.107	589
407.331	653
407.555	709
407.778	711
408.002	634
408.226	627
408.449	590
408.673	595
408.896	618
409.12	668
409.344	634
409.567	579
409.791	539
410.014	532
410.238	546
410.461	552
410.685	578
410.908	576
411.132	600
411.355	622
411.578	590
411.802	562
412.025	551
412.249	570
412.472	582
412.695	613
412.919	622
413.142	573
413.365	573
413.589	521
413.812	525
414.035	505
414.258	506
414.482	490
414.705	506
414.928	516
415.151	511
415.374	508
415.597	528
415.821	503
416.044	511
416.267	498
416.49	522
416.713	488
416.936	507
417.159	490
417.382	536
417.605	552
417.828	539
418.051	564
418.274	539
418.497	542
418.72	541
418.943	516
419.166	537
419.389	560
419.611	538
419.834	564
420.057	568
420.28	564
420.503	575
420.726	543
420.948	581
421.171	588
421.394	624
421.617	579
421.839	540
422.062	552
422.285	560
422.507	634
422.73	710
422.953	695
423.175	594
423.398	595
423.621	582
423.843	595
424.066	619
424.288	592
424.511	619
424.733	690
424.956	771
425.178	715
425.401	721
425.623	733
425.846	637
426.068	606
426.291	636
426.513	601
426.735	630
426.958	655
427.18	733
427.402	859
427.625	970
427.847	896
428.069	776
428.292	667
428.514	620
428.736	612
428.958	577
429.181	550
429.403	562
429.625	571
429.847	611
430.069	681
430.292	684
430.514	607
430.736	568
430.958	570
431.18	516
431.402	545
431.624	516
431.846	524
432.068	529
432.29	538
432.512	550
432.734	549
432.956	494
433.178	537
433.4	548
433.622	534
433.844	529
434.066	518
434.287	534
434.509	516
434.731	528
434.953	557
435.175	570
435.397	628
435.618	610
435.84	642
436.062	741
436.284	808
436.505	714
436.727	636
436.949	597
437.17	556
437.392	568
437.614	590
437.835	612
438.057	749
438.278	826
438.5	821
438.721	904
438.943	840
439.165	702
439.386	656
439.608	621
439.829	628
440.05	664
440.272	702
440.493	655
440.715	610
440.936	582
441.158	562
441.379	570
441.6	593
441.822	593
442.043	651
442.264	735
442.486	797
442.707	690
442.928	656
443.149	628
443.371	661
443.592	695
443.813	809
444.034	856
444.255	706
444.476	660
444.698	595
444.919	608
445.14	716
445.361	670
445.582	653
445.803	729
446.024	852
446.245	844
446.466	768
446.687	680
446.908	624
447.129	582
447.35	576
447.571	567
447.792	571
448.013	564
448.234	630
448.455	668
448.675	753
448.896	844
449.117	747
449.338	726
449.559	799
449.779	884
450	741
450.221	638
450.442	604
450.662	558
450.883	576
451.104	581
451.324	585
451.545	563
451.766	532
451.986	508
452.207	508
452.428	503
452.648	509
452.869	518
453.089	513
453.31	538
453.53	529
453.751	496
453.971	510
454.192	535
454.412	528
454.633	502
454.853	512
455.073	485
455.294	552
455.514	606
455.734	580
455.955	504
456.175	487
456.395	488
456.616	488
456.836	474
457.056	457
457.276	461
457.497	478
457.717	476
457.937	467
458.157	496
458.377	502
458.598	518
458.818	591
459.038	673
459.258	706
459.478	599
459.698	536
459.918	550
460.138	505
460.358	522
460.578	497
460.798	532
461.018	532
461.238	530
461.458	514
461.678	519
461.898	537
462.118	514
462.338	524
462.558	514
462.777	544
462.997	518
463.217	552
463.437	546
463.657	563
463.876	540
464.096	541
464.316	552
464.536	537
464.755	568
464.975	572
465.195	626
465.414	712
465.634	658
465.854	588
466.073	576
466.293	526
466.512	533
466.732	506
466.951	518
467.171	519
467.391	512
467.61	538
467.829	543
468.049	512
468.268	515
468.488	520
468.707	520
468.927	497
469.146	504
469.365	524
469.585	514
469.804	531
470.023	541
470.243	536
470.462	541
470.681	558
470.901	539
471.12	517
471.339	532
471.558	522
471.777	533
471.997	518
472.216	544
472.435	591
472.654	575
472.873	554
473.092	531
473.311	536
473.53	544
473.749	550
473.968	581
474.187	699
474.406	715
474.625	601
474.844	541
475.063	525
475.282	527
475.501	537
475.72	525
475.939	540
476.158	547
476.377	557
476.596	531
476.814	548
477.033	569
477.252	548
477.471	538
477.69	562
477.908	573
478.127	561
478.346	569
478.564	572
478.783	586
479.002	618
479.22	600
479.439	608
479.658	630
479.876	637
480.095	636
480.313	637
480.532	643
480.751	639
480.969	657
481.188	746
481.406	818
481.624	718
481.843	679
482.061	650
482.28	656
482.498	612
482.717	624
482.935	646
483.153	618
483.372	633
483.59	619
483.808	650
484.027	614
484.245	624
484.463	652
484.681	643
484.9	640
485.118	657
485.336	658
485.554	649
485.772	636
485.99	636
486.209	646
486.427	660
486.645	672
486.863	708
487.081	706
487.299	684
487.517	679
487.735	664
487.953	684
488.171	663
488.389	692
488.607	683
488.825	667
489.043	655
489.261	703
489.479	690
489.696	699
489.914	706
490.132	711
490.35	725
490.568	751
490.786	738
491.003	734
491.221	772
491.439	779
491.657	810
491.874	802
492.092	786
492.31	798
492.527	822
492.745	791
492.963	793
493.18	814
493.398	819
493.615	856
493.833	846
494.05	838
494.268	847
494.485	804
494.703	805
494.92	816
495.138	836
495.355	828
495.573	828
495.79	810
496.008	839
496.225	859
496.442	838
496.66	826
496.877	833
497.094	812
497.312	843
497.529	854
497.746	858
497.963	827
498.181	866
498.398	865
498.615	874
498.832	888
499.049	896
499.267	907
499.484	925
499.701	952
499.918	956
500.135	950
500.352	1020
500.569	999
500.786	1011
501.003	1030
501.22	1010
501.437	994
501.654	956
501.871	956
502.088	926
502.305	923
502.522	932
502.739	907
502.956	872
503.172	846
503.389	836
503.606	835
503.823	830
504.04	850
504.256	861
504.473	819
504.69	788
504.907	817
505.123	802
505.34	801
505.557	790
505.773	812
505.99	818
506.207	789
506.423	788
506.64	808
506.856	782
507.073	794
507.289	786
507.506	813
507.722	806
507.939	819
508.155	796
508.372	774
508.588	761
508.805	756
509.021	764
509.238	767
509.454	779
509.67	780
509.887	753
510.103	768
510.319	789
510.536	886
510.752	1480
510.968	1228
511.184	818
511.401	770
511.617	754
511.833	711
512.049	727
512.265	758
512.481	733
512.698	722
512.914	725
513.13	730
513.346	727
513.562	725
513.778	717
513.994	747
514.21	775
514.426	794
514.642	831
514.858	881
515.074	897
515.29	1086
515.506	1660
515.721	1367
515.937	883
516.153	818
516.369	766
516.585	740
516.801	726
517.016	725
517.232	729
517.448	724
517.664	711
517.879	717
518.095	704
518.311	713
518.527	730
518.742	704
518.958	734
519.173	731
519.389	704
519.605	729
519.82	733
520.036	729
520.251	780
520.467	773
520.682	786
520.898	819
521.113	852
521.329	894
521.544	1044
521.76	1312
521.975	2148
522.19	2122
522.406	1171
522.621	883
522.836	800
523.052	754
523.267	695
523.482	697
523.698	670
523.913	682
524.128	683
524.343	640
524.559	648
524.774	629
524.989	638
525.204	648
525.419	644
525.634	624
525.849	597
526.064	600
526.28	590
526.495	610
526.71	606
526.925	584
527.14	594
527.355	581
527.57	588
527.785	590
527.999	588
528.214	590
528.429	582
528.644	585
528.859	596
529.074	598
529.289	618
529.503	747
529.718	718
529.933	647
530.148	597
530.363	588
530.577	567
530.792	585
531.007	567
531.221	558
531.436	579
531.651	559
531.865	546
532.08	562
532.295	570
532.509	551
532.724	562
532.938	547
533.153	551
533.367	547
533.582	554
533.796	520
534.011	541
534.225	542
534.44	530
534.654	531
534.868	546
535.083	514
535.297	537
535.511	536
535.726	550
535.94	569
536.154	557
536.369	548
536.583	530
536.797	512
537.011	530
537.225	539
537.44	531
537.654	537
537.868	535
538.082	527
538.296	553
538.51	533
538.724	522
538.938	550
539.153	548
539.367	545
539.581	575
539.795	529
540.009	523
540.222	496
540.436	524
540.65	512
540.864	519
541.078	554
541.292	526
541.506	549
541.72	527
541.934	544
542.147	532
542.361	522
542.575	521
542.789	507
543.002	525
543.216	521
543.43	524
543.644	526
543.857	530
544.071	524
544.285	532
544.498	521
544.712	516
544.925	514
545.139	517
545.352	518
545.566	489
545.779	485
545.993	525
546.206	507
546.42	500
546.633	513
546.847	500
547.06	486
547.274	508
547.487	512
547.7	510
547.914	494
548.127	502
548.34	503
548.554	490
548.767	490
548.98	496
549.193	492
549.407	492
549.62	492
549.833	488
550.046	481
550.259	484
550.473	485
550.686	498
550.899	489
551.112	480
551.325	481
551.538	481
551.751	472
551.964	486
552.177	487
552.39	480
552.603	492
552.816	497
553.029	481
553.242	500
553.455	480
553.667	506
553.88	530
554.093	504
554.306	502
554.519	491
554.732	485
554.944	457
555.157	472
555.37	450
555.583	465
555.795	482
556.008	466
556.221	448
556.433	436
556.646	429
556.859	427
557.071	465
557.284	429
557.496	456
557.709	461
557.921	457
558.134	467
558.346	431
558.559	420
558.771	442
558.984	422
559.196	428
559.409	433
559.621	435
559.833	437
560.046	430
560.258	421
560.47	444
560.683	438
560.895	432
561.107	440
561.32	430
561.532	437
561.744	438
561.956	441
562.168	440
562.381	429
562.593	437
562.805	434
563.017	443
563.229	437
563.441	439
563.653	436
563.865	457
564.077	443
564.289	429
564.501	433
564.713	439
564.925	435
565.137	442
565.349	450
565.561	478
565.773	471
565.985	472
566.197	465
566.408	453
566.62	472
566.832	470
567.044	494
567.255	478
567.467	503
567.679	493
567.891	512
568.102	489
568.314	476
568.526	465
568.737	456
568.949	461
569.161	449
569.372	429
569.584	422
569.795	416
570.007	429
570.218	524
570.43	469
570.641	425
570.853	423
571.064	402
571.276	396
571.487	414
571.698	406
571.91	409
572.121	413
572.333	389
572.544	411
572.755	392
572.966	396
573.178	396
573.389	371
573.6	379
573.811	378
574.023	377
574.234	370
574.445	377
574.656	379
574.867	382
575.078	363
575.289	360
575.501	357
575.712	374
575.923	359
576.134	392
576.345	349
576.556	370
576.767	355
576.978	346
577.188	369
577.399	374
577.61	355
577.821	355
578.032	379
578.243	402
578.454	704
578.665	536
578.875	370
579.086	357
579.297	342
579.508	349
579.718	368
579.929	349
580.14	334
580.35	337
580.561	340
580.772	327
580.982	352
581.193	352
581.403	336
581.614	335
581.825	337
582.035	342
582.246	341
582.456	331
582.667	340
582.877	348
583.087	345
583.298	338
583.508	323
583.719	338
583.929	329
584.139	323
584.35	334
584.56	337
584.77	333
584.981	336
585.191	338
585.401	340
585.611	332
585.821	331
586.032	343
586.242	348
586.452	321
586.662	326
586.872	325
587.082	342
587.292	329
587.502	335
587.713	318
587.923	326
588.133	320
588.343	301
588.553	317
588.762	313
588.972	339
589.182	322
589.392	316
589.602	328
589.812	307
590.022	310
590.232	316
590.441	321
590.651	305
590.861	313
591.071	322
591.281	320
591.49	306
591.7	325
591.91	340
592.119	318
592.329	314
592.539	309
592.748	363
592.958	335
593.167	322
593.377	328
593.587	317
593.796	323
594.006	320
594.215	320
594.424	314
594.634	328
594.843	314
595.053	321
595.262	325
595.472	307
595.681	307
595.89	312
596.1	322
596.309	312
596.518	308
596.727	291
596.937	294
597.146	323
597.355	314
597.564	295
597.774	301
597.983	316
598.192	301
598.401	282
598.61	306
598.819	298
599.028	297
599.237	256
599.446	293
599.655	296
599.864	289
600.073	288
600.282	294
600.491	269
600.7	279
600.909	290
601.118	293
601.327	277
601.536	284
601.745	274
601.953	264
602.162	261
602.371	257
602.58	276
602.789	277
602.997	290
603.206	282
603.415	281
603.623	275
603.832	290
604.041	252
604.249	266
604.458	284
604.666	255
604.875	252
605.084	268
605.292	270
605.501	275
605.709	268
605.918	263
606.126	265
606.334	261
606.543	270
606.751	273
606.96	256
607.168	261
607.376	269
607.585	270
607.793	270
608.001	276
608.21	267
608.418	280
608.626	266
608.834	263
609.043	256
609.251	265
609.459	243
609.667	251
609.875	261
610.083	255
610.291	254
610.499	268
610.707	266
610.916	271
611.124	276
611.332	279
611.54	262
611.748	275
611.955	267
612.163	277
612.371	260
612.579	270
612.787	259
612.995	260
613.203	278
613.411	253
613.618	264
613.826	267
614.034	261
614.242	260
614.449	244
614.657	248
614.865	244
615.072	245
615.28	243
615.488	249
615.695	262
615.903	271
616.111	286
616.318	250
616.526	267
616.733	269
616.941	262
617.148	261
617.356	249
617.563	271
617.771	261
617.978	248
618.185	268
618.393	247
618.6	262
618.807	258
619.015	249
619.222	248
619.429	246
619.637	241
619.844	246
620.051	260
620.258	234
620.466	244
620.673	221
620.88	245
621.087	249
621.294	230
621.501	248
621.708	259
621.915	244
622.122	228
622.329	248
622.536	245
622.743	232
622.95	224
623.157	233
623.364	245
623.571	236
623.778	235
623.985	239
624.192	248
624.399	230
624.606	236
624.812	227
625.019	222
625.226	226
625.433	231
625.639	216
625.846	214
626.053	234
626.259	217
626.466	224
626.673	220
626.879	232
627.086	230
627.293	218
627.499	224
627.706	245
627.912	218
628.119	240
628.325	229
628.532	217
628.738	216
628.945	222
629.151	222
629.357	225
629.564	217
629.77	214
629.976	210
630.183	214
630.389	212
630.595	211
630.802	212
631.008	204
631.214	196
631.42	225
631.627	206
631.833	207
632.039	218
632.245	213
632.451	212
632.657	185
632.863	199
633.069	207
633.275	209
633.481	202
633.688	211
633.893	206
634.099	206
634.305	188
634.511	192
634.717	208
634.923	192
635.129	192
635.335	188
635.541	208
635.747	204
635.952	194
636.158	202
636.364	205
636.57	214
636.775	195
636.981	192
637.187	178
637.392	197
637.598	173
637.804	192
638.009	197
638.215	200
638.421	183
638.626	206
638.832	193
639.037	186
639.243	196
639.448	181
639.654	179
639.859	181
640.065	187
640.27	176
640.475	181
640.681	184
640.886	190
641.091	188
641.297	186
641.502	178
641.707	175
641.913	160
642.118	193
642.323	176
642.528	179
642.733	178
642.939	188
643.144	176
643.349	180
643.554	174
643.759	184
643.964	182
644.169	193
644.374	166
644.579	174
644.784	162
644.989	167
645.194	178
645.399	178
645.604	179
645.809	181
646.014	186
646.219	172
646.423	161
646.628	172
646.833	185
647.038	169
647.243	181
647.447	168
647.652	174
647.857	184
648.062	185
648.266	182
648.471	158
648.676	186
648.88	192
649.085	192
649.289	177
649.494	169
649.698	202
649.903	188
650.107	166
650.312	183
650.516	186
650.721	165
650.925	172
651.13	178
651.334	155
651.539	170
651.743	148
651.947	154
652.152	160
652.356	153
652.56	167
652.764	160
652.969	132
653.173	135
653.377	155
653.581	147
653.785	150
653.99	142
654.194	140
654.398	147
654.602	137
654.806	133
655.01	142
655.214	139
655.418	131
655.622	125
655.826	129
656.03	132
656.234	146
656.438	133
656.642	136
656.846	142
657.049	129
657.253	136
657.457	134
657.661	117
657.865	116
658.068	113
658.272	120
658.476	116
658.68	101
658.883	109
659.087	101
659.291	91
659.494	99
659.698	92
659.901	101
660.105	117
660.309	92
660.512	100
660.716	97
660.919	100
661.123	109
661.326	91
661.53	83
661.733	81
661.936	101
662.14	81
662.343	91
662.546	82
662.75	88
662.953	88
663.156	87
663.36	94
663.563	83
663.766	81
663.969	84
664.173	83
664.376	106
664.579	98
664.782	87
664.985	100
665.188	91
665.391	82
665.594	86
665.797	85
666	96
666.203	86
666.406	78
666.609	81
666.812	90
667.015	96
667.218	86
667.421	83
667.624	82
667.827	85
668.03	78
668.232	81
668.435	83
668.638	97
668.841	87
669.043	92
669.246	93
669.449	78
669.651	74
669.854	88
670.057	87
670.259	82
670.462	81
670.665	83
670.867	88
671.07	86
671.272	75
671.475	89
671.677	79
671.88	84
672.082	86
672.284	73
672.487	88
672.689	82
672.892	87
