Data from 1970.PennyLincolnUp.Lamp.En5.5.200Scan.071719.P1._HRD10591_15-14-40-842.txt Node
Date: Thu Jul 18 15:14:40 EDT 2019
User: cochatt
Spectrometer: HR+D1059
Trigger mode: 1
Integration Time (sec): 1.000000E-1
Scans to average: 1
Electric dark correction enabled: true
Nonlinearity correction enabled: false
Boxcar width: 0
XAxis mode: Wavelengths
Number of Pixels in Spectrum: 2048
>>>>>Begin Spectral Data<<<<<
223.165	-15.81
223.4	-15.81
223.635	-15.81
223.869	-13.81
224.104	-7.81
224.338	-7.81
224.573	-15.81
224.808	-10.81
225.042	-20.81
225.277	-1.81
225.511	11.19
225.746	5.19
225.98	6.19
226.215	6.19
226.449	6.19
226.683	7.19
226.918	18.19
227.152	34.19
227.387	28.19
227.621	18.19
227.856	39.19
228.09	38.19
228.324	60.19
228.559	59.19
228.793	76.19
229.027	100.19
229.262	106.19
229.496	128.19
229.73	160.19
229.964	176.19
230.199	151.19
230.433	124.19
230.667	117.19
230.901	127.19
231.136	112.19
231.37	99.19
231.604	108.19
231.838	108.19
232.072	115.19
232.306	115.19
232.541	126.19
232.775	132.19
233.009	118.19
233.243	122.19
233.477	113.19
233.711	120.19
233.945	130.19
234.179	140.19
234.413	135.19
234.647	118.19
234.881	116.19
235.115	129.19
235.349	130.19
235.583	120.19
235.817	140.19
236.051	133.19
236.285	130.19
236.519	126.19
236.753	133.19
236.987	160.19
237.221	205.19
237.455	244.19
237.689	210.19
237.922	146.19
238.156	154.19
238.39	137.19
238.624	133.19
238.858	132.19
239.091	138.19
239.325	139.19
239.559	139.19
239.793	145.19
240.027	157.19
240.26	145.19
240.494	169.19
240.728	164.19
240.961	156.19
241.195	154.19
241.429	143.19
241.662	162.19
241.896	142.19
242.13	142.19
242.363	152.19
242.597	147.19
242.83	147.19
243.064	145.19
243.298	133.19
243.531	152.19
243.765	152.19
243.998	148.19
244.232	157.19
244.465	148.19
244.699	169.19
244.932	154.19
245.166	146.19
245.399	148.19
245.633	153.19
245.866	149.19
246.099	157.19
246.333	164.19
246.566	168.19
246.8	149.19
247.033	154.19
247.266	164.19
247.5	182.19
247.733	202.19
247.966	180.19
248.2	188.19
248.433	196.19
248.666	180.19
248.899	185.19
249.133	215.19
249.366	227.19
249.599	229.19
249.832	203.19
250.066	205.19
250.299	208.19
250.532	234.19
250.765	229.19
250.998	252.19
251.231	273.19
251.465	248.19
251.698	254.19
251.931	217.19
252.164	229.19
252.397	236.19
252.63	202.19
252.863	230.19
253.096	235.19
253.329	249.19
253.562	263.19
253.795	221.19
254.028	242.19
254.261	247.19
254.494	260.19
254.727	286.19
254.96	309.19
255.193	297.19
255.426	289.19
255.659	282.19
255.892	252.19
256.124	265.19
256.357	274.19
256.59	257.19
256.823	234.19
257.056	250.19
257.289	225.19
257.521	236.19
257.754	240.19
257.987	239.19
258.22	209.19
258.452	230.19
258.685	227.19
258.918	231.19
259.151	241.19
259.383	240.19
259.616	231.19
259.849	261.19
260.081	246.19
260.314	259.19
260.547	287.19
260.779	261.19
261.012	261.19
261.244	258.19
261.477	242.19
261.71	256.19
261.942	236.19
262.175	250.19
262.407	256.19
262.64	252.19
262.872	225.19
263.105	227.19
263.337	226.19
263.57	216.19
263.802	215.19
264.035	222.19
264.267	218.19
264.499	206.19
264.732	227.19
264.964	217.19
265.197	219.19
265.429	214.19
265.661	217.19
265.894	234.19
266.126	236.19
266.358	250.19
266.591	218.19
266.823	222.19
267.055	230.19
267.287	255.19
267.52	234.19
267.752	245.19
267.984	249.19
268.216	250.19
268.448	236.19
268.681	247.19
268.913	260.19
269.145	278.19
269.377	296.19
269.609	288.19
269.841	290.19
270.073	300.19
270.306	308.19
270.538	324.19
270.77	326.19
271.002	324.19
271.234	312.19
271.466	324.19
271.698	354.19
271.93	337.19
272.162	357.19
272.394	344.19
272.626	321.19
272.858	301.19
273.09	299.19
273.322	278.19
273.553	272.19
273.785	283.19
274.017	280.19
274.249	244.19
274.481	268.19
274.713	272.19
274.945	284.19
275.176	284.19
275.408	274.19
275.64	277.19
275.872	276.19
276.104	274.19
276.335	281.19
276.567	280.19
276.799	288.19
277.031	333.19
277.262	342.19
277.494	339.19
277.726	320.19
277.957	310.19
278.189	291.19
278.421	306.19
278.652	304.19
278.884	269.19
279.115	267.19
279.347	276.19
279.579	284.19
279.81	283.19
280.042	286.19
280.273	277.19
280.505	264.19
280.736	262.19
280.968	287.19
281.199	265.19
281.431	296.19
281.662	276.19
281.894	302.19
282.125	274.19
282.356	301.19
282.588	316.19
282.819	298.19
283.051	278.19
283.282	292.19
283.513	296.19
283.745	273.19
283.976	257.19
284.207	279.19
284.439	278.19
284.67	281.19
284.901	271.19
285.132	283.19
285.364	252.19
285.595	273.19
285.826	286.19
286.057	289.19
286.288	274.19
286.52	281.19
286.751	266.19
286.982	270.19
287.213	275.19
287.444	270.19
287.675	300.19
287.906	311.19
288.138	306.19
288.369	317.19
288.6	313.19
288.831	301.19
289.062	288.19
289.293	295.19
289.524	282.19
289.755	290.19
289.986	310.19
290.217	296.19
290.448	286.19
290.679	288.19
290.91	304.19
291.141	297.19
291.371	294.19
291.602	287.19
291.833	285.19
292.064	273.19
292.295	289.19
292.526	297.19
292.757	289.19
292.987	292.19
293.218	278.19
293.449	289.19
293.68	307.19
293.91	282.19
294.141	286.19
294.372	287.19
294.603	266.19
294.833	290.19
295.064	312.19
295.295	304.19
295.525	282.19
295.756	309.19
295.987	302.19
296.217	337.19
296.448	332.19
296.679	299.19
296.909	292.19
297.14	285.19
297.37	304.19
297.601	280.19
297.831	309.19
298.062	285.19
298.292	287.19
298.523	297.19
298.753	308.19
298.984	290.19
299.214	308.19
299.445	286.19
299.675	314.19
299.905	302.19
300.136	302.19
300.366	305.19
300.597	314.19
300.827	302.19
301.057	308.19
301.288	332.19
301.518	330.19
301.748	311.19
301.979	331.19
302.209	308.19
302.439	329.19
302.669	329.19
302.9	301.19
303.13	315.19
303.36	330.19
303.59	342.19
303.82	343.19
304.051	331.19
304.281	334.19
304.511	334.19
304.741	329.19
304.971	329.19
305.201	316.19
305.431	327.19
305.661	325.19
305.891	320.19
306.121	328.19
306.352	341.19
306.582	343.19
306.812	316.19
307.042	331.19
307.272	332.19
307.502	333.19
307.731	309.19
307.961	321.19
308.191	346.19
308.421	338.19
308.651	343.19
308.881	334.19
309.111	331.19
309.341	340.19
309.571	363.19
309.8	352.19
310.03	359.19
310.26	393.19
310.49	355.19
310.72	394.19
310.949	398.19
311.179	422.19
311.409	394.19
311.639	393.19
311.868	384.19
312.098	386.19
312.328	392.19
312.557	406.19
312.787	434.19
313.017	434.19
313.246	415.19
313.476	366.19
313.706	388.19
313.935	406.19
314.165	411.19
314.394	394.19
314.624	393.19
314.853	393.19
315.083	406.19
315.312	385.19
315.542	386.19
315.771	376.19
316.001	363.19
316.23	377.19
316.46	401.19
316.689	357.19
316.919	384.19
317.148	398.19
317.377	406.19
317.607	388.19
317.836	402.19
318.065	390.19
318.295	388.19
318.524	387.19
318.753	372.19
318.983	400.19
319.212	374.19
319.441	408.19
319.67	403.19
319.9	389.19
320.129	391.19
320.358	415.19
320.587	408.19
320.816	379.19
321.046	416.19
321.275	413.19
321.504	407.19
321.733	433.19
321.962	452.19
322.191	434.19
322.42	456.19
322.649	460.19
322.878	470.19
323.108	515.19
323.337	512.19
323.566	544.19
323.795	606.19
324.024	648.19
324.253	796.19
324.482	1132.19
324.71	1770.19
324.939	2498.19
325.168	2154.19
325.397	1141.19
325.626	765.19
325.855	627.19
326.084	546.19
326.313	562.19
326.542	556.19
326.77	605.19
326.999	706.19
327.228	1020.19
327.457	1572.19
327.686	1871.19
327.914	1289.19
328.143	840.19
328.372	737.19
328.6	684.19
328.829	640.19
329.058	661.19
329.287	696.19
329.515	599.19
329.744	554.19
329.972	546.19
330.201	586.19
330.43	625.19
330.658	658.19
330.887	700.19
331.115	676.19
331.344	578.19
331.572	536.19
331.801	529.19
332.03	510.19
332.258	489.19
332.486	478.19
332.715	443.19
332.943	481.19
333.172	443.19
333.4	470.19
333.629	483.19
333.857	494.19
334.085	521.19
334.314	512.19
334.542	570.19
334.771	576.19
334.999	503.19
335.227	484.19
335.455	478.19
335.684	460.19
335.912	459.19
336.14	462.19
336.369	454.19
336.597	460.19
336.825	462.19
337.053	439.19
337.281	439.19
337.51	453.19
337.738	461.19
337.966	440.19
338.194	462.19
338.422	463.19
338.65	451.19
338.878	439.19
339.106	448.19
339.334	465.19
339.562	452.19
339.79	437.19
340.018	427.19
340.246	444.19
340.474	426.19
340.702	455.19
340.93	466.19
341.158	445.19
341.386	439.19
341.614	462.19
341.842	459.19
342.07	459.19
342.298	455.19
342.526	434.19
342.754	429.19
342.981	418.19
343.209	427.19
343.437	422.19
343.665	444.19
343.893	432.19
344.12	422.19
344.348	417.19
344.576	437.19
344.804	461.19
345.031	478.19
345.259	454.19
345.487	469.19
345.714	453.19
345.942	442.19
346.17	429.19
346.397	444.19
346.625	436.19
346.853	441.19
347.08	454.19
347.308	438.19
347.535	442.19
347.763	468.19
347.99	448.19
348.218	446.19
348.445	443.19
348.673	447.19
348.9	440.19
349.128	444.19
349.355	429.19
349.583	422.19
349.81	426.19
350.037	402.19
350.265	439.19
350.492	418.19
350.72	442.19
350.947	434.19
351.174	449.19
351.402	434.19
351.629	443.19
351.856	461.19
352.083	452.19
352.311	472.19
352.538	440.19
352.765	477.19
352.992	469.19
353.22	440.19
353.447	452.19
353.674	420.19
353.901	419.19
354.128	418.19
354.355	411.19
354.583	406.19
354.81	413.19
355.037	405.19
355.264	404.19
355.491	392.19
355.718	411.19
355.945	410.19
356.172	400.19
356.399	399.19
356.626	408.19
356.853	401.19
357.08	392.19
357.307	413.19
357.534	410.19
357.761	392.19
357.988	408.19
358.215	413.19
358.441	413.19
358.668	414.19
358.895	417.19
359.122	394.19
359.349	438.19
359.576	452.19
359.802	482.19
360.029	504.19
360.256	517.19
360.483	480.19
360.709	448.19
360.936	438.19
361.163	442.19
361.39	455.19
361.616	452.19
361.843	444.19
362.07	444.19
362.296	462.19
362.523	458.19
362.749	464.19
362.976	430.19
363.203	449.19
363.429	436.19
363.656	420.19
363.882	438.19
364.109	401.19
364.335	412.19
364.562	423.19
364.788	421.19
365.015	425.19
365.241	401.19
365.468	430.19
365.694	447.19
365.92	426.19
366.147	433.19
366.373	421.19
366.599	415.19
366.826	405.19
367.052	390.19
367.278	437.19
367.505	432.19
367.731	415.19
367.957	418.19
368.184	427.19
368.41	422.19
368.636	454.19
368.862	437.19
369.089	425.19
369.315	422.19
369.541	432.19
369.767	422.19
369.993	402.19
370.219	417.19
370.445	411.19
370.672	427.19
370.898	402.19
371.124	410.19
371.35	421.19
371.576	423.19
371.802	453.19
372.028	393.19
372.254	412.19
372.48	404.19
372.706	405.19
372.932	407.19
373.158	424.19
373.384	435.19
373.61	404.19
373.835	423.19
374.061	416.19
374.287	430.19
374.513	395.19
374.739	417.19
374.965	428.19
375.191	406.19
375.416	438.19
375.642	410.19
375.868	413.19
376.094	413.19
376.319	410.19
376.545	436.19
376.771	426.19
376.997	408.19
377.222	421.19
377.448	420.19
377.674	404.19
377.899	405.19
378.125	429.19
378.35	426.19
378.576	421.19
378.802	415.19
379.027	421.19
379.253	420.19
379.478	407.19
379.704	420.19
379.929	421.19
380.155	415.19
380.38	417.19
380.606	402.19
380.831	429.19
381.057	422.19
381.282	448.19
381.507	433.19
381.733	453.19
381.958	418.19
382.184	445.19
382.409	442.19
382.634	442.19
382.86	433.19
383.085	441.19
383.31	457.19
383.535	435.19
383.761	420.19
383.986	442.19
384.211	454.19
384.436	434.19
384.662	434.19
384.887	445.19
385.112	439.19
385.337	433.19
385.562	435.19
385.787	448.19
386.013	462.19
386.238	438.19
386.463	458.19
386.688	458.19
386.913	444.19
387.138	460.19
387.363	442.19
387.588	446.19
387.813	441.19
388.038	438.19
388.263	477.19
388.488	467.19
388.713	462.19
388.938	461.19
389.163	475.19
389.387	455.19
389.612	440.19
389.837	441.19
390.062	463.19
390.287	448.19
390.512	457.19
390.736	462.19
390.961	442.19
391.186	460.19
391.411	458.19
391.636	433.19
391.86	449.19
392.085	461.19
392.31	451.19
392.534	463.19
392.759	468.19
392.984	488.19
393.208	470.19
393.433	453.19
393.658	468.19
393.882	436.19
394.107	447.19
394.331	456.19
394.556	450.19
394.78	457.19
395.005	467.19
395.229	482.19
395.454	463.19
395.678	471.19
395.903	480.19
396.127	490.19
396.352	533.19
396.576	503.19
396.801	471.19
397.025	471.19
397.249	459.19
397.474	481.19
397.698	483.19
397.922	500.19
398.147	521.19
398.371	522.19
398.595	509.19
398.82	499.19
399.044	505.19
399.268	524.19
399.492	537.19
399.717	579.19
399.941	614.19
400.165	618.19
400.389	642.19
400.613	594.19
400.837	560.19
401.062	511.19
401.286	530.19
401.51	518.19
401.734	492.19
401.958	515.19
402.182	526.19
402.406	551.19
402.63	556.19
402.854	548.19
403.078	551.19
403.302	530.19
403.526	554.19
403.75	550.19
403.974	543.19
404.198	538.19
404.422	530.19
404.645	565.19
404.869	554.19
405.093	596.19
405.317	640.19
405.541	683.19
405.765	604.19
405.988	568.19
406.212	572.19
406.436	607.19
406.66	634.19
406.883	594.19
407.107	608.19
407.331	672.19
407.555	724.19
407.778	725.19
408.002	644.19
408.226	620.19
408.449	606.19
408.673	593.19
408.896	639.19
409.12	694.19
409.344	646.19
409.567	579.19
409.791	554.19
410.014	552.19
410.238	550.19
410.461	560.19
410.685	572.19
410.908	560.19
411.132	620.19
411.355	653.19
411.578	641.19
411.802	570.19
412.025	550.19
412.249	561.19
412.472	601.19
412.695	630.19
412.919	628.19
413.142	565.19
413.365	554.19
413.589	545.19
413.812	530.19
414.035	529.19
414.258	522.19
414.482	533.19
414.705	512.19
414.928	501.19
415.151	514.19
415.374	486.19
415.597	518.19
415.821	511.19
416.044	535.19
416.267	538.19
416.49	515.19
416.713	521.19
416.936	531.19
417.159	525.19
417.382	536.19
417.605	536.19
417.828	545.19
418.051	551.19
418.274	561.19
418.497	522.19
418.72	547.19
418.943	506.19
419.166	552.19
419.389	549.19
419.611	563.19
419.834	565.19
420.057	554.19
420.28	566.19
420.503	546.19
420.726	552.19
420.948	564.19
421.171	620.19
421.394	655.19
421.617	581.19
421.839	569.19
422.062	557.19
422.285	570.19
422.507	634.19
422.73	729.19
422.953	688.19
423.175	629.19
423.398	605.19
423.621	572.19
423.843	604.19
424.066	597.19
424.288	613.19
424.511	641.19
424.733	693.19
424.956	786.19
425.178	756.19
425.401	777.19
425.623	768.19
425.846	650.19
426.068	628.19
426.291	603.19
426.513	619.19
426.735	626.19
426.958	677.19
427.18	779.19
427.402	908.19
427.625	973.19
427.847	890.19
428.069	782.19
428.292	683.19
428.514	630.19
428.736	610.19
428.958	601.19
429.181	585.19
429.403	573.19
429.625	574.19
429.847	620.19
430.069	682.19
430.292	711.19
430.514	587.19
430.736	600.19
430.958	578.19
431.18	548.19
431.402	537.19
431.624	530.19
431.846	530.19
432.068	524.19
432.29	530.19
432.512	546.19
432.734	561.19
432.956	536.19
433.178	550.19
433.4	584.19
433.622	525.19
433.844	546.19
434.066	534.19
434.287	516.19
434.509	552.19
434.731	541.19
434.953	568.19
435.175	557.19
435.397	618.19
435.618	620.19
435.84	640.19
436.062	742.19
436.284	814.19
436.505	712.19
436.727	644.19
436.949	628.19
437.17	568.19
437.392	581.19
437.614	595.19
437.835	652.19
438.057	772.19
438.278	838.19
438.5	852.19
438.721	910.19
438.943	872.19
439.165	709.19
439.386	641.19
439.608	652.19
439.829	664.19
440.05	660.19
440.272	704.19
440.493	688.19
440.715	631.19
440.936	614.19
441.158	576.19
441.379	580.19
441.6	599.19
441.822	628.19
442.043	660.19
442.264	737.19
442.486	813.19
442.707	699.19
442.928	664.19
443.149	645.19
443.371	680.19
443.592	698.19
443.813	833.19
444.034	869.19
444.255	731.19
444.476	654.19
444.698	637.19
444.919	616.19
445.14	715.19
445.361	680.19
445.582	685.19
445.803	743.19
446.024	821.19
446.245	845.19
446.466	778.19
446.687	683.19
446.908	642.19
447.129	607.19
447.35	576.19
447.571	596.19
447.792	553.19
448.013	599.19
448.234	601.19
448.455	685.19
448.675	784.19
448.896	889.19
449.117	780.19
449.338	730.19
449.559	852.19
449.779	918.19
450	782.19
450.221	653.19
450.442	595.19
450.662	585.19
450.883	595.19
451.104	610.19
451.324	620.19
451.545	566.19
451.766	536.19
451.986	541.19
452.207	530.19
452.428	524.19
452.648	520.19
452.869	497.19
453.089	529.19
453.31	549.19
453.53	512.19
453.751	535.19
453.971	526.19
454.192	532.19
454.412	531.19
454.633	547.19
454.853	506.19
455.073	529.19
455.294	550.19
455.514	631.19
455.734	622.19
455.955	512.19
456.175	498.19
456.395	455.19
456.616	460.19
456.836	478.19
457.056	453.19
457.276	486.19
457.497	475.19
457.717	496.19
457.937	506.19
458.157	478.19
458.377	481.19
458.598	536.19
458.818	592.19
459.038	704.19
459.258	729.19
459.478	607.19
459.698	565.19
459.918	536.19
460.138	532.19
460.358	510.19
460.578	537.19
460.798	520.19
461.018	542.19
461.238	517.19
461.458	524.19
461.678	524.19
461.898	541.19
462.118	489.19
462.338	560.19
462.558	518.19
462.777	546.19
462.997	550.19
463.217	573.19
463.437	538.19
463.657	550.19
463.876	526.19
464.096	590.19
464.316	536.19
464.536	590.19
464.755	564.19
464.975	582.19
465.195	660.19
465.414	706.19
465.634	670.19
465.854	598.19
466.073	560.19
466.293	538.19
466.512	562.19
466.732	526.19
466.951	540.19
467.171	528.19
467.391	539.19
467.61	531.19
467.829	541.19
468.049	548.19
468.268	532.19
468.488	523.19
468.707	514.19
468.927	516.19
469.146	519.19
469.365	497.19
469.585	517.19
469.804	506.19
470.023	560.19
470.243	549.19
470.462	536.19
470.681	522.19
470.901	562.19
471.12	535.19
471.339	544.19
471.558	546.19
471.777	535.19
471.997	537.19
472.216	534.19
472.435	588.19
472.654	563.19
472.873	556.19
473.092	525.19
473.311	525.19
473.53	556.19
473.749	565.19
473.968	605.19
474.187	727.19
474.406	745.19
474.625	614.19
474.844	570.19
475.063	539.19
475.282	561.19
475.501	554.19
475.72	550.19
475.939	552.19
476.158	532.19
476.377	560.19
476.596	582.19
476.814	558.19
477.033	567.19
477.252	560.19
477.471	570.19
477.69	607.19
477.908	576.19
478.127	576.19
478.346	577.19
478.564	574.19
478.783	586.19
479.002	628.19
479.22	605.19
479.439	628.19
479.658	636.19
479.876	651.19
480.095	663.19
480.313	694.19
480.532	652.19
480.751	668.19
480.969	666.19
481.188	728.19
481.406	778.19
481.624	718.19
481.843	671.19
482.061	677.19
482.28	651.19
482.498	640.19
482.717	658.19
482.935	641.19
483.153	640.19
483.372	668.19
483.59	644.19
483.808	630.19
484.027	662.19
484.245	637.19
484.463	649.19
484.681	654.19
484.9	676.19
485.118	644.19
485.336	657.19
485.554	638.19
485.772	664.19
485.99	652.19
486.209	665.19
486.427	670.19
486.645	683.19
486.863	721.19
487.081	704.19
487.299	714.19
487.517	718.19
487.735	705.19
487.953	683.19
488.171	706.19
488.389	718.19
488.607	711.19
488.825	716.19
489.043	694.19
489.261	700.19
489.479	714.19
489.696	712.19
489.914	734.19
490.132	717.19
490.35	740.19
490.568	746.19
490.786	804.19
491.003	755.19
491.221	790.19
491.439	777.19
491.657	800.19
491.874	823.19
492.092	816.19
492.31	834.19
492.527	824.19
492.745	816.19
492.963	837.19
493.18	810.19
493.398	835.19
493.615	860.19
493.833	836.19
494.05	839.19
494.268	840.19
494.485	857.19
494.703	825.19
494.92	825.19
495.138	846.19
495.355	853.19
495.573	848.19
495.79	837.19
496.008	857.19
496.225	842.19
496.442	861.19
496.66	861.19
496.877	844.19
497.094	859.19
497.312	850.19
497.529	867.19
497.746	861.19
497.963	880.19
498.181	908.19
498.398	897.19
498.615	909.19
498.832	921.19
499.049	893.19
499.267	907.19
499.484	956.19
499.701	953.19
499.918	964.19
500.135	1009.19
500.352	1024.19
500.569	1042.19
500.786	1072.19
501.003	1043.19
501.22	1041.19
501.437	991.19
501.654	989.19
501.871	1021.19
502.088	955.19
502.305	984.19
502.522	942.19
502.739	904.19
502.956	882.19
503.172	875.19
503.389	884.19
503.606	884.19
503.823	865.19
504.04	864.19
504.256	839.19
504.473	846.19
504.69	839.19
504.907	824.19
505.123	832.19
505.34	850.19
505.557	795.19
505.773	800.19
505.99	824.19
506.207	809.19
506.423	830.19
506.64	828.19
506.856	818.19
507.073	797.19
507.289	823.19
507.506	818.19
507.722	810.19
507.939	836.19
508.155	826.19
508.372	804.19
508.588	758.19
508.805	786.19
509.021	777.19
509.238	782.19
509.454	805.19
509.67	811.19
509.887	794.19
510.103	792.19
510.319	769.19
510.536	919.19
510.752	1495.19
510.968	1269.19
511.184	820.19
511.401	773.19
511.617	756.19
511.833	754.19
512.049	763.19
512.265	719.19
512.481	738.19
512.698	723.19
512.914	752.19
513.13	718.19
513.346	738.19
513.562	738.19
513.778	741.19
513.994	743.19
514.21	745.19
514.426	814.19
514.642	865.19
514.858	904.19
515.074	940.19
515.29	1140.19
515.506	1701.19
515.721	1393.19
515.937	936.19
516.153	845.19
516.369	810.19
516.585	765.19
516.801	761.19
517.016	763.19
517.232	757.19
517.448	732.19
517.664	745.19
517.879	748.19
518.095	750.19
518.311	737.19
518.527	718.19
518.742	734.19
518.958	734.19
519.173	744.19
519.389	726.19
519.605	720.19
519.82	736.19
520.036	781.19
520.251	784.19
520.467	830.19
520.682	846.19
520.898	848.19
521.113	871.19
521.329	966.19
521.544	1068.19
521.76	1360.19
521.975	2234.19
522.19	2211.19
522.406	1192.19
522.621	881.19
522.836	798.19
523.052	753.19
523.267	701.19
523.482	694.19
523.698	717.19
523.913	700.19
524.128	670.19
524.343	663.19
524.559	638.19
524.774	637.19
524.989	628.19
525.204	686.19
525.419	646.19
525.634	635.19
525.849	645.19
526.064	636.19
526.28	610.19
526.495	597.19
526.71	591.19
526.925	602.19
527.14	617.19
527.355	588.19
527.57	614.19
527.785	590.19
527.999	578.19
528.214	581.19
528.429	603.19
528.644	626.19
528.859	596.19
529.074	577.19
529.289	618.19
529.503	727.19
529.718	731.19
529.933	642.19
530.148	620.19
530.363	628.19
530.577	572.19
530.792	560.19
531.007	572.19
531.221	585.19
531.436	574.19
531.651	575.19
531.865	562.19
532.08	540.19
532.295	542.19
532.509	548.19
532.724	570.19
532.938	566.19
533.153	562.19
533.367	558.19
533.582	570.19
533.796	546.19
534.011	553.19
534.225	540.19
534.44	555.19
534.654	546.19
534.868	549.19
535.083	546.19
535.297	562.19
535.511	557.19
535.726	580.19
535.94	573.19
536.154	569.19
536.369	554.19
536.583	538.19
536.797	566.19
537.011	556.19
537.225	560.19
537.44	549.19
537.654	538.19
537.868	532.19
538.082	529.19
538.296	567.19
538.51	549.19
538.724	527.19
538.938	544.19
539.153	562.19
539.367	563.19
539.581	539.19
539.795	531.19
540.009	516.19
540.222	543.19
540.436	516.19
540.65	526.19
540.864	554.19
541.078	549.19
541.292	557.19
541.506	535.19
541.72	539.19
541.934	546.19
542.147	537.19
542.361	528.19
542.575	531.19
542.789	519.19
543.002	531.19
543.216	544.19
543.43	527.19
543.644	543.19
543.857	539.19
544.071	540.19
544.285	530.19
544.498	529.19
544.712	525.19
544.925	527.19
545.139	513.19
545.352	509.19
545.566	536.19
545.779	529.19
545.993	508.19
546.206	504.19
546.42	536.19
546.633	521.19
546.847	512.19
547.06	503.19
547.274	486.19
547.487	503.19
547.7	501.19
547.914	492.19
548.127	514.19
548.34	485.19
548.554	488.19
548.767	505.19
548.98	485.19
549.193	497.19
549.407	498.19
549.62	489.19
549.833	487.19
550.046	495.19
550.259	478.19
550.473	509.19
550.686	501.19
550.899	488.19
551.112	477.19
551.325	514.19
551.538	484.19
551.751	504.19
551.964	488.19
552.177	469.19
552.39	501.19
552.603	488.19
552.816	492.19
553.029	494.19
553.242	518.19
553.455	497.19
553.667	498.19
553.88	513.19
554.093	508.19
554.306	512.19
554.519	493.19
554.732	481.19
554.944	484.19
555.157	483.19
555.37	486.19
555.583	478.19
555.795	478.19
556.008	453.19
556.221	462.19
556.433	443.19
556.646	468.19
556.859	456.19
557.071	457.19
557.284	456.19
557.496	441.19
557.709	457.19
557.921	454.19
558.134	431.19
558.346	430.19
558.559	450.19
558.771	459.19
558.984	447.19
559.196	462.19
559.409	437.19
559.621	438.19
559.833	420.19
560.046	443.19
560.258	420.19
560.47	428.19
560.683	448.19
560.895	417.19
561.107	444.19
561.32	449.19
561.532	445.19
561.744	450.19
561.956	419.19
562.168	437.19
562.381	437.19
562.593	434.19
562.805	439.19
563.017	423.19
563.229	445.19
563.441	438.19
563.653	424.19
563.865	444.19
564.077	457.19
564.289	445.19
564.501	466.19
564.713	465.19
564.925	460.19
565.137	474.19
565.349	468.19
565.561	486.19
565.773	468.19
565.985	459.19
566.197	456.19
566.408	470.19
566.62	474.19
566.832	481.19
567.044	510.19
567.255	496.19
567.467	496.19
567.679	482.19
567.891	507.19
568.102	482.19
568.314	479.19
568.526	479.19
568.737	469.19
568.949	457.19
569.161	454.19
569.372	430.19
569.584	430.19
569.795	435.19
570.007	445.19
570.218	527.19
570.43	483.19
570.641	424.19
570.853	425.19
571.064	409.19
571.276	415.19
571.487	406.19
571.698	400.19
571.91	405.19
572.121	410.19
572.333	389.19
572.544	370.19
572.755	390.19
572.966	385.19
573.178	379.19
573.389	375.19
573.6	390.19
573.811	371.19
574.023	396.19
574.234	384.19
574.445	385.19
574.656	386.19
574.867	378.19
575.078	381.19
575.289	388.19
575.501	366.19
575.712	357.19
575.923	360.19
576.134	344.19
576.345	364.19
576.556	384.19
576.767	365.19
576.978	374.19
577.188	370.19
577.399	369.19
577.61	370.19
577.821	369.19
578.032	387.19
578.243	416.19
578.454	707.19
578.665	516.19
578.875	372.19
579.086	365.19
579.297	361.19
579.508	369.19
579.718	353.19
579.929	346.19
580.14	337.19
580.35	347.19
580.561	330.19
580.772	352.19
580.982	350.19
581.193	332.19
581.403	320.19
581.614	331.19
581.825	333.19
582.035	336.19
582.246	341.19
582.456	366.19
582.667	346.19
582.877	328.19
583.087	338.19
583.298	339.19
583.508	322.19
583.719	337.19
583.929	320.19
584.139	338.19
584.35	321.19
584.56	327.19
584.77	344.19
584.981	349.19
585.191	352.19
585.401	344.19
585.611	327.19
585.821	344.19
586.032	336.19
586.242	334.19
586.452	343.19
586.662	322.19
586.872	334.19
587.082	333.19
587.292	312.19
587.502	317.19
587.713	324.19
587.923	326.19
588.133	325.19
588.343	313.19
588.553	309.19
588.762	325.19
588.972	308.19
589.182	328.19
589.392	316.19
589.602	329.19
589.812	316.19
590.022	334.19
590.232	321.19
590.441	323.19
590.651	317.19
590.861	312.19
591.071	330.19
591.281	305.19
591.49	319.19
591.7	327.19
591.91	339.19
592.119	324.19
592.329	328.19
592.539	328.19
592.748	327.19
592.958	344.19
593.167	336.19
593.377	345.19
593.587	325.19
593.796	332.19
594.006	337.19
594.215	346.19
594.424	317.19
594.634	320.19
594.843	336.19
595.053	330.19
595.262	312.19
595.472	310.19
595.681	328.19
595.89	295.19
596.1	317.19
596.309	306.19
596.518	291.19
596.727	304.19
596.937	304.19
597.146	288.19
597.355	323.19
597.564	312.19
597.774	294.19
597.983	290.19
598.192	296.19
598.401	296.19
598.61	284.19
598.819	301.19
599.028	304.19
599.237	292.19
599.446	304.19
599.655	293.19
599.864	297.19
600.073	279.19
600.282	278.19
600.491	296.19
600.7	281.19
600.909	274.19
601.118	284.19
601.327	270.19
601.536	277.19
601.745	308.19
601.953	292.19
602.162	283.19
602.371	275.19
602.58	287.19
602.789	280.19
602.997	285.19
603.206	286.19
603.415	269.19
603.623	292.19
603.832	286.19
604.041	271.19
604.249	287.19
604.458	276.19
604.666	284.19
604.875	275.19
605.084	280.19
605.292	271.19
605.501	260.19
605.709	285.19
605.918	260.19
606.126	263.19
606.334	265.19
606.543	275.19
606.751	276.19
606.96	289.19
607.168	276.19
607.376	257.19
607.585	266.19
607.793	277.19
608.001	247.19
608.21	262.19
608.418	283.19
608.626	280.19
608.834	273.19
609.043	273.19
609.251	271.19
609.459	254.19
609.667	268.19
609.875	258.19
610.083	263.19
610.291	271.19
610.499	270.19
610.707	276.19
610.916	277.19
611.124	266.19
611.332	246.19
611.54	292.19
611.748	280.19
611.955	256.19
612.163	252.19
612.371	273.19
612.579	270.19
612.787	255.19
612.995	256.19
613.203	272.19
613.411	262.19
613.618	246.19
613.826	257.19
614.034	268.19
614.242	259.19
614.449	260.19
614.657	271.19
614.865	250.19
615.072	248.19
615.28	266.19
615.488	274.19
615.695	263.19
615.903	279.19
616.111	256.19
616.318	274.19
616.526	261.19
616.733	270.19
616.941	265.19
617.148	270.19
617.356	248.19
617.563	246.19
617.771	261.19
617.978	262.19
618.185	245.19
618.393	253.19
618.6	243.19
618.807	266.19
619.015	262.19
619.222	242.19
619.429	253.19
619.637	255.19
619.844	219.19
620.051	233.19
620.258	244.19
620.466	240.19
620.673	245.19
620.88	235.19
621.087	247.19
621.294	238.19
621.501	244.19
621.708	230.19
621.915	246.19
622.122	248.19
622.329	242.19
622.536	233.19
622.743	264.19
622.95	259.19
623.157	249.19
623.364	256.19
623.571	234.19
623.778	252.19
623.985	247.19
624.192	235.19
624.399	237.19
624.606	252.19
624.812	240.19
625.019	241.19
625.226	236.19
625.433	233.19
625.639	229.19
625.846	216.19
626.053	198.19
626.259	224.19
626.466	234.19
626.673	220.19
626.879	233.19
627.086	211.19
627.293	243.19
627.499	226.19
627.706	218.19
627.912	235.19
628.119	222.19
628.325	221.19
628.532	198.19
628.738	230.19
628.945	228.19
629.151	222.19
629.357	213.19
629.564	216.19
629.77	205.19
629.976	213.19
630.183	218.19
630.389	222.19
630.595	198.19
630.802	219.19
631.008	194.19
631.214	218.19
631.42	212.19
631.627	213.19
631.833	204.19
632.039	208.19
632.245	198.19
632.451	208.19
632.657	215.19
632.863	193.19
633.069	196.19
633.275	193.19
633.481	213.19
633.688	209.19
633.893	214.19
634.099	205.19
634.305	194.19
634.511	192.19
634.717	186.19
634.923	197.19
635.129	193.19
635.335	209.19
635.541	204.19
635.747	198.19
635.952	203.19
636.158	206.19
636.364	196.19
636.57	199.19
636.775	202.19
636.981	192.19
637.187	194.19
637.392	197.19
637.598	195.19
637.804	197.19
638.009	182.19
638.215	193.19
638.421	186.19
638.626	189.19
638.832	183.19
639.037	184.19
639.243	182.19
639.448	192.19
639.654	173.19
639.859	178.19
640.065	171.19
640.27	206.19
640.475	183.19
640.681	191.19
640.886	190.19
641.091	192.19
641.297	178.19
641.502	187.19
641.707	203.19
641.913	183.19
642.118	207.19
642.323	176.19
642.528	171.19
642.733	180.19
642.939	181.19
643.144	186.19
643.349	173.19
643.554	169.19
643.759	186.19
643.964	177.19
644.169	183.19
644.374	169.19
644.579	169.19
644.784	172.19
644.989	189.19
645.194	174.19
645.399	169.19
645.604	186.19
645.809	171.19
646.014	174.19
646.219	172.19
646.423	172.19
646.628	193.19
646.833	161.19
647.038	178.19
647.243	178.19
647.447	174.19
647.652	178.19
647.857	168.19
648.062	190.19
648.266	171.19
648.471	166.19
648.676	185.19
648.88	192.19
649.085	184.19
649.289	181.19
649.494	184.19
649.698	184.19
649.903	187.19
650.107	168.19
650.312	180.19
650.516	143.19
650.721	159.19
650.925	158.19
651.13	160.19
651.334	165.19
651.539	154.19
651.743	162.19
651.947	168.19
652.152	164.19
652.356	138.19
652.56	160.19
652.764	141.19
652.969	141.19
653.173	162.19
653.377	156.19
653.581	148.19
653.785	144.19
653.99	148.19
654.194	129.19
654.398	140.19
654.602	145.19
654.806	151.19
655.01	156.19
655.214	142.19
655.418	135.19
655.622	137.19
655.826	133.19
656.03	139.19
656.234	136.19
656.438	130.19
656.642	129.19
656.846	130.19
657.049	130.19
657.253	114.19
657.457	118.19
657.661	123.19
657.865	108.19
658.068	109.19
658.272	116.19
658.476	128.19
658.68	119.19
658.883	98.19
659.087	108.19
659.291	80.19
659.494	104.19
659.698	102.19
659.901	96.19
660.105	96.19
660.309	105.19
660.512	77.19
660.716	75.19
660.919	94.19
661.123	93.19
661.326	97.19
661.53	97.19
661.733	87.19
661.936	87.19
662.14	96.19
662.343	99.19
662.546	84.19
662.75	78.19
662.953	71.19
663.156	83.19
663.36	83.19
663.563	77.19
663.766	80.19
663.969	66.19
664.173	86.19
664.376	78.19
664.579	70.19
664.782	82.19
664.985	84.19
665.188	76.19
665.391	94.19
665.594	91.19
665.797	84.19
666	100.19
666.203	90.19
666.406	85.19
666.609	88.19
666.812	76.19
667.015	65.19
667.218	77.19
667.421	93.19
667.624	91.19
667.827	85.19
668.03	78.19
668.232	68.19
668.435	84.19
668.638	80.19
668.841	93.19
669.043	83.19
669.246	91.19
669.449	82.19
669.651	78.19
669.854	90.19
670.057	85.19
670.259	95.19
670.462	69.19
670.665	73.19
670.867	67.19
671.07	83.19
671.272	92.19
671.475	98.19
671.677	92.19
671.88	82.19
672.082	73.19
672.284	81.19
672.487	75.19
672.689	72.19
672.892	84.19
