Data from 1970.PennyLincolnUp.Lamp.En5.5.200Scan.071719.P1._HRD10591_15-14-33-843.txt Node
Date: Thu Jul 18 15:14:33 EDT 2019
User: cochatt
Spectrometer: HR+D1059
Trigger mode: 1
Integration Time (sec): 1.000000E-1
Scans to average: 1
Electric dark correction enabled: true
Nonlinearity correction enabled: false
Boxcar width: 0
XAxis mode: Wavelengths
Number of Pixels in Spectrum: 2048
>>>>>Begin Spectral Data<<<<<
223.165	-18.88
223.4	-18.88
223.635	-18.88
223.869	-9.88
224.104	-25.88
224.338	-15.88
224.573	-7.88
224.808	-4.88
225.042	-9.88
225.277	-11.88
225.511	-2.88
225.746	7.12
225.98	12.12
226.215	3.12
226.449	20.12
226.683	10.12
226.918	27.12
227.152	28.12
227.387	32.12
227.621	31.12
227.856	46.12
228.09	45.12
228.324	52.12
228.559	57.12
228.793	70.12
229.027	110.12
229.262	131.12
229.496	137.12
229.73	155.12
229.964	171.12
230.199	139.12
230.433	118.12
230.667	127.12
230.901	119.12
231.136	120.12
231.37	128.12
231.604	118.12
231.838	106.12
232.072	121.12
232.306	128.12
232.541	108.12
232.775	124.12
233.009	107.12
233.243	125.12
233.477	119.12
233.711	112.12
233.945	117.12
234.179	135.12
234.413	127.12
234.647	122.12
234.881	127.12
235.115	116.12
235.349	125.12
235.583	129.12
235.817	131.12
236.051	124.12
236.285	124.12
236.519	138.12
236.753	155.12
236.987	151.12
237.221	193.12
237.455	249.12
237.689	215.12
237.922	146.12
238.156	148.12
238.39	132.12
238.624	138.12
238.858	125.12
239.091	127.12
239.325	125.12
239.559	131.12
239.793	125.12
240.027	132.12
240.26	161.12
240.494	166.12
240.728	149.12
240.961	142.12
241.195	164.12
241.429	145.12
241.662	144.12
241.896	155.12
242.13	131.12
242.363	144.12
242.597	141.12
242.83	150.12
243.064	147.12
243.298	147.12
243.531	142.12
243.765	136.12
243.998	149.12
244.232	157.12
244.465	156.12
244.699	151.12
244.932	155.12
245.166	140.12
245.399	145.12
245.633	170.12
245.866	156.12
246.099	151.12
246.333	159.12
246.566	160.12
246.8	163.12
247.033	160.12
247.266	172.12
247.5	184.12
247.733	188.12
247.966	175.12
248.2	196.12
248.433	179.12
248.666	191.12
248.899	216.12
249.133	209.12
249.366	226.12
249.599	230.12
249.832	195.12
250.066	183.12
250.299	199.12
250.532	224.12
250.765	220.12
250.998	229.12
251.231	245.12
251.465	232.12
251.698	225.12
251.931	210.12
252.164	225.12
252.397	229.12
252.63	222.12
252.863	227.12
253.096	232.12
253.329	248.12
253.562	256.12
253.795	259.12
254.028	256.12
254.261	245.12
254.494	227.12
254.727	263.12
254.96	308.12
255.193	286.12
255.426	293.12
255.659	267.12
255.892	246.12
256.124	261.12
256.357	263.12
256.59	264.12
256.823	238.12
257.056	236.12
257.289	226.12
257.521	229.12
257.754	233.12
257.987	226.12
258.22	209.12
258.452	219.12
258.685	231.12
258.918	237.12
259.151	230.12
259.383	234.12
259.616	228.12
259.849	236.12
260.081	240.12
260.314	266.12
260.547	265.12
260.779	257.12
261.012	254.12
261.244	248.12
261.477	243.12
261.71	235.12
261.942	244.12
262.175	241.12
262.407	248.12
262.64	237.12
262.872	230.12
263.105	227.12
263.337	231.12
263.57	218.12
263.802	220.12
264.035	219.12
264.267	214.12
264.499	221.12
264.732	219.12
264.964	217.12
265.197	232.12
265.429	222.12
265.661	215.12
265.894	204.12
266.126	211.12
266.358	231.12
266.591	214.12
266.823	222.12
267.055	241.12
267.287	227.12
267.52	228.12
267.752	228.12
267.984	231.12
268.216	217.12
268.448	243.12
268.681	227.12
268.913	248.12
269.145	273.12
269.377	313.12
269.609	289.12
269.841	271.12
270.073	274.12
270.306	322.12
270.538	337.12
270.77	332.12
271.002	304.12
271.234	300.12
271.466	292.12
271.698	324.12
271.93	341.12
272.162	325.12
272.394	333.12
272.626	324.12
272.858	303.12
273.09	302.12
273.322	288.12
273.553	274.12
273.785	268.12
274.017	274.12
274.249	249.12
274.481	263.12
274.713	277.12
274.945	285.12
275.176	255.12
275.408	277.12
275.64	259.12
275.872	239.12
276.104	266.12
276.335	262.12
276.567	269.12
276.799	291.12
277.031	301.12
277.262	332.12
277.494	339.12
277.726	307.12
277.957	295.12
278.189	292.12
278.421	271.12
278.652	265.12
278.884	269.12
279.115	246.12
279.347	273.12
279.579	259.12
279.81	264.12
280.042	249.12
280.273	270.12
280.505	264.12
280.736	267.12
280.968	268.12
281.199	263.12
281.431	238.12
281.662	272.12
281.894	253.12
282.125	285.12
282.356	281.12
282.588	305.12
282.819	307.12
283.051	272.12
283.282	261.12
283.513	266.12
283.745	273.12
283.976	252.12
284.207	273.12
284.439	277.12
284.67	259.12
284.901	288.12
285.132	263.12
285.364	281.12
285.595	256.12
285.826	253.12
286.057	274.12
286.288	238.12
286.52	255.12
286.751	263.12
286.982	271.12
287.213	277.12
287.444	277.12
287.675	287.12
287.906	289.12
288.138	293.12
288.369	281.12
288.6	316.12
288.831	297.12
289.062	296.12
289.293	296.12
289.524	284.12
289.755	281.12
289.986	293.12
290.217	279.12
290.448	295.12
290.679	287.12
290.91	297.12
291.141	270.12
291.371	273.12
291.602	291.12
291.833	283.12
292.064	277.12
292.295	286.12
292.526	293.12
292.757	294.12
292.987	290.12
293.218	277.12
293.449	287.12
293.68	272.12
293.91	255.12
294.141	285.12
294.372	271.12
294.603	253.12
294.833	286.12
295.064	278.12
295.295	272.12
295.525	279.12
295.756	290.12
295.987	280.12
296.217	306.12
296.448	329.12
296.679	286.12
296.909	280.12
297.14	277.12
297.37	286.12
297.601	293.12
297.831	283.12
298.062	289.12
298.292	278.12
298.523	286.12
298.753	302.12
298.984	303.12
299.214	291.12
299.445	281.12
299.675	305.12
299.905	301.12
300.136	312.12
300.366	293.12
300.597	303.12
300.827	301.12
301.057	288.12
301.288	336.12
301.518	325.12
301.748	298.12
301.979	301.12
302.209	316.12
302.439	296.12
302.669	335.12
302.9	312.12
303.13	315.12
303.36	324.12
303.59	332.12
303.82	317.12
304.051	319.12
304.281	313.12
304.511	315.12
304.741	307.12
304.971	301.12
305.201	304.12
305.431	305.12
305.661	302.12
305.891	315.12
306.121	334.12
306.352	335.12
306.582	343.12
306.812	318.12
307.042	319.12
307.272	314.12
307.502	344.12
307.731	342.12
307.961	332.12
308.191	311.12
308.421	323.12
308.651	303.12
308.881	313.12
309.111	331.12
309.341	330.12
309.571	348.12
309.8	360.12
310.03	362.12
310.26	355.12
310.49	366.12
310.72	375.12
310.949	393.12
311.179	415.12
311.409	377.12
311.639	366.12
311.868	379.12
312.098	390.12
312.328	395.12
312.557	387.12
312.787	442.12
313.017	406.12
313.246	361.12
313.476	368.12
313.706	380.12
313.935	377.12
314.165	397.12
314.394	385.12
314.624	384.12
314.853	378.12
315.083	379.12
315.312	368.12
315.542	371.12
315.771	358.12
316.001	353.12
316.23	360.12
316.46	367.12
316.689	373.12
316.919	366.12
317.148	381.12
317.377	379.12
317.607	375.12
317.836	361.12
318.065	379.12
318.295	374.12
318.524	380.12
318.753	383.12
318.983	356.12
319.212	364.12
319.441	395.12
319.67	368.12
319.9	366.12
320.129	380.12
320.358	385.12
320.587	381.12
320.816	408.12
321.046	398.12
321.275	402.12
321.504	402.12
321.733	399.12
321.962	414.12
322.191	425.12
322.42	450.12
322.649	461.12
322.878	475.12
323.108	509.12
323.337	513.12
323.566	507.12
323.795	561.12
324.024	615.12
324.253	734.12
324.482	1069.12
324.71	1615.12
324.939	2259.12
325.168	2011.12
325.397	1064.12
325.626	711.12
325.855	614.12
326.084	548.12
326.313	547.12
326.542	517.12
326.77	570.12
326.999	692.12
327.228	953.12
327.457	1407.12
327.686	1732.12
327.914	1190.12
328.143	816.12
328.372	699.12
328.6	651.12
328.829	606.12
329.058	607.12
329.287	647.12
329.515	595.12
329.744	526.12
329.972	519.12
330.201	549.12
330.43	602.12
330.658	606.12
330.887	668.12
331.115	650.12
331.344	528.12
331.572	514.12
331.801	511.12
332.03	482.12
332.258	474.12
332.486	454.12
332.715	443.12
332.943	440.12
333.172	429.12
333.4	462.12
333.629	472.12
333.857	450.12
334.085	475.12
334.314	500.12
334.542	539.12
334.771	579.12
334.999	489.12
335.227	453.12
335.455	451.12
335.684	435.12
335.912	426.12
336.14	441.12
336.369	453.12
336.597	432.12
336.825	431.12
337.053	410.12
337.281	421.12
337.51	424.12
337.738	430.12
337.966	438.12
338.194	437.12
338.422	432.12
338.65	441.12
338.878	443.12
339.106	445.12
339.334	413.12
339.562	428.12
339.79	411.12
340.018	408.12
340.246	430.12
340.474	456.12
340.702	459.12
340.93	437.12
341.158	435.12
341.386	426.12
341.614	445.12
341.842	441.12
342.07	401.12
342.298	432.12
342.526	409.12
342.754	396.12
342.981	393.12
343.209	399.12
343.437	402.12
343.665	394.12
343.893	427.12
344.12	428.12
344.348	430.12
344.576	439.12
344.804	435.12
345.031	454.12
345.259	449.12
345.487	438.12
345.714	435.12
345.942	421.12
346.17	413.12
346.397	410.12
346.625	411.12
346.853	429.12
347.08	436.12
347.308	422.12
347.535	425.12
347.763	441.12
347.99	435.12
348.218	425.12
348.445	435.12
348.673	429.12
348.9	433.12
349.128	431.12
349.355	403.12
349.583	396.12
349.81	409.12
350.037	393.12
350.265	403.12
350.492	400.12
350.72	401.12
350.947	411.12
351.174	416.12
351.402	434.12
351.629	431.12
351.856	440.12
352.083	449.12
352.311	445.12
352.538	435.12
352.765	454.12
352.992	435.12
353.22	414.12
353.447	424.12
353.674	419.12
353.901	402.12
354.128	424.12
354.355	411.12
354.583	392.12
354.81	401.12
355.037	394.12
355.264	392.12
355.491	383.12
355.718	402.12
355.945	399.12
356.172	410.12
356.399	401.12
356.626	389.12
356.853	381.12
357.08	392.12
357.307	397.12
357.534	379.12
357.761	389.12
357.988	391.12
358.215	382.12
358.441	381.12
358.668	395.12
358.895	406.12
359.122	423.12
359.349	419.12
359.576	437.12
359.802	474.12
360.029	491.12
360.256	489.12
360.483	501.12
360.709	434.12
360.936	433.12
361.163	422.12
361.39	431.12
361.616	447.12
361.843	415.12
362.07	422.12
362.296	438.12
362.523	428.12
362.749	416.12
362.976	414.12
363.203	405.12
363.429	409.12
363.656	422.12
363.882	423.12
364.109	429.12
364.335	417.12
364.562	400.12
364.788	426.12
365.015	411.12
365.241	383.12
365.468	407.12
365.694	407.12
365.92	416.12
366.147	407.12
366.373	397.12
366.599	392.12
366.826	391.12
367.052	419.12
367.278	402.12
367.505	383.12
367.731	407.12
367.957	400.12
368.184	415.12
368.41	398.12
368.636	428.12
368.862	441.12
369.089	405.12
369.315	395.12
369.541	405.12
369.767	392.12
369.993	401.12
370.219	434.12
370.445	413.12
370.672	415.12
370.898	401.12
371.124	399.12
371.35	409.12
371.576	368.12
371.802	407.12
372.028	399.12
372.254	394.12
372.48	391.12
372.706	386.12
372.932	422.12
373.158	419.12
373.384	402.12
373.61	413.12
373.835	417.12
374.061	408.12
374.287	409.12
374.513	424.12
374.739	408.12
374.965	405.12
375.191	410.12
375.416	406.12
375.642	412.12
375.868	383.12
376.094	427.12
376.319	416.12
376.545	399.12
376.771	399.12
376.997	400.12
377.222	415.12
377.448	400.12
377.674	379.12
377.899	417.12
378.125	401.12
378.35	398.12
378.576	396.12
378.802	392.12
379.027	378.12
379.253	385.12
379.478	418.12
379.704	422.12
379.929	405.12
380.155	403.12
380.38	406.12
380.606	405.12
380.831	401.12
381.057	410.12
381.282	396.12
381.507	385.12
381.733	424.12
381.958	402.12
382.184	405.12
382.409	413.12
382.634	401.12
382.86	420.12
383.085	421.12
383.31	422.12
383.535	407.12
383.761	412.12
383.986	419.12
384.211	426.12
384.436	411.12
384.662	429.12
384.887	437.12
385.112	416.12
385.337	439.12
385.562	425.12
385.787	439.12
386.013	449.12
386.238	457.12
386.463	446.12
386.688	432.12
386.913	427.12
387.138	451.12
387.363	452.12
387.588	430.12
387.813	423.12
388.038	438.12
388.263	430.12
388.488	426.12
388.713	445.12
388.938	439.12
389.163	445.12
389.387	448.12
389.612	445.12
389.837	424.12
390.062	447.12
390.287	443.12
390.512	415.12
390.736	435.12
390.961	439.12
391.186	426.12
391.411	439.12
391.636	453.12
391.86	435.12
392.085	449.12
392.31	436.12
392.534	443.12
392.759	445.12
392.984	442.12
393.208	447.12
393.433	442.12
393.658	440.12
393.882	448.12
394.107	446.12
394.331	440.12
394.556	435.12
394.78	457.12
395.005	430.12
395.229	451.12
395.454	444.12
395.678	439.12
395.903	465.12
396.127	497.12
396.352	486.12
396.576	484.12
396.801	481.12
397.025	461.12
397.249	457.12
397.474	464.12
397.698	464.12
397.922	507.12
398.147	490.12
398.371	478.12
398.595	493.12
398.82	497.12
399.044	479.12
399.268	523.12
399.492	560.12
399.717	528.12
399.941	582.12
400.165	586.12
400.389	590.12
400.613	576.12
400.837	540.12
401.062	517.12
401.286	517.12
401.51	520.12
401.734	502.12
401.958	511.12
402.182	531.12
402.406	515.12
402.63	525.12
402.854	521.12
403.078	528.12
403.302	512.12
403.526	499.12
403.75	523.12
403.974	530.12
404.198	539.12
404.422	531.12
404.645	551.12
404.869	526.12
405.093	567.12
405.317	581.12
405.541	652.12
405.765	571.12
405.988	569.12
406.212	571.12
406.436	593.12
406.66	611.12
406.883	587.12
407.107	582.12
407.331	645.12
407.555	687.12
407.778	711.12
408.002	635.12
408.226	602.12
408.449	582.12
408.673	569.12
408.896	646.12
409.12	656.12
409.344	631.12
409.567	596.12
409.791	557.12
410.014	549.12
410.238	544.12
410.461	525.12
410.685	543.12
410.908	548.12
411.132	587.12
411.355	634.12
411.578	592.12
411.802	553.12
412.025	535.12
412.249	538.12
412.472	576.12
412.695	612.12
412.919	623.12
413.142	566.12
413.365	541.12
413.589	533.12
413.812	508.12
414.035	496.12
414.258	495.12
414.482	483.12
414.705	501.12
414.928	487.12
415.151	499.12
415.374	511.12
415.597	505.12
415.821	489.12
416.044	494.12
416.267	496.12
416.49	487.12
416.713	508.12
416.936	499.12
417.159	497.12
417.382	516.12
417.605	524.12
417.828	506.12
418.051	536.12
418.274	546.12
418.497	528.12
418.72	522.12
418.943	517.12
419.166	533.12
419.389	530.12
419.611	533.12
419.834	543.12
420.057	535.12
420.28	523.12
420.503	528.12
420.726	545.12
420.948	541.12
421.171	598.12
421.394	624.12
421.617	575.12
421.839	543.12
422.062	550.12
422.285	576.12
422.507	612.12
422.73	659.12
422.953	655.12
423.175	593.12
423.398	575.12
423.621	559.12
423.843	609.12
424.066	607.12
424.288	580.12
424.511	586.12
424.733	665.12
424.956	743.12
425.178	727.12
425.401	723.12
425.623	741.12
425.846	640.12
426.068	595.12
426.291	615.12
426.513	592.12
426.735	596.12
426.958	648.12
427.18	722.12
427.402	855.12
427.625	935.12
427.847	863.12
428.069	751.12
428.292	679.12
428.514	616.12
428.736	609.12
428.958	569.12
429.181	560.12
429.403	558.12
429.625	563.12
429.847	604.12
430.069	654.12
430.292	667.12
430.514	601.12
430.736	542.12
430.958	566.12
431.18	524.12
431.402	517.12
431.624	481.12
431.846	489.12
432.068	512.12
432.29	530.12
432.512	539.12
432.734	520.12
432.956	533.12
433.178	533.12
433.4	543.12
433.622	541.12
433.844	520.12
434.066	502.12
434.287	512.12
434.509	527.12
434.731	516.12
434.953	524.12
435.175	544.12
435.397	603.12
435.618	618.12
435.84	637.12
436.062	721.12
436.284	803.12
436.505	679.12
436.727	623.12
436.949	580.12
437.17	543.12
437.392	565.12
437.614	593.12
437.835	617.12
438.057	744.12
438.278	811.12
438.5	821.12
438.721	866.12
438.943	839.12
439.165	680.12
439.386	622.12
439.608	632.12
439.829	608.12
440.05	661.12
440.272	698.12
440.493	645.12
440.715	621.12
440.936	583.12
441.158	567.12
441.379	556.12
441.6	575.12
441.822	612.12
442.043	632.12
442.264	737.12
442.486	763.12
442.707	662.12
442.928	613.12
443.149	633.12
443.371	655.12
443.592	675.12
443.813	776.12
444.034	852.12
444.255	696.12
444.476	607.12
444.698	585.12
444.919	592.12
445.14	726.12
445.361	650.12
445.582	672.12
445.803	711.12
446.024	822.12
446.245	836.12
446.466	760.12
446.687	667.12
446.908	591.12
447.129	585.12
447.35	576.12
447.571	553.12
447.792	545.12
448.013	561.12
448.234	588.12
448.455	627.12
448.675	758.12
448.896	845.12
449.117	744.12
449.338	745.12
449.559	799.12
449.779	891.12
450	731.12
450.221	635.12
450.442	580.12
450.662	581.12
450.883	568.12
451.104	586.12
451.324	568.12
451.545	523.12
451.766	528.12
451.986	509.12
452.207	513.12
452.428	503.12
452.648	512.12
452.869	504.12
453.089	531.12
453.31	538.12
453.53	527.12
453.751	499.12
453.971	504.12
454.192	526.12
454.412	513.12
454.633	504.12
454.853	510.12
455.073	507.12
455.294	530.12
455.514	615.12
455.734	599.12
455.955	484.12
456.175	485.12
456.395	472.12
456.616	467.12
456.836	472.12
457.056	451.12
457.276	451.12
457.497	457.12
457.717	456.12
457.937	460.12
458.157	469.12
458.377	493.12
458.598	530.12
458.818	581.12
459.038	658.12
459.258	685.12
459.478	580.12
459.698	543.12
459.918	518.12
460.138	516.12
460.358	504.12
460.578	510.12
460.798	506.12
461.018	508.12
461.238	516.12
461.458	516.12
461.678	501.12
461.898	526.12
462.118	515.12
462.338	522.12
462.558	519.12
462.777	532.12
462.997	541.12
463.217	548.12
463.437	554.12
463.657	549.12
463.876	526.12
464.096	549.12
464.316	524.12
464.536	519.12
464.755	547.12
464.975	559.12
465.195	604.12
465.414	691.12
465.634	618.12
465.854	566.12
466.073	539.12
466.293	535.12
466.512	507.12
466.732	538.12
466.951	520.12
467.171	497.12
467.391	504.12
467.61	516.12
467.829	527.12
468.049	542.12
468.268	536.12
468.488	520.12
468.707	507.12
468.927	489.12
469.146	485.12
469.365	494.12
469.585	497.12
469.804	488.12
470.023	510.12
470.243	509.12
470.462	517.12
470.681	535.12
470.901	526.12
471.12	526.12
471.339	518.12
471.558	500.12
471.777	519.12
471.997	506.12
472.216	502.12
472.435	566.12
472.654	564.12
472.873	530.12
473.092	519.12
473.311	505.12
473.53	533.12
473.749	520.12
473.968	575.12
474.187	685.12
474.406	697.12
474.625	577.12
474.844	552.12
475.063	537.12
475.282	524.12
475.501	517.12
475.72	545.12
475.939	535.12
476.158	516.12
476.377	535.12
476.596	542.12
476.814	538.12
477.033	528.12
477.252	542.12
477.471	546.12
477.69	539.12
477.908	558.12
478.127	559.12
478.346	584.12
478.564	571.12
478.783	571.12
479.002	576.12
479.22	605.12
479.439	605.12
479.658	644.12
479.876	613.12
480.095	624.12
480.313	641.12
480.532	651.12
480.751	633.12
480.969	641.12
481.188	743.12
481.406	783.12
481.624	671.12
481.843	648.12
482.061	631.12
482.28	627.12
482.498	628.12
482.717	623.12
482.935	636.12
483.153	617.12
483.372	635.12
483.59	611.12
483.808	599.12
484.027	599.12
484.245	612.12
484.463	639.12
484.681	635.12
484.9	595.12
485.118	615.12
485.336	636.12
485.554	633.12
485.772	634.12
485.99	619.12
486.209	645.12
486.427	622.12
486.645	657.12
486.863	699.12
487.081	693.12
487.299	676.12
487.517	661.12
487.735	673.12
487.953	669.12
488.171	660.12
488.389	671.12
488.607	669.12
488.825	672.12
489.043	672.12
489.261	685.12
489.479	694.12
489.696	693.12
489.914	681.12
490.132	688.12
490.35	723.12
490.568	713.12
490.786	733.12
491.003	728.12
491.221	748.12
491.439	766.12
491.657	769.12
491.874	769.12
492.092	794.12
492.31	806.12
492.527	782.12
492.745	800.12
492.963	797.12
493.18	815.12
493.398	792.12
493.615	806.12
493.833	812.12
494.05	793.12
494.268	797.12
494.485	815.12
494.703	799.12
494.92	817.12
495.138	820.12
495.355	819.12
495.573	808.12
495.79	807.12
496.008	812.12
496.225	812.12
496.442	818.12
496.66	813.12
496.877	823.12
497.094	811.12
497.312	808.12
497.529	845.12
497.746	826.12
497.963	843.12
498.181	859.12
498.398	857.12
498.615	865.12
498.832	890.12
499.049	887.12
499.267	887.12
499.484	901.12
499.701	903.12
499.918	930.12
500.135	950.12
500.352	1000.12
500.569	996.12
500.786	991.12
501.003	1024.12
501.22	965.12
501.437	986.12
501.654	947.12
501.871	953.12
502.088	948.12
502.305	918.12
502.522	910.12
502.739	875.12
502.956	855.12
503.172	837.12
503.389	853.12
503.606	832.12
503.823	857.12
504.04	817.12
504.256	831.12
504.473	819.12
504.69	775.12
504.907	807.12
505.123	790.12
505.34	788.12
505.557	783.12
505.773	795.12
505.99	778.12
506.207	784.12
506.423	769.12
506.64	764.12
506.856	760.12
507.073	775.12
507.289	769.12
507.506	775.12
507.722	776.12
507.939	812.12
508.155	787.12
508.372	744.12
508.588	738.12
508.805	733.12
509.021	755.12
509.238	752.12
509.454	759.12
509.67	752.12
509.887	778.12
510.103	727.12
510.319	763.12
510.536	874.12
510.752	1430.12
510.968	1195.12
511.184	791.12
511.401	731.12
511.617	707.12
511.833	705.12
512.049	728.12
512.265	714.12
512.481	723.12
512.698	699.12
512.914	713.12
513.13	721.12
513.346	713.12
513.562	682.12
513.778	699.12
513.994	701.12
514.21	737.12
514.426	744.12
514.642	836.12
514.858	852.12
515.074	887.12
515.29	1066.12
515.506	1597.12
515.721	1329.12
515.937	875.12
516.153	797.12
516.369	731.12
516.585	735.12
516.801	726.12
517.016	716.12
517.232	720.12
517.448	713.12
517.664	735.12
517.879	712.12
518.095	710.12
518.311	680.12
518.527	670.12
518.742	680.12
518.958	721.12
519.173	720.12
519.389	676.12
519.605	703.12
519.82	725.12
520.036	732.12
520.251	743.12
520.467	771.12
520.682	776.12
520.898	803.12
521.113	815.12
521.329	883.12
521.544	1000.12
521.76	1299.12
521.975	2117.12
522.19	2075.12
522.406	1146.12
522.621	846.12
522.836	767.12
523.052	705.12
523.267	704.12
523.482	656.12
523.698	628.12
523.913	672.12
524.128	655.12
524.343	617.12
524.559	647.12
524.774	601.12
524.989	625.12
525.204	637.12
525.419	640.12
525.634	595.12
525.849	613.12
526.064	615.12
526.28	586.12
526.495	598.12
526.71	570.12
526.925	557.12
527.14	576.12
527.355	551.12
527.57	563.12
527.785	569.12
527.999	572.12
528.214	565.12
528.429	575.12
528.644	558.12
528.859	596.12
529.074	589.12
529.289	609.12
529.503	697.12
529.718	703.12
529.933	617.12
530.148	615.12
530.363	605.12
530.577	584.12
530.792	555.12
531.007	586.12
531.221	551.12
531.436	566.12
531.651	551.12
531.865	539.12
532.08	539.12
532.295	543.12
532.509	546.12
532.724	547.12
532.938	543.12
533.153	510.12
533.367	536.12
533.582	551.12
533.796	524.12
534.011	541.12
534.225	533.12
534.44	519.12
534.654	519.12
534.868	517.12
535.083	512.12
535.297	517.12
535.511	542.12
535.726	557.12
535.94	558.12
536.154	533.12
536.369	519.12
536.583	522.12
536.797	505.12
537.011	502.12
537.225	523.12
537.44	516.12
537.654	496.12
537.868	506.12
538.082	515.12
538.296	522.12
538.51	533.12
538.724	520.12
538.938	520.12
539.153	519.12
539.367	527.12
539.581	559.12
539.795	525.12
540.009	526.12
540.222	502.12
540.436	520.12
540.65	529.12
540.864	530.12
541.078	533.12
541.292	538.12
541.506	499.12
541.72	521.12
541.934	502.12
542.147	523.12
542.361	505.12
542.575	529.12
542.789	516.12
543.002	506.12
543.216	517.12
543.43	500.12
543.644	504.12
543.857	523.12
544.071	515.12
544.285	532.12
544.498	502.12
544.712	517.12
544.925	520.12
545.139	502.12
545.352	480.12
545.566	494.12
545.779	499.12
545.993	523.12
546.206	505.12
546.42	481.12
546.633	504.12
546.847	473.12
547.06	501.12
547.274	484.12
547.487	481.12
547.7	505.12
547.914	494.12
548.127	486.12
548.34	488.12
548.554	478.12
548.767	467.12
548.98	496.12
549.193	481.12
549.407	472.12
549.62	477.12
549.833	485.12
550.046	476.12
550.259	479.12
550.473	484.12
550.686	486.12
550.899	469.12
551.112	464.12
551.325	467.12
551.538	456.12
551.751	484.12
551.964	461.12
552.177	468.12
552.39	470.12
552.603	476.12
552.816	471.12
553.029	459.12
553.242	477.12
553.455	481.12
553.667	488.12
553.88	496.12
554.093	482.12
554.306	491.12
554.519	490.12
554.732	464.12
554.944	469.12
555.157	466.12
555.37	479.12
555.583	467.12
555.795	461.12
556.008	452.12
556.221	452.12
556.433	437.12
556.646	423.12
556.859	422.12
557.071	453.12
557.284	423.12
557.496	441.12
557.709	438.12
557.921	432.12
558.134	450.12
558.346	450.12
558.559	440.12
558.771	427.12
558.984	449.12
559.196	446.12
559.409	429.12
559.621	444.12
559.833	430.12
560.046	438.12
560.258	425.12
560.47	429.12
560.683	438.12
560.895	411.12
561.107	429.12
561.32	442.12
561.532	432.12
561.744	439.12
561.956	441.12
562.168	445.12
562.381	425.12
562.593	432.12
562.805	443.12
563.017	416.12
563.229	451.12
563.441	439.12
563.653	424.12
563.865	439.12
564.077	435.12
564.289	439.12
564.501	419.12
564.713	436.12
564.925	431.12
565.137	470.12
565.349	455.12
565.561	447.12
565.773	449.12
565.985	451.12
566.197	446.12
566.408	480.12
566.62	453.12
566.832	467.12
567.044	492.12
567.255	494.12
567.467	481.12
567.679	511.12
567.891	501.12
568.102	485.12
568.314	471.12
568.526	467.12
568.737	488.12
568.949	455.12
569.161	446.12
569.372	421.12
569.584	418.12
569.795	418.12
570.007	428.12
570.218	473.12
570.43	495.12
570.641	435.12
570.853	425.12
571.064	389.12
571.276	387.12
571.487	404.12
571.698	400.12
571.91	402.12
572.121	409.12
572.333	390.12
572.544	382.12
572.755	383.12
572.966	399.12
573.178	384.12
573.389	371.12
573.6	392.12
573.811	391.12
574.023	377.12
574.234	366.12
574.445	353.12
574.656	359.12
574.867	371.12
575.078	373.12
575.289	349.12
575.501	350.12
575.712	363.12
575.923	348.12
576.134	369.12
576.345	361.12
576.556	351.12
576.767	341.12
576.978	357.12
577.188	350.12
577.399	359.12
577.61	349.12
577.821	336.12
578.032	363.12
578.243	416.12
578.454	669.12
578.665	517.12
578.875	372.12
579.086	351.12
579.297	345.12
579.508	336.12
579.718	324.12
579.929	338.12
580.14	315.12
580.35	346.12
580.561	343.12
580.772	352.12
580.982	351.12
581.193	349.12
581.403	335.12
581.614	333.12
581.825	312.12
582.035	313.12
582.246	348.12
582.456	336.12
582.667	331.12
582.877	332.12
583.087	334.12
583.298	348.12
583.508	336.12
583.719	322.12
583.929	341.12
584.139	312.12
584.35	311.12
584.56	329.12
584.77	317.12
584.981	343.12
585.191	337.12
585.401	316.12
585.611	313.12
585.821	334.12
586.032	337.12
586.242	317.12
586.452	336.12
586.662	322.12
586.872	312.12
587.082	334.12
587.292	320.12
587.502	318.12
587.713	331.12
587.923	317.12
588.133	309.12
588.343	334.12
588.553	313.12
588.762	322.12
588.972	323.12
589.182	325.12
589.392	328.12
589.602	321.12
589.812	308.12
590.022	328.12
590.232	319.12
590.441	323.12
590.651	300.12
590.861	308.12
591.071	303.12
591.281	304.12
591.49	306.12
591.7	313.12
591.91	307.12
592.119	303.12
592.329	327.12
592.539	326.12
592.748	326.12
592.958	320.12
593.167	333.12
593.377	309.12
593.587	353.12
593.796	340.12
594.006	307.12
594.215	333.12
594.424	303.12
594.634	344.12
594.843	334.12
595.053	323.12
595.262	319.12
595.472	299.12
595.681	314.12
595.89	317.12
596.1	304.12
596.309	313.12
596.518	296.12
596.727	317.12
596.937	302.12
597.146	317.12
597.355	325.12
597.564	298.12
597.774	285.12
597.983	300.12
598.192	278.12
598.401	294.12
598.61	301.12
598.819	291.12
599.028	289.12
599.237	289.12
599.446	292.12
599.655	314.12
599.864	274.12
600.073	273.12
600.282	279.12
600.491	291.12
600.7	279.12
600.909	280.12
601.118	269.12
601.327	284.12
601.536	295.12
601.745	272.12
601.953	275.12
602.162	282.12
602.371	278.12
602.58	291.12
602.789	275.12
602.997	261.12
603.206	295.12
603.415	276.12
603.623	277.12
603.832	273.12
604.041	272.12
604.249	260.12
604.458	296.12
604.666	283.12
604.875	273.12
605.084	260.12
605.292	255.12
605.501	278.12
605.709	272.12
605.918	268.12
606.126	273.12
606.334	276.12
606.543	256.12
606.751	272.12
606.96	269.12
607.168	278.12
607.376	250.12
607.585	256.12
607.793	248.12
608.001	271.12
608.21	289.12
608.418	261.12
608.626	269.12
608.834	265.12
609.043	269.12
609.251	259.12
609.459	270.12
609.667	269.12
609.875	269.12
610.083	269.12
610.291	249.12
610.499	265.12
610.707	266.12
610.916	271.12
611.124	276.12
611.332	285.12
611.54	287.12
611.748	267.12
611.955	275.12
612.163	268.12
612.371	287.12
612.579	276.12
612.787	269.12
612.995	259.12
613.203	269.12
613.411	267.12
613.618	278.12
613.826	247.12
614.034	263.12
614.242	264.12
614.449	245.12
614.657	253.12
614.865	241.12
615.072	281.12
615.28	248.12
615.488	250.12
615.695	254.12
615.903	259.12
616.111	259.12
616.318	257.12
616.526	272.12
616.733	252.12
616.941	264.12
617.148	264.12
617.356	245.12
617.563	274.12
617.771	233.12
617.978	265.12
618.185	272.12
618.393	240.12
618.6	263.12
618.807	247.12
619.015	246.12
619.222	249.12
619.429	244.12
619.637	238.12
619.844	253.12
620.051	243.12
620.258	243.12
620.466	236.12
620.673	243.12
620.88	232.12
621.087	247.12
621.294	261.12
621.501	247.12
621.708	233.12
621.915	240.12
622.122	245.12
622.329	255.12
622.536	256.12
622.743	225.12
622.95	231.12
623.157	239.12
623.364	244.12
623.571	240.12
623.778	243.12
623.985	237.12
624.192	261.12
624.399	244.12
624.606	229.12
624.812	243.12
625.019	230.12
625.226	247.12
625.433	225.12
625.639	219.12
625.846	212.12
626.053	222.12
626.259	212.12
626.466	230.12
626.673	228.12
626.879	225.12
627.086	227.12
627.293	226.12
627.499	227.12
627.706	215.12
627.912	233.12
628.119	227.12
628.325	225.12
628.532	222.12
628.738	206.12
628.945	219.12
629.151	225.12
629.357	224.12
629.564	218.12
629.77	207.12
629.976	225.12
630.183	190.12
630.389	212.12
630.595	225.12
630.802	205.12
631.008	201.12
631.214	208.12
631.42	208.12
631.627	217.12
631.833	222.12
632.039	197.12
632.245	185.12
632.451	208.12
632.657	212.12
632.863	209.12
633.069	196.12
633.275	218.12
633.481	193.12
633.688	214.12
633.893	195.12
634.099	188.12
634.305	212.12
634.511	184.12
634.717	183.12
634.923	181.12
635.129	182.12
635.335	181.12
635.541	204.12
635.747	188.12
635.952	199.12
636.158	211.12
636.364	201.12
636.57	199.12
636.775	185.12
636.981	191.12
637.187	201.12
637.392	200.12
637.598	197.12
637.804	185.12
638.009	201.12
638.215	177.12
638.421	183.12
638.626	198.12
638.832	189.12
639.037	189.12
639.243	199.12
639.448	196.12
639.654	204.12
639.859	188.12
640.065	179.12
640.27	200.12
640.475	194.12
640.681	201.12
640.886	175.12
641.091	184.12
641.297	190.12
641.502	171.12
641.707	187.12
641.913	190.12
642.118	189.12
642.323	180.12
642.528	175.12
642.733	171.12
642.939	176.12
643.144	174.12
643.349	179.12
643.554	164.12
643.759	187.12
643.964	181.12
644.169	193.12
644.374	165.12
644.579	163.12
644.784	180.12
644.989	176.12
645.194	163.12
645.399	174.12
645.604	189.12
645.809	175.12
646.014	170.12
646.219	184.12
646.423	173.12
646.628	168.12
646.833	184.12
647.038	171.12
647.243	175.12
647.447	181.12
647.652	170.12
647.857	180.12
648.062	179.12
648.266	187.12
648.471	181.12
648.676	178.12
648.88	167.12
649.085	187.12
649.289	196.12
649.494	176.12
649.698	185.12
649.903	192.12
650.107	182.12
650.312	173.12
650.516	183.12
650.721	171.12
650.925	145.12
651.13	165.12
651.334	166.12
651.539	167.12
651.743	152.12
651.947	170.12
652.152	153.12
652.356	159.12
652.56	150.12
652.764	155.12
652.969	136.12
653.173	143.12
653.377	131.12
653.581	147.12
653.785	140.12
653.99	147.12
654.194	156.12
654.398	141.12
654.602	132.12
654.806	153.12
655.01	127.12
655.214	129.12
655.418	138.12
655.622	131.12
655.826	122.12
656.03	142.12
656.234	144.12
656.438	132.12
656.642	151.12
656.846	132.12
657.049	131.12
657.253	127.12
657.457	128.12
657.661	123.12
657.865	124.12
658.068	126.12
658.272	116.12
658.476	115.12
658.68	112.12
658.883	104.12
659.087	116.12
659.291	102.12
659.494	103.12
659.698	100.12
659.901	105.12
660.105	113.12
660.309	102.12
660.512	100.12
660.716	104.12
660.919	102.12
661.123	96.12
661.326	93.12
661.53	87.12
661.733	94.12
661.936	106.12
662.14	87.12
662.343	94.12
662.546	97.12
662.75	85.12
662.953	98.12
663.156	92.12
663.36	78.12
663.563	101.12
663.766	92.12
663.969	96.12
664.173	81.12
664.376	80.12
664.579	90.12
664.782	88.12
664.985	90.12
665.188	79.12
665.391	83.12
665.594	83.12
665.797	95.12
666	98.12
666.203	75.12
666.406	79.12
666.609	89.12
666.812	83.12
667.015	82.12
667.218	88.12
667.421	73.12
667.624	96.12
667.827	90.12
668.03	104.12
668.232	82.12
668.435	88.12
668.638	96.12
668.841	100.12
669.043	91.12
669.246	84.12
669.449	98.12
669.651	93.12
669.854	88.12
670.057	79.12
670.259	80.12
670.462	97.12
670.665	90.12
670.867	82.12
671.07	82.12
671.272	79.12
671.475	89.12
671.677	79.12
671.88	95.12
672.082	99.12
672.284	89.12
672.487	87.12
672.689	75.12
672.892	85.12
