Data from 1970.PennyLincolnUp.Lamp.En5.5.200Scan.071719.P1._HRD10591_15-14-25-842.txt Node
Date: Thu Jul 18 15:14:25 EDT 2019
User: cochatt
Spectrometer: HR+D1059
Trigger mode: 1
Integration Time (sec): 1.000000E-1
Scans to average: 1
Electric dark correction enabled: true
Nonlinearity correction enabled: false
Boxcar width: 0
XAxis mode: Wavelengths
Number of Pixels in Spectrum: 2048
>>>>>Begin Spectral Data<<<<<
223.165	-22.56
223.4	-22.56
223.635	-22.56
223.869	-25.56
224.104	-12.56
224.338	-18.56
224.573	-13.56
224.808	-7.56
225.042	-11.56
225.277	2.44
225.511	2.44
225.746	-2.56
225.98	-3.56
226.215	6.44
226.449	20.44
226.683	17.44
226.918	23.44
227.152	45.44
227.387	32.44
227.621	28.44
227.856	37.44
228.09	32.44
228.324	48.44
228.559	62.44
228.793	64.44
229.027	116.44
229.262	115.44
229.496	131.44
229.73	147.44
229.964	172.44
230.199	123.44
230.433	128.44
230.667	119.44
230.901	129.44
231.136	123.44
231.37	124.44
231.604	129.44
231.838	119.44
232.072	123.44
232.306	134.44
232.541	121.44
232.775	118.44
233.009	112.44
233.243	128.44
233.477	114.44
233.711	125.44
233.945	127.44
234.179	134.44
234.413	120.44
234.647	134.44
234.881	122.44
235.115	123.44
235.349	121.44
235.583	120.44
235.817	132.44
236.051	117.44
236.285	134.44
236.519	126.44
236.753	126.44
236.987	158.44
237.221	183.44
237.455	261.44
237.689	204.44
237.922	163.44
238.156	133.44
238.39	151.44
238.624	128.44
238.858	128.44
239.091	122.44
239.325	128.44
239.559	130.44
239.793	148.44
240.027	143.44
240.26	153.44
240.494	176.44
240.728	169.44
240.961	178.44
241.195	148.44
241.429	149.44
241.662	145.44
241.896	128.44
242.13	134.44
242.363	135.44
242.597	148.44
242.83	149.44
243.064	152.44
243.298	155.44
243.531	132.44
243.765	142.44
243.998	140.44
244.232	147.44
244.465	136.44
244.699	150.44
244.932	164.44
245.166	157.44
245.399	145.44
245.633	130.44
245.866	151.44
246.099	146.44
246.333	166.44
246.566	168.44
246.8	166.44
247.033	168.44
247.266	179.44
247.5	174.44
247.733	188.44
247.966	203.44
248.2	173.44
248.433	184.44
248.666	196.44
248.899	193.44
249.133	210.44
249.366	234.44
249.599	232.44
249.832	214.44
250.066	208.44
250.299	224.44
250.532	206.44
250.765	233.44
250.998	248.44
251.231	260.44
251.465	232.44
251.698	235.44
251.931	240.44
252.164	216.44
252.397	230.44
252.63	235.44
252.863	234.44
253.096	240.44
253.329	261.44
253.562	265.44
253.795	270.44
254.028	249.44
254.261	257.44
254.494	268.44
254.727	317.44
254.96	330.44
255.193	279.44
255.426	292.44
255.659	264.44
255.892	264.44
256.124	260.44
256.357	271.44
256.59	248.44
256.823	224.44
257.056	235.44
257.289	221.44
257.521	227.44
257.754	234.44
257.987	234.44
258.22	240.44
258.452	224.44
258.685	225.44
258.918	226.44
259.151	215.44
259.383	236.44
259.616	244.44
259.849	230.44
260.081	271.44
260.314	288.44
260.547	283.44
260.779	241.44
261.012	258.44
261.244	240.44
261.477	244.44
261.71	249.44
261.942	254.44
262.175	252.44
262.407	247.44
262.64	230.44
262.872	225.44
263.105	225.44
263.337	212.44
263.57	232.44
263.802	217.44
264.035	254.44
264.267	247.44
264.499	220.44
264.732	234.44
264.964	213.44
265.197	215.44
265.429	217.44
265.661	214.44
265.894	206.44
266.126	220.44
266.358	242.44
266.591	224.44
266.823	226.44
267.055	242.44
267.287	242.44
267.52	247.44
267.752	228.44
267.984	211.44
268.216	231.44
268.448	250.44
268.681	249.44
268.913	255.44
269.145	277.44
269.377	288.44
269.609	275.44
269.841	289.44
270.073	308.44
270.306	299.44
270.538	338.44
270.77	353.44
271.002	317.44
271.234	322.44
271.466	322.44
271.698	345.44
271.93	345.44
272.162	341.44
272.394	340.44
272.626	319.44
272.858	332.44
273.09	285.44
273.322	292.44
273.553	285.44
273.785	276.44
274.017	290.44
274.249	271.44
274.481	290.44
274.713	284.44
274.945	280.44
275.176	276.44
275.408	284.44
275.64	275.44
275.872	277.44
276.104	298.44
276.335	264.44
276.567	280.44
276.799	308.44
277.031	329.44
277.262	327.44
277.494	349.44
277.726	311.44
277.957	308.44
278.189	274.44
278.421	275.44
278.652	290.44
278.884	268.44
279.115	276.44
279.347	284.44
279.579	272.44
279.81	279.44
280.042	261.44
280.273	269.44
280.505	268.44
280.736	269.44
280.968	263.44
281.199	274.44
281.431	276.44
281.662	269.44
281.894	282.44
282.125	264.44
282.356	294.44
282.588	301.44
282.819	306.44
283.051	271.44
283.282	280.44
283.513	278.44
283.745	286.44
283.976	296.44
284.207	288.44
284.439	277.44
284.67	272.44
284.901	291.44
285.132	275.44
285.364	278.44
285.595	286.44
285.826	265.44
286.057	271.44
286.288	278.44
286.52	251.44
286.751	274.44
286.982	286.44
287.213	290.44
287.444	288.44
287.675	267.44
287.906	287.44
288.138	312.44
288.369	309.44
288.6	295.44
288.831	298.44
289.062	294.44
289.293	297.44
289.524	291.44
289.755	285.44
289.986	281.44
290.217	292.44
290.448	300.44
290.679	267.44
290.91	300.44
291.141	297.44
291.371	284.44
291.602	286.44
291.833	284.44
292.064	270.44
292.295	288.44
292.526	288.44
292.757	262.44
292.987	300.44
293.218	285.44
293.449	283.44
293.68	300.44
293.91	289.44
294.141	278.44
294.372	276.44
294.603	296.44
294.833	298.44
295.064	273.44
295.295	301.44
295.525	281.44
295.756	306.44
295.987	305.44
296.217	331.44
296.448	346.44
296.679	303.44
296.909	292.44
297.14	301.44
297.37	311.44
297.601	302.44
297.831	298.44
298.062	297.44
298.292	309.44
298.523	297.44
298.753	320.44
298.984	320.44
299.214	306.44
299.445	300.44
299.675	302.44
299.905	330.44
300.136	313.44
300.366	316.44
300.597	308.44
300.827	326.44
301.057	315.44
301.288	320.44
301.518	313.44
301.748	329.44
301.979	312.44
302.209	329.44
302.439	337.44
302.669	352.44
302.9	338.44
303.13	331.44
303.36	324.44
303.59	308.44
303.82	331.44
304.051	333.44
304.281	303.44
304.511	316.44
304.741	336.44
304.971	318.44
305.201	320.44
305.431	333.44
305.661	342.44
305.891	318.44
306.121	325.44
306.352	327.44
306.582	361.44
306.812	340.44
307.042	328.44
307.272	351.44
307.502	316.44
307.731	332.44
307.961	326.44
308.191	325.44
308.421	333.44
308.651	352.44
308.881	340.44
309.111	361.44
309.341	340.44
309.571	376.44
309.8	362.44
310.03	376.44
310.26	394.44
310.49	382.44
310.72	389.44
310.949	405.44
311.179	422.44
311.409	377.44
311.639	374.44
311.868	376.44
312.098	408.44
312.328	384.44
312.557	436.44
312.787	429.44
313.017	434.44
313.246	402.44
313.476	382.44
313.706	399.44
313.935	377.44
314.165	412.44
314.394	416.44
314.624	414.44
314.853	398.44
315.083	402.44
315.312	408.44
315.542	360.44
315.771	365.44
316.001	360.44
316.23	393.44
316.46	393.44
316.689	364.44
316.919	410.44
317.148	400.44
317.377	410.44
317.607	410.44
317.836	393.44
318.065	388.44
318.295	388.44
318.524	387.44
318.753	378.44
318.983	378.44
319.212	377.44
319.441	391.44
319.67	407.44
319.9	388.44
320.129	373.44
320.358	394.44
320.587	404.44
320.816	412.44
321.046	395.44
321.275	409.44
321.504	419.44
321.733	434.44
321.962	418.44
322.191	421.44
322.42	438.44
322.649	469.44
322.878	489.44
323.108	510.44
323.337	524.44
323.566	540.44
323.795	577.44
324.024	640.44
324.253	802.44
324.482	1112.44
324.71	1701.44
324.939	2462.44
325.168	2081.44
325.397	1116.44
325.626	759.44
325.855	625.44
326.084	567.44
326.313	562.44
326.542	557.44
326.77	598.44
326.999	705.44
327.228	973.44
327.457	1498.44
327.686	1877.44
327.914	1254.44
328.143	851.44
328.372	723.44
328.6	639.44
328.829	627.44
329.058	634.44
329.287	652.44
329.515	598.44
329.744	562.44
329.972	562.44
330.201	605.44
330.43	633.44
330.658	667.44
330.887	683.44
331.115	689.44
331.344	583.44
331.572	546.44
331.801	537.44
332.03	532.44
332.258	514.44
332.486	466.44
332.715	460.44
332.943	470.44
333.172	462.44
333.4	472.44
333.629	480.44
333.857	506.44
334.085	492.44
334.314	537.44
334.542	581.44
334.771	588.44
334.999	537.44
335.227	518.44
335.455	455.44
335.684	470.44
335.912	448.44
336.14	450.44
336.369	477.44
336.597	461.44
336.825	469.44
337.053	460.44
337.281	448.44
337.51	441.44
337.738	448.44
337.966	438.44
338.194	424.44
338.422	466.44
338.65	466.44
338.878	441.44
339.106	424.44
339.334	422.44
339.562	440.44
339.79	440.44
340.018	438.44
340.246	454.44
340.474	438.44
340.702	434.44
340.93	450.44
341.158	447.44
341.386	437.44
341.614	441.44
341.842	438.44
342.07	463.44
342.298	436.44
342.526	424.44
342.754	423.44
342.981	412.44
343.209	435.44
343.437	433.44
343.665	442.44
343.893	431.44
344.12	446.44
344.348	456.44
344.576	444.44
344.804	452.44
345.031	457.44
345.259	459.44
345.487	477.44
345.714	465.44
345.942	420.44
346.17	440.44
346.397	446.44
346.625	428.44
346.853	439.44
347.08	433.44
347.308	445.44
347.535	465.44
347.763	444.44
347.99	438.44
348.218	457.44
348.445	448.44
348.673	453.44
348.9	461.44
349.128	434.44
349.355	436.44
349.583	427.44
349.81	419.44
350.037	433.44
350.265	429.44
350.492	420.44
350.72	417.44
350.947	435.44
351.174	442.44
351.402	440.44
351.629	438.44
351.856	456.44
352.083	462.44
352.311	457.44
352.538	457.44
352.765	477.44
352.992	457.44
353.22	450.44
353.447	439.44
353.674	432.44
353.901	441.44
354.128	405.44
354.355	417.44
354.583	405.44
354.81	404.44
355.037	435.44
355.264	401.44
355.491	404.44
355.718	397.44
355.945	429.44
356.172	430.44
356.399	402.44
356.626	403.44
356.853	412.44
357.08	397.44
357.307	430.44
357.534	399.44
357.761	408.44
357.988	406.44
358.215	417.44
358.441	413.44
358.668	435.44
358.895	430.44
359.122	449.44
359.349	433.44
359.576	453.44
359.802	480.44
360.029	494.44
360.256	536.44
360.483	498.44
360.709	457.44
360.936	456.44
361.163	436.44
361.39	469.44
361.616	468.44
361.843	436.44
362.07	453.44
362.296	457.44
362.523	448.44
362.749	465.44
362.976	449.44
363.203	433.44
363.429	407.44
363.656	439.44
363.882	422.44
364.109	421.44
364.335	417.44
364.562	428.44
364.788	417.44
365.015	442.44
365.241	432.44
365.468	455.44
365.694	472.44
365.92	441.44
366.147	426.44
366.373	428.44
366.599	416.44
366.826	429.44
367.052	419.44
367.278	418.44
367.505	417.44
367.731	456.44
367.957	432.44
368.184	436.44
368.41	457.44
368.636	453.44
368.862	441.44
369.089	453.44
369.315	428.44
369.541	414.44
369.767	425.44
369.993	437.44
370.219	417.44
370.445	438.44
370.672	437.44
370.898	413.44
371.124	417.44
371.35	441.44
371.576	407.44
371.802	405.44
372.028	413.44
372.254	417.44
372.48	439.44
372.706	432.44
372.932	409.44
373.158	421.44
373.384	416.44
373.61	419.44
373.835	435.44
374.061	444.44
374.287	409.44
374.513	449.44
374.739	450.44
374.965	430.44
375.191	418.44
375.416	421.44
375.642	414.44
375.868	442.44
376.094	436.44
376.319	433.44
376.545	410.44
376.771	419.44
376.997	414.44
377.222	422.44
377.448	419.44
377.674	420.44
377.899	417.44
378.125	432.44
378.35	432.44
378.576	435.44
378.802	429.44
379.027	429.44
379.253	444.44
379.478	419.44
379.704	427.44
379.929	424.44
380.155	455.44
380.38	419.44
380.606	422.44
380.831	428.44
381.057	442.44
381.282	452.44
381.507	432.44
381.733	430.44
381.958	418.44
382.184	428.44
382.409	415.44
382.634	409.44
382.86	436.44
383.085	429.44
383.31	414.44
383.535	449.44
383.761	420.44
383.986	437.44
384.211	443.44
384.436	463.44
384.662	451.44
384.887	442.44
385.112	452.44
385.337	479.44
385.562	447.44
385.787	470.44
386.013	477.44
386.238	451.44
386.463	464.44
386.688	462.44
386.913	466.44
387.138	473.44
387.363	456.44
387.588	451.44
387.813	458.44
388.038	479.44
388.263	462.44
388.488	446.44
388.713	470.44
388.938	461.44
389.163	458.44
389.387	458.44
389.612	460.44
389.837	470.44
390.062	466.44
390.287	458.44
390.512	451.44
390.736	464.44
390.961	438.44
391.186	452.44
391.411	466.44
391.636	465.44
391.86	471.44
392.085	463.44
392.31	456.44
392.534	471.44
392.759	474.44
392.984	457.44
393.208	449.44
393.433	462.44
393.658	467.44
393.882	456.44
394.107	452.44
394.331	468.44
394.556	469.44
394.78	469.44
395.005	469.44
395.229	462.44
395.454	454.44
395.678	475.44
395.903	493.44
396.127	523.44
396.352	520.44
396.576	492.44
396.801	489.44
397.025	474.44
397.249	515.44
397.474	471.44
397.698	507.44
397.922	524.44
398.147	505.44
398.371	521.44
398.595	506.44
398.82	494.44
399.044	530.44
399.268	519.44
399.492	546.44
399.717	579.44
399.941	609.44
400.165	644.44
400.389	647.44
400.613	602.44
400.837	572.44
401.062	532.44
401.286	522.44
401.51	531.44
401.734	528.44
401.958	533.44
402.182	552.44
402.406	533.44
402.63	546.44
402.854	545.44
403.078	531.44
403.302	565.44
403.526	574.44
403.75	569.44
403.974	546.44
404.198	525.44
404.422	568.44
404.645	557.44
404.869	570.44
405.093	586.44
405.317	631.44
405.541	646.44
405.765	619.44
405.988	595.44
406.212	584.44
406.436	620.44
406.66	622.44
406.883	607.44
407.107	638.44
407.331	661.44
407.555	728.44
407.778	722.44
408.002	684.44
408.226	632.44
408.449	621.44
408.673	621.44
408.896	628.44
409.12	681.44
409.344	632.44
409.567	582.44
409.791	579.44
410.014	566.44
410.238	541.44
410.461	546.44
410.685	573.44
410.908	588.44
411.132	628.44
411.355	654.44
411.578	636.44
411.802	566.44
412.025	560.44
412.249	567.44
412.472	614.44
412.695	635.44
412.919	632.44
413.142	578.44
413.365	562.44
413.589	569.44
413.812	542.44
414.035	548.44
414.258	541.44
414.482	552.44
414.705	536.44
414.928	533.44
415.151	539.44
415.374	532.44
415.597	516.44
415.821	510.44
416.044	526.44
416.267	545.44
416.49	512.44
416.713	521.44
416.936	521.44
417.159	544.44
417.382	518.44
417.605	551.44
417.828	536.44
418.051	565.44
418.274	542.44
418.497	556.44
418.72	538.44
418.943	512.44
419.166	551.44
419.389	575.44
419.611	585.44
419.834	565.44
420.057	572.44
420.28	556.44
420.503	560.44
420.726	554.44
420.948	583.44
421.171	630.44
421.394	652.44
421.617	619.44
421.839	578.44
422.062	573.44
422.285	578.44
422.507	642.44
422.73	725.44
422.953	727.44
423.175	646.44
423.398	594.44
423.621	613.44
423.843	614.44
424.066	616.44
424.288	622.44
424.511	620.44
424.733	682.44
424.956	796.44
425.178	768.44
425.401	744.44
425.623	774.44
425.846	675.44
426.068	623.44
426.291	622.44
426.513	633.44
426.735	646.44
426.958	672.44
427.18	753.44
427.402	896.44
427.625	1010.44
427.847	881.44
428.069	762.44
428.292	709.44
428.514	624.44
428.736	607.44
428.958	621.44
429.181	591.44
429.403	574.44
429.625	581.44
429.847	603.44
430.069	690.44
430.292	716.44
430.514	615.44
430.736	600.44
430.958	587.44
431.18	556.44
431.402	544.44
431.624	534.44
431.846	517.44
432.068	536.44
432.29	535.44
432.512	559.44
432.734	564.44
432.956	555.44
433.178	553.44
433.4	572.44
433.622	558.44
433.844	550.44
434.066	539.44
434.287	554.44
434.509	562.44
434.731	541.44
434.953	573.44
435.175	593.44
435.397	610.44
435.618	650.44
435.84	689.44
436.062	775.44
436.284	845.44
436.505	727.44
436.727	656.44
436.949	594.44
437.17	591.44
437.392	592.44
437.614	608.44
437.835	631.44
438.057	753.44
438.278	848.44
438.5	846.44
438.721	923.44
438.943	916.44
439.165	728.44
439.386	661.44
439.608	653.44
439.829	653.44
440.05	695.44
440.272	705.44
440.493	690.44
440.715	634.44
440.936	617.44
441.158	596.44
441.379	588.44
441.6	579.44
441.822	626.44
442.043	690.44
442.264	778.44
442.486	811.44
442.707	707.44
442.928	662.44
443.149	652.44
443.371	692.44
443.592	728.44
443.813	825.44
444.034	874.44
444.255	717.44
444.476	633.44
444.698	629.44
444.919	611.44
445.14	738.44
445.361	672.44
445.582	670.44
445.803	741.44
446.024	876.44
446.245	852.44
446.466	792.44
446.687	662.44
446.908	626.44
447.129	609.44
447.35	617.44
447.571	596.44
447.792	585.44
448.013	573.44
448.234	631.44
448.455	672.44
448.675	754.44
448.896	887.44
449.117	773.44
449.338	741.44
449.559	847.44
449.779	907.44
450	782.44
450.221	675.44
450.442	609.44
450.662	572.44
450.883	579.44
451.104	616.44
451.324	594.44
451.545	568.44
451.766	548.44
451.986	534.44
452.207	530.44
452.428	516.44
452.648	514.44
452.869	517.44
453.089	545.44
453.31	556.44
453.53	518.44
453.751	513.44
453.971	525.44
454.192	534.44
454.412	533.44
454.633	552.44
454.853	520.44
455.073	518.44
455.294	576.44
455.514	649.44
455.734	635.44
455.955	532.44
456.175	493.44
456.395	502.44
456.616	494.44
456.836	489.44
457.056	472.44
457.276	479.44
457.497	473.44
457.717	478.44
457.937	480.44
458.157	502.44
458.377	509.44
458.598	530.44
458.818	597.44
459.038	721.44
459.258	705.44
459.478	619.44
459.698	546.44
459.918	530.44
460.138	533.44
460.358	555.44
460.578	540.44
460.798	544.44
461.018	540.44
461.238	523.44
461.458	540.44
461.678	525.44
461.898	541.44
462.118	550.44
462.338	541.44
462.558	554.44
462.777	555.44
462.997	539.44
463.217	563.44
463.437	580.44
463.657	574.44
463.876	541.44
464.096	543.44
464.316	546.44
464.536	578.44
464.755	567.44
464.975	574.44
465.195	627.44
465.414	759.44
465.634	655.44
465.854	595.44
466.073	556.44
466.293	538.44
466.512	532.44
466.732	537.44
466.951	531.44
467.171	549.44
467.391	537.44
467.61	541.44
467.829	573.44
468.049	543.44
468.268	540.44
468.488	533.44
468.707	540.44
468.927	532.44
469.146	548.44
469.365	500.44
469.585	539.44
469.804	523.44
470.023	524.44
470.243	536.44
470.462	535.44
470.681	555.44
470.901	567.44
471.12	563.44
471.339	544.44
471.558	568.44
471.777	543.44
471.997	541.44
472.216	547.44
472.435	594.44
472.654	555.44
472.873	547.44
473.092	541.44
473.311	527.44
473.53	536.44
473.749	574.44
473.968	613.44
474.187	726.44
474.406	737.44
474.625	631.44
474.844	564.44
475.063	551.44
475.282	546.44
475.501	553.44
475.72	558.44
475.939	562.44
476.158	586.44
476.377	576.44
476.596	552.44
476.814	564.44
477.033	574.44
477.252	601.44
477.471	575.44
477.69	590.44
477.908	597.44
478.127	587.44
478.346	590.44
478.564	605.44
478.783	626.44
479.002	605.44
479.22	582.44
479.439	635.44
479.658	645.44
479.876	658.44
480.095	640.44
480.313	678.44
480.532	672.44
480.751	680.44
480.969	677.44
481.188	730.44
481.406	809.44
481.624	696.44
481.843	696.44
482.061	655.44
482.28	652.44
482.498	650.44
482.717	660.44
482.935	670.44
483.153	648.44
483.372	637.44
483.59	646.44
483.808	634.44
484.027	631.44
484.245	667.44
484.463	658.44
484.681	670.44
484.9	660.44
485.118	679.44
485.336	665.44
485.554	682.44
485.772	685.44
485.99	667.44
486.209	670.44
486.427	685.44
486.645	685.44
486.863	722.44
487.081	720.44
487.299	692.44
487.517	716.44
487.735	722.44
487.953	706.44
488.171	714.44
488.389	714.44
488.607	718.44
488.825	700.44
489.043	727.44
489.261	726.44
489.479	704.44
489.696	729.44
489.914	729.44
490.132	726.44
490.35	710.44
490.568	751.44
490.786	759.44
491.003	781.44
491.221	790.44
491.439	780.44
491.657	823.44
491.874	836.44
492.092	819.44
492.31	813.44
492.527	821.44
492.745	824.44
492.963	876.44
493.18	841.44
493.398	834.44
493.615	837.44
493.833	858.44
494.05	850.44
494.268	861.44
494.485	877.44
494.703	850.44
494.92	871.44
495.138	834.44
495.355	858.44
495.573	849.44
495.79	851.44
496.008	834.44
496.225	850.44
496.442	846.44
496.66	845.44
496.877	857.44
497.094	848.44
497.312	865.44
497.529	889.44
497.746	885.44
497.963	877.44
498.181	910.44
498.398	902.44
498.615	938.44
498.832	937.44
499.049	923.44
499.267	909.44
499.484	952.44
499.701	940.44
499.918	989.44
500.135	1028.44
500.352	1062.44
500.569	1070.44
500.786	1065.44
501.003	1082.44
501.22	1044.44
501.437	1036.44
501.654	1014.44
501.871	1014.44
502.088	965.44
502.305	980.44
502.522	917.44
502.739	899.44
502.956	913.44
503.172	881.44
503.389	860.44
503.606	891.44
503.823	890.44
504.04	850.44
504.256	861.44
504.473	848.44
504.69	855.44
504.907	835.44
505.123	851.44
505.34	822.44
505.557	816.44
505.773	829.44
505.99	840.44
506.207	822.44
506.423	828.44
506.64	808.44
506.856	800.44
507.073	821.44
507.289	798.44
507.506	807.44
507.722	816.44
507.939	816.44
508.155	834.44
508.372	790.44
508.588	798.44
508.805	778.44
509.021	786.44
509.238	783.44
509.454	803.44
509.67	802.44
509.887	801.44
510.103	804.44
510.319	805.44
510.536	917.44
510.752	1499.44
510.968	1234.44
511.184	836.44
511.401	780.44
511.617	760.44
511.833	765.44
512.049	749.44
512.265	733.44
512.481	741.44
512.698	767.44
512.914	756.44
513.13	739.44
513.346	718.44
513.562	763.44
513.778	756.44
513.994	788.44
514.21	782.44
514.426	795.44
514.642	849.44
514.858	892.44
515.074	956.44
515.29	1129.44
515.506	1680.44
515.721	1385.44
515.937	928.44
516.153	845.44
516.369	807.44
516.585	776.44
516.801	756.44
517.016	730.44
517.232	758.44
517.448	755.44
517.664	731.44
517.879	728.44
518.095	742.44
518.311	740.44
518.527	748.44
518.742	717.44
518.958	718.44
519.173	746.44
519.389	733.44
519.605	737.44
519.82	736.44
520.036	768.44
520.251	786.44
520.467	812.44
520.682	831.44
520.898	842.44
521.113	845.44
521.329	930.44
521.544	1053.44
521.76	1351.44
521.975	2235.44
522.19	2169.44
522.406	1179.44
522.621	906.44
522.836	788.44
523.052	764.44
523.267	705.44
523.482	688.44
523.698	687.44
523.913	714.44
524.128	705.44
524.343	676.44
524.559	663.44
524.774	661.44
524.989	669.44
525.204	680.44
525.419	646.44
525.634	638.44
525.849	622.44
526.064	608.44
526.28	621.44
526.495	613.44
526.71	597.44
526.925	608.44
527.14	596.44
527.355	571.44
527.57	599.44
527.785	608.44
527.999	597.44
528.214	578.44
528.429	613.44
528.644	580.44
528.859	598.44
529.074	604.44
529.289	626.44
529.503	754.44
529.718	724.44
529.933	669.44
530.148	581.44
530.363	628.44
530.577	568.44
530.792	608.44
531.007	583.44
531.221	585.44
531.436	591.44
531.651	589.44
531.865	568.44
532.08	568.44
532.295	568.44
532.509	567.44
532.724	576.44
532.938	575.44
533.153	568.44
533.367	569.44
533.582	564.44
533.796	557.44
534.011	542.44
534.225	534.44
534.44	532.44
534.654	546.44
534.868	549.44
535.083	543.44
535.297	556.44
535.511	567.44
535.726	578.44
535.94	573.44
536.154	564.44
536.369	557.44
536.583	548.44
536.797	542.44
537.011	515.44
537.225	554.44
537.44	524.44
537.654	521.44
537.868	542.44
538.082	540.44
538.296	540.44
538.51	557.44
538.724	540.44
538.938	537.44
539.153	548.44
539.367	554.44
539.581	587.44
539.795	552.44
540.009	545.44
540.222	525.44
540.436	534.44
540.65	540.44
540.864	557.44
541.078	562.44
541.292	564.44
541.506	557.44
541.72	560.44
541.934	539.44
542.147	538.44
542.361	525.44
542.575	514.44
542.789	502.44
543.002	523.44
543.216	549.44
543.43	509.44
543.644	561.44
543.857	538.44
544.071	551.44
544.285	544.44
544.498	525.44
544.712	524.44
544.925	546.44
545.139	532.44
545.352	526.44
545.566	531.44
545.779	518.44
545.993	550.44
546.206	504.44
546.42	536.44
546.633	501.44
546.847	541.44
547.06	518.44
547.274	511.44
547.487	513.44
547.7	515.44
547.914	513.44
548.127	514.44
548.34	512.44
548.554	510.44
548.767	530.44
548.98	496.44
549.193	514.44
549.407	508.44
549.62	488.44
549.833	496.44
550.046	493.44
550.259	508.44
550.473	510.44
550.686	492.44
550.899	472.44
551.112	484.44
551.325	493.44
551.538	501.44
551.751	495.44
551.964	477.44
552.177	470.44
552.39	485.44
552.603	499.44
552.816	508.44
553.029	498.44
553.242	492.44
553.455	507.44
553.667	517.44
553.88	543.44
554.093	531.44
554.306	518.44
554.519	506.44
554.732	508.44
554.944	508.44
555.157	512.44
555.37	483.44
555.583	480.44
555.795	467.44
556.008	484.44
556.221	467.44
556.433	467.44
556.646	454.44
556.859	455.44
557.071	466.44
557.284	466.44
557.496	458.44
557.709	462.44
557.921	468.44
558.134	459.44
558.346	437.44
558.559	436.44
558.771	458.44
558.984	454.44
559.196	449.44
559.409	452.44
559.621	439.44
559.833	426.44
560.046	451.44
560.258	444.44
560.47	424.44
560.683	459.44
560.895	446.44
561.107	436.44
561.32	442.44
561.532	453.44
561.744	439.44
561.956	429.44
562.168	457.44
562.381	427.44
562.593	424.44
562.805	441.44
563.017	440.44
563.229	437.44
563.441	451.44
563.653	437.44
563.865	463.44
564.077	432.44
564.289	454.44
564.501	469.44
564.713	454.44
564.925	462.44
565.137	467.44
565.349	470.44
565.561	464.44
565.773	482.44
565.985	454.44
566.197	481.44
566.408	501.44
566.62	482.44
566.832	512.44
567.044	514.44
567.255	518.44
567.467	509.44
567.679	521.44
567.891	516.44
568.102	522.44
568.314	517.44
568.526	514.44
568.737	506.44
568.949	484.44
569.161	464.44
569.372	457.44
569.584	461.44
569.795	465.44
570.007	444.44
570.218	506.44
570.43	490.44
570.641	441.44
570.853	430.44
571.064	435.44
571.276	414.44
571.487	408.44
571.698	416.44
571.91	402.44
572.121	403.44
572.333	425.44
572.544	395.44
572.755	401.44
572.966	384.44
573.178	414.44
573.389	397.44
573.6	386.44
573.811	384.44
574.023	398.44
574.234	393.44
574.445	386.44
574.656	385.44
574.867	368.44
575.078	393.44
575.289	410.44
575.501	387.44
575.712	380.44
575.923	380.44
576.134	371.44
576.345	383.44
576.556	378.44
576.767	365.44
576.978	378.44
577.188	357.44
577.399	372.44
577.61	348.44
577.821	374.44
578.032	374.44
578.243	421.44
578.454	694.44
578.665	514.44
578.875	376.44
579.086	340.44
579.297	350.44
579.508	338.44
579.718	369.44
579.929	358.44
580.14	352.44
580.35	359.44
580.561	351.44
580.772	342.44
580.982	368.44
581.193	342.44
581.403	368.44
581.614	352.44
581.825	370.44
582.035	341.44
582.246	341.44
582.456	342.44
582.667	315.44
582.877	332.44
583.087	344.44
583.298	338.44
583.508	339.44
583.719	344.44
583.929	339.44
584.139	349.44
584.35	318.44
584.56	336.44
584.77	330.44
584.981	342.44
585.191	344.44
585.401	324.44
585.611	348.44
585.821	337.44
586.032	349.44
586.242	318.44
586.452	343.44
586.662	337.44
586.872	323.44
587.082	314.44
587.292	313.44
587.502	332.44
587.713	323.44
587.923	342.44
588.133	319.44
588.343	325.44
588.553	323.44
588.762	310.44
588.972	332.44
589.182	360.44
589.392	351.44
589.602	314.44
589.812	337.44
590.022	320.44
590.232	312.44
590.441	305.44
590.651	313.44
590.861	319.44
591.071	313.44
591.281	349.44
591.49	327.44
591.7	316.44
591.91	328.44
592.119	327.44
592.329	331.44
592.539	340.44
592.748	350.44
592.958	352.44
593.167	342.44
593.377	337.44
593.587	354.44
593.796	345.44
594.006	325.44
594.215	311.44
594.424	333.44
594.634	332.44
594.843	330.44
595.053	329.44
595.262	312.44
595.472	313.44
595.681	304.44
595.89	312.44
596.1	314.44
596.309	331.44
596.518	313.44
596.727	308.44
596.937	309.44
597.146	309.44
597.355	329.44
597.564	286.44
597.774	304.44
597.983	306.44
598.192	302.44
598.401	308.44
598.61	298.44
598.819	308.44
599.028	296.44
599.237	287.44
599.446	295.44
599.655	298.44
599.864	281.44
600.073	293.44
600.282	296.44
600.491	272.44
600.7	293.44
600.909	304.44
601.118	311.44
601.327	273.44
601.536	276.44
601.745	296.44
601.953	292.44
602.162	285.44
602.371	292.44
602.58	292.44
602.789	290.44
602.997	284.44
603.206	290.44
603.415	277.44
603.623	284.44
603.832	277.44
604.041	290.44
604.249	294.44
604.458	256.44
604.666	280.44
604.875	268.44
605.084	268.44
605.292	275.44
605.501	267.44
605.709	273.44
605.918	277.44
606.126	281.44
606.334	271.44
606.543	266.44
606.751	286.44
606.96	280.44
607.168	260.44
607.376	285.44
607.585	256.44
607.793	291.44
608.001	284.44
608.21	258.44
608.418	274.44
608.626	279.44
608.834	268.44
609.043	278.44
609.251	278.44
609.459	296.44
609.667	266.44
609.875	268.44
610.083	272.44
610.291	267.44
610.499	263.44
610.707	278.44
610.916	280.44
611.124	277.44
611.332	284.44
611.54	284.44
611.748	272.44
611.955	265.44
612.163	269.44
612.371	269.44
612.579	269.44
612.787	264.44
612.995	262.44
613.203	257.44
613.411	268.44
613.618	254.44
613.826	260.44
614.034	273.44
614.242	271.44
614.449	258.44
614.657	264.44
614.865	275.44
615.072	265.44
615.28	267.44
615.488	258.44
615.695	272.44
615.903	263.44
616.111	270.44
616.318	256.44
616.526	261.44
616.733	274.44
616.941	281.44
617.148	268.44
617.356	265.44
617.563	265.44
617.771	255.44
617.978	245.44
618.185	268.44
618.393	244.44
618.6	244.44
618.807	261.44
619.015	234.44
619.222	276.44
619.429	257.44
619.637	270.44
619.844	268.44
620.051	253.44
620.258	253.44
620.466	253.44
620.673	232.44
620.88	233.44
621.087	245.44
621.294	246.44
621.501	244.44
621.708	235.44
621.915	254.44
622.122	249.44
622.329	236.44
622.536	242.44
622.743	248.44
622.95	258.44
623.157	235.44
623.364	233.44
623.571	244.44
623.778	249.44
623.985	251.44
624.192	242.44
624.399	235.44
624.606	223.44
624.812	236.44
625.019	235.44
625.226	245.44
625.433	241.44
625.639	233.44
625.846	246.44
626.053	246.44
626.259	235.44
626.466	232.44
626.673	234.44
626.879	221.44
627.086	233.44
627.293	211.44
627.499	220.44
627.706	233.44
627.912	199.44
628.119	224.44
628.325	229.44
628.532	216.44
628.738	222.44
628.945	224.44
629.151	233.44
629.357	225.44
629.564	212.44
629.77	198.44
629.976	225.44
630.183	204.44
630.389	216.44
630.595	202.44
630.802	209.44
631.008	203.44
631.214	221.44
631.42	213.44
631.627	210.44
631.833	222.44
632.039	215.44
632.245	198.44
632.451	226.44
632.657	188.44
632.863	205.44
633.069	210.44
633.275	191.44
633.481	190.44
633.688	199.44
633.893	209.44
634.099	208.44
634.305	210.44
634.511	209.44
634.717	190.44
634.923	204.44
635.129	212.44
635.335	203.44
635.541	197.44
635.747	210.44
635.952	206.44
636.158	215.44
636.364	190.44
636.57	207.44
636.775	214.44
636.981	202.44
637.187	212.44
637.392	196.44
637.598	203.44
637.804	184.44
638.009	203.44
638.215	206.44
638.421	189.44
638.626	187.44
638.832	188.44
639.037	185.44
639.243	171.44
639.448	190.44
639.654	193.44
639.859	171.44
640.065	180.44
640.27	203.44
640.475	187.44
640.681	184.44
640.886	190.44
641.091	190.44
641.297	199.44
641.502	189.44
641.707	186.44
641.913	197.44
642.118	180.44
642.323	182.44
642.528	182.44
642.733	196.44
642.939	184.44
643.144	199.44
643.349	180.44
643.554	182.44
643.759	177.44
643.964	184.44
644.169	197.44
644.374	187.44
644.579	170.44
644.784	180.44
644.989	162.44
645.194	178.44
645.399	172.44
645.604	172.44
645.809	171.44
646.014	189.44
646.219	168.44
646.423	180.44
646.628	184.44
646.833	174.44
647.038	167.44
647.243	173.44
647.447	179.44
647.652	180.44
647.857	174.44
648.062	200.44
648.266	189.44
648.471	178.44
648.676	180.44
648.88	184.44
649.085	185.44
649.289	170.44
649.494	204.44
649.698	210.44
649.903	198.44
650.107	184.44
650.312	178.44
650.516	167.44
650.721	178.44
650.925	155.44
651.13	159.44
651.334	176.44
651.539	173.44
651.743	167.44
651.947	158.44
652.152	146.44
652.356	152.44
652.56	155.44
652.764	137.44
652.969	148.44
653.173	126.44
653.377	139.44
653.581	149.44
653.785	146.44
653.99	136.44
654.194	147.44
654.398	148.44
654.602	148.44
654.806	143.44
655.01	139.44
655.214	143.44
655.418	132.44
655.622	136.44
655.826	139.44
656.03	138.44
656.234	128.44
656.438	143.44
656.642	136.44
656.846	139.44
657.049	117.44
657.253	138.44
657.457	107.44
657.661	118.44
657.865	123.44
658.068	125.44
658.272	108.44
658.476	102.44
658.68	90.44
658.883	95.44
659.087	102.44
659.291	97.44
659.494	94.44
659.698	98.44
659.901	107.44
660.105	104.44
660.309	94.44
660.512	99.44
660.716	88.44
660.919	83.44
661.123	96.44
661.326	88.44
661.53	86.44
661.733	98.44
661.936	87.44
662.14	80.44
662.343	88.44
662.546	89.44
662.75	97.44
662.953	91.44
663.156	84.44
663.36	77.44
663.563	94.44
663.766	72.44
663.969	78.44
664.173	80.44
664.376	59.44
664.579	80.44
664.782	82.44
664.985	79.44
665.188	82.44
665.391	72.44
665.594	84.44
665.797	81.44
666	86.44
666.203	75.44
666.406	84.44
666.609	85.44
666.812	84.44
667.015	83.44
667.218	81.44
667.421	72.44
667.624	89.44
667.827	68.44
668.03	68.44
668.232	81.44
668.435	77.44
668.638	85.44
668.841	72.44
669.043	75.44
669.246	90.44
669.449	72.44
669.651	89.44
669.854	83.44
670.057	82.44
670.259	76.44
670.462	86.44
670.665	73.44
670.867	81.44
671.07	82.44
671.272	82.44
671.475	82.44
671.677	88.44
671.88	85.44
672.082	83.44
672.284	73.44
672.487	74.44
672.689	78.44
672.892	73.44
