Data from 1970.PennyLincolnUp.Lamp.En5.5.200Scan.071719.P1._HRD10591_15-15-20-841.txt Node
Date: Thu Jul 18 15:15:20 EDT 2019
User: cochatt
Spectrometer: HR+D1059
Trigger mode: 1
Integration Time (sec): 1.000000E-1
Scans to average: 1
Electric dark correction enabled: true
Nonlinearity correction enabled: false
Boxcar width: 0
XAxis mode: Wavelengths
Number of Pixels in Spectrum: 2048
>>>>>Begin Spectral Data<<<<<
223.165	-25
223.4	-25
223.635	-25
223.869	-3
224.104	-22
224.338	-14
224.573	-8
224.808	-2
225.042	-4
225.277	-7
225.511	-1
225.746	2
225.98	-8
226.215	-2
226.449	22
226.683	14
226.918	32
227.152	26
227.387	27
227.621	35
227.856	59
228.09	33
228.324	58
228.559	59
228.793	69
229.027	92
229.262	126
229.496	131
229.73	156
229.964	182
230.199	142
230.433	129
230.667	126
230.901	115
231.136	123
231.37	132
231.604	122
231.838	132
232.072	135
232.306	119
232.541	125
232.775	121
233.009	125
233.243	124
233.477	130
233.711	115
233.945	128
234.179	125
234.413	133
234.647	127
234.881	114
235.115	123
235.349	117
235.583	133
235.817	136
236.051	139
236.285	135
236.519	141
236.753	130
236.987	155
237.221	217
237.455	274
237.689	208
237.922	158
238.156	136
238.39	153
238.624	132
238.858	144
239.091	127
239.325	150
239.559	126
239.793	138
240.027	141
240.26	164
240.494	174
240.728	179
240.961	143
241.195	164
241.429	172
241.662	162
241.896	152
242.13	145
242.363	138
242.597	136
242.83	152
243.064	134
243.298	133
243.531	166
243.765	158
243.998	150
244.232	145
244.465	171
244.699	162
244.932	154
245.166	142
245.399	163
245.633	161
245.866	164
246.099	173
246.333	168
246.566	171
246.8	150
247.033	167
247.266	164
247.5	166
247.733	184
247.966	193
248.2	173
248.433	201
248.666	204
248.899	211
249.133	214
249.366	240
249.599	227
249.832	221
250.066	191
250.299	210
250.532	202
250.765	238
250.998	260
251.231	268
251.465	248
251.698	233
251.931	233
252.164	227
252.397	208
252.63	238
252.863	239
253.096	238
253.329	268
253.562	250
253.795	254
254.028	255
254.261	254
254.494	264
254.727	294
254.96	319
255.193	316
255.426	280
255.659	274
255.892	269
256.124	267
256.357	282
256.59	276
256.823	242
257.056	236
257.289	257
257.521	223
257.754	228
257.987	244
258.22	266
258.452	221
258.685	235
258.918	226
259.151	241
259.383	238
259.616	264
259.849	244
260.081	269
260.314	286
260.547	278
260.779	285
261.012	272
261.244	282
261.477	249
261.71	239
261.942	262
262.175	256
262.407	252
262.64	234
262.872	239
263.105	228
263.337	242
263.57	208
263.802	222
264.035	234
264.267	220
264.499	238
264.732	255
264.964	228
265.197	219
265.429	212
265.661	218
265.894	213
266.126	242
266.358	231
266.591	215
266.823	235
267.055	232
267.287	246
267.52	240
267.752	236
267.984	234
268.216	226
268.448	259
268.681	244
268.913	260
269.145	278
269.377	310
269.609	315
269.841	285
270.073	292
270.306	314
270.538	346
270.77	358
271.002	328
271.234	354
271.466	329
271.698	351
271.93	342
272.162	344
272.394	344
272.626	361
272.858	306
273.09	308
273.322	298
273.553	280
273.785	286
274.017	308
274.249	281
274.481	288
274.713	285
274.945	290
275.176	282
275.408	289
275.64	297
275.872	280
276.104	292
276.335	289
276.567	283
276.799	311
277.031	328
277.262	350
277.494	345
277.726	318
277.957	329
278.189	326
278.421	308
278.652	277
278.884	271
279.115	274
279.347	294
279.579	298
279.81	278
280.042	276
280.273	283
280.505	278
280.736	280
280.968	259
281.199	274
281.431	286
281.662	288
281.894	290
282.125	294
282.356	295
282.588	337
282.819	315
283.051	287
283.282	278
283.513	279
283.745	272
283.976	300
284.207	291
284.439	288
284.67	301
284.901	298
285.132	291
285.364	284
285.595	277
285.826	272
286.057	300
286.288	294
286.52	290
286.751	309
286.982	278
287.213	286
287.444	274
287.675	292
287.906	295
288.138	300
288.369	308
288.6	295
288.831	311
289.062	304
289.293	292
289.524	306
289.755	284
289.986	312
290.217	301
290.448	298
290.679	289
290.91	313
291.141	293
291.371	295
291.602	292
291.833	277
292.064	291
292.295	284
292.526	306
292.757	285
292.987	294
293.218	295
293.449	314
293.68	282
293.91	294
294.141	283
294.372	291
294.603	295
294.833	308
295.064	310
295.295	313
295.525	314
295.756	303
295.987	310
296.217	341
296.448	352
296.679	323
296.909	308
297.14	300
297.37	302
297.601	306
297.831	300
298.062	296
298.292	298
298.523	329
298.753	327
298.984	302
299.214	301
299.445	301
299.675	320
299.905	328
300.136	307
300.366	318
300.597	312
300.827	324
301.057	317
301.288	345
301.518	321
301.748	325
301.979	327
302.209	341
302.439	323
302.669	313
302.9	321
303.13	333
303.36	335
303.59	341
303.82	363
304.051	357
304.281	335
304.511	337
304.741	337
304.971	319
305.201	315
305.431	322
305.661	338
305.891	347
306.121	340
306.352	341
306.582	349
306.812	334
307.042	327
307.272	340
307.502	330
307.731	358
307.961	359
308.191	334
308.421	349
308.651	348
308.881	334
309.111	351
309.341	381
309.571	365
309.8	378
310.03	386
310.26	394
310.49	381
310.72	396
310.949	406
311.179	420
311.409	396
311.639	401
311.868	394
312.098	400
312.328	394
312.557	422
312.787	435
313.017	456
313.246	405
313.476	404
313.706	426
313.935	398
314.165	431
314.394	418
314.624	422
314.853	416
315.083	425
315.312	392
315.542	412
315.771	392
316.001	393
316.23	395
316.46	392
316.689	392
316.919	415
317.148	404
317.377	411
317.607	410
317.836	416
318.065	394
318.295	400
318.524	408
318.753	413
318.983	386
319.212	406
319.441	424
319.67	447
319.9	404
320.129	394
320.358	412
320.587	394
320.816	427
321.046	438
321.275	422
321.504	432
321.733	451
321.962	453
322.191	467
322.42	481
322.649	484
322.878	502
323.108	524
323.337	536
323.566	558
323.795	606
324.024	677
324.253	828
324.482	1176
324.71	1806
324.939	2548
325.168	2257
325.397	1193
325.626	792
325.855	660
326.084	589
326.313	548
326.542	590
326.77	646
326.999	757
327.228	1030
327.457	1592
327.686	1938
327.914	1279
328.143	886
328.372	763
328.6	679
328.829	660
329.058	685
329.287	696
329.515	662
329.744	587
329.972	595
330.201	609
330.43	660
330.658	698
330.887	696
331.115	676
331.344	572
331.572	556
331.801	547
332.03	532
332.258	520
332.486	490
332.715	490
332.943	492
333.172	490
333.4	501
333.629	496
333.857	524
334.085	546
334.314	559
334.542	587
334.771	621
334.999	557
335.227	504
335.455	487
335.684	487
335.912	491
336.14	479
336.369	461
336.597	472
336.825	501
337.053	476
337.281	454
337.51	467
337.738	466
337.966	475
338.194	487
338.422	451
338.65	468
338.878	470
339.106	442
339.334	464
339.562	464
339.79	441
340.018	460
340.246	470
340.474	452
340.702	445
340.93	486
341.158	459
341.386	457
341.614	488
341.842	456
342.07	444
342.298	439
342.526	442
342.754	436
342.981	454
343.209	440
343.437	462
343.665	445
343.893	456
344.12	460
344.348	454
344.576	460
344.804	482
345.031	482
345.259	500
345.487	475
345.714	454
345.942	456
346.17	456
346.397	458
346.625	431
346.853	458
347.08	452
347.308	466
347.535	464
347.763	463
347.99	479
348.218	485
348.445	477
348.673	467
348.9	456
349.128	446
349.355	424
349.583	425
349.81	433
350.037	424
350.265	429
350.492	468
350.72	443
350.947	455
351.174	453
351.402	502
351.629	465
351.856	451
352.083	457
352.311	478
352.538	492
352.765	473
352.992	454
353.22	448
353.447	448
353.674	467
353.901	440
354.128	439
354.355	427
354.583	413
354.81	413
355.037	427
355.264	416
355.491	423
355.718	431
355.945	397
356.172	419
356.399	411
356.626	418
356.853	430
357.08	430
357.307	420
357.534	408
357.761	431
357.988	426
358.215	423
358.441	408
358.668	409
358.895	414
359.122	416
359.349	459
359.576	452
359.802	516
360.029	522
360.256	534
360.483	510
360.709	464
360.936	457
361.163	462
361.39	458
361.616	467
361.843	466
362.07	459
362.296	456
362.523	454
362.749	471
362.976	440
363.203	432
363.429	438
363.656	439
363.882	449
364.109	441
364.335	442
364.562	435
364.788	428
365.015	444
365.241	450
365.468	446
365.694	446
365.92	441
366.147	450
366.373	451
366.599	455
366.826	432
367.052	446
367.278	428
367.505	419
367.731	420
367.957	429
368.184	428
368.41	452
368.636	465
368.862	469
369.089	448
369.315	441
369.541	441
369.767	432
369.993	440
370.219	438
370.445	448
370.672	421
370.898	440
371.124	448
371.35	425
371.576	422
371.802	442
372.028	421
372.254	434
372.48	419
372.706	419
372.932	415
373.158	435
373.384	431
373.61	438
373.835	423
374.061	416
374.287	438
374.513	435
374.739	434
374.965	457
375.191	437
375.416	439
375.642	434
375.868	448
376.094	424
376.319	436
376.545	427
376.771	438
376.997	432
377.222	421
377.448	434
377.674	434
377.899	440
378.125	419
378.35	437
378.576	430
378.802	421
379.027	441
379.253	445
379.478	442
379.704	432
379.929	444
380.155	442
380.38	439
380.606	446
380.831	451
381.057	442
381.282	424
381.507	434
381.733	431
381.958	450
382.184	426
382.409	448
382.634	450
382.86	432
383.085	449
383.31	438
383.535	457
383.761	452
383.986	454
384.211	453
384.436	442
384.662	446
384.887	470
385.112	477
385.337	437
385.562	473
385.787	481
386.013	464
386.238	487
386.463	458
386.688	471
386.913	468
387.138	456
387.363	454
387.588	473
387.813	473
388.038	469
388.263	472
388.488	478
388.713	487
388.938	473
389.163	473
389.387	478
389.612	432
389.837	474
390.062	459
390.287	446
390.512	453
390.736	456
390.961	468
391.186	471
391.411	484
391.636	479
391.86	473
392.085	498
392.31	486
392.534	470
392.759	475
392.984	471
393.208	476
393.433	476
393.658	500
393.882	470
394.107	473
394.331	473
394.556	454
394.78	476
395.005	468
395.229	471
395.454	479
395.678	478
395.903	516
396.127	495
396.352	522
396.576	488
396.801	488
397.025	502
397.249	520
397.474	498
397.698	501
397.922	520
398.147	524
398.371	523
398.595	523
398.82	513
399.044	547
399.268	555
399.492	567
399.717	622
399.941	634
400.165	650
400.389	676
400.613	612
400.837	588
401.062	564
401.286	549
401.51	543
401.734	548
401.958	572
402.182	543
402.406	536
402.63	554
402.854	545
403.078	534
403.302	584
403.526	586
403.75	583
403.974	562
404.198	552
404.422	587
404.645	578
404.869	592
405.093	609
405.317	656
405.541	703
405.765	657
405.988	606
406.212	621
406.436	634
406.66	668
406.883	603
407.107	666
407.331	661
407.555	728
407.778	727
408.002	700
408.226	648
408.449	620
408.673	632
408.896	673
409.12	707
409.344	672
409.567	611
409.791	621
410.014	568
410.238	580
410.461	572
410.685	588
410.908	595
411.132	623
411.355	659
411.578	634
411.802	621
412.025	572
412.249	591
412.472	606
412.695	642
412.919	648
413.142	570
413.365	575
413.589	558
413.812	541
414.035	551
414.258	535
414.482	540
414.705	537
414.928	546
415.151	539
415.374	558
415.597	524
415.821	536
416.044	538
416.267	528
416.49	547
416.713	515
416.936	544
417.159	536
417.382	537
417.605	551
417.828	562
418.051	580
418.274	567
418.497	558
418.72	534
418.943	529
419.166	582
419.389	587
419.611	591
419.834	556
420.057	572
420.28	582
420.503	563
420.726	584
420.948	597
421.171	622
421.394	691
421.617	601
421.839	591
422.062	567
422.285	600
422.507	648
422.73	749
422.953	700
423.175	644
423.398	624
423.621	607
423.843	655
424.066	650
424.288	618
424.511	655
424.733	718
424.956	812
425.178	788
425.401	781
425.623	788
425.846	702
426.068	652
426.291	646
426.513	634
426.735	650
426.958	692
427.18	761
427.402	914
427.625	993
427.847	900
428.069	812
428.292	709
428.514	654
428.736	629
428.958	610
429.181	618
429.403	589
429.625	628
429.847	638
430.069	706
430.292	718
430.514	623
430.736	592
430.958	591
431.18	555
431.402	567
431.624	578
431.846	531
432.068	540
432.29	578
432.512	554
432.734	573
432.956	575
433.178	567
433.4	582
433.622	575
433.844	554
434.066	552
434.287	559
434.509	555
434.731	563
434.953	579
435.175	603
435.397	624
435.618	636
435.84	684
436.062	830
436.284	867
436.505	754
436.727	658
436.949	633
437.17	618
437.392	614
437.614	605
437.835	675
438.057	762
438.278	898
438.5	907
438.721	977
438.943	924
439.165	728
439.386	692
439.608	679
439.829	669
440.05	716
440.272	758
440.493	720
440.715	642
440.936	617
441.158	621
441.379	599
441.6	608
441.822	655
442.043	702
442.264	786
442.486	824
442.707	735
442.928	651
443.149	681
443.371	716
443.592	735
443.813	847
444.034	902
444.255	756
444.476	669
444.698	644
444.919	647
445.14	726
445.361	705
445.582	687
445.803	763
446.024	898
446.245	891
446.466	820
446.687	712
446.908	675
447.129	605
447.35	612
447.571	613
447.792	599
448.013	612
448.234	650
448.455	700
448.675	808
448.896	933
449.117	809
449.338	746
449.559	871
449.779	939
450	780
450.221	658
450.442	624
450.662	627
450.883	594
451.104	620
451.324	617
451.545	577
451.766	551
451.986	551
452.207	540
452.428	533
452.648	552
452.869	525
453.089	559
453.31	549
453.53	554
453.751	566
453.971	541
454.192	548
454.412	563
454.633	529
454.853	533
455.073	527
455.294	568
455.514	673
455.734	614
455.955	530
456.175	495
456.395	504
456.616	492
456.836	498
457.056	494
457.276	490
457.497	512
457.717	496
457.937	522
458.157	518
458.377	514
458.598	545
458.818	640
459.038	750
459.258	725
459.478	627
459.698	568
459.918	565
460.138	569
460.358	552
460.578	541
460.798	540
461.018	542
461.238	557
461.458	528
461.678	578
461.898	554
462.118	547
462.338	558
462.558	560
462.777	577
462.997	564
463.217	591
463.437	574
463.657	575
463.876	572
464.096	592
464.316	586
464.536	586
464.755	585
464.975	598
465.195	656
465.414	774
465.634	679
465.854	616
466.073	598
466.293	564
466.512	557
466.732	559
466.951	536
467.171	568
467.391	545
467.61	572
467.829	573
468.049	562
468.268	550
468.488	534
468.707	529
468.927	526
469.146	505
469.365	512
469.585	505
469.804	534
470.023	566
470.243	562
470.462	558
470.681	592
470.901	550
471.12	564
471.339	564
471.558	585
471.777	576
471.997	541
472.216	578
472.435	615
472.654	617
472.873	552
473.092	592
473.311	572
473.53	568
473.749	555
473.968	610
474.187	725
474.406	756
474.625	640
474.844	573
475.063	559
475.282	548
475.501	570
475.72	588
475.939	566
476.158	578
476.377	582
476.596	567
476.814	555
477.033	565
477.252	578
477.471	594
477.69	625
477.908	602
478.127	613
478.346	592
478.564	595
478.783	615
479.002	610
479.22	623
479.439	626
479.658	663
479.876	673
480.095	689
480.313	696
480.532	656
480.751	649
480.969	691
481.188	763
481.406	847
481.624	733
481.843	691
482.061	666
482.28	696
482.498	644
482.717	676
482.935	648
483.153	665
483.372	676
483.59	685
483.808	674
484.027	668
484.245	682
484.463	662
484.681	658
484.9	678
485.118	676
485.336	693
485.554	687
485.772	686
485.99	670
486.209	703
486.427	692
486.645	707
486.863	715
487.081	730
487.299	727
487.517	711
487.735	723
487.953	740
488.171	734
488.389	724
488.607	736
488.825	733
489.043	722
489.261	743
489.479	737
489.696	744
489.914	770
490.132	766
490.35	754
490.568	760
490.786	776
491.003	788
491.221	822
491.439	806
491.657	848
491.874	830
492.092	844
492.31	862
492.527	861
492.745	864
492.963	861
493.18	856
493.398	890
493.615	884
493.833	888
494.05	886
494.268	880
494.485	874
494.703	885
494.92	893
495.138	890
495.355	899
495.573	872
495.79	895
496.008	855
496.225	859
496.442	858
496.66	882
496.877	874
497.094	879
497.312	911
497.529	876
497.746	879
497.963	892
498.181	960
498.398	948
498.615	923
498.832	955
499.049	950
499.267	941
499.484	956
499.701	1033
499.918	996
500.135	1036
500.352	1071
500.569	1090
500.786	1064
501.003	1071
501.22	1053
501.437	1047
501.654	1034
501.871	1076
502.088	1018
502.305	958
502.522	956
502.739	947
502.956	938
503.172	932
503.389	897
503.606	896
503.823	873
504.04	882
504.256	896
504.473	895
504.69	860
504.907	879
505.123	835
505.34	845
505.557	852
505.773	836
505.99	859
506.207	811
506.423	822
506.64	848
506.856	834
507.073	848
507.289	812
507.506	829
507.722	840
507.939	854
508.155	838
508.372	804
508.588	809
508.805	773
509.021	802
509.238	830
509.454	816
509.67	828
509.887	796
510.103	821
510.319	825
510.536	942
510.752	1594
510.968	1264
511.184	869
511.401	816
511.617	805
511.833	788
512.049	779
512.265	775
512.481	776
512.698	748
512.914	764
513.13	776
513.346	757
513.562	756
513.778	757
513.994	802
514.21	775
514.426	855
514.642	878
514.858	895
515.074	980
515.29	1176
515.506	1757
515.721	1432
515.937	939
516.153	869
516.369	842
516.585	807
516.801	784
517.016	770
517.232	792
517.448	774
517.664	771
517.879	772
518.095	787
518.311	760
518.527	774
518.742	727
518.958	736
519.173	741
519.389	739
519.605	746
519.82	772
520.036	786
520.251	805
520.467	861
520.682	846
520.898	854
521.113	879
521.329	960
521.544	1092
521.76	1394
521.975	2296
522.19	2217
522.406	1241
522.621	912
522.836	824
523.052	789
523.267	738
523.482	743
523.698	710
523.913	702
524.128	710
524.343	688
524.559	682
524.774	680
524.989	654
525.204	690
525.419	690
525.634	645
525.849	640
526.064	642
526.28	630
526.495	632
526.71	632
526.925	606
527.14	628
527.355	598
527.57	626
527.785	592
527.999	592
528.214	586
528.429	614
528.644	614
528.859	619
529.074	637
529.289	646
529.503	771
529.718	723
529.933	676
530.148	635
530.363	629
530.577	619
530.792	592
531.007	601
531.221	611
531.436	590
531.651	594
531.865	591
532.08	581
532.295	577
532.509	562
532.724	574
532.938	555
533.153	580
533.367	592
533.582	571
533.796	603
534.011	562
534.225	582
534.44	553
534.654	552
534.868	578
535.083	584
535.297	579
535.511	580
535.726	562
535.94	578
536.154	581
536.369	555
536.583	573
536.797	593
537.011	571
537.225	554
537.44	560
537.654	557
537.868	562
538.082	548
538.296	557
538.51	546
538.724	548
538.938	558
539.153	546
539.367	568
539.581	574
539.795	538
540.009	570
540.222	547
540.436	548
540.65	533
540.864	550
541.078	561
541.292	570
541.506	550
541.72	539
541.934	539
542.147	569
542.361	575
542.575	548
542.789	569
543.002	534
543.216	570
543.43	578
543.644	544
543.857	587
544.071	555
544.285	553
544.498	541
544.712	529
544.925	522
545.139	523
545.352	539
545.566	545
545.779	522
545.993	544
546.206	527
546.42	538
546.633	522
546.847	542
547.06	524
547.274	519
547.487	533
547.7	516
547.914	533
548.127	518
548.34	520
548.554	516
548.767	537
548.98	532
549.193	515
549.407	519
549.62	524
549.833	516
550.046	479
550.259	512
550.473	495
550.686	516
550.899	515
551.112	503
551.325	510
551.538	493
551.751	496
551.964	488
552.177	512
552.39	478
552.603	488
552.816	516
553.029	512
553.242	519
553.455	527
553.667	524
553.88	531
554.093	546
554.306	532
554.519	507
554.732	509
554.944	484
555.157	515
555.37	484
555.583	491
555.795	503
556.008	493
556.221	480
556.433	464
556.646	483
556.859	485
557.071	451
557.284	468
557.496	493
557.709	486
557.921	477
558.134	459
558.346	462
558.559	474
558.771	466
558.984	459
559.196	475
559.409	443
559.621	462
559.833	461
560.046	452
560.258	449
560.47	467
560.683	469
560.895	443
561.107	456
561.32	461
561.532	442
561.744	459
561.956	449
562.168	466
562.381	474
562.593	448
562.805	471
563.017	467
563.229	442
563.441	464
563.653	460
563.865	449
564.077	450
564.289	451
564.501	489
564.713	468
564.925	501
565.137	472
565.349	491
565.561	487
565.773	480
565.985	464
566.197	504
566.408	478
566.62	522
566.832	514
567.044	529
567.255	544
567.467	535
567.679	521
567.891	528
568.102	518
568.314	504
568.526	510
568.737	480
568.949	470
569.161	482
569.372	469
569.584	449
569.795	458
570.007	456
570.218	527
570.43	502
570.641	437
570.853	430
571.064	431
571.276	436
571.487	410
571.698	415
571.91	420
572.121	408
572.333	397
572.544	392
572.755	407
572.966	400
573.178	397
573.389	401
573.6	396
573.811	392
574.023	400
574.234	404
574.445	368
574.656	370
574.867	390
575.078	388
575.289	410
575.501	378
575.712	391
575.923	395
576.134	375
576.345	363
576.556	386
576.767	378
576.978	376
577.188	382
577.399	367
577.61	380
577.821	358
578.032	380
578.243	436
578.454	738
578.665	551
578.875	398
579.086	396
579.297	395
579.508	375
579.718	358
579.929	365
580.14	351
580.35	356
580.561	375
580.772	359
580.982	369
581.193	354
581.403	328
581.614	351
581.825	357
582.035	336
582.246	357
582.456	350
582.667	334
582.877	352
583.087	343
583.298	348
583.508	368
583.719	359
583.929	350
584.139	339
584.35	348
584.56	333
584.77	345
584.981	329
585.191	340
585.401	354
585.611	338
585.821	320
586.032	341
586.242	342
586.452	352
586.662	330
586.872	326
587.082	340
587.292	328
587.502	335
587.713	334
587.923	340
588.133	334
588.343	347
588.553	341
588.762	334
588.972	345
589.182	338
589.392	343
589.602	342
589.812	349
590.022	329
590.232	333
590.441	327
590.651	343
590.861	317
591.071	333
591.281	300
591.49	318
591.7	344
591.91	340
592.119	332
592.329	328
592.539	351
592.748	345
592.958	327
593.167	343
593.377	337
593.587	349
593.796	326
594.006	331
594.215	350
594.424	327
594.634	348
594.843	328
595.053	344
595.262	329
595.472	337
595.681	326
595.89	356
596.1	321
596.309	319
596.518	315
596.727	323
596.937	330
597.146	300
597.355	303
597.564	308
597.774	308
597.983	316
598.192	312
598.401	322
598.61	298
598.819	304
599.028	300
599.237	311
599.446	301
599.655	303
599.864	312
600.073	313
600.282	322
600.491	303
600.7	299
600.909	292
601.118	313
601.327	298
601.536	288
601.745	314
601.953	309
602.162	293
602.371	287
602.58	295
602.789	301
602.997	300
603.206	309
603.415	298
603.623	312
603.832	302
604.041	288
604.249	278
604.458	298
604.666	274
604.875	309
605.084	284
605.292	278
605.501	279
605.709	286
605.918	300
606.126	289
606.334	279
606.543	277
606.751	268
606.96	282
607.168	283
607.376	244
607.585	261
607.793	278
608.001	301
608.21	309
608.418	280
608.626	272
608.834	279
609.043	280
609.251	288
609.459	275
609.667	270
609.875	278
610.083	272
610.291	280
610.499	265
610.707	265
610.916	276
611.124	266
611.332	295
611.54	270
611.748	281
611.955	266
612.163	273
612.371	276
612.579	265
612.787	274
612.995	277
613.203	274
613.411	268
613.618	270
613.826	260
614.034	269
614.242	275
614.449	258
614.657	263
614.865	270
615.072	284
615.28	273
615.488	268
615.695	264
615.903	276
616.111	282
616.318	250
616.526	262
616.733	280
616.941	254
617.148	270
617.356	275
617.563	272
617.771	266
617.978	274
618.185	287
618.393	265
618.6	281
618.807	263
619.015	256
619.222	267
619.429	269
619.637	256
619.844	266
620.051	264
620.258	262
620.466	250
620.673	242
620.88	256
621.087	251
621.294	254
621.501	266
621.708	222
621.915	269
622.122	242
622.329	248
622.536	249
622.743	249
622.95	238
623.157	231
623.364	247
623.571	239
623.778	262
623.985	264
624.192	256
624.399	252
624.606	245
624.812	230
625.019	243
625.226	242
625.433	267
625.639	233
625.846	228
626.053	227
626.259	232
626.466	235
626.673	259
626.879	251
627.086	244
627.293	224
627.499	222
627.706	223
627.912	243
628.119	230
628.325	233
628.532	228
628.738	225
628.945	220
629.151	226
629.357	220
629.564	215
629.77	213
629.976	208
630.183	227
630.389	215
630.595	226
630.802	223
631.008	222
631.214	196
631.42	229
631.627	228
631.833	222
632.039	227
632.245	214
632.451	210
632.657	217
632.863	216
633.069	215
633.275	233
633.481	211
633.688	210
633.893	212
634.099	212
634.305	205
634.511	215
634.717	206
634.923	199
635.129	201
635.335	206
635.541	196
635.747	196
635.952	212
636.158	205
636.364	207
636.57	206
636.775	205
636.981	202
637.187	198
637.392	179
637.598	206
637.804	198
638.009	206
638.215	195
638.421	193
638.626	216
638.832	200
639.037	200
639.243	197
639.448	198
639.654	194
639.859	202
640.065	185
640.27	191
640.475	187
640.681	194
640.886	184
641.091	181
641.297	209
641.502	206
641.707	183
641.913	177
642.118	183
642.323	186
642.528	186
642.733	179
642.939	190
643.144	190
643.349	181
643.554	187
643.759	170
643.964	183
644.169	176
644.374	195
644.579	199
644.784	178
644.989	208
645.194	184
645.399	192
645.604	180
645.809	186
646.014	175
646.219	195
646.423	187
646.628	190
646.833	183
647.038	177
647.243	173
647.447	182
647.652	182
647.857	194
648.062	182
648.266	190
648.471	187
648.676	171
648.88	172
649.085	187
649.289	196
649.494	204
649.698	216
649.903	196
650.107	186
650.312	180
650.516	191
650.721	184
650.925	169
651.13	152
651.334	166
651.539	149
651.743	157
651.947	160
652.152	154
652.356	154
652.56	174
652.764	152
652.969	152
653.173	147
653.377	142
653.581	142
653.785	150
653.99	159
654.194	147
654.398	133
654.602	149
654.806	152
655.01	161
655.214	150
655.418	141
655.622	144
655.826	141
656.03	150
656.234	138
656.438	142
656.642	126
656.846	136
657.049	137
657.253	131
657.457	144
657.661	124
657.865	117
658.068	125
658.272	114
658.476	112
658.68	109
658.883	103
659.087	102
659.291	118
659.494	118
659.698	104
659.901	104
660.105	94
660.309	94
660.512	89
660.716	92
660.919	108
661.123	98
661.326	94
661.53	97
661.733	90
661.936	84
662.14	86
662.343	91
662.546	91
662.75	96
662.953	91
663.156	96
663.36	93
663.563	88
663.766	97
663.969	88
664.173	83
664.376	84
664.579	80
664.782	86
664.985	102
665.188	87
665.391	80
665.594	90
665.797	86
666	82
666.203	89
666.406	77
666.609	85
666.812	83
667.015	109
667.218	77
667.421	92
667.624	83
667.827	83
668.03	83
668.232	104
668.435	79
668.638	94
668.841	93
669.043	79
669.246	88
669.449	79
669.651	86
669.854	82
670.057	87
670.259	86
670.462	86
670.665	97
670.867	94
671.07	79
671.272	90
671.475	89
671.677	83
671.88	90
672.082	83
672.284	90
672.487	86
672.689	77
672.892	72
