Data from 1970.PennyLincolnUp.Lamp.En5.5.200Scan.071719.P1._HRD10591_15-13-52-842.txt Node
Date: Thu Jul 18 15:13:52 EDT 2019
User: cochatt
Spectrometer: HR+D1059
Trigger mode: 1
Integration Time (sec): 1.000000E-1
Scans to average: 1
Electric dark correction enabled: true
Nonlinearity correction enabled: false
Boxcar width: 0
XAxis mode: Wavelengths
Number of Pixels in Spectrum: 2048
>>>>>Begin Spectral Data<<<<<
223.165	-8.5
223.4	-8.5
223.635	-8.5
223.869	-24.5
224.104	-25.5
224.338	-8.5
224.573	-11.5
224.808	-6.5
225.042	0.5
225.277	-5.5
225.511	10.5
225.746	0.5
225.98	-4.5
226.215	0.5
226.449	16.5
226.683	23.5
226.918	17.5
227.152	25.5
227.387	27.5
227.621	45.5
227.856	28.5
228.09	40.5
228.324	48.5
228.559	61.5
228.793	60.5
229.027	96.5
229.262	109.5
229.496	130.5
229.73	132.5
229.964	155.5
230.199	119.5
230.433	141.5
230.667	111.5
230.901	115.5
231.136	109.5
231.37	101.5
231.604	113.5
231.838	110.5
232.072	96.5
232.306	109.5
232.541	121.5
232.775	120.5
233.009	113.5
233.243	109.5
233.477	116.5
233.711	104.5
233.945	116.5
234.179	108.5
234.413	102.5
234.647	120.5
234.881	113.5
235.115	116.5
235.349	123.5
235.583	118.5
235.817	123.5
236.051	126.5
236.285	134.5
236.519	131.5
236.753	134.5
236.987	149.5
237.221	192.5
237.455	220.5
237.689	180.5
237.922	155.5
238.156	142.5
238.39	132.5
238.624	134.5
238.858	139.5
239.091	118.5
239.325	121.5
239.559	124.5
239.793	128.5
240.027	127.5
240.26	147.5
240.494	157.5
240.728	143.5
240.961	156.5
241.195	139.5
241.429	139.5
241.662	140.5
241.896	134.5
242.13	139.5
242.363	138.5
242.597	133.5
242.83	146.5
243.064	154.5
243.298	147.5
243.531	151.5
243.765	140.5
243.998	144.5
244.232	151.5
244.465	137.5
244.699	150.5
244.932	141.5
245.166	140.5
245.399	145.5
245.633	140.5
245.866	140.5
246.099	149.5
246.333	166.5
246.566	143.5
246.8	140.5
247.033	144.5
247.266	160.5
247.5	165.5
247.733	165.5
247.966	174.5
248.2	153.5
248.433	182.5
248.666	184.5
248.899	205.5
249.133	209.5
249.366	210.5
249.599	203.5
249.832	202.5
250.066	198.5
250.299	189.5
250.532	209.5
250.765	207.5
250.998	237.5
251.231	260.5
251.465	227.5
251.698	223.5
251.931	211.5
252.164	203.5
252.397	181.5
252.63	216.5
252.863	211.5
253.096	207.5
253.329	237.5
253.562	232.5
253.795	223.5
254.028	224.5
254.261	243.5
254.494	242.5
254.727	258.5
254.96	279.5
255.193	277.5
255.426	238.5
255.659	230.5
255.892	238.5
256.124	231.5
256.357	256.5
256.59	240.5
256.823	225.5
257.056	212.5
257.289	192.5
257.521	210.5
257.754	203.5
257.987	208.5
258.22	215.5
258.452	197.5
258.685	193.5
258.918	219.5
259.151	195.5
259.383	232.5
259.616	221.5
259.849	238.5
260.081	216.5
260.314	260.5
260.547	235.5
260.779	254.5
261.012	231.5
261.244	222.5
261.477	230.5
261.71	235.5
261.942	232.5
262.175	242.5
262.407	246.5
262.64	223.5
262.872	211.5
263.105	200.5
263.337	208.5
263.57	218.5
263.802	211.5
264.035	210.5
264.267	192.5
264.499	209.5
264.732	199.5
264.964	192.5
265.197	212.5
265.429	195.5
265.661	216.5
265.894	201.5
266.126	201.5
266.358	218.5
266.591	217.5
266.823	216.5
267.055	232.5
267.287	223.5
267.52	221.5
267.752	216.5
267.984	223.5
268.216	214.5
268.448	227.5
268.681	238.5
268.913	240.5
269.145	254.5
269.377	251.5
269.609	271.5
269.841	280.5
270.073	264.5
270.306	284.5
270.538	301.5
270.77	308.5
271.002	282.5
271.234	286.5
271.466	287.5
271.698	288.5
271.93	312.5
272.162	296.5
272.394	302.5
272.626	300.5
272.858	268.5
273.09	282.5
273.322	282.5
273.553	259.5
273.785	253.5
274.017	250.5
274.249	257.5
274.481	264.5
274.713	249.5
274.945	264.5
275.176	267.5
275.408	260.5
275.64	247.5
275.872	246.5
276.104	234.5
276.335	245.5
276.567	254.5
276.799	255.5
277.031	296.5
277.262	297.5
277.494	311.5
277.726	285.5
277.957	290.5
278.189	262.5
278.421	253.5
278.652	248.5
278.884	243.5
279.115	247.5
279.347	252.5
279.579	260.5
279.81	250.5
280.042	259.5
280.273	241.5
280.505	252.5
280.736	259.5
280.968	233.5
281.199	249.5
281.431	246.5
281.662	252.5
281.894	247.5
282.125	251.5
282.356	281.5
282.588	290.5
282.819	319.5
283.051	255.5
283.282	251.5
283.513	255.5
283.745	260.5
283.976	244.5
284.207	259.5
284.439	251.5
284.67	246.5
284.901	254.5
285.132	247.5
285.364	248.5
285.595	271.5
285.826	247.5
286.057	271.5
286.288	249.5
286.52	246.5
286.751	240.5
286.982	262.5
287.213	256.5
287.444	261.5
287.675	249.5
287.906	262.5
288.138	283.5
288.369	282.5
288.6	279.5
288.831	268.5
289.062	267.5
289.293	262.5
289.524	268.5
289.755	262.5
289.986	265.5
290.217	269.5
290.448	264.5
290.679	247.5
290.91	271.5
291.141	269.5
291.371	262.5
291.602	254.5
291.833	279.5
292.064	276.5
292.295	249.5
292.526	259.5
292.757	260.5
292.987	276.5
293.218	262.5
293.449	260.5
293.68	266.5
293.91	271.5
294.141	267.5
294.372	287.5
294.603	271.5
294.833	279.5
295.064	289.5
295.295	269.5
295.525	274.5
295.756	277.5
295.987	272.5
296.217	287.5
296.448	308.5
296.679	268.5
296.909	266.5
297.14	266.5
297.37	270.5
297.601	277.5
297.831	278.5
298.062	263.5
298.292	274.5
298.523	276.5
298.753	290.5
298.984	286.5
299.214	287.5
299.445	276.5
299.675	284.5
299.905	273.5
300.136	295.5
300.366	282.5
300.597	276.5
300.827	276.5
301.057	283.5
301.288	302.5
301.518	288.5
301.748	294.5
301.979	295.5
302.209	288.5
302.439	293.5
302.669	312.5
302.9	301.5
303.13	299.5
303.36	296.5
303.59	310.5
303.82	306.5
304.051	304.5
304.281	307.5
304.511	286.5
304.741	292.5
304.971	294.5
305.201	306.5
305.431	292.5
305.661	297.5
305.891	295.5
306.121	297.5
306.352	293.5
306.582	302.5
306.812	300.5
307.042	303.5
307.272	293.5
307.502	288.5
307.731	301.5
307.961	295.5
308.191	290.5
308.421	310.5
308.651	303.5
308.881	288.5
309.111	318.5
309.341	314.5
309.571	317.5
309.8	325.5
310.03	326.5
310.26	341.5
310.49	342.5
310.72	345.5
310.949	381.5
311.179	383.5
311.409	362.5
311.639	335.5
311.868	334.5
312.098	358.5
312.328	374.5
312.557	378.5
312.787	370.5
313.017	368.5
313.246	378.5
313.476	335.5
313.706	338.5
313.935	346.5
314.165	363.5
314.394	373.5
314.624	372.5
314.853	366.5
315.083	368.5
315.312	366.5
315.542	326.5
315.771	304.5
316.001	348.5
316.23	351.5
316.46	350.5
316.689	364.5
316.919	350.5
317.148	359.5
317.377	354.5
317.607	369.5
317.836	360.5
318.065	338.5
318.295	351.5
318.524	342.5
318.753	342.5
318.983	340.5
319.212	351.5
319.441	362.5
319.67	351.5
319.9	336.5
320.129	350.5
320.358	344.5
320.587	353.5
320.816	358.5
321.046	388.5
321.275	376.5
321.504	363.5
321.733	357.5
321.962	401.5
322.191	393.5
322.42	378.5
322.649	396.5
322.878	398.5
323.108	452.5
323.337	456.5
323.566	482.5
323.795	504.5
324.024	545.5
324.253	679.5
324.482	961.5
324.71	1403.5
324.939	2003.5
325.168	1742.5
325.397	932.5
325.626	658.5
325.855	508.5
326.084	478.5
326.313	491.5
326.542	500.5
326.77	537.5
326.999	612.5
327.228	865.5
327.457	1242.5
327.686	1519.5
327.914	1070.5
328.143	700.5
328.372	614.5
328.6	576.5
328.829	555.5
329.058	578.5
329.287	548.5
329.515	510.5
329.744	503.5
329.972	467.5
330.201	502.5
330.43	522.5
330.658	570.5
330.887	604.5
331.115	598.5
331.344	500.5
331.572	462.5
331.801	461.5
332.03	459.5
332.258	439.5
332.486	425.5
332.715	424.5
332.943	408.5
333.172	443.5
333.4	423.5
333.629	419.5
333.857	444.5
334.085	452.5
334.314	462.5
334.542	502.5
334.771	526.5
334.999	469.5
335.227	432.5
335.455	414.5
335.684	410.5
335.912	427.5
336.14	394.5
336.369	415.5
336.597	418.5
336.825	417.5
337.053	406.5
337.281	430.5
337.51	399.5
337.738	421.5
337.966	402.5
338.194	396.5
338.422	405.5
338.65	404.5
338.878	407.5
339.106	379.5
339.334	380.5
339.562	378.5
339.79	393.5
340.018	402.5
340.246	406.5
340.474	412.5
340.702	413.5
340.93	398.5
341.158	390.5
341.386	383.5
341.614	403.5
341.842	412.5
342.07	391.5
342.298	390.5
342.526	399.5
342.754	376.5
342.981	385.5
343.209	378.5
343.437	388.5
343.665	407.5
343.893	408.5
344.12	409.5
344.348	405.5
344.576	389.5
344.804	413.5
345.031	420.5
345.259	441.5
345.487	420.5
345.714	396.5
345.942	382.5
346.17	390.5
346.397	384.5
346.625	386.5
346.853	378.5
347.08	386.5
347.308	392.5
347.535	415.5
347.763	425.5
347.99	379.5
348.218	417.5
348.445	422.5
348.673	394.5
348.9	416.5
349.128	394.5
349.355	392.5
349.583	364.5
349.81	385.5
350.037	366.5
350.265	366.5
350.492	385.5
350.72	388.5
350.947	394.5
351.174	400.5
351.402	424.5
351.629	394.5
351.856	411.5
352.083	404.5
352.311	404.5
352.538	407.5
352.765	420.5
352.992	419.5
353.22	404.5
353.447	393.5
353.674	386.5
353.901	374.5
354.128	379.5
354.355	394.5
354.583	372.5
354.81	368.5
355.037	356.5
355.264	376.5
355.491	377.5
355.718	380.5
355.945	356.5
356.172	364.5
356.399	352.5
356.626	370.5
356.853	370.5
357.08	375.5
357.307	348.5
357.534	350.5
357.761	368.5
357.988	359.5
358.215	359.5
358.441	384.5
358.668	365.5
358.895	358.5
359.122	382.5
359.349	398.5
359.576	394.5
359.802	430.5
360.029	463.5
360.256	483.5
360.483	441.5
360.709	410.5
360.936	392.5
361.163	412.5
361.39	405.5
361.616	420.5
361.843	385.5
362.07	399.5
362.296	403.5
362.523	403.5
362.749	410.5
362.976	400.5
363.203	390.5
363.429	367.5
363.656	400.5
363.882	414.5
364.109	396.5
364.335	387.5
364.562	397.5
364.788	384.5
365.015	386.5
365.241	373.5
365.468	388.5
365.694	388.5
365.92	397.5
366.147	401.5
366.373	390.5
366.599	375.5
366.826	380.5
367.052	382.5
367.278	394.5
367.505	383.5
367.731	385.5
367.957	382.5
368.184	381.5
368.41	396.5
368.636	402.5
368.862	393.5
369.089	401.5
369.315	378.5
369.541	381.5
369.767	391.5
369.993	380.5
370.219	380.5
370.445	383.5
370.672	368.5
370.898	394.5
371.124	374.5
371.35	391.5
371.576	381.5
371.802	409.5
372.028	391.5
372.254	391.5
372.48	390.5
372.706	386.5
372.932	377.5
373.158	379.5
373.384	381.5
373.61	387.5
373.835	393.5
374.061	379.5
374.287	401.5
374.513	395.5
374.739	391.5
374.965	397.5
375.191	388.5
375.416	392.5
375.642	389.5
375.868	400.5
376.094	402.5
376.319	399.5
376.545	394.5
376.771	391.5
376.997	389.5
377.222	377.5
377.448	379.5
377.674	419.5
377.899	392.5
378.125	406.5
378.35	382.5
378.576	384.5
378.802	381.5
379.027	373.5
379.253	371.5
379.478	392.5
379.704	383.5
379.929	404.5
380.155	390.5
380.38	392.5
380.606	380.5
380.831	401.5
381.057	395.5
381.282	378.5
381.507	382.5
381.733	374.5
381.958	398.5
382.184	413.5
382.409	401.5
382.634	397.5
382.86	409.5
383.085	380.5
383.31	400.5
383.535	418.5
383.761	425.5
383.986	408.5
384.211	396.5
384.436	414.5
384.662	408.5
384.887	413.5
385.112	389.5
385.337	413.5
385.562	413.5
385.787	423.5
386.013	419.5
386.238	435.5
386.463	396.5
386.688	421.5
386.913	434.5
387.138	414.5
387.363	430.5
387.588	415.5
387.813	423.5
388.038	391.5
388.263	414.5
388.488	410.5
388.713	424.5
388.938	443.5
389.163	410.5
389.387	414.5
389.612	409.5
389.837	439.5
390.062	418.5
390.287	438.5
390.512	395.5
390.736	426.5
390.961	425.5
391.186	419.5
391.411	414.5
391.636	426.5
391.86	419.5
392.085	423.5
392.31	437.5
392.534	423.5
392.759	447.5
392.984	428.5
393.208	431.5
393.433	455.5
393.658	425.5
393.882	413.5
394.107	441.5
394.331	425.5
394.556	419.5
394.78	443.5
395.005	447.5
395.229	418.5
395.454	423.5
395.678	433.5
395.903	464.5
396.127	474.5
396.352	466.5
396.576	429.5
396.801	444.5
397.025	481.5
397.249	434.5
397.474	465.5
397.698	440.5
397.922	452.5
398.147	479.5
398.371	491.5
398.595	468.5
398.82	474.5
399.044	463.5
399.268	483.5
399.492	513.5
399.717	546.5
399.941	549.5
400.165	584.5
400.389	585.5
400.613	520.5
400.837	504.5
401.062	500.5
401.286	488.5
401.51	491.5
401.734	452.5
401.958	482.5
402.182	498.5
402.406	494.5
402.63	492.5
402.854	492.5
403.078	491.5
403.302	505.5
403.526	519.5
403.75	515.5
403.974	516.5
404.198	497.5
404.422	499.5
404.645	511.5
404.869	516.5
405.093	534.5
405.317	573.5
405.541	619.5
405.765	566.5
405.988	536.5
406.212	557.5
406.436	554.5
406.66	575.5
406.883	572.5
407.107	551.5
407.331	611.5
407.555	670.5
407.778	652.5
408.002	593.5
408.226	566.5
408.449	580.5
408.673	548.5
408.896	567.5
409.12	608.5
409.344	584.5
409.567	526.5
409.791	511.5
410.014	508.5
410.238	504.5
410.461	489.5
410.685	493.5
410.908	515.5
411.132	561.5
411.355	601.5
411.578	574.5
411.802	538.5
412.025	506.5
412.249	528.5
412.472	513.5
412.695	569.5
412.919	580.5
413.142	546.5
413.365	505.5
413.589	503.5
413.812	482.5
414.035	492.5
414.258	494.5
414.482	474.5
414.705	478.5
414.928	474.5
415.151	510.5
415.374	478.5
415.597	458.5
415.821	446.5
416.044	479.5
416.267	491.5
416.49	478.5
416.713	479.5
416.936	487.5
417.159	498.5
417.382	498.5
417.605	486.5
417.828	520.5
418.051	508.5
418.274	499.5
418.497	470.5
418.72	482.5
418.943	476.5
419.166	490.5
419.389	523.5
419.611	524.5
419.834	504.5
420.057	539.5
420.28	533.5
420.503	518.5
420.726	522.5
420.948	518.5
421.171	555.5
421.394	609.5
421.617	551.5
421.839	531.5
422.062	553.5
422.285	531.5
422.507	575.5
422.73	660.5
422.953	646.5
423.175	564.5
423.398	538.5
423.621	532.5
423.843	558.5
424.066	562.5
424.288	544.5
424.511	591.5
424.733	624.5
424.956	719.5
425.178	690.5
425.401	697.5
425.623	684.5
425.846	629.5
426.068	552.5
426.291	568.5
426.513	557.5
426.735	566.5
426.958	616.5
427.18	706.5
427.402	779.5
427.625	891.5
427.847	810.5
428.069	698.5
428.292	643.5
428.514	566.5
428.736	552.5
428.958	549.5
429.181	518.5
429.403	525.5
429.625	537.5
429.847	568.5
430.069	647.5
430.292	618.5
430.514	544.5
430.736	528.5
430.958	539.5
431.18	514.5
431.402	482.5
431.624	483.5
431.846	478.5
432.068	493.5
432.29	493.5
432.512	474.5
432.734	500.5
432.956	523.5
433.178	482.5
433.4	524.5
433.622	506.5
433.844	505.5
434.066	493.5
434.287	494.5
434.509	501.5
434.731	509.5
434.953	503.5
435.175	517.5
435.397	556.5
435.618	567.5
435.84	609.5
436.062	686.5
436.284	773.5
436.505	680.5
436.727	575.5
436.949	534.5
437.17	516.5
437.392	528.5
437.614	557.5
437.835	594.5
438.057	707.5
438.278	776.5
438.5	773.5
438.721	823.5
438.943	790.5
439.165	662.5
439.386	603.5
439.608	570.5
439.829	588.5
440.05	612.5
440.272	653.5
440.493	613.5
440.715	574.5
440.936	546.5
441.158	526.5
441.379	549.5
441.6	539.5
441.822	581.5
442.043	609.5
442.264	667.5
442.486	725.5
442.707	632.5
442.928	579.5
443.149	597.5
443.371	645.5
443.592	657.5
443.813	730.5
444.034	771.5
444.255	654.5
444.476	591.5
444.698	564.5
444.919	556.5
445.14	691.5
445.361	630.5
445.582	603.5
445.803	654.5
446.024	783.5
446.245	784.5
446.466	687.5
446.687	606.5
446.908	579.5
447.129	546.5
447.35	536.5
447.571	524.5
447.792	534.5
448.013	528.5
448.234	554.5
448.455	623.5
448.675	734.5
448.896	777.5
449.117	708.5
449.338	677.5
449.559	748.5
449.779	873.5
450	691.5
450.221	594.5
450.442	544.5
450.662	531.5
450.883	523.5
451.104	550.5
451.324	546.5
451.545	511.5
451.766	508.5
451.986	489.5
452.207	483.5
452.428	467.5
452.648	471.5
452.869	471.5
453.089	481.5
453.31	500.5
453.53	473.5
453.751	476.5
453.971	478.5
454.192	493.5
454.412	509.5
454.633	464.5
454.853	480.5
455.073	474.5
455.294	503.5
455.514	557.5
455.734	549.5
455.955	476.5
456.175	456.5
456.395	464.5
456.616	438.5
456.836	439.5
457.056	440.5
457.276	440.5
457.497	442.5
457.717	468.5
457.937	429.5
458.157	450.5
458.377	458.5
458.598	456.5
458.818	549.5
459.038	639.5
459.258	623.5
459.478	544.5
459.698	485.5
459.918	471.5
460.138	491.5
460.358	484.5
460.578	474.5
460.798	473.5
461.018	490.5
461.238	489.5
461.458	475.5
461.678	468.5
461.898	486.5
462.118	475.5
462.338	492.5
462.558	494.5
462.777	484.5
462.997	519.5
463.217	518.5
463.437	533.5
463.657	515.5
463.876	522.5
464.096	505.5
464.316	507.5
464.536	527.5
464.755	510.5
464.975	539.5
465.195	579.5
465.414	655.5
465.634	572.5
465.854	530.5
466.073	520.5
466.293	489.5
466.512	483.5
466.732	479.5
466.951	492.5
467.171	471.5
467.391	491.5
467.61	502.5
467.829	531.5
468.049	488.5
468.268	485.5
468.488	483.5
468.707	486.5
468.927	484.5
469.146	469.5
469.365	472.5
469.585	468.5
469.804	511.5
470.023	488.5
470.243	472.5
470.462	520.5
470.681	525.5
470.901	502.5
471.12	520.5
471.339	497.5
471.558	499.5
471.777	492.5
471.997	490.5
472.216	483.5
472.435	544.5
472.654	520.5
472.873	495.5
473.092	499.5
473.311	515.5
473.53	485.5
473.749	502.5
473.968	547.5
474.187	657.5
474.406	673.5
474.625	557.5
474.844	531.5
475.063	497.5
475.282	518.5
475.501	479.5
475.72	510.5
475.939	499.5
476.158	518.5
476.377	501.5
476.596	519.5
476.814	528.5
477.033	503.5
477.252	543.5
477.471	528.5
477.69	533.5
477.908	528.5
478.127	559.5
478.346	545.5
478.564	543.5
478.783	537.5
479.002	542.5
479.22	570.5
479.439	556.5
479.658	608.5
479.876	581.5
480.095	597.5
480.313	642.5
480.532	609.5
480.751	596.5
480.969	617.5
481.188	677.5
481.406	716.5
481.624	634.5
481.843	611.5
482.061	606.5
482.28	604.5
482.498	587.5
482.717	588.5
482.935	587.5
483.153	591.5
483.372	592.5
483.59	606.5
483.808	598.5
484.027	586.5
484.245	596.5
484.463	583.5
484.681	598.5
484.9	593.5
485.118	620.5
485.336	597.5
485.554	605.5
485.772	611.5
485.99	613.5
486.209	616.5
486.427	609.5
486.645	606.5
486.863	654.5
487.081	611.5
487.299	642.5
487.517	653.5
487.735	636.5
487.953	638.5
488.171	629.5
488.389	639.5
488.607	652.5
488.825	654.5
489.043	625.5
489.261	626.5
489.479	639.5
489.696	657.5
489.914	676.5
490.132	666.5
490.35	662.5
490.568	671.5
490.786	657.5
491.003	701.5
491.221	716.5
491.439	722.5
491.657	731.5
491.874	740.5
492.092	737.5
492.31	734.5
492.527	754.5
492.745	729.5
492.963	736.5
493.18	787.5
493.398	774.5
493.615	758.5
493.833	759.5
494.05	766.5
494.268	792.5
494.485	736.5
494.703	776.5
494.92	795.5
495.138	794.5
495.355	773.5
495.573	749.5
495.79	743.5
496.008	769.5
496.225	784.5
496.442	772.5
496.66	806.5
496.877	761.5
497.094	783.5
497.312	788.5
497.529	772.5
497.746	802.5
497.963	804.5
498.181	805.5
498.398	798.5
498.615	803.5
498.832	846.5
499.049	833.5
499.267	842.5
499.484	831.5
499.701	877.5
499.918	885.5
500.135	942.5
500.352	943.5
500.569	976.5
500.786	967.5
501.003	958.5
501.22	938.5
501.437	944.5
501.654	925.5
501.871	910.5
502.088	907.5
502.305	874.5
502.522	872.5
502.739	818.5
502.956	794.5
503.172	837.5
503.389	790.5
503.606	800.5
503.823	792.5
504.04	783.5
504.256	775.5
504.473	740.5
504.69	772.5
504.907	750.5
505.123	733.5
505.34	745.5
505.557	747.5
505.773	741.5
505.99	728.5
506.207	730.5
506.423	741.5
506.64	732.5
506.856	727.5
507.073	716.5
507.289	730.5
507.506	690.5
507.722	724.5
507.939	773.5
508.155	733.5
508.372	731.5
508.588	707.5
508.805	683.5
509.021	727.5
509.238	730.5
509.454	732.5
509.67	718.5
509.887	688.5
510.103	709.5
510.319	709.5
510.536	823.5
510.752	1358.5
510.968	1131.5
511.184	736.5
511.401	702.5
511.617	660.5
511.833	657.5
512.049	679.5
512.265	679.5
512.481	691.5
512.698	666.5
512.914	664.5
513.13	665.5
513.346	657.5
513.562	676.5
513.778	684.5
513.994	684.5
514.21	700.5
514.426	706.5
514.642	774.5
514.858	785.5
515.074	831.5
515.29	1015.5
515.506	1463.5
515.721	1205.5
515.937	827.5
516.153	732.5
516.369	727.5
516.585	702.5
516.801	686.5
517.016	691.5
517.232	692.5
517.448	671.5
517.664	702.5
517.879	678.5
518.095	678.5
518.311	690.5
518.527	655.5
518.742	666.5
518.958	650.5
519.173	658.5
519.389	679.5
519.605	660.5
519.82	651.5
520.036	650.5
520.251	699.5
520.467	723.5
520.682	736.5
520.898	720.5
521.113	759.5
521.329	823.5
521.544	910.5
521.76	1151.5
521.975	1874.5
522.19	1890.5
522.406	990.5
522.621	767.5
522.836	718.5
523.052	691.5
523.267	628.5
523.482	618.5
523.698	617.5
523.913	629.5
524.128	599.5
524.343	584.5
524.559	582.5
524.774	579.5
524.989	601.5
525.204	619.5
525.419	598.5
525.634	582.5
525.849	589.5
526.064	564.5
526.28	569.5
526.495	566.5
526.71	571.5
526.925	544.5
527.14	555.5
527.355	554.5
527.57	544.5
527.785	544.5
527.999	548.5
528.214	543.5
528.429	553.5
528.644	556.5
528.859	542.5
529.074	567.5
529.289	578.5
529.503	650.5
529.718	607.5
529.933	596.5
530.148	584.5
530.363	546.5
530.577	537.5
530.792	522.5
531.007	532.5
531.221	518.5
531.436	513.5
531.651	520.5
531.865	519.5
532.08	515.5
532.295	513.5
532.509	507.5
532.724	538.5
532.938	522.5
533.153	527.5
533.367	516.5
533.582	521.5
533.796	519.5
534.011	503.5
534.225	503.5
534.44	500.5
534.654	513.5
534.868	492.5
535.083	512.5
535.297	486.5
535.511	522.5
535.726	502.5
535.94	496.5
536.154	499.5
536.369	523.5
536.583	499.5
536.797	480.5
537.011	504.5
537.225	490.5
537.44	478.5
537.654	475.5
537.868	488.5
538.082	499.5
538.296	486.5
538.51	506.5
538.724	499.5
538.938	496.5
539.153	476.5
539.367	495.5
539.581	492.5
539.795	506.5
540.009	486.5
540.222	480.5
540.436	485.5
540.65	487.5
540.864	506.5
541.078	507.5
541.292	491.5
541.506	499.5
541.72	509.5
541.934	496.5
542.147	509.5
542.361	470.5
542.575	469.5
542.789	475.5
543.002	493.5
543.216	486.5
543.43	487.5
543.644	492.5
543.857	504.5
544.071	464.5
544.285	495.5
544.498	505.5
544.712	490.5
544.925	473.5
545.139	455.5
545.352	474.5
545.566	459.5
545.779	478.5
545.993	480.5
546.206	474.5
546.42	461.5
546.633	481.5
546.847	470.5
547.06	479.5
547.274	464.5
547.487	461.5
547.7	472.5
547.914	467.5
548.127	469.5
548.34	471.5
548.554	468.5
548.767	439.5
548.98	476.5
549.193	458.5
549.407	468.5
549.62	471.5
549.833	452.5
550.046	474.5
550.259	448.5
550.473	452.5
550.686	475.5
550.899	460.5
551.112	441.5
551.325	452.5
551.538	469.5
551.751	463.5
551.964	455.5
552.177	453.5
552.39	445.5
552.603	457.5
552.816	470.5
553.029	457.5
553.242	452.5
553.455	472.5
553.667	494.5
553.88	486.5
554.093	469.5
554.306	477.5
554.519	468.5
554.732	456.5
554.944	453.5
555.157	439.5
555.37	456.5
555.583	448.5
555.795	456.5
556.008	443.5
556.221	440.5
556.433	435.5
556.646	429.5
556.859	415.5
557.071	423.5
557.284	421.5
557.496	424.5
557.709	412.5
557.921	428.5
558.134	400.5
558.346	406.5
558.559	392.5
558.771	428.5
558.984	419.5
559.196	412.5
559.409	411.5
559.621	408.5
559.833	441.5
560.046	414.5
560.258	395.5
560.47	410.5
560.683	438.5
560.895	403.5
561.107	407.5
561.32	411.5
561.532	413.5
561.744	413.5
561.956	424.5
562.168	401.5
562.381	406.5
562.593	437.5
562.805	422.5
563.017	418.5
563.229	421.5
563.441	403.5
563.653	401.5
563.865	419.5
564.077	411.5
564.289	437.5
564.501	422.5
564.713	418.5
564.925	429.5
565.137	429.5
565.349	421.5
565.561	425.5
565.773	451.5
565.985	440.5
566.197	451.5
566.408	473.5
566.62	458.5
566.832	463.5
567.044	470.5
567.255	472.5
567.467	480.5
567.679	468.5
567.891	482.5
568.102	458.5
568.314	453.5
568.526	454.5
568.737	447.5
568.949	426.5
569.161	403.5
569.372	410.5
569.584	421.5
569.795	420.5
570.007	425.5
570.218	466.5
570.43	457.5
570.641	409.5
570.853	386.5
571.064	398.5
571.276	397.5
571.487	382.5
571.698	380.5
571.91	378.5
572.121	389.5
572.333	387.5
572.544	373.5
572.755	363.5
572.966	365.5
573.178	363.5
573.389	349.5
573.6	378.5
573.811	361.5
574.023	338.5
574.234	341.5
574.445	356.5
574.656	339.5
574.867	348.5
575.078	352.5
575.289	342.5
575.501	352.5
575.712	358.5
575.923	345.5
576.134	337.5
576.345	342.5
576.556	358.5
576.767	354.5
576.978	343.5
577.188	353.5
577.399	348.5
577.61	326.5
577.821	349.5
578.032	347.5
578.243	393.5
578.454	617.5
578.665	498.5
578.875	363.5
579.086	324.5
579.297	328.5
579.508	343.5
579.718	338.5
579.929	328.5
580.14	318.5
580.35	340.5
580.561	343.5
580.772	323.5
580.982	342.5
581.193	309.5
581.403	327.5
581.614	311.5
581.825	320.5
582.035	325.5
582.246	316.5
582.456	304.5
582.667	324.5
582.877	312.5
583.087	303.5
583.298	319.5
583.508	319.5
583.719	314.5
583.929	327.5
584.139	326.5
584.35	314.5
584.56	314.5
584.77	333.5
584.981	315.5
585.191	318.5
585.401	327.5
585.611	301.5
585.821	309.5
586.032	306.5
586.242	329.5
586.452	303.5
586.662	299.5
586.872	312.5
587.082	303.5
587.292	328.5
587.502	312.5
587.713	311.5
587.923	295.5
588.133	311.5
588.343	309.5
588.553	299.5
588.762	314.5
588.972	298.5
589.182	337.5
589.392	310.5
589.602	289.5
589.812	317.5
590.022	295.5
590.232	295.5
590.441	330.5
590.651	300.5
590.861	269.5
591.071	294.5
591.281	323.5
591.49	297.5
591.7	328.5
591.91	296.5
592.119	303.5
592.329	304.5
592.539	323.5
592.748	309.5
592.958	312.5
593.167	328.5
593.377	308.5
593.587	299.5
593.796	310.5
594.006	299.5
594.215	317.5
594.424	294.5
594.634	305.5
594.843	306.5
595.053	301.5
595.262	310.5
595.472	303.5
595.681	291.5
595.89	297.5
596.1	290.5
596.309	287.5
596.518	294.5
596.727	284.5
596.937	291.5
597.146	290.5
597.355	282.5
597.564	281.5
597.774	285.5
597.983	270.5
598.192	278.5
598.401	254.5
598.61	252.5
598.819	267.5
599.028	271.5
599.237	270.5
599.446	277.5
599.655	287.5
599.864	281.5
600.073	271.5
600.282	266.5
600.491	260.5
600.7	251.5
600.909	288.5
601.118	272.5
601.327	249.5
601.536	250.5
601.745	255.5
601.953	276.5
602.162	262.5
602.371	271.5
602.58	264.5
602.789	266.5
602.997	271.5
603.206	271.5
603.415	268.5
603.623	254.5
603.832	247.5
604.041	253.5
604.249	255.5
604.458	238.5
604.666	260.5
604.875	246.5
605.084	244.5
605.292	261.5
605.501	266.5
605.709	262.5
605.918	251.5
606.126	260.5
606.334	251.5
606.543	242.5
606.751	254.5
606.96	261.5
607.168	265.5
607.376	258.5
607.585	262.5
607.793	259.5
608.001	262.5
608.21	248.5
608.418	261.5
608.626	263.5
608.834	248.5
609.043	276.5
609.251	263.5
609.459	249.5
609.667	259.5
609.875	262.5
610.083	268.5
610.291	270.5
610.499	245.5
610.707	266.5
610.916	280.5
611.124	259.5
611.332	276.5
611.54	270.5
611.748	263.5
611.955	280.5
612.163	234.5
612.371	237.5
612.579	259.5
612.787	256.5
612.995	254.5
613.203	254.5
613.411	262.5
613.618	235.5
613.826	239.5
614.034	243.5
614.242	260.5
614.449	228.5
614.657	254.5
614.865	244.5
615.072	246.5
615.28	244.5
615.488	247.5
615.695	242.5
615.903	244.5
616.111	258.5
616.318	263.5
616.526	239.5
616.733	244.5
616.941	244.5
617.148	249.5
617.356	246.5
617.563	253.5
617.771	235.5
617.978	234.5
618.185	244.5
618.393	258.5
618.6	252.5
618.807	241.5
619.015	258.5
619.222	242.5
619.429	246.5
619.637	237.5
619.844	248.5
620.051	228.5
620.258	234.5
620.466	240.5
620.673	231.5
620.88	215.5
621.087	231.5
621.294	216.5
621.501	233.5
621.708	253.5
621.915	251.5
622.122	222.5
622.329	224.5
622.536	230.5
622.743	240.5
622.95	228.5
623.157	209.5
623.364	241.5
623.571	232.5
623.778	220.5
623.985	218.5
624.192	209.5
624.399	216.5
624.606	218.5
624.812	228.5
625.019	219.5
625.226	234.5
625.433	231.5
625.639	205.5
625.846	229.5
626.053	216.5
626.259	209.5
626.466	211.5
626.673	216.5
626.879	223.5
627.086	224.5
627.293	224.5
627.499	228.5
627.706	217.5
627.912	215.5
628.119	200.5
628.325	220.5
628.532	227.5
628.738	212.5
628.945	214.5
629.151	201.5
629.357	204.5
629.564	214.5
629.77	217.5
629.976	199.5
630.183	219.5
630.389	211.5
630.595	191.5
630.802	208.5
631.008	199.5
631.214	197.5
631.42	198.5
631.627	204.5
631.833	216.5
632.039	206.5
632.245	206.5
632.451	202.5
632.657	182.5
632.863	215.5
633.069	193.5
633.275	202.5
633.481	193.5
633.688	220.5
633.893	201.5
634.099	189.5
634.305	191.5
634.511	208.5
634.717	187.5
634.923	190.5
635.129	171.5
635.335	202.5
635.541	184.5
635.747	180.5
635.952	187.5
636.158	182.5
636.364	203.5
636.57	188.5
636.775	199.5
636.981	192.5
637.187	169.5
637.392	186.5
637.598	187.5
637.804	162.5
638.009	166.5
638.215	191.5
638.421	186.5
638.626	183.5
638.832	203.5
639.037	164.5
639.243	179.5
639.448	178.5
639.654	182.5
639.859	195.5
640.065	171.5
640.27	178.5
640.475	192.5
640.681	185.5
640.886	188.5
641.091	184.5
641.297	186.5
641.502	182.5
641.707	176.5
641.913	189.5
642.118	181.5
642.323	184.5
642.528	183.5
642.733	179.5
642.939	173.5
643.144	158.5
643.349	178.5
643.554	180.5
643.759	180.5
643.964	167.5
644.169	170.5
644.374	178.5
644.579	171.5
644.784	165.5
644.989	173.5
645.194	166.5
645.399	165.5
645.604	172.5
645.809	172.5
646.014	174.5
646.219	174.5
646.423	162.5
646.628	162.5
646.833	179.5
647.038	181.5
647.243	165.5
647.447	156.5
647.652	173.5
647.857	181.5
648.062	190.5
648.266	186.5
648.471	179.5
648.676	178.5
648.88	160.5
649.085	178.5
649.289	174.5
649.494	169.5
649.698	178.5
649.903	171.5
650.107	170.5
650.312	165.5
650.516	156.5
650.721	171.5
650.925	141.5
651.13	157.5
651.334	146.5
651.539	169.5
651.743	147.5
651.947	171.5
652.152	150.5
652.356	153.5
652.56	150.5
652.764	150.5
652.969	158.5
653.173	142.5
653.377	140.5
653.581	147.5
653.785	137.5
653.99	134.5
654.194	138.5
654.398	150.5
654.602	148.5
654.806	142.5
655.01	148.5
655.214	140.5
655.418	131.5
655.622	127.5
655.826	130.5
656.03	126.5
656.234	140.5
656.438	123.5
656.642	117.5
656.846	131.5
657.049	123.5
657.253	128.5
657.457	106.5
657.661	126.5
657.865	112.5
658.068	118.5
658.272	102.5
658.476	112.5
658.68	106.5
658.883	99.5
659.087	104.5
659.291	97.5
659.494	104.5
659.698	93.5
659.901	111.5
660.105	86.5
660.309	98.5
660.512	98.5
660.716	96.5
660.919	90.5
661.123	92.5
661.326	103.5
661.53	91.5
661.733	69.5
661.936	91.5
662.14	93.5
662.343	91.5
662.546	91.5
662.75	84.5
662.953	96.5
663.156	87.5
663.36	82.5
663.563	88.5
663.766	81.5
663.969	88.5
664.173	83.5
664.376	81.5
664.579	83.5
664.782	85.5
664.985	88.5
665.188	81.5
665.391	81.5
665.594	87.5
665.797	85.5
666	94.5
666.203	85.5
666.406	75.5
666.609	80.5
666.812	93.5
667.015	87.5
667.218	71.5
667.421	84.5
667.624	83.5
667.827	95.5
668.03	78.5
668.232	79.5
668.435	77.5
668.638	90.5
668.841	84.5
669.043	92.5
669.246	82.5
669.449	71.5
669.651	84.5
669.854	93.5
670.057	60.5
670.259	77.5
670.462	84.5
670.665	74.5
670.867	80.5
671.07	83.5
671.272	79.5
671.475	87.5
671.677	90.5
671.88	77.5
672.082	86.5
672.284	96.5
672.487	72.5
672.689	78.5
672.892	79.5
