Data from 1971.PennyLincolnUp.Lamp.En5.5.200Scan.071719.P1._HRD10591_15-20-21-841.txt Node
Date: Thu Jul 18 15:20:21 EDT 2019
User: cochatt
Spectrometer: HR+D1059
Trigger mode: 1
Integration Time (sec): 1.000000E-1
Scans to average: 1
Electric dark correction enabled: true
Nonlinearity correction enabled: false
Boxcar width: 0
XAxis mode: Wavelengths
Number of Pixels in Spectrum: 2048
>>>>>Begin Spectral Data<<<<<
223.165	-27.56
223.4	-27.56
223.635	-27.56
223.869	-12.56
224.104	-12.56
224.338	-3.56
224.573	-1.56
224.808	-15.56
225.042	-6.56
225.277	-13.56
225.511	-2.56
225.746	11.44
225.98	5.44
226.215	8.44
226.449	6.44
226.683	15.44
226.918	12.44
227.152	36.44
227.387	45.44
227.621	34.44
227.856	31.44
228.09	44.44
228.324	43.44
228.559	53.44
228.793	73.44
229.027	115.44
229.262	91.44
229.496	116.44
229.73	151.44
229.964	131.44
230.199	106.44
230.433	112.44
230.667	105.44
230.901	115.44
231.136	129.44
231.37	123.44
231.604	109.44
231.838	119.44
232.072	118.44
232.306	90.44
232.541	118.44
232.775	113.44
233.009	118.44
233.243	122.44
233.477	130.44
233.711	112.44
233.945	105.44
234.179	108.44
234.413	125.44
234.647	121.44
234.881	110.44
235.115	104.44
235.349	124.44
235.583	117.44
235.817	123.44
236.051	125.44
236.285	118.44
236.519	130.44
236.753	137.44
236.987	137.44
237.221	175.44
237.455	229.44
237.689	189.44
237.922	148.44
238.156	140.44
238.39	129.44
238.624	139.44
238.858	123.44
239.091	136.44
239.325	119.44
239.559	132.44
239.793	114.44
240.027	127.44
240.26	142.44
240.494	158.44
240.728	157.44
240.961	148.44
241.195	149.44
241.429	132.44
241.662	139.44
241.896	141.44
242.13	129.44
242.363	139.44
242.597	127.44
242.83	151.44
243.064	139.44
243.298	133.44
243.531	147.44
243.765	127.44
243.998	140.44
244.232	133.44
244.465	147.44
244.699	150.44
244.932	146.44
245.166	156.44
245.399	161.44
245.633	155.44
245.866	149.44
246.099	143.44
246.333	155.44
246.566	154.44
246.8	159.44
247.033	179.44
247.266	173.44
247.5	181.44
247.733	188.44
247.966	165.44
248.2	174.44
248.433	181.44
248.666	171.44
248.899	204.44
249.133	203.44
249.366	210.44
249.599	213.44
249.832	188.44
250.066	185.44
250.299	193.44
250.532	206.44
250.765	211.44
250.998	216.44
251.231	225.44
251.465	228.44
251.698	209.44
251.931	191.44
252.164	211.44
252.397	197.44
252.63	207.44
252.863	213.44
253.096	219.44
253.329	226.44
253.562	228.44
253.795	223.44
254.028	233.44
254.261	229.44
254.494	257.44
254.727	265.44
254.96	297.44
255.193	292.44
255.426	236.44
255.659	245.44
255.892	233.44
256.124	234.44
256.357	220.44
256.59	237.44
256.823	221.44
257.056	226.44
257.289	210.44
257.521	225.44
257.754	221.44
257.987	229.44
258.22	236.44
258.452	222.44
258.685	220.44
258.918	206.44
259.151	221.44
259.383	238.44
259.616	225.44
259.849	216.44
260.081	253.44
260.314	265.44
260.547	260.44
260.779	261.44
261.012	245.44
261.244	238.44
261.477	232.44
261.71	241.44
261.942	238.44
262.175	250.44
262.407	250.44
262.64	213.44
262.872	213.44
263.105	223.44
263.337	224.44
263.57	208.44
263.802	211.44
264.035	240.44
264.267	235.44
264.499	225.44
264.732	220.44
264.964	214.44
265.197	250.44
265.429	207.44
265.661	216.44
265.894	231.44
266.126	224.44
266.358	234.44
266.591	221.44
266.823	236.44
267.055	246.44
267.287	248.44
267.52	249.44
267.752	228.44
267.984	242.44
268.216	235.44
268.448	237.44
268.681	257.44
268.913	255.44
269.145	271.44
269.377	286.44
269.609	292.44
269.841	306.44
270.073	285.44
270.306	319.44
270.538	325.44
270.77	332.44
271.002	309.44
271.234	312.44
271.466	310.44
271.698	344.44
271.93	343.44
272.162	337.44
272.394	336.44
272.626	341.44
272.858	314.44
273.09	307.44
273.322	295.44
273.553	293.44
273.785	273.44
274.017	283.44
274.249	290.44
274.481	271.44
274.713	279.44
274.945	285.44
275.176	284.44
275.408	285.44
275.64	281.44
275.872	264.44
276.104	291.44
276.335	290.44
276.567	288.44
276.799	310.44
277.031	315.44
277.262	349.44
277.494	339.44
277.726	325.44
277.957	295.44
278.189	300.44
278.421	277.44
278.652	287.44
278.884	308.44
279.115	301.44
279.347	282.44
279.579	282.44
279.81	271.44
280.042	267.44
280.273	282.44
280.505	287.44
280.736	306.44
280.968	273.44
281.199	292.44
281.431	269.44
281.662	293.44
281.894	287.44
282.125	290.44
282.356	300.44
282.588	313.44
282.819	328.44
283.051	281.44
283.282	289.44
283.513	284.44
283.745	288.44
283.976	274.44
284.207	296.44
284.439	282.44
284.67	290.44
284.901	303.44
285.132	279.44
285.364	292.44
285.595	292.44
285.826	291.44
286.057	302.44
286.288	307.44
286.52	302.44
286.751	295.44
286.982	298.44
287.213	309.44
287.444	305.44
287.675	287.44
287.906	314.44
288.138	302.44
288.369	327.44
288.6	324.44
288.831	329.44
289.062	301.44
289.293	313.44
289.524	297.44
289.755	286.44
289.986	307.44
290.217	298.44
290.448	315.44
290.679	301.44
290.91	317.44
291.141	314.44
291.371	311.44
291.602	302.44
291.833	294.44
292.064	293.44
292.295	291.44
292.526	302.44
292.757	296.44
292.987	311.44
293.218	294.44
293.449	306.44
293.68	329.44
293.91	312.44
294.141	307.44
294.372	298.44
294.603	306.44
294.833	304.44
295.064	313.44
295.295	308.44
295.525	309.44
295.756	315.44
295.987	303.44
296.217	341.44
296.448	336.44
296.679	302.44
296.909	307.44
297.14	323.44
297.37	309.44
297.601	321.44
297.831	321.44
298.062	311.44
298.292	326.44
298.523	333.44
298.753	326.44
298.984	321.44
299.214	341.44
299.445	316.44
299.675	334.44
299.905	331.44
300.136	312.44
300.366	335.44
300.597	319.44
300.827	328.44
301.057	344.44
301.288	346.44
301.518	335.44
301.748	346.44
301.979	327.44
302.209	333.44
302.439	347.44
302.669	326.44
302.9	333.44
303.13	340.44
303.36	321.44
303.59	345.44
303.82	349.44
304.051	343.44
304.281	342.44
304.511	347.44
304.741	331.44
304.971	354.44
305.201	336.44
305.431	334.44
305.661	321.44
305.891	323.44
306.121	339.44
306.352	335.44
306.582	361.44
306.812	346.44
307.042	353.44
307.272	355.44
307.502	364.44
307.731	359.44
307.961	355.44
308.191	350.44
308.421	362.44
308.651	355.44
308.881	350.44
309.111	353.44
309.341	355.44
309.571	365.44
309.8	358.44
310.03	373.44
310.26	368.44
310.49	376.44
310.72	404.44
310.949	411.44
311.179	397.44
311.409	399.44
311.639	386.44
311.868	395.44
312.098	379.44
312.328	413.44
312.557	416.44
312.787	412.44
313.017	424.44
313.246	390.44
313.476	399.44
313.706	370.44
313.935	393.44
314.165	418.44
314.394	413.44
314.624	413.44
314.853	418.44
315.083	411.44
315.312	381.44
315.542	411.44
315.771	397.44
316.001	369.44
316.23	387.44
316.46	381.44
316.689	397.44
316.919	390.44
317.148	413.44
317.377	409.44
317.607	411.44
317.836	377.44
318.065	382.44
318.295	409.44
318.524	377.44
318.753	386.44
318.983	383.44
319.212	397.44
319.441	405.44
319.67	389.44
319.9	390.44
320.129	379.44
320.358	395.44
320.587	400.44
320.816	396.44
321.046	419.44
321.275	423.44
321.504	422.44
321.733	411.44
321.962	453.44
322.191	430.44
322.42	427.44
322.649	447.44
322.878	463.44
323.108	483.44
323.337	493.44
323.566	499.44
323.795	541.44
324.024	598.44
324.253	725.44
324.482	997.44
324.71	1519.44
324.939	2042.44
325.168	1713.44
325.397	892.44
325.626	635.44
325.855	553.44
326.084	517.44
326.313	502.44
326.542	502.44
326.77	566.44
326.999	664.44
327.228	893.44
327.457	1303.44
327.686	1555.44
327.914	1026.44
328.143	677.44
328.372	609.44
328.6	590.44
328.829	558.44
329.058	579.44
329.287	567.44
329.515	538.44
329.744	507.44
329.972	502.44
330.201	539.44
330.43	604.44
330.658	601.44
330.887	611.44
331.115	601.44
331.344	524.44
331.572	479.44
331.801	488.44
332.03	493.44
332.258	464.44
332.486	474.44
332.715	442.44
332.943	444.44
333.172	465.44
333.4	459.44
333.629	475.44
333.857	484.44
334.085	477.44
334.314	493.44
334.542	507.44
334.771	501.44
334.999	489.44
335.227	458.44
335.455	466.44
335.684	473.44
335.912	462.44
336.14	447.44
336.369	453.44
336.597	463.44
336.825	439.44
337.053	455.44
337.281	443.44
337.51	427.44
337.738	437.44
337.966	443.44
338.194	436.44
338.422	465.44
338.65	449.44
338.878	414.44
339.106	411.44
339.334	410.44
339.562	445.44
339.79	409.44
340.018	435.44
340.246	437.44
340.474	417.44
340.702	424.44
340.93	399.44
341.158	412.44
341.386	418.44
341.614	427.44
341.842	426.44
342.07	433.44
342.298	431.44
342.526	420.44
342.754	425.44
342.981	420.44
343.209	414.44
343.437	425.44
343.665	410.44
343.893	441.44
344.12	425.44
344.348	431.44
344.576	435.44
344.804	454.44
345.031	434.44
345.259	422.44
345.487	431.44
345.714	411.44
345.942	430.44
346.17	404.44
346.397	434.44
346.625	424.44
346.853	418.44
347.08	421.44
347.308	424.44
347.535	403.44
347.763	418.44
347.99	423.44
348.218	424.44
348.445	421.44
348.673	409.44
348.9	403.44
349.128	418.44
349.355	382.44
349.583	403.44
349.81	389.44
350.037	382.44
350.265	407.44
350.492	397.44
350.72	404.44
350.947	407.44
351.174	396.44
351.402	407.44
351.629	407.44
351.856	393.44
352.083	406.44
352.311	411.44
352.538	412.44
352.765	423.44
352.992	425.44
353.22	398.44
353.447	398.44
353.674	407.44
353.901	399.44
354.128	387.44
354.355	389.44
354.583	383.44
354.81	363.44
355.037	349.44
355.264	380.44
355.491	377.44
355.718	375.44
355.945	394.44
356.172	383.44
356.399	374.44
356.626	366.44
356.853	369.44
357.08	371.44
357.307	364.44
357.534	361.44
357.761	377.44
357.988	379.44
358.215	377.44
358.441	361.44
358.668	359.44
358.895	373.44
359.122	390.44
359.349	389.44
359.576	389.44
359.802	430.44
360.029	457.44
360.256	426.44
360.483	425.44
360.709	405.44
360.936	391.44
361.163	409.44
361.39	393.44
361.616	410.44
361.843	397.44
362.07	401.44
362.296	389.44
362.523	393.44
362.749	388.44
362.976	377.44
363.203	397.44
363.429	367.44
363.656	390.44
363.882	358.44
364.109	377.44
364.335	385.44
364.562	371.44
364.788	378.44
365.015	371.44
365.241	361.44
365.468	378.44
365.694	372.44
365.92	377.44
366.147	374.44
366.373	387.44
366.599	381.44
366.826	372.44
367.052	377.44
367.278	366.44
367.505	351.44
367.731	367.44
367.957	393.44
368.184	377.44
368.41	374.44
368.636	385.44
368.862	391.44
369.089	368.44
369.315	377.44
369.541	372.44
369.767	377.44
369.993	377.44
370.219	349.44
370.445	374.44
370.672	401.44
370.898	366.44
371.124	355.44
371.35	357.44
371.576	380.44
371.802	347.44
372.028	377.44
372.254	364.44
372.48	369.44
372.706	369.44
372.932	345.44
373.158	379.44
373.384	343.44
373.61	360.44
373.835	366.44
374.061	383.44
374.287	376.44
374.513	354.44
374.739	378.44
374.965	392.44
375.191	375.44
375.416	362.44
375.642	347.44
375.868	365.44
376.094	373.44
376.319	357.44
376.545	383.44
376.771	373.44
376.997	357.44
377.222	354.44
377.448	361.44
377.674	348.44
377.899	363.44
378.125	369.44
378.35	360.44
378.576	368.44
378.802	350.44
379.027	343.44
379.253	372.44
379.478	334.44
379.704	345.44
379.929	379.44
380.155	361.44
380.38	380.44
380.606	354.44
380.831	351.44
381.057	362.44
381.282	355.44
381.507	374.44
381.733	350.44
381.958	349.44
382.184	355.44
382.409	374.44
382.634	370.44
382.86	357.44
383.085	358.44
383.31	379.44
383.535	383.44
383.761	381.44
383.986	366.44
384.211	363.44
384.436	362.44
384.662	387.44
384.887	376.44
385.112	387.44
385.337	386.44
385.562	383.44
385.787	358.44
386.013	387.44
386.238	389.44
386.463	409.44
386.688	409.44
386.913	383.44
387.138	386.44
387.363	382.44
387.588	363.44
387.813	381.44
388.038	373.44
388.263	388.44
388.488	367.44
388.713	387.44
388.938	382.44
389.163	366.44
389.387	377.44
389.612	379.44
389.837	370.44
390.062	380.44
390.287	380.44
390.512	342.44
390.736	373.44
390.961	389.44
391.186	378.44
391.411	379.44
391.636	382.44
391.86	398.44
392.085	377.44
392.31	381.44
392.534	371.44
392.759	370.44
392.984	387.44
393.208	405.44
393.433	385.44
393.658	386.44
393.882	385.44
394.107	382.44
394.331	401.44
394.556	381.44
394.78	389.44
395.005	379.44
395.229	389.44
395.454	394.44
395.678	374.44
395.903	392.44
396.127	419.44
396.352	418.44
396.576	389.44
396.801	385.44
397.025	394.44
397.249	401.44
397.474	393.44
397.698	396.44
397.922	416.44
398.147	438.44
398.371	407.44
398.595	443.44
398.82	406.44
399.044	428.44
399.268	427.44
399.492	443.44
399.717	472.44
399.941	495.44
400.165	512.44
400.389	510.44
400.613	457.44
400.837	455.44
401.062	442.44
401.286	424.44
401.51	404.44
401.734	414.44
401.958	422.44
402.182	422.44
402.406	442.44
402.63	443.44
402.854	430.44
403.078	429.44
403.302	451.44
403.526	439.44
403.75	440.44
403.974	423.44
404.198	433.44
404.422	421.44
404.645	450.44
404.869	428.44
405.093	459.44
405.317	521.44
405.541	527.44
405.765	481.44
405.988	455.44
406.212	459.44
406.436	484.44
406.66	483.44
406.883	474.44
407.107	474.44
407.331	522.44
407.555	587.44
407.778	586.44
408.002	503.44
408.226	490.44
408.449	477.44
408.673	481.44
408.896	495.44
409.12	537.44
409.344	490.44
409.567	462.44
409.791	443.44
410.014	443.44
410.238	450.44
410.461	429.44
410.685	424.44
410.908	450.44
411.132	501.44
411.355	523.44
411.578	471.44
411.802	444.44
412.025	421.44
412.249	435.44
412.472	469.44
412.695	476.44
412.919	481.44
413.142	460.44
413.365	447.44
413.589	448.44
413.812	408.44
414.035	411.44
414.258	415.44
414.482	388.44
414.705	400.44
414.928	403.44
415.151	437.44
415.374	419.44
415.597	418.44
415.821	419.44
416.044	423.44
416.267	415.44
416.49	410.44
416.713	405.44
416.936	407.44
417.159	404.44
417.382	433.44
417.605	422.44
417.828	419.44
418.051	437.44
418.274	411.44
418.497	398.44
418.72	417.44
418.943	405.44
419.166	424.44
419.389	449.44
419.611	450.44
419.834	448.44
420.057	415.44
420.28	426.44
420.503	423.44
420.726	433.44
420.948	437.44
421.171	481.44
421.394	513.44
421.617	449.44
421.839	406.44
422.062	420.44
422.285	462.44
422.507	518.44
422.73	552.44
422.953	515.44
423.175	489.44
423.398	460.44
423.621	429.44
423.843	477.44
424.066	453.44
424.288	489.44
424.511	494.44
424.733	525.44
424.956	595.44
425.178	559.44
425.401	555.44
425.623	589.44
425.846	487.44
426.068	463.44
426.291	446.44
426.513	469.44
426.735	463.44
426.958	495.44
427.18	564.44
427.402	667.44
427.625	727.44
427.847	658.44
428.069	565.44
428.292	501.44
428.514	465.44
428.736	423.44
428.958	431.44
429.181	426.44
429.403	438.44
429.625	449.44
429.847	469.44
430.069	511.44
430.292	530.44
430.514	446.44
430.736	440.44
430.958	416.44
431.18	406.44
431.402	399.44
431.624	396.44
431.846	401.44
432.068	402.44
432.29	398.44
432.512	394.44
432.734	414.44
432.956	402.44
433.178	394.44
433.4	423.44
433.622	397.44
433.844	389.44
434.066	420.44
434.287	406.44
434.509	401.44
434.731	401.44
434.953	426.44
435.175	433.44
435.397	447.44
435.618	454.44
435.84	486.44
436.062	556.44
436.284	629.44
436.505	537.44
436.727	473.44
436.949	438.44
437.17	416.44
437.392	423.44
437.614	437.44
437.835	478.44
438.057	558.44
438.278	642.44
438.5	625.44
438.721	671.44
438.943	648.44
439.165	547.44
439.386	478.44
439.608	440.44
439.829	481.44
440.05	511.44
440.272	542.44
440.493	517.44
440.715	474.44
440.936	454.44
441.158	414.44
441.379	437.44
441.6	440.44
441.822	456.44
442.043	477.44
442.264	559.44
442.486	593.44
442.707	513.44
442.928	486.44
443.149	479.44
443.371	521.44
443.592	549.44
443.813	600.44
444.034	647.44
444.255	539.44
444.476	486.44
444.698	473.44
444.919	467.44
445.14	538.44
445.361	497.44
445.582	516.44
445.803	558.44
446.024	622.44
446.245	652.44
446.466	575.44
446.687	511.44
446.908	470.44
447.129	454.44
447.35	451.44
447.571	439.44
447.792	404.44
448.013	426.44
448.234	463.44
448.455	504.44
448.675	586.44
448.896	666.44
449.117	587.44
449.338	559.44
449.559	626.44
449.779	706.44
450	569.44
450.221	464.44
450.442	434.44
450.662	428.44
450.883	426.44
451.104	456.44
451.324	422.44
451.545	409.44
451.766	417.44
451.986	375.44
452.207	385.44
452.428	379.44
452.648	361.44
452.869	381.44
453.089	383.44
453.31	395.44
453.53	381.44
453.751	361.44
453.971	387.44
454.192	401.44
454.412	389.44
454.633	371.44
454.853	363.44
455.073	392.44
455.294	391.44
455.514	435.44
455.734	424.44
455.955	380.44
456.175	347.44
456.395	362.44
456.616	350.44
456.836	347.44
457.056	354.44
457.276	352.44
457.497	356.44
457.717	346.44
457.937	367.44
458.157	362.44
458.377	367.44
458.598	380.44
458.818	443.44
459.038	484.44
459.258	481.44
459.478	425.44
459.698	398.44
459.918	382.44
460.138	395.44
460.358	381.44
460.578	395.44
460.798	393.44
461.018	382.44
461.238	395.44
461.458	414.44
461.678	395.44
461.898	386.44
462.118	401.44
462.338	387.44
462.558	405.44
462.777	410.44
462.997	424.44
463.217	419.44
463.437	418.44
463.657	416.44
463.876	416.44
464.096	415.44
464.316	410.44
464.536	441.44
464.755	418.44
464.975	420.44
465.195	483.44
465.414	499.44
465.634	462.44
465.854	403.44
466.073	398.44
466.293	393.44
466.512	395.44
466.732	381.44
466.951	385.44
467.171	374.44
467.391	386.44
467.61	399.44
467.829	381.44
468.049	390.44
468.268	381.44
468.488	390.44
468.707	396.44
468.927	372.44
469.146	341.44
469.365	365.44
469.585	386.44
469.804	373.44
470.023	385.44
470.243	398.44
470.462	387.44
470.681	405.44
470.901	390.44
471.12	411.44
471.339	426.44
471.558	395.44
471.777	386.44
471.997	389.44
472.216	393.44
472.435	421.44
472.654	401.44
472.873	377.44
473.092	378.44
473.311	387.44
473.53	385.44
473.749	375.44
473.968	407.44
474.187	521.44
474.406	549.44
474.625	454.44
474.844	398.44
475.063	385.44
475.282	378.44
475.501	409.44
475.72	401.44
475.939	388.44
476.158	394.44
476.377	411.44
476.596	408.44
476.814	393.44
477.033	406.44
477.252	410.44
477.471	419.44
477.69	410.44
477.908	425.44
478.127	417.44
478.346	430.44
478.564	446.44
478.783	443.44
479.002	430.44
479.22	419.44
479.439	434.44
479.658	449.44
479.876	469.44
480.095	479.44
480.313	485.44
480.532	475.44
480.751	484.44
480.969	486.44
481.188	502.44
481.406	532.44
481.624	469.44
481.843	459.44
482.061	464.44
482.28	446.44
482.498	441.44
482.717	462.44
482.935	430.44
483.153	443.44
483.372	433.44
483.59	458.44
483.808	445.44
484.027	449.44
484.245	449.44
484.463	473.44
484.681	469.44
484.9	472.44
485.118	458.44
485.336	470.44
485.554	456.44
485.772	454.44
485.99	472.44
486.209	474.44
486.427	451.44
486.645	484.44
486.863	501.44
487.081	494.44
487.299	489.44
487.517	508.44
487.735	491.44
487.953	513.44
488.171	501.44
488.389	469.44
488.607	475.44
488.825	487.44
489.043	485.44
489.261	486.44
489.479	486.44
489.696	495.44
489.914	506.44
490.132	499.44
490.35	468.44
490.568	525.44
490.786	523.44
491.003	530.44
491.221	543.44
491.439	536.44
491.657	534.44
491.874	562.44
492.092	565.44
492.31	597.44
492.527	588.44
492.745	553.44
492.963	569.44
493.18	539.44
493.398	564.44
493.615	588.44
493.833	557.44
494.05	551.44
494.268	578.44
494.485	553.44
494.703	579.44
494.92	575.44
495.138	585.44
495.355	568.44
495.573	592.44
495.79	578.44
496.008	578.44
496.225	566.44
496.442	577.44
496.66	578.44
496.877	567.44
497.094	564.44
497.312	573.44
497.529	597.44
497.746	597.44
497.963	601.44
498.181	624.44
498.398	608.44
498.615	630.44
498.832	627.44
499.049	638.44
499.267	643.44
499.484	664.44
499.701	679.44
499.918	712.44
500.135	729.44
500.352	753.44
500.569	715.44
500.786	755.44
501.003	729.44
501.22	733.44
501.437	749.44
501.654	684.44
501.871	699.44
502.088	683.44
502.305	665.44
502.522	643.44
502.739	644.44
502.956	591.44
503.172	594.44
503.389	618.44
503.606	605.44
503.823	602.44
504.04	578.44
504.256	571.44
504.473	574.44
504.69	549.44
504.907	596.44
505.123	565.44
505.34	555.44
505.557	554.44
505.773	554.44
505.99	555.44
506.207	546.44
506.423	563.44
506.64	531.44
506.856	548.44
507.073	541.44
507.289	531.44
507.506	548.44
507.722	532.44
507.939	565.44
508.155	525.44
508.372	529.44
508.588	538.44
508.805	524.44
509.021	536.44
509.238	543.44
509.454	528.44
509.67	531.44
509.887	521.44
510.103	516.44
510.319	523.44
510.536	583.44
510.752	920.44
510.968	737.44
511.184	517.44
511.401	500.44
511.617	485.44
511.833	482.44
512.049	499.44
512.265	479.44
512.481	492.44
512.698	490.44
512.914	484.44
513.13	466.44
513.346	474.44
513.562	490.44
513.778	478.44
513.994	489.44
514.21	501.44
514.426	515.44
514.642	547.44
514.858	564.44
515.074	580.44
515.29	689.44
515.506	959.44
515.721	784.44
515.937	581.44
516.153	543.44
516.369	529.44
516.585	509.44
516.801	505.44
517.016	510.44
517.232	504.44
517.448	489.44
517.664	520.44
517.879	489.44
518.095	508.44
518.311	503.44
518.527	498.44
518.742	482.44
518.958	479.44
519.173	513.44
519.389	474.44
519.605	483.44
519.82	500.44
520.036	487.44
520.251	515.44
520.467	569.44
520.682	534.44
520.898	543.44
521.113	543.44
521.329	565.44
521.544	638.44
521.76	826.44
521.975	1213.44
522.19	1180.44
522.406	692.44
522.621	536.44
522.836	488.44
523.052	484.44
523.267	459.44
523.482	454.44
523.698	443.44
523.913	460.44
524.128	449.44
524.343	435.44
524.559	450.44
524.774	428.44
524.989	417.44
525.204	432.44
525.419	433.44
525.634	393.44
525.849	422.44
526.064	410.44
526.28	413.44
526.495	389.44
526.71	405.44
526.925	414.44
527.14	392.44
527.355	409.44
527.57	409.44
527.785	390.44
527.999	380.44
528.214	403.44
528.429	398.44
528.644	401.44
528.859	409.44
529.074	399.44
529.289	427.44
529.503	475.44
529.718	476.44
529.933	434.44
530.148	401.44
530.363	389.44
530.577	400.44
530.792	398.44
531.007	405.44
531.221	391.44
531.436	386.44
531.651	396.44
531.865	385.44
532.08	377.44
532.295	386.44
532.509	382.44
532.724	380.44
532.938	376.44
533.153	387.44
533.367	367.44
533.582	377.44
533.796	379.44
534.011	381.44
534.225	380.44
534.44	373.44
534.654	370.44
534.868	369.44
535.083	369.44
535.297	382.44
535.511	395.44
535.726	379.44
535.94	375.44
536.154	399.44
536.369	374.44
536.583	354.44
536.797	380.44
537.011	373.44
537.225	377.44
537.44	375.44
537.654	378.44
537.868	332.44
538.082	357.44
538.296	359.44
538.51	375.44
538.724	349.44
538.938	367.44
539.153	373.44
539.367	371.44
539.581	359.44
539.795	376.44
540.009	375.44
540.222	359.44
540.436	377.44
540.65	361.44
540.864	373.44
541.078	386.44
541.292	399.44
541.506	380.44
541.72	388.44
541.934	386.44
542.147	372.44
542.361	369.44
542.575	351.44
542.789	372.44
543.002	362.44
543.216	375.44
543.43	376.44
543.644	358.44
543.857	389.44
544.071	377.44
544.285	390.44
544.498	395.44
544.712	387.44
544.925	371.44
545.139	386.44
545.352	372.44
545.566	376.44
545.779	361.44
545.993	362.44
546.206	380.44
546.42	385.44
546.633	382.44
546.847	389.44
547.06	371.44
547.274	363.44
547.487	358.44
547.7	359.44
547.914	357.44
548.127	360.44
548.34	355.44
548.554	342.44
548.767	364.44
548.98	365.44
549.193	356.44
549.407	335.44
549.62	359.44
549.833	353.44
550.046	347.44
550.259	349.44
550.473	333.44
550.686	354.44
550.899	339.44
551.112	344.44
551.325	357.44
551.538	347.44
551.751	340.44
551.964	342.44
552.177	346.44
552.39	337.44
552.603	367.44
552.816	344.44
553.029	349.44
553.242	337.44
553.455	359.44
553.667	345.44
553.88	358.44
554.093	372.44
554.306	365.44
554.519	380.44
554.732	357.44
554.944	349.44
555.157	357.44
555.37	340.44
555.583	348.44
555.795	347.44
556.008	324.44
556.221	326.44
556.433	329.44
556.646	321.44
556.859	338.44
557.071	334.44
557.284	317.44
557.496	313.44
557.709	316.44
557.921	328.44
558.134	328.44
558.346	319.44
558.559	333.44
558.771	319.44
558.984	319.44
559.196	330.44
559.409	322.44
559.621	335.44
559.833	312.44
560.046	312.44
560.258	324.44
560.47	325.44
560.683	316.44
560.895	298.44
561.107	312.44
561.32	316.44
561.532	313.44
561.744	318.44
561.956	312.44
562.168	318.44
562.381	292.44
562.593	312.44
562.805	328.44
563.017	318.44
563.229	305.44
563.441	309.44
563.653	309.44
563.865	311.44
564.077	299.44
564.289	322.44
564.501	316.44
564.713	318.44
564.925	330.44
565.137	330.44
565.349	325.44
565.561	328.44
565.773	327.44
565.985	303.44
566.197	336.44
566.408	341.44
566.62	349.44
566.832	374.44
567.044	348.44
567.255	375.44
567.467	369.44
567.679	364.44
567.891	371.44
568.102	366.44
568.314	347.44
568.526	360.44
568.737	335.44
568.949	336.44
569.161	335.44
569.372	328.44
569.584	324.44
569.795	310.44
570.007	311.44
570.218	346.44
570.43	333.44
570.641	293.44
570.853	308.44
571.064	277.44
571.276	285.44
571.487	293.44
571.698	285.44
571.91	286.44
572.121	282.44
572.333	267.44
572.544	281.44
572.755	277.44
572.966	261.44
573.178	278.44
573.389	269.44
573.6	261.44
573.811	258.44
574.023	257.44
574.234	264.44
574.445	265.44
574.656	267.44
574.867	265.44
575.078	275.44
575.289	280.44
575.501	248.44
575.712	270.44
575.923	256.44
576.134	273.44
576.345	270.44
576.556	281.44
576.767	255.44
576.978	278.44
577.188	253.44
577.399	247.44
577.61	250.44
577.821	256.44
578.032	266.44
578.243	277.44
578.454	435.44
578.665	331.44
578.875	263.44
579.086	260.44
579.297	261.44
579.508	251.44
579.718	257.44
579.929	257.44
580.14	252.44
580.35	235.44
580.561	232.44
580.772	241.44
580.982	262.44
581.193	242.44
581.403	251.44
581.614	240.44
581.825	251.44
582.035	224.44
582.246	236.44
582.456	246.44
582.667	242.44
582.877	244.44
583.087	254.44
583.298	238.44
583.508	239.44
583.719	233.44
583.929	235.44
584.139	233.44
584.35	255.44
584.56	228.44
584.77	233.44
584.981	242.44
585.191	257.44
585.401	234.44
585.611	222.44
585.821	223.44
586.032	232.44
586.242	229.44
586.452	252.44
586.662	241.44
586.872	233.44
587.082	236.44
587.292	234.44
587.502	247.44
587.713	248.44
587.923	235.44
588.133	239.44
588.343	238.44
588.553	247.44
588.762	234.44
588.972	240.44
589.182	218.44
589.392	236.44
589.602	224.44
589.812	230.44
590.022	234.44
590.232	221.44
590.441	226.44
590.651	234.44
590.861	218.44
591.071	221.44
591.281	241.44
591.49	226.44
591.7	234.44
591.91	239.44
592.119	230.44
592.329	234.44
592.539	239.44
592.748	253.44
592.958	252.44
593.167	239.44
593.377	252.44
593.587	266.44
593.796	245.44
594.006	224.44
594.215	248.44
594.424	234.44
594.634	246.44
594.843	241.44
595.053	215.44
595.262	233.44
595.472	228.44
595.681	222.44
595.89	235.44
596.1	234.44
596.309	226.44
596.518	228.44
596.727	229.44
596.937	219.44
597.146	209.44
597.355	207.44
597.564	220.44
597.774	219.44
597.983	219.44
598.192	202.44
598.401	199.44
598.61	204.44
598.819	230.44
599.028	212.44
599.237	213.44
599.446	204.44
599.655	211.44
599.864	211.44
600.073	217.44
600.282	217.44
600.491	204.44
600.7	193.44
600.909	217.44
601.118	198.44
601.327	201.44
601.536	208.44
601.745	212.44
601.953	203.44
602.162	211.44
602.371	191.44
602.58	208.44
602.789	206.44
602.997	211.44
603.206	210.44
603.415	221.44
603.623	221.44
603.832	205.44
604.041	203.44
604.249	191.44
604.458	211.44
604.666	201.44
604.875	212.44
605.084	187.44
605.292	184.44
605.501	205.44
605.709	204.44
605.918	211.44
606.126	200.44
606.334	195.44
606.543	202.44
606.751	206.44
606.96	203.44
607.168	206.44
607.376	211.44
607.585	205.44
607.793	206.44
608.001	207.44
608.21	196.44
608.418	208.44
608.626	215.44
608.834	196.44
609.043	190.44
609.251	209.44
609.459	203.44
609.667	209.44
609.875	197.44
610.083	202.44
610.291	210.44
610.499	190.44
610.707	200.44
610.916	210.44
611.124	199.44
611.332	186.44
611.54	187.44
611.748	211.44
611.955	225.44
612.163	220.44
612.371	213.44
612.579	217.44
612.787	197.44
612.995	211.44
613.203	208.44
613.411	199.44
613.618	190.44
613.826	195.44
614.034	220.44
614.242	192.44
614.449	217.44
614.657	208.44
614.865	197.44
615.072	194.44
615.28	204.44
615.488	189.44
615.695	206.44
615.903	214.44
616.111	213.44
616.318	198.44
616.526	203.44
616.733	215.44
616.941	179.44
617.148	212.44
617.356	196.44
617.563	185.44
617.771	208.44
617.978	186.44
618.185	208.44
618.393	199.44
618.6	182.44
618.807	207.44
619.015	191.44
619.222	209.44
619.429	206.44
619.637	199.44
619.844	185.44
620.051	179.44
620.258	198.44
620.466	189.44
620.673	183.44
620.88	190.44
621.087	191.44
621.294	196.44
621.501	205.44
621.708	185.44
621.915	197.44
622.122	182.44
622.329	195.44
622.536	188.44
622.743	190.44
622.95	180.44
623.157	184.44
623.364	189.44
623.571	196.44
623.778	171.44
623.985	170.44
624.192	182.44
624.399	188.44
624.606	192.44
624.812	195.44
625.019	180.44
625.226	184.44
625.433	177.44
625.639	175.44
625.846	180.44
626.053	181.44
626.259	180.44
626.466	179.44
626.673	177.44
626.879	167.44
627.086	176.44
627.293	179.44
627.499	174.44
627.706	165.44
627.912	174.44
628.119	166.44
628.325	186.44
628.532	180.44
628.738	192.44
628.945	180.44
629.151	177.44
629.357	171.44
629.564	168.44
629.77	165.44
629.976	174.44
630.183	164.44
630.389	153.44
630.595	161.44
630.802	166.44
631.008	166.44
631.214	169.44
631.42	167.44
631.627	179.44
631.833	183.44
632.039	162.44
632.245	165.44
632.451	165.44
632.657	169.44
632.863	161.44
633.069	169.44
633.275	178.44
633.481	148.44
633.688	169.44
633.893	160.44
634.099	159.44
634.305	160.44
634.511	159.44
634.717	160.44
634.923	156.44
635.129	149.44
635.335	157.44
635.541	175.44
635.747	165.44
635.952	152.44
636.158	160.44
636.364	156.44
636.57	168.44
636.775	163.44
636.981	166.44
637.187	169.44
637.392	171.44
637.598	161.44
637.804	161.44
638.009	163.44
638.215	146.44
638.421	144.44
638.626	157.44
638.832	156.44
639.037	162.44
639.243	174.44
639.448	168.44
639.654	159.44
639.859	138.44
640.065	150.44
640.27	149.44
640.475	150.44
640.681	154.44
640.886	163.44
641.091	158.44
641.297	143.44
641.502	166.44
641.707	172.44
641.913	156.44
642.118	149.44
642.323	168.44
642.528	154.44
642.733	142.44
642.939	153.44
643.144	144.44
643.349	154.44
643.554	156.44
643.759	152.44
643.964	158.44
644.169	128.44
644.374	150.44
644.579	144.44
644.784	143.44
644.989	148.44
645.194	161.44
645.399	158.44
645.604	159.44
645.809	140.44
646.014	151.44
646.219	129.44
646.423	151.44
646.628	156.44
646.833	150.44
647.038	140.44
647.243	160.44
647.447	154.44
647.652	163.44
647.857	157.44
648.062	141.44
648.266	145.44
648.471	152.44
648.676	147.44
648.88	129.44
649.085	141.44
649.289	154.44
649.494	146.44
649.698	166.44
649.903	171.44
650.107	135.44
650.312	144.44
650.516	131.44
650.721	144.44
650.925	145.44
651.13	150.44
651.334	141.44
651.539	149.44
651.743	140.44
651.947	140.44
652.152	129.44
652.356	139.44
652.56	128.44
652.764	126.44
652.969	130.44
653.173	134.44
653.377	139.44
653.581	133.44
653.785	124.44
653.99	138.44
654.194	122.44
654.398	129.44
654.602	107.44
654.806	127.44
655.01	134.44
655.214	127.44
655.418	137.44
655.622	124.44
655.826	125.44
656.03	122.44
656.234	131.44
656.438	132.44
656.642	123.44
656.846	110.44
657.049	131.44
657.253	137.44
657.457	110.44
657.661	104.44
657.865	116.44
658.068	114.44
658.272	115.44
658.476	119.44
658.68	91.44
658.883	96.44
659.087	115.44
659.291	97.44
659.494	102.44
659.698	93.44
659.901	89.44
660.105	111.44
660.309	115.44
660.512	84.44
660.716	89.44
660.919	86.44
661.123	84.44
661.326	89.44
661.53	86.44
661.733	97.44
661.936	103.44
662.14	94.44
662.343	89.44
662.546	85.44
662.75	84.44
662.953	109.44
663.156	84.44
663.36	89.44
663.563	75.44
663.766	91.44
663.969	84.44
664.173	89.44
664.376	76.44
664.579	73.44
664.782	76.44
664.985	88.44
665.188	75.44
665.391	71.44
665.594	73.44
665.797	77.44
666	94.44
666.203	81.44
666.406	83.44
666.609	85.44
666.812	79.44
667.015	92.44
667.218	95.44
667.421	90.44
667.624	79.44
667.827	78.44
668.03	93.44
668.232	69.44
668.435	86.44
668.638	84.44
668.841	77.44
669.043	80.44
669.246	91.44
669.449	85.44
669.651	74.44
669.854	77.44
670.057	86.44
670.259	91.44
670.462	75.44
670.665	85.44
670.867	89.44
671.07	77.44
671.272	72.44
671.475	73.44
671.677	81.44
671.88	72.44
672.082	66.44
672.284	79.44
672.487	91.44
672.689	77.44
672.892	99.44
