Data from 1971.PennyLincolnUp.Lamp.En5.5.200Scan.071719.P1.Scan 2. Changed Angle._HRD10591_15-24-16-843.txt Node
Date: Thu Jul 18 15:24:16 EDT 2019
User: cochatt
Spectrometer: HR+D1059
Trigger mode: 1
Integration Time (sec): 1.000000E-1
Scans to average: 1
Electric dark correction enabled: true
Nonlinearity correction enabled: false
Boxcar width: 0
XAxis mode: Wavelengths
Number of Pixels in Spectrum: 2048
>>>>>Begin Spectral Data<<<<<
223.165	-16.38
223.4	-16.38
223.635	-16.38
223.869	-23.38
224.104	-17.38
224.338	-19.38
224.573	-18.38
224.808	-20.38
225.042	-3.38
225.277	-10.38
225.511	2.62
225.746	-3.38
225.98	9.62
226.215	12.62
226.449	7.62
226.683	14.62
226.918	49.62
227.152	35.62
227.387	40.62
227.621	46.62
227.856	49.62
228.09	49.62
228.324	55.62
228.559	46.62
228.793	80.62
229.027	108.62
229.262	119.62
229.496	119.62
229.73	158.62
229.964	185.62
230.199	148.62
230.433	123.62
230.667	122.62
230.901	135.62
231.136	118.62
231.37	130.62
231.604	129.62
231.838	121.62
232.072	120.62
232.306	120.62
232.541	114.62
232.775	129.62
233.009	123.62
233.243	140.62
233.477	124.62
233.711	124.62
233.945	127.62
234.179	123.62
234.413	124.62
234.647	117.62
234.881	122.62
235.115	123.62
235.349	127.62
235.583	133.62
235.817	122.62
236.051	142.62
236.285	143.62
236.519	123.62
236.753	144.62
236.987	162.62
237.221	195.62
237.455	279.62
237.689	217.62
237.922	149.62
238.156	158.62
238.39	149.62
238.624	142.62
238.858	134.62
239.091	134.62
239.325	133.62
239.559	142.62
239.793	131.62
240.027	143.62
240.26	154.62
240.494	159.62
240.728	158.62
240.961	169.62
241.195	161.62
241.429	143.62
241.662	135.62
241.896	145.62
242.13	147.62
242.363	133.62
242.597	141.62
242.83	146.62
243.064	155.62
243.298	147.62
243.531	144.62
243.765	147.62
243.998	157.62
244.232	149.62
244.465	161.62
244.699	172.62
244.932	151.62
245.166	154.62
245.399	162.62
245.633	162.62
245.866	157.62
246.099	169.62
246.333	155.62
246.566	157.62
246.8	167.62
247.033	166.62
247.266	163.62
247.5	174.62
247.733	196.62
247.966	190.62
248.2	167.62
248.433	190.62
248.666	191.62
248.899	193.62
249.133	215.62
249.366	215.62
249.599	212.62
249.832	198.62
250.066	204.62
250.299	184.62
250.532	217.62
250.765	234.62
250.998	244.62
251.231	251.62
251.465	237.62
251.698	223.62
251.931	222.62
252.164	232.62
252.397	215.62
252.63	225.62
252.863	220.62
253.096	235.62
253.329	257.62
253.562	254.62
253.795	261.62
254.028	236.62
254.261	250.62
254.494	252.62
254.727	280.62
254.96	329.62
255.193	309.62
255.426	270.62
255.659	283.62
255.892	246.62
256.124	259.62
256.357	250.62
256.59	246.62
256.823	254.62
257.056	208.62
257.289	223.62
257.521	217.62
257.754	230.62
257.987	221.62
258.22	210.62
258.452	215.62
258.685	212.62
258.918	223.62
259.151	237.62
259.383	252.62
259.616	238.62
259.849	261.62
260.081	243.62
260.314	268.62
260.547	298.62
260.779	264.62
261.012	248.62
261.244	247.62
261.477	226.62
261.71	215.62
261.942	248.62
262.175	246.62
262.407	245.62
262.64	221.62
262.872	236.62
263.105	202.62
263.337	236.62
263.57	233.62
263.802	234.62
264.035	220.62
264.267	206.62
264.499	215.62
264.732	211.62
264.964	222.62
265.197	222.62
265.429	198.62
265.661	216.62
265.894	221.62
266.126	225.62
266.358	222.62
266.591	203.62
266.823	214.62
267.055	226.62
267.287	223.62
267.52	246.62
267.752	229.62
267.984	225.62
268.216	235.62
268.448	237.62
268.681	236.62
268.913	261.62
269.145	265.62
269.377	283.62
269.609	291.62
269.841	297.62
270.073	292.62
270.306	309.62
270.538	339.62
270.77	330.62
271.002	323.62
271.234	307.62
271.466	330.62
271.698	319.62
271.93	347.62
272.162	339.62
272.394	348.62
272.626	350.62
272.858	306.62
273.09	294.62
273.322	294.62
273.553	260.62
273.785	283.62
274.017	271.62
274.249	275.62
274.481	270.62
274.713	275.62
274.945	266.62
275.176	274.62
275.408	281.62
275.64	267.62
275.872	266.62
276.104	249.62
276.335	273.62
276.567	282.62
276.799	314.62
277.031	308.62
277.262	324.62
277.494	340.62
277.726	333.62
277.957	311.62
278.189	287.62
278.421	275.62
278.652	271.62
278.884	285.62
279.115	274.62
279.347	243.62
279.579	261.62
279.81	255.62
280.042	257.62
280.273	265.62
280.505	253.62
280.736	248.62
280.968	260.62
281.199	274.62
281.431	262.62
281.662	253.62
281.894	289.62
282.125	275.62
282.356	297.62
282.588	317.62
282.819	311.62
283.051	277.62
283.282	274.62
283.513	295.62
283.745	280.62
283.976	278.62
284.207	268.62
284.439	292.62
284.67	260.62
284.901	258.62
285.132	261.62
285.364	263.62
285.595	275.62
285.826	271.62
286.057	270.62
286.288	288.62
286.52	275.62
286.751	286.62
286.982	279.62
287.213	282.62
287.444	277.62
287.675	285.62
287.906	290.62
288.138	305.62
288.369	288.62
288.6	312.62
288.831	304.62
289.062	292.62
289.293	301.62
289.524	285.62
289.755	289.62
289.986	268.62
290.217	277.62
290.448	291.62
290.679	296.62
290.91	275.62
291.141	268.62
291.371	275.62
291.602	288.62
291.833	284.62
292.064	254.62
292.295	289.62
292.526	258.62
292.757	284.62
292.987	275.62
293.218	270.62
293.449	267.62
293.68	291.62
293.91	289.62
294.141	277.62
294.372	287.62
294.603	281.62
294.833	272.62
295.064	269.62
295.295	282.62
295.525	280.62
295.756	299.62
295.987	281.62
296.217	321.62
296.448	354.62
296.679	324.62
296.909	273.62
297.14	290.62
297.37	291.62
297.601	291.62
297.831	286.62
298.062	289.62
298.292	289.62
298.523	279.62
298.753	293.62
298.984	298.62
299.214	296.62
299.445	289.62
299.675	314.62
299.905	292.62
300.136	296.62
300.366	314.62
300.597	303.62
300.827	309.62
301.057	309.62
301.288	314.62
301.518	305.62
301.748	298.62
301.979	333.62
302.209	318.62
302.439	323.62
302.669	309.62
302.9	300.62
303.13	298.62
303.36	315.62
303.59	302.62
303.82	339.62
304.051	331.62
304.281	315.62
304.511	329.62
304.741	326.62
304.971	319.62
305.201	310.62
305.431	318.62
305.661	314.62
305.891	309.62
306.121	316.62
306.352	317.62
306.582	313.62
306.812	329.62
307.042	317.62
307.272	327.62
307.502	332.62
307.731	328.62
307.961	327.62
308.191	317.62
308.421	318.62
308.651	336.62
308.881	325.62
309.111	327.62
309.341	329.62
309.571	338.62
309.8	350.62
310.03	379.62
310.26	402.62
310.49	371.62
310.72	369.62
310.949	414.62
311.179	429.62
311.409	411.62
311.639	381.62
311.868	366.62
312.098	399.62
312.328	393.62
312.557	407.62
312.787	428.62
313.017	419.62
313.246	395.62
313.476	398.62
313.706	388.62
313.935	402.62
314.165	391.62
314.394	403.62
314.624	427.62
314.853	397.62
315.083	399.62
315.312	378.62
315.542	387.62
315.771	377.62
316.001	382.62
316.23	364.62
316.46	382.62
316.689	381.62
316.919	378.62
317.148	378.62
317.377	391.62
317.607	384.62
317.836	398.62
318.065	374.62
318.295	379.62
318.524	357.62
318.753	355.62
318.983	371.62
319.212	386.62
319.441	381.62
319.67	406.62
319.9	380.62
320.129	386.62
320.358	379.62
320.587	390.62
320.816	388.62
321.046	389.62
321.275	414.62
321.504	414.62
321.733	421.62
321.962	424.62
322.191	446.62
322.42	462.62
322.649	473.62
322.878	486.62
323.108	505.62
323.337	551.62
323.566	574.62
323.795	612.62
324.024	646.62
324.253	835.62
324.482	1216.62
324.71	1872.62
324.939	2802.62
325.168	2371.62
325.397	1216.62
325.626	793.62
325.855	656.62
326.084	573.62
326.313	557.62
326.542	574.62
326.77	637.62
326.999	780.62
327.228	1077.62
327.457	1723.62
327.686	2063.62
327.914	1365.62
328.143	877.62
328.372	771.62
328.6	713.62
328.829	650.62
329.058	675.62
329.287	698.62
329.515	630.62
329.744	585.62
329.972	571.62
330.201	605.62
330.43	650.62
330.658	686.62
330.887	711.62
331.115	718.62
331.344	588.62
331.572	572.62
331.801	542.62
332.03	549.62
332.258	528.62
332.486	468.62
332.715	459.62
332.943	452.62
333.172	463.62
333.4	466.62
333.629	425.62
333.857	491.62
334.085	482.62
334.314	517.62
334.542	537.62
334.771	600.62
334.999	523.62
335.227	477.62
335.455	467.62
335.684	461.62
335.912	453.62
336.14	464.62
336.369	451.62
336.597	463.62
336.825	463.62
337.053	455.62
337.281	433.62
337.51	438.62
337.738	456.62
337.966	459.62
338.194	459.62
338.422	442.62
338.65	451.62
338.878	416.62
339.106	435.62
339.334	445.62
339.562	439.62
339.79	433.62
340.018	434.62
340.246	440.62
340.474	442.62
340.702	455.62
340.93	444.62
341.158	430.62
341.386	441.62
341.614	441.62
341.842	440.62
342.07	444.62
342.298	426.62
342.526	424.62
342.754	405.62
342.981	398.62
343.209	404.62
343.437	425.62
343.665	419.62
343.893	438.62
344.12	429.62
344.348	429.62
344.576	426.62
344.804	435.62
345.031	459.62
345.259	474.62
345.487	444.62
345.714	445.62
345.942	430.62
346.17	446.62
346.397	446.62
346.625	440.62
346.853	413.62
347.08	440.62
347.308	438.62
347.535	417.62
347.763	441.62
347.99	424.62
348.218	447.62
348.445	453.62
348.673	454.62
348.9	448.62
349.128	437.62
349.355	424.62
349.583	440.62
349.81	419.62
350.037	398.62
350.265	413.62
350.492	414.62
350.72	395.62
350.947	426.62
351.174	438.62
351.402	437.62
351.629	439.62
351.856	447.62
352.083	461.62
352.311	472.62
352.538	472.62
352.765	459.62
352.992	459.62
353.22	453.62
353.447	428.62
353.674	427.62
353.901	416.62
354.128	397.62
354.355	403.62
354.583	411.62
354.81	396.62
355.037	398.62
355.264	392.62
355.491	389.62
355.718	377.62
355.945	383.62
356.172	383.62
356.399	378.62
356.626	381.62
356.853	389.62
357.08	387.62
357.307	387.62
357.534	390.62
357.761	383.62
357.988	398.62
358.215	389.62
358.441	386.62
358.668	379.62
358.895	393.62
359.122	397.62
359.349	434.62
359.576	421.62
359.802	479.62
360.029	533.62
360.256	547.62
360.483	483.62
360.709	453.62
360.936	437.62
361.163	434.62
361.39	460.62
361.616	442.62
361.843	417.62
362.07	419.62
362.296	442.62
362.523	454.62
362.749	438.62
362.976	414.62
363.203	429.62
363.429	415.62
363.656	416.62
363.882	441.62
364.109	406.62
364.335	402.62
364.562	402.62
364.788	424.62
365.015	419.62
365.241	412.62
365.468	428.62
365.694	437.62
365.92	417.62
366.147	435.62
366.373	385.62
366.599	429.62
366.826	395.62
367.052	399.62
367.278	400.62
367.505	408.62
367.731	407.62
367.957	409.62
368.184	411.62
368.41	426.62
368.636	424.62
368.862	451.62
369.089	437.62
369.315	415.62
369.541	407.62
369.767	399.62
369.993	405.62
370.219	401.62
370.445	409.62
370.672	397.62
370.898	391.62
371.124	395.62
371.35	399.62
371.576	393.62
371.802	411.62
372.028	401.62
372.254	418.62
372.48	399.62
372.706	410.62
372.932	403.62
373.158	398.62
373.384	417.62
373.61	412.62
373.835	403.62
374.061	398.62
374.287	398.62
374.513	407.62
374.739	408.62
374.965	417.62
375.191	419.62
375.416	398.62
375.642	407.62
375.868	410.62
376.094	401.62
376.319	407.62
376.545	413.62
376.771	427.62
376.997	412.62
377.222	406.62
377.448	423.62
377.674	396.62
377.899	407.62
378.125	395.62
378.35	412.62
378.576	378.62
378.802	402.62
379.027	407.62
379.253	403.62
379.478	401.62
379.704	405.62
379.929	385.62
380.155	411.62
380.38	379.62
380.606	426.62
380.831	413.62
381.057	422.62
381.282	420.62
381.507	410.62
381.733	423.62
381.958	406.62
382.184	420.62
382.409	419.62
382.634	402.62
382.86	409.62
383.085	412.62
383.31	414.62
383.535	411.62
383.761	406.62
383.986	412.62
384.211	428.62
384.436	414.62
384.662	419.62
384.887	437.62
385.112	433.62
385.337	429.62
385.562	429.62
385.787	425.62
386.013	447.62
386.238	446.62
386.463	443.62
386.688	450.62
386.913	429.62
387.138	439.62
387.363	446.62
387.588	445.62
387.813	436.62
388.038	426.62
388.263	450.62
388.488	438.62
388.713	417.62
388.938	420.62
389.163	441.62
389.387	449.62
389.612	428.62
389.837	440.62
390.062	439.62
390.287	434.62
390.512	437.62
390.736	448.62
390.961	455.62
391.186	427.62
391.411	413.62
391.636	414.62
391.86	444.62
392.085	471.62
392.31	452.62
392.534	449.62
392.759	442.62
392.984	440.62
393.208	449.62
393.433	437.62
393.658	454.62
393.882	438.62
394.107	453.62
394.331	442.62
394.556	454.62
394.78	440.62
395.005	448.62
395.229	438.62
395.454	451.62
395.678	451.62
395.903	468.62
396.127	487.62
396.352	480.62
396.576	475.62
396.801	458.62
397.025	476.62
397.249	454.62
397.474	481.62
397.698	456.62
397.922	481.62
398.147	497.62
398.371	495.62
398.595	501.62
398.82	489.62
399.044	502.62
399.268	513.62
399.492	508.62
399.717	539.62
399.941	553.62
400.165	582.62
400.389	620.62
400.613	567.62
400.837	523.62
401.062	514.62
401.286	514.62
401.51	534.62
401.734	499.62
401.958	502.62
402.182	493.62
402.406	516.62
402.63	528.62
402.854	549.62
403.078	503.62
403.302	532.62
403.526	517.62
403.75	537.62
403.974	539.62
404.198	517.62
404.422	514.62
404.645	530.62
404.869	545.62
405.093	570.62
405.317	637.62
405.541	645.62
405.765	602.62
405.988	585.62
406.212	578.62
406.436	604.62
406.66	608.62
406.883	594.62
407.107	606.62
407.331	654.62
407.555	718.62
407.778	724.62
408.002	641.62
408.226	604.62
408.449	595.62
408.673	580.62
408.896	636.62
409.12	635.62
409.344	637.62
409.567	556.62
409.791	535.62
410.014	540.62
410.238	502.62
410.461	539.62
410.685	527.62
410.908	567.62
411.132	602.62
411.355	641.62
411.578	602.62
411.802	535.62
412.025	525.62
412.249	561.62
412.472	573.62
412.695	619.62
412.919	596.62
413.142	557.62
413.365	531.62
413.589	512.62
413.812	515.62
414.035	485.62
414.258	511.62
414.482	500.62
414.705	507.62
414.928	472.62
415.151	482.62
415.374	505.62
415.597	511.62
415.821	495.62
416.044	506.62
416.267	533.62
416.49	513.62
416.713	478.62
416.936	503.62
417.159	494.62
417.382	521.62
417.605	518.62
417.828	532.62
418.051	573.62
418.274	533.62
418.497	523.62
418.72	510.62
418.943	516.62
419.166	532.62
419.389	547.62
419.611	556.62
419.834	562.62
420.057	549.62
420.28	536.62
420.503	551.62
420.726	540.62
420.948	575.62
421.171	612.62
421.394	630.62
421.617	562.62
421.839	569.62
422.062	565.62
422.285	565.62
422.507	645.62
422.73	710.62
422.953	680.62
423.175	601.62
423.398	575.62
423.621	571.62
423.843	620.62
424.066	626.62
424.288	595.62
424.511	635.62
424.733	676.62
424.956	761.62
425.178	745.62
425.401	747.62
425.623	774.62
425.846	653.62
426.068	619.62
426.291	634.62
426.513	627.62
426.735	629.62
426.958	686.62
427.18	733.62
427.402	898.62
427.625	1006.62
427.847	929.62
428.069	774.62
428.292	713.62
428.514	607.62
428.736	606.62
428.958	590.62
429.181	563.62
429.403	587.62
429.625	592.62
429.847	618.62
430.069	699.62
430.292	671.62
430.514	587.62
430.736	559.62
430.958	552.62
431.18	537.62
431.402	535.62
431.624	536.62
431.846	517.62
432.068	527.62
432.29	513.62
432.512	524.62
432.734	545.62
432.956	535.62
433.178	573.62
433.4	565.62
433.622	534.62
433.844	522.62
434.066	531.62
434.287	501.62
434.509	536.62
434.731	525.62
434.953	529.62
435.175	554.62
435.397	597.62
435.618	615.62
435.84	656.62
436.062	756.62
436.284	831.62
436.505	734.62
436.727	661.62
436.949	619.62
437.17	580.62
437.392	583.62
437.614	603.62
437.835	627.62
438.057	767.62
438.278	869.62
438.5	846.62
438.721	902.62
438.943	869.62
439.165	713.62
439.386	661.62
439.608	651.62
439.829	673.62
440.05	686.62
440.272	722.62
440.493	680.62
440.715	615.62
440.936	590.62
441.158	563.62
441.379	573.62
441.6	585.62
441.822	606.62
442.043	656.62
442.264	750.62
442.486	815.62
442.707	684.62
442.928	652.62
443.149	638.62
443.371	660.62
443.592	686.62
443.813	837.62
444.034	857.62
444.255	686.62
444.476	652.62
444.698	616.62
444.919	618.62
445.14	710.62
445.361	671.62
445.582	679.62
445.803	725.62
446.024	877.62
446.245	879.62
446.466	822.62
446.687	700.62
446.908	629.62
447.129	598.62
447.35	610.62
447.571	592.62
447.792	575.62
448.013	586.62
448.234	602.62
448.455	669.62
448.675	804.62
448.896	893.62
449.117	787.62
449.338	727.62
449.559	855.62
449.779	939.62
450	753.62
450.221	655.62
450.442	591.62
450.662	563.62
450.883	594.62
451.104	604.62
451.324	579.62
451.545	587.62
451.766	525.62
451.986	519.62
452.207	513.62
452.428	503.62
452.648	504.62
452.869	509.62
453.089	532.62
453.31	538.62
453.53	509.62
453.751	516.62
453.971	520.62
454.192	553.62
454.412	550.62
454.633	515.62
454.853	506.62
455.073	531.62
455.294	547.62
455.514	622.62
455.734	609.62
455.955	506.62
456.175	504.62
456.395	470.62
456.616	458.62
456.836	463.62
457.056	462.62
457.276	439.62
457.497	473.62
457.717	485.62
457.937	476.62
458.157	468.62
458.377	506.62
458.598	527.62
458.818	612.62
459.038	714.62
459.258	701.62
459.478	584.62
459.698	549.62
459.918	528.62
460.138	516.62
460.358	530.62
460.578	527.62
460.798	519.62
461.018	519.62
461.238	516.62
461.458	486.62
461.678	487.62
461.898	521.62
462.118	517.62
462.338	527.62
462.558	512.62
462.777	527.62
462.997	525.62
463.217	558.62
463.437	545.62
463.657	534.62
463.876	549.62
464.096	542.62
464.316	518.62
464.536	574.62
464.755	567.62
464.975	573.62
465.195	647.62
465.414	760.62
465.634	672.62
465.854	596.62
466.073	584.62
466.293	533.62
466.512	536.62
466.732	505.62
466.951	516.62
467.171	496.62
467.391	525.62
467.61	521.62
467.829	570.62
468.049	541.62
468.268	549.62
468.488	503.62
468.707	502.62
468.927	523.62
469.146	492.62
469.365	505.62
469.585	535.62
469.804	517.62
470.023	529.62
470.243	542.62
470.462	531.62
470.681	566.62
470.901	562.62
471.12	530.62
471.339	534.62
471.558	541.62
471.777	538.62
471.997	525.62
472.216	539.62
472.435	577.62
472.654	557.62
472.873	512.62
473.092	514.62
473.311	525.62
473.53	527.62
473.749	541.62
473.968	604.62
474.187	731.62
474.406	729.62
474.625	617.62
474.844	580.62
475.063	550.62
475.282	532.62
475.501	542.62
475.72	548.62
475.939	543.62
476.158	554.62
476.377	545.62
476.596	537.62
476.814	556.62
477.033	560.62
477.252	566.62
477.471	552.62
477.69	561.62
477.908	569.62
478.127	554.62
478.346	545.62
478.564	563.62
478.783	573.62
479.002	589.62
479.22	592.62
479.439	619.62
479.658	650.62
479.876	639.62
480.095	659.62
480.313	682.62
480.532	641.62
480.751	654.62
480.969	666.62
481.188	729.62
481.406	818.62
481.624	679.62
481.843	637.62
482.061	648.62
482.28	658.62
482.498	637.62
482.717	613.62
482.935	620.62
483.153	621.62
483.372	633.62
483.59	629.62
483.808	628.62
484.027	628.62
484.245	636.62
484.463	642.62
484.681	622.62
484.9	637.62
485.118	653.62
485.336	630.62
485.554	637.62
485.772	662.62
485.99	637.62
486.209	641.62
486.427	673.62
486.645	660.62
486.863	714.62
487.081	721.62
487.299	683.62
487.517	666.62
487.735	672.62
487.953	695.62
488.171	711.62
488.389	681.62
488.607	685.62
488.825	692.62
489.043	653.62
489.261	717.62
489.479	701.62
489.696	703.62
489.914	699.62
490.132	716.62
490.35	725.62
490.568	728.62
490.786	762.62
491.003	743.62
491.221	757.62
491.439	801.62
491.657	802.62
491.874	800.62
492.092	801.62
492.31	807.62
492.527	814.62
492.745	834.62
492.963	821.62
493.18	809.62
493.398	839.62
493.615	852.62
493.833	846.62
494.05	854.62
494.268	838.62
494.485	822.62
494.703	802.62
494.92	823.62
495.138	798.62
495.355	846.62
495.573	857.62
495.79	840.62
496.008	835.62
496.225	829.62
496.442	801.62
496.66	819.62
496.877	812.62
497.094	819.62
497.312	827.62
497.529	820.62
497.746	827.62
497.963	872.62
498.181	895.62
498.398	879.62
498.615	892.62
498.832	918.62
499.049	885.62
499.267	885.62
499.484	907.62
499.701	929.62
499.918	934.62
500.135	949.62
500.352	995.62
500.569	980.62
500.786	1022.62
501.003	965.62
501.22	986.62
501.437	993.62
501.654	1001.62
501.871	977.62
502.088	944.62
502.305	917.62
502.522	910.62
502.739	884.62
502.956	861.62
503.172	854.62
503.389	837.62
503.606	846.62
503.823	861.62
504.04	849.62
504.256	832.62
504.473	815.62
504.69	807.62
504.907	790.62
505.123	808.62
505.34	781.62
505.557	795.62
505.773	805.62
505.99	812.62
506.207	822.62
506.423	807.62
506.64	803.62
506.856	781.62
507.073	789.62
507.289	759.62
507.506	802.62
507.722	797.62
507.939	841.62
508.155	819.62
508.372	804.62
508.588	769.62
508.805	757.62
509.021	778.62
509.238	803.62
509.454	799.62
509.67	775.62
509.887	788.62
510.103	766.62
510.319	805.62
510.536	906.62
510.752	1623.62
510.968	1293.62
511.184	812.62
511.401	806.62
511.617	765.62
511.833	737.62
512.049	747.62
512.265	717.62
512.481	770.62
512.698	746.62
512.914	730.62
513.13	737.62
513.346	726.62
513.562	738.62
513.778	726.62
513.994	779.62
514.21	782.62
514.426	798.62
514.642	888.62
514.858	916.62
515.074	978.62
515.29	1209.62
515.506	1839.62
515.721	1475.62
515.937	973.62
516.153	850.62
516.369	795.62
516.585	749.62
516.801	765.62
517.016	757.62
517.232	731.62
517.448	730.62
517.664	739.62
517.879	723.62
518.095	738.62
518.311	703.62
518.527	710.62
518.742	707.62
518.958	717.62
519.173	723.62
519.389	737.62
519.605	737.62
519.82	736.62
520.036	778.62
520.251	780.62
520.467	838.62
520.682	855.62
520.898	861.62
521.113	869.62
521.329	944.62
521.544	1093.62
521.76	1450.62
521.975	2493.62
522.19	2395.62
522.406	1266.62
522.621	896.62
522.836	861.62
523.052	785.62
523.267	750.62
523.482	705.62
523.698	712.62
523.913	713.62
524.128	687.62
524.343	681.62
524.559	628.62
524.774	625.62
524.989	642.62
525.204	660.62
525.419	655.62
525.634	651.62
525.849	620.62
526.064	624.62
526.28	609.62
526.495	595.62
526.71	589.62
526.925	561.62
527.14	591.62
527.355	612.62
527.57	577.62
527.785	596.62
527.999	575.62
528.214	594.62
528.429	581.62
528.644	593.62
528.859	590.62
529.074	603.62
529.289	625.62
529.503	741.62
529.718	718.62
529.933	638.62
530.148	622.62
530.363	590.62
530.577	590.62
530.792	580.62
531.007	579.62
531.221	581.62
531.436	552.62
531.651	563.62
531.865	539.62
532.08	563.62
532.295	548.62
532.509	533.62
532.724	554.62
532.938	548.62
533.153	539.62
533.367	562.62
533.582	547.62
533.796	526.62
534.011	543.62
534.225	554.62
534.44	532.62
534.654	539.62
534.868	539.62
535.083	539.62
535.297	537.62
535.511	551.62
535.726	575.62
535.94	557.62
536.154	551.62
536.369	531.62
536.583	536.62
536.797	557.62
537.011	537.62
537.225	523.62
537.44	505.62
537.654	520.62
537.868	515.62
538.082	524.62
538.296	521.62
538.51	531.62
538.724	534.62
538.938	530.62
539.153	535.62
539.367	545.62
539.581	549.62
539.795	532.62
540.009	523.62
540.222	520.62
540.436	545.62
540.65	501.62
540.864	525.62
541.078	554.62
541.292	536.62
541.506	527.62
541.72	530.62
541.934	527.62
542.147	525.62
542.361	517.62
542.575	533.62
542.789	525.62
543.002	501.62
543.216	492.62
543.43	535.62
543.644	537.62
543.857	525.62
544.071	535.62
544.285	556.62
544.498	531.62
544.712	533.62
544.925	509.62
545.139	537.62
545.352	519.62
545.566	511.62
545.779	507.62
545.993	496.62
546.206	494.62
546.42	529.62
546.633	508.62
546.847	502.62
547.06	491.62
547.274	502.62
547.487	517.62
547.7	515.62
547.914	483.62
548.127	522.62
548.34	506.62
548.554	489.62
548.767	494.62
548.98	487.62
549.193	473.62
549.407	489.62
549.62	473.62
549.833	478.62
550.046	477.62
550.259	482.62
550.473	462.62
550.686	484.62
550.899	500.62
551.112	483.62
551.325	463.62
551.538	489.62
551.751	467.62
551.964	458.62
552.177	466.62
552.39	461.62
552.603	433.62
552.816	468.62
553.029	487.62
553.242	493.62
553.455	487.62
553.667	497.62
553.88	518.62
554.093	515.62
554.306	500.62
554.519	502.62
554.732	486.62
554.944	458.62
555.157	482.62
555.37	457.62
555.583	478.62
555.795	456.62
556.008	436.62
556.221	458.62
556.433	448.62
556.646	445.62
556.859	458.62
557.071	453.62
557.284	419.62
557.496	452.62
557.709	467.62
557.921	445.62
558.134	444.62
558.346	458.62
558.559	443.62
558.771	439.62
558.984	456.62
559.196	441.62
559.409	436.62
559.621	433.62
559.833	428.62
560.046	441.62
560.258	440.62
560.47	435.62
560.683	421.62
560.895	421.62
561.107	444.62
561.32	428.62
561.532	433.62
561.744	425.62
561.956	433.62
562.168	437.62
562.381	429.62
562.593	419.62
562.805	419.62
563.017	439.62
563.229	439.62
563.441	429.62
563.653	434.62
563.865	444.62
564.077	436.62
564.289	439.62
564.501	442.62
564.713	438.62
564.925	436.62
565.137	453.62
565.349	462.62
565.561	426.62
565.773	461.62
565.985	458.62
566.197	467.62
566.408	474.62
566.62	471.62
566.832	464.62
567.044	488.62
567.255	469.62
567.467	473.62
567.679	490.62
567.891	511.62
568.102	495.62
568.314	461.62
568.526	472.62
568.737	465.62
568.949	453.62
569.161	440.62
569.372	439.62
569.584	437.62
569.795	423.62
570.007	431.62
570.218	505.62
570.43	472.62
570.641	407.62
570.853	403.62
571.064	395.62
571.276	420.62
571.487	411.62
571.698	411.62
571.91	402.62
572.121	408.62
572.333	378.62
572.544	372.62
572.755	389.62
572.966	379.62
573.178	382.62
573.389	381.62
573.6	403.62
573.811	386.62
574.023	358.62
574.234	385.62
574.445	370.62
574.656	361.62
574.867	363.62
575.078	367.62
575.289	385.62
575.501	350.62
575.712	355.62
575.923	366.62
576.134	371.62
576.345	369.62
576.556	370.62
576.767	358.62
576.978	346.62
577.188	374.62
577.399	362.62
577.61	390.62
577.821	371.62
578.032	366.62
578.243	412.62
578.454	738.62
578.665	533.62
578.875	363.62
579.086	365.62
579.297	351.62
579.508	352.62
579.718	354.62
579.929	354.62
580.14	339.62
580.35	345.62
580.561	353.62
580.772	346.62
580.982	327.62
581.193	345.62
581.403	334.62
581.614	353.62
581.825	340.62
582.035	320.62
582.246	343.62
582.456	327.62
582.667	332.62
582.877	328.62
583.087	336.62
583.298	322.62
583.508	331.62
583.719	339.62
583.929	339.62
584.139	329.62
584.35	336.62
584.56	342.62
584.77	339.62
584.981	307.62
585.191	325.62
585.401	340.62
585.611	327.62
585.821	336.62
586.032	333.62
586.242	334.62
586.452	330.62
586.662	315.62
586.872	327.62
587.082	316.62
587.292	327.62
587.502	312.62
587.713	313.62
587.923	321.62
588.133	316.62
588.343	310.62
588.553	315.62
588.762	295.62
588.972	301.62
589.182	313.62
589.392	331.62
589.602	351.62
589.812	333.62
590.022	332.62
590.232	349.62
590.441	313.62
590.651	317.62
590.861	327.62
591.071	325.62
591.281	322.62
591.49	333.62
591.7	305.62
591.91	319.62
592.119	326.62
592.329	298.62
592.539	335.62
592.748	316.62
592.958	326.62
593.167	325.62
593.377	327.62
593.587	328.62
593.796	314.62
594.006	311.62
594.215	317.62
594.424	309.62
594.634	298.62
594.843	317.62
595.053	329.62
595.262	306.62
595.472	305.62
595.681	305.62
595.89	311.62
596.1	295.62
596.309	293.62
596.518	309.62
596.727	325.62
596.937	320.62
597.146	302.62
597.355	296.62
597.564	290.62
597.774	300.62
597.983	279.62
598.192	285.62
598.401	307.62
598.61	288.62
598.819	287.62
599.028	285.62
599.237	298.62
599.446	290.62
599.655	284.62
599.864	300.62
600.073	306.62
600.282	297.62
600.491	291.62
600.7	295.62
600.909	284.62
601.118	297.62
601.327	299.62
601.536	288.62
601.745	273.62
601.953	277.62
602.162	287.62
602.371	269.62
602.58	295.62
602.789	283.62
602.997	301.62
603.206	280.62
603.415	284.62
603.623	271.62
603.832	272.62
604.041	287.62
604.249	280.62
604.458	288.62
604.666	281.62
604.875	281.62
605.084	270.62
605.292	279.62
605.501	265.62
605.709	270.62
605.918	273.62
606.126	276.62
606.334	272.62
606.543	276.62
606.751	277.62
606.96	274.62
607.168	259.62
607.376	269.62
607.585	272.62
607.793	289.62
608.001	294.62
608.21	265.62
608.418	260.62
608.626	279.62
608.834	275.62
609.043	269.62
609.251	264.62
609.459	267.62
609.667	291.62
609.875	245.62
610.083	250.62
610.291	253.62
610.499	260.62
610.707	273.62
610.916	253.62
611.124	287.62
611.332	281.62
611.54	266.62
611.748	275.62
611.955	258.62
612.163	271.62
612.371	277.62
612.579	271.62
612.787	283.62
612.995	260.62
613.203	285.62
613.411	265.62
613.618	253.62
613.826	253.62
614.034	282.62
614.242	259.62
614.449	263.62
614.657	267.62
614.865	269.62
615.072	251.62
615.28	269.62
615.488	252.62
615.695	267.62
615.903	249.62
616.111	233.62
616.318	266.62
616.526	263.62
616.733	256.62
616.941	258.62
617.148	271.62
617.356	254.62
617.563	254.62
617.771	274.62
617.978	257.62
618.185	260.62
618.393	262.62
618.6	258.62
618.807	248.62
619.015	252.62
619.222	256.62
619.429	244.62
619.637	242.62
619.844	253.62
620.051	247.62
620.258	253.62
620.466	242.62
620.673	226.62
620.88	246.62
621.087	249.62
621.294	236.62
621.501	249.62
621.708	252.62
621.915	241.62
622.122	238.62
622.329	236.62
622.536	241.62
622.743	253.62
622.95	255.62
623.157	246.62
623.364	246.62
623.571	245.62
623.778	244.62
623.985	242.62
624.192	235.62
624.399	242.62
624.606	230.62
624.812	233.62
625.019	230.62
625.226	248.62
625.433	247.62
625.639	228.62
625.846	217.62
626.053	221.62
626.259	216.62
626.466	217.62
626.673	219.62
626.879	213.62
627.086	225.62
627.293	226.62
627.499	236.62
627.706	211.62
627.912	231.62
628.119	232.62
628.325	228.62
628.532	221.62
628.738	220.62
628.945	237.62
629.151	236.62
629.357	215.62
629.564	207.62
629.77	219.62
629.976	216.62
630.183	221.62
630.389	213.62
630.595	221.62
630.802	220.62
631.008	204.62
631.214	215.62
631.42	212.62
631.627	212.62
631.833	221.62
632.039	213.62
632.245	201.62
632.451	194.62
632.657	196.62
632.863	217.62
633.069	214.62
633.275	206.62
633.481	217.62
633.688	197.62
633.893	203.62
634.099	198.62
634.305	199.62
634.511	203.62
634.717	209.62
634.923	196.62
635.129	200.62
635.335	209.62
635.541	197.62
635.747	205.62
635.952	199.62
636.158	204.62
636.364	191.62
636.57	211.62
636.775	198.62
636.981	205.62
637.187	188.62
637.392	208.62
637.598	189.62
637.804	188.62
638.009	187.62
638.215	203.62
638.421	194.62
638.626	217.62
638.832	197.62
639.037	191.62
639.243	187.62
639.448	189.62
639.654	197.62
639.859	197.62
640.065	177.62
640.27	193.62
640.475	182.62
640.681	188.62
640.886	197.62
641.091	189.62
641.297	193.62
641.502	190.62
641.707	197.62
641.913	181.62
642.118	176.62
642.323	178.62
642.528	172.62
642.733	189.62
642.939	197.62
643.144	172.62
643.349	174.62
643.554	184.62
643.759	173.62
643.964	184.62
644.169	192.62
644.374	186.62
644.579	181.62
644.784	155.62
644.989	173.62
645.194	168.62
645.399	172.62
645.604	178.62
645.809	195.62
646.014	180.62
646.219	172.62
646.423	186.62
646.628	168.62
646.833	188.62
647.038	183.62
647.243	198.62
647.447	199.62
647.652	171.62
647.857	186.62
648.062	176.62
648.266	177.62
648.471	190.62
648.676	182.62
648.88	197.62
649.085	191.62
649.289	181.62
649.494	193.62
649.698	200.62
649.903	199.62
650.107	184.62
650.312	164.62
650.516	157.62
650.721	189.62
650.925	163.62
651.13	177.62
651.334	163.62
651.539	157.62
651.743	161.62
651.947	146.62
652.152	173.62
652.356	158.62
652.56	166.62
652.764	144.62
652.969	158.62
653.173	142.62
653.377	153.62
653.581	144.62
653.785	146.62
653.99	142.62
654.194	143.62
654.398	154.62
654.602	148.62
654.806	143.62
655.01	168.62
655.214	136.62
655.418	142.62
655.622	139.62
655.826	138.62
656.03	140.62
656.234	136.62
656.438	148.62
656.642	140.62
656.846	133.62
657.049	138.62
657.253	133.62
657.457	127.62
657.661	121.62
657.865	127.62
658.068	124.62
658.272	125.62
658.476	111.62
658.68	108.62
658.883	110.62
659.087	115.62
659.291	107.62
659.494	113.62
659.698	95.62
659.901	112.62
660.105	102.62
660.309	109.62
660.512	90.62
660.716	116.62
660.919	93.62
661.123	101.62
661.326	99.62
661.53	106.62
661.733	92.62
661.936	104.62
662.14	92.62
662.343	83.62
662.546	83.62
662.75	113.62
662.953	89.62
663.156	91.62
663.36	74.62
663.563	89.62
663.766	85.62
663.969	86.62
664.173	97.62
664.376	72.62
664.579	82.62
664.782	79.62
664.985	86.62
665.188	74.62
665.391	89.62
665.594	83.62
665.797	68.62
666	90.62
666.203	75.62
666.406	94.62
666.609	84.62
666.812	78.62
667.015	84.62
667.218	63.62
667.421	83.62
667.624	80.62
667.827	83.62
668.03	91.62
668.232	89.62
668.435	72.62
668.638	74.62
668.841	92.62
669.043	84.62
669.246	84.62
669.449	89.62
669.651	86.62
669.854	80.62
670.057	88.62
670.259	76.62
670.462	86.62
670.665	76.62
670.867	66.62
671.07	86.62
671.272	87.62
671.475	100.62
671.677	78.62
671.88	77.62
672.082	80.62
672.284	84.62
672.487	94.62
672.689	88.62
672.892	70.62
