Data from 1971.PennyLincolnUp.Lamp.En5.5.200Scan.071719.P1._HRD10591_15-20-40-841.txt Node
Date: Thu Jul 18 15:20:40 EDT 2019
User: cochatt
Spectrometer: HR+D1059
Trigger mode: 1
Integration Time (sec): 1.000000E-1
Scans to average: 1
Electric dark correction enabled: true
Nonlinearity correction enabled: false
Boxcar width: 0
XAxis mode: Wavelengths
Number of Pixels in Spectrum: 2048
>>>>>Begin Spectral Data<<<<<
223.165	-16.44
223.4	-16.44
223.635	-16.44
223.869	-17.44
224.104	-17.44
224.338	-23.44
224.573	-18.44
224.808	-12.44
225.042	-14.44
225.277	-14.44
225.511	0.56
225.746	4.56
225.98	22.56
226.215	12.56
226.449	21.56
226.683	15.56
226.918	23.56
227.152	33.56
227.387	18.56
227.621	38.56
227.856	40.56
228.09	41.56
228.324	64.56
228.559	63.56
228.793	64.56
229.027	85.56
229.262	107.56
229.496	113.56
229.73	120.56
229.964	144.56
230.199	110.56
230.433	98.56
230.667	105.56
230.901	107.56
231.136	119.56
231.37	113.56
231.604	113.56
231.838	127.56
232.072	92.56
232.306	106.56
232.541	118.56
232.775	115.56
233.009	119.56
233.243	128.56
233.477	119.56
233.711	120.56
233.945	105.56
234.179	111.56
234.413	91.56
234.647	121.56
234.881	133.56
235.115	108.56
235.349	133.56
235.583	117.56
235.817	111.56
236.051	135.56
236.285	117.56
236.519	123.56
236.753	130.56
236.987	144.56
237.221	187.56
237.455	228.56
237.689	179.56
237.922	137.56
238.156	131.56
238.39	133.56
238.624	125.56
238.858	132.56
239.091	127.56
239.325	118.56
239.559	125.56
239.793	133.56
240.027	141.56
240.26	138.56
240.494	141.56
240.728	146.56
240.961	145.56
241.195	146.56
241.429	134.56
241.662	128.56
241.896	139.56
242.13	122.56
242.363	125.56
242.597	141.56
242.83	124.56
243.064	133.56
243.298	125.56
243.531	136.56
243.765	132.56
243.998	150.56
244.232	151.56
244.465	149.56
244.699	131.56
244.932	149.56
245.166	137.56
245.399	135.56
245.633	131.56
245.866	132.56
246.099	147.56
246.333	163.56
246.566	156.56
246.8	146.56
247.033	147.56
247.266	141.56
247.5	157.56
247.733	165.56
247.966	159.56
248.2	175.56
248.433	161.56
248.666	170.56
248.899	189.56
249.133	196.56
249.366	213.56
249.599	202.56
249.832	187.56
250.066	179.56
250.299	191.56
250.532	179.56
250.765	216.56
250.998	221.56
251.231	236.56
251.465	224.56
251.698	226.56
251.931	201.56
252.164	212.56
252.397	199.56
252.63	206.56
252.863	224.56
253.096	199.56
253.329	214.56
253.562	219.56
253.795	215.56
254.028	222.56
254.261	233.56
254.494	234.56
254.727	258.56
254.96	284.56
255.193	279.56
255.426	271.56
255.659	242.56
255.892	241.56
256.124	238.56
256.357	236.56
256.59	222.56
256.823	218.56
257.056	223.56
257.289	225.56
257.521	230.56
257.754	201.56
257.987	218.56
258.22	226.56
258.452	189.56
258.685	214.56
258.918	209.56
259.151	204.56
259.383	225.56
259.616	215.56
259.849	245.56
260.081	245.56
260.314	273.56
260.547	264.56
260.779	246.56
261.012	237.56
261.244	252.56
261.477	231.56
261.71	226.56
261.942	239.56
262.175	242.56
262.407	238.56
262.64	221.56
262.872	239.56
263.105	218.56
263.337	209.56
263.57	225.56
263.802	214.56
264.035	228.56
264.267	228.56
264.499	216.56
264.732	215.56
264.964	213.56
265.197	215.56
265.429	210.56
265.661	211.56
265.894	213.56
266.126	240.56
266.358	227.56
266.591	222.56
266.823	228.56
267.055	240.56
267.287	242.56
267.52	254.56
267.752	230.56
267.984	239.56
268.216	230.56
268.448	230.56
268.681	256.56
268.913	245.56
269.145	274.56
269.377	282.56
269.609	291.56
269.841	289.56
270.073	279.56
270.306	312.56
270.538	321.56
270.77	334.56
271.002	321.56
271.234	321.56
271.466	317.56
271.698	316.56
271.93	343.56
272.162	317.56
272.394	313.56
272.626	317.56
272.858	315.56
273.09	281.56
273.322	270.56
273.553	283.56
273.785	273.56
274.017	297.56
274.249	278.56
274.481	283.56
274.713	272.56
274.945	277.56
275.176	265.56
275.408	262.56
275.64	260.56
275.872	275.56
276.104	263.56
276.335	286.56
276.567	269.56
276.799	299.56
277.031	321.56
277.262	319.56
277.494	333.56
277.726	308.56
277.957	290.56
278.189	272.56
278.421	293.56
278.652	277.56
278.884	276.56
279.115	282.56
279.347	284.56
279.579	271.56
279.81	285.56
280.042	268.56
280.273	266.56
280.505	280.56
280.736	247.56
280.968	282.56
281.199	280.56
281.431	269.56
281.662	281.56
281.894	282.56
282.125	270.56
282.356	289.56
282.588	309.56
282.819	310.56
283.051	300.56
283.282	287.56
283.513	273.56
283.745	284.56
283.976	279.56
284.207	284.56
284.439	296.56
284.67	303.56
284.901	292.56
285.132	295.56
285.364	272.56
285.595	275.56
285.826	279.56
286.057	299.56
286.288	291.56
286.52	293.56
286.751	287.56
286.982	271.56
287.213	300.56
287.444	290.56
287.675	310.56
287.906	309.56
288.138	324.56
288.369	303.56
288.6	312.56
288.831	312.56
289.062	312.56
289.293	299.56
289.524	301.56
289.755	307.56
289.986	311.56
290.217	298.56
290.448	294.56
290.679	298.56
290.91	305.56
291.141	289.56
291.371	298.56
291.602	284.56
291.833	296.56
292.064	297.56
292.295	286.56
292.526	284.56
292.757	298.56
292.987	305.56
293.218	289.56
293.449	305.56
293.68	303.56
293.91	301.56
294.141	306.56
294.372	283.56
294.603	294.56
294.833	292.56
295.064	286.56
295.295	303.56
295.525	294.56
295.756	302.56
295.987	316.56
296.217	339.56
296.448	343.56
296.679	293.56
296.909	305.56
297.14	307.56
297.37	292.56
297.601	298.56
297.831	296.56
298.062	313.56
298.292	307.56
298.523	319.56
298.753	326.56
298.984	301.56
299.214	324.56
299.445	312.56
299.675	323.56
299.905	326.56
300.136	295.56
300.366	325.56
300.597	329.56
300.827	318.56
301.057	335.56
301.288	333.56
301.518	338.56
301.748	309.56
301.979	341.56
302.209	332.56
302.439	338.56
302.669	325.56
302.9	341.56
303.13	318.56
303.36	320.56
303.59	349.56
303.82	334.56
304.051	343.56
304.281	299.56
304.511	327.56
304.741	332.56
304.971	329.56
305.201	331.56
305.431	333.56
305.661	336.56
305.891	343.56
306.121	351.56
306.352	359.56
306.582	349.56
306.812	335.56
307.042	336.56
307.272	329.56
307.502	323.56
307.731	346.56
307.961	359.56
308.191	356.56
308.421	346.56
308.651	335.56
308.881	339.56
309.111	362.56
309.341	353.56
309.571	366.56
309.8	369.56
310.03	369.56
310.26	386.56
310.49	370.56
310.72	390.56
310.949	405.56
311.179	389.56
311.409	393.56
311.639	381.56
311.868	385.56
312.098	378.56
312.328	374.56
312.557	421.56
312.787	406.56
313.017	420.56
313.246	389.56
313.476	386.56
313.706	400.56
313.935	398.56
314.165	399.56
314.394	391.56
314.624	394.56
314.853	391.56
315.083	393.56
315.312	393.56
315.542	390.56
315.771	395.56
316.001	380.56
316.23	381.56
316.46	366.56
316.689	377.56
316.919	377.56
317.148	395.56
317.377	391.56
317.607	417.56
317.836	377.56
318.065	372.56
318.295	385.56
318.524	395.56
318.753	371.56
318.983	390.56
319.212	365.56
319.441	396.56
319.67	399.56
319.9	394.56
320.129	380.56
320.358	383.56
320.587	389.56
320.816	404.56
321.046	417.56
321.275	393.56
321.504	396.56
321.733	412.56
321.962	416.56
322.191	437.56
322.42	439.56
322.649	448.56
322.878	453.56
323.108	473.56
323.337	480.56
323.566	502.56
323.795	522.56
324.024	571.56
324.253	696.56
324.482	1015.56
324.71	1524.56
324.939	2012.56
325.168	1710.56
325.397	909.56
325.626	621.56
325.855	550.56
326.084	516.56
326.313	506.56
326.542	508.56
326.77	555.56
326.999	665.56
327.228	876.56
327.457	1277.56
327.686	1498.56
327.914	1006.56
328.143	674.56
328.372	610.56
328.6	583.56
328.829	560.56
329.058	575.56
329.287	559.56
329.515	550.56
329.744	515.56
329.972	499.56
330.201	527.56
330.43	557.56
330.658	571.56
330.887	590.56
331.115	567.56
331.344	511.56
331.572	502.56
331.801	505.56
332.03	491.56
332.258	462.56
332.486	446.56
332.715	452.56
332.943	448.56
333.172	429.56
333.4	443.56
333.629	453.56
333.857	472.56
334.085	485.56
334.314	511.56
334.542	515.56
334.771	521.56
334.999	465.56
335.227	450.56
335.455	459.56
335.684	455.56
335.912	440.56
336.14	428.56
336.369	442.56
336.597	434.56
336.825	423.56
337.053	443.56
337.281	430.56
337.51	433.56
337.738	437.56
337.966	443.56
338.194	429.56
338.422	438.56
338.65	419.56
338.878	424.56
339.106	405.56
339.334	439.56
339.562	400.56
339.79	415.56
340.018	407.56
340.246	420.56
340.474	443.56
340.702	422.56
340.93	407.56
341.158	415.56
341.386	420.56
341.614	417.56
341.842	415.56
342.07	415.56
342.298	405.56
342.526	415.56
342.754	419.56
342.981	403.56
343.209	412.56
343.437	409.56
343.665	424.56
343.893	410.56
344.12	419.56
344.348	411.56
344.576	440.56
344.804	435.56
345.031	443.56
345.259	434.56
345.487	424.56
345.714	407.56
345.942	410.56
346.17	429.56
346.397	412.56
346.625	435.56
346.853	391.56
347.08	407.56
347.308	417.56
347.535	423.56
347.763	403.56
347.99	391.56
348.218	424.56
348.445	418.56
348.673	397.56
348.9	413.56
349.128	420.56
349.355	398.56
349.583	383.56
349.81	400.56
350.037	381.56
350.265	397.56
350.492	393.56
350.72	393.56
350.947	407.56
351.174	395.56
351.402	400.56
351.629	395.56
351.856	417.56
352.083	391.56
352.311	409.56
352.538	415.56
352.765	399.56
352.992	381.56
353.22	398.56
353.447	398.56
353.674	383.56
353.901	397.56
354.128	370.56
354.355	373.56
354.583	374.56
354.81	357.56
355.037	370.56
355.264	374.56
355.491	358.56
355.718	354.56
355.945	357.56
356.172	366.56
356.399	350.56
356.626	359.56
356.853	365.56
357.08	365.56
357.307	371.56
357.534	366.56
357.761	363.56
357.988	357.56
358.215	363.56
358.441	380.56
358.668	381.56
358.895	373.56
359.122	367.56
359.349	383.56
359.576	371.56
359.802	397.56
360.029	412.56
360.256	449.56
360.483	414.56
360.709	393.56
360.936	377.56
361.163	395.56
361.39	405.56
361.616	406.56
361.843	399.56
362.07	362.56
362.296	373.56
362.523	369.56
362.749	380.56
362.976	370.56
363.203	370.56
363.429	366.56
363.656	366.56
363.882	369.56
364.109	383.56
364.335	391.56
364.562	364.56
364.788	382.56
365.015	379.56
365.241	365.56
365.468	379.56
365.694	379.56
365.92	387.56
366.147	379.56
366.373	367.56
366.599	369.56
366.826	365.56
367.052	372.56
367.278	370.56
367.505	366.56
367.731	376.56
367.957	371.56
368.184	373.56
368.41	378.56
368.636	371.56
368.862	392.56
369.089	366.56
369.315	363.56
369.541	354.56
369.767	369.56
369.993	362.56
370.219	351.56
370.445	353.56
370.672	373.56
370.898	347.56
371.124	378.56
371.35	366.56
371.576	354.56
371.802	371.56
372.028	361.56
372.254	350.56
372.48	358.56
372.706	362.56
372.932	346.56
373.158	364.56
373.384	357.56
373.61	349.56
373.835	369.56
374.061	359.56
374.287	364.56
374.513	382.56
374.739	360.56
374.965	362.56
375.191	358.56
375.416	362.56
375.642	364.56
375.868	358.56
376.094	353.56
376.319	358.56
376.545	349.56
376.771	358.56
376.997	340.56
377.222	342.56
377.448	353.56
377.674	354.56
377.899	375.56
378.125	326.56
378.35	342.56
378.576	339.56
378.802	334.56
379.027	364.56
379.253	355.56
379.478	343.56
379.704	364.56
379.929	349.56
380.155	353.56
380.38	347.56
380.606	360.56
380.831	360.56
381.057	369.56
381.282	355.56
381.507	369.56
381.733	363.56
381.958	371.56
382.184	357.56
382.409	365.56
382.634	350.56
382.86	347.56
383.085	361.56
383.31	340.56
383.535	366.56
383.761	377.56
383.986	378.56
384.211	376.56
384.436	380.56
384.662	347.56
384.887	370.56
385.112	365.56
385.337	377.56
385.562	378.56
385.787	371.56
386.013	386.56
386.238	377.56
386.463	378.56
386.688	360.56
386.913	377.56
387.138	373.56
387.363	377.56
387.588	374.56
387.813	370.56
388.038	370.56
388.263	381.56
388.488	378.56
388.713	377.56
388.938	374.56
389.163	374.56
389.387	357.56
389.612	371.56
389.837	379.56
390.062	386.56
390.287	370.56
390.512	370.56
390.736	365.56
390.961	361.56
391.186	379.56
391.411	351.56
391.636	352.56
391.86	377.56
392.085	379.56
392.31	397.56
392.534	371.56
392.759	377.56
392.984	356.56
393.208	375.56
393.433	371.56
393.658	371.56
393.882	376.56
394.107	362.56
394.331	377.56
394.556	381.56
394.78	364.56
395.005	365.56
395.229	360.56
395.454	382.56
395.678	383.56
395.903	397.56
396.127	380.56
396.352	414.56
396.576	373.56
396.801	376.56
397.025	380.56
397.249	387.56
397.474	381.56
397.698	408.56
397.922	405.56
398.147	423.56
398.371	394.56
398.595	429.56
398.82	422.56
399.044	407.56
399.268	427.56
399.492	445.56
399.717	465.56
399.941	488.56
400.165	501.56
400.389	517.56
400.613	461.56
400.837	439.56
401.062	422.56
401.286	410.56
401.51	391.56
401.734	402.56
401.958	397.56
402.182	403.56
402.406	417.56
402.63	425.56
402.854	424.56
403.078	420.56
403.302	415.56
403.526	448.56
403.75	427.56
403.974	426.56
404.198	421.56
404.422	414.56
404.645	413.56
404.869	426.56
405.093	466.56
405.317	514.56
405.541	512.56
405.765	477.56
405.988	449.56
406.212	451.56
406.436	474.56
406.66	470.56
406.883	460.56
407.107	462.56
407.331	537.56
407.555	574.56
407.778	572.56
408.002	508.56
408.226	470.56
408.449	466.56
408.673	463.56
408.896	470.56
409.12	541.56
409.344	467.56
409.567	451.56
409.791	426.56
410.014	428.56
410.238	418.56
410.461	436.56
410.685	436.56
410.908	429.56
411.132	485.56
411.355	483.56
411.578	478.56
411.802	429.56
412.025	421.56
412.249	440.56
412.472	457.56
412.695	462.56
412.919	470.56
413.142	449.56
413.365	417.56
413.589	440.56
413.812	433.56
414.035	406.56
414.258	401.56
414.482	396.56
414.705	389.56
414.928	398.56
415.151	414.56
415.374	388.56
415.597	389.56
415.821	399.56
416.044	393.56
416.267	388.56
416.49	411.56
416.713	411.56
416.936	390.56
417.159	400.56
417.382	418.56
417.605	403.56
417.828	406.56
418.051	422.56
418.274	413.56
418.497	417.56
418.72	383.56
418.943	399.56
419.166	408.56
419.389	436.56
419.611	427.56
419.834	413.56
420.057	425.56
420.28	418.56
420.503	433.56
420.726	402.56
420.948	444.56
421.171	471.56
421.394	490.56
421.617	441.56
421.839	419.56
422.062	437.56
422.285	457.56
422.507	481.56
422.73	538.56
422.953	529.56
423.175	476.56
423.398	469.56
423.621	436.56
423.843	462.56
424.066	467.56
424.288	461.56
424.511	467.56
424.733	538.56
424.956	596.56
425.178	571.56
425.401	568.56
425.623	558.56
425.846	491.56
426.068	457.56
426.291	436.56
426.513	453.56
426.735	475.56
426.958	495.56
427.18	551.56
427.402	669.56
427.625	713.56
427.847	643.56
428.069	562.56
428.292	519.56
428.514	454.56
428.736	449.56
428.958	435.56
429.181	417.56
429.403	424.56
429.625	439.56
429.847	468.56
430.069	509.56
430.292	517.56
430.514	423.56
430.736	418.56
430.958	398.56
431.18	400.56
431.402	393.56
431.624	393.56
431.846	384.56
432.068	399.56
432.29	385.56
432.512	385.56
432.734	386.56
432.956	400.56
433.178	404.56
433.4	414.56
433.622	405.56
433.844	383.56
434.066	413.56
434.287	393.56
434.509	379.56
434.731	409.56
434.953	408.56
435.175	420.56
435.397	438.56
435.618	457.56
435.84	502.56
436.062	561.56
436.284	623.56
436.505	519.56
436.727	457.56
436.949	435.56
437.17	413.56
437.392	409.56
437.614	426.56
437.835	461.56
438.057	531.56
438.278	615.56
438.5	616.56
438.721	677.56
438.943	609.56
439.165	517.56
439.386	455.56
439.608	445.56
439.829	463.56
440.05	485.56
440.272	521.56
440.493	492.56
440.715	441.56
440.936	435.56
441.158	434.56
441.379	412.56
441.6	425.56
441.822	431.56
442.043	472.56
442.264	571.56
442.486	590.56
442.707	483.56
442.928	453.56
443.149	468.56
443.371	504.56
443.592	533.56
443.813	602.56
444.034	648.56
444.255	538.56
444.476	471.56
444.698	471.56
444.919	442.56
445.14	521.56
445.361	497.56
445.582	477.56
445.803	551.56
446.024	622.56
446.245	646.56
446.466	593.56
446.687	493.56
446.908	463.56
447.129	437.56
447.35	398.56
447.571	435.56
447.792	425.56
448.013	433.56
448.234	424.56
448.455	482.56
448.675	585.56
448.896	665.56
449.117	564.56
449.338	567.56
449.559	626.56
449.779	692.56
450	565.56
450.221	469.56
450.442	428.56
450.662	406.56
450.883	409.56
451.104	426.56
451.324	408.56
451.545	384.56
451.766	407.56
451.986	358.56
452.207	362.56
452.428	362.56
452.648	372.56
452.869	378.56
453.089	387.56
453.31	393.56
453.53	386.56
453.751	377.56
453.971	369.56
454.192	366.56
454.412	370.56
454.633	371.56
454.853	356.56
455.073	363.56
455.294	386.56
455.514	457.56
455.734	425.56
455.955	401.56
456.175	377.56
456.395	357.56
456.616	340.56
456.836	357.56
457.056	356.56
457.276	322.56
457.497	335.56
457.717	337.56
457.937	352.56
458.157	362.56
458.377	357.56
458.598	369.56
458.818	419.56
459.038	478.56
459.258	475.56
459.478	406.56
459.698	395.56
459.918	381.56
460.138	387.56
460.358	381.56
460.578	386.56
460.798	398.56
461.018	394.56
461.238	381.56
461.458	397.56
461.678	381.56
461.898	386.56
462.118	383.56
462.338	392.56
462.558	385.56
462.777	397.56
462.997	407.56
463.217	404.56
463.437	411.56
463.657	404.56
463.876	409.56
464.096	392.56
464.316	398.56
464.536	410.56
464.755	421.56
464.975	415.56
465.195	475.56
465.414	493.56
465.634	441.56
465.854	411.56
466.073	410.56
466.293	388.56
466.512	378.56
466.732	382.56
466.951	383.56
467.171	377.56
467.391	402.56
467.61	393.56
467.829	403.56
468.049	399.56
468.268	373.56
468.488	388.56
468.707	389.56
468.927	372.56
469.146	365.56
469.365	373.56
469.585	381.56
469.804	382.56
470.023	380.56
470.243	403.56
470.462	390.56
470.681	401.56
470.901	414.56
471.12	400.56
471.339	394.56
471.558	403.56
471.777	378.56
471.997	382.56
472.216	384.56
472.435	398.56
472.654	392.56
472.873	389.56
473.092	373.56
473.311	369.56
473.53	404.56
473.749	397.56
473.968	426.56
474.187	530.56
474.406	545.56
474.625	447.56
474.844	400.56
475.063	379.56
475.282	392.56
475.501	394.56
475.72	412.56
475.939	383.56
476.158	375.56
476.377	398.56
476.596	388.56
476.814	409.56
477.033	405.56
477.252	403.56
477.471	416.56
477.69	385.56
477.908	398.56
478.127	399.56
478.346	417.56
478.564	421.56
478.783	426.56
479.002	435.56
479.22	428.56
479.439	433.56
479.658	451.56
479.876	447.56
480.095	459.56
480.313	486.56
480.532	449.56
480.751	467.56
480.969	458.56
481.188	495.56
481.406	520.56
481.624	468.56
481.843	471.56
482.061	456.56
482.28	452.56
482.498	433.56
482.717	435.56
482.935	450.56
483.153	455.56
483.372	459.56
483.59	438.56
483.808	425.56
484.027	424.56
484.245	444.56
484.463	440.56
484.681	439.56
484.9	450.56
485.118	463.56
485.336	458.56
485.554	437.56
485.772	453.56
485.99	454.56
486.209	452.56
486.427	459.56
486.645	459.56
486.863	484.56
487.081	477.56
487.299	476.56
487.517	481.56
487.735	473.56
487.953	488.56
488.171	481.56
488.389	460.56
488.607	462.56
488.825	476.56
489.043	481.56
489.261	478.56
489.479	463.56
489.696	477.56
489.914	487.56
490.132	473.56
490.35	521.56
490.568	484.56
490.786	511.56
491.003	517.56
491.221	508.56
491.439	549.56
491.657	551.56
491.874	543.56
492.092	549.56
492.31	558.56
492.527	573.56
492.745	574.56
492.963	561.56
493.18	551.56
493.398	574.56
493.615	575.56
493.833	582.56
494.05	572.56
494.268	574.56
494.485	561.56
494.703	565.56
494.92	545.56
495.138	585.56
495.355	578.56
495.573	553.56
495.79	557.56
496.008	572.56
496.225	554.56
496.442	575.56
496.66	544.56
496.877	567.56
497.094	548.56
497.312	559.56
497.529	582.56
497.746	608.56
497.963	586.56
498.181	616.56
498.398	618.56
498.615	601.56
498.832	613.56
499.049	613.56
499.267	649.56
499.484	667.56
499.701	671.56
499.918	701.56
500.135	699.56
500.352	722.56
500.569	734.56
500.786	732.56
501.003	724.56
501.22	701.56
501.437	678.56
501.654	702.56
501.871	700.56
502.088	700.56
502.305	636.56
502.522	612.56
502.739	619.56
502.956	603.56
503.172	592.56
503.389	598.56
503.606	590.56
503.823	568.56
504.04	563.56
504.256	566.56
504.473	555.56
504.69	539.56
504.907	553.56
505.123	552.56
505.34	564.56
505.557	548.56
505.773	559.56
505.99	545.56
506.207	558.56
506.423	545.56
506.64	549.56
506.856	508.56
507.073	549.56
507.289	541.56
507.506	520.56
507.722	533.56
507.939	540.56
508.155	513.56
508.372	507.56
508.588	502.56
508.805	506.56
509.021	509.56
509.238	528.56
509.454	550.56
509.67	526.56
509.887	506.56
510.103	526.56
510.319	528.56
510.536	574.56
510.752	899.56
510.968	732.56
511.184	537.56
511.401	481.56
511.617	507.56
511.833	502.56
512.049	490.56
512.265	475.56
512.481	469.56
512.698	471.56
512.914	476.56
513.13	483.56
513.346	478.56
513.562	490.56
513.778	482.56
513.994	472.56
514.21	494.56
514.426	508.56
514.642	538.56
514.858	570.56
515.074	580.56
515.29	680.56
515.506	950.56
515.721	790.56
515.937	573.56
516.153	537.56
516.369	519.56
516.585	520.56
516.801	471.56
517.016	481.56
517.232	498.56
517.448	490.56
517.664	500.56
517.879	491.56
518.095	503.56
518.311	501.56
518.527	474.56
518.742	499.56
518.958	488.56
519.173	488.56
519.389	475.56
519.605	479.56
519.82	493.56
520.036	511.56
520.251	501.56
520.467	523.56
520.682	537.56
520.898	513.56
521.113	535.56
521.329	574.56
521.544	618.56
521.76	766.56
521.975	1230.56
522.19	1157.56
522.406	666.56
522.621	517.56
522.836	503.56
523.052	469.56
523.267	454.56
523.482	445.56
523.698	436.56
523.913	436.56
524.128	437.56
524.343	422.56
524.559	416.56
524.774	429.56
524.989	425.56
525.204	415.56
525.419	417.56
525.634	427.56
525.849	409.56
526.064	397.56
526.28	427.56
526.495	399.56
526.71	396.56
526.925	397.56
527.14	400.56
527.355	407.56
527.57	403.56
527.785	381.56
527.999	371.56
528.214	397.56
528.429	381.56
528.644	395.56
528.859	387.56
529.074	380.56
529.289	404.56
529.503	451.56
529.718	463.56
529.933	427.56
530.148	398.56
530.363	395.56
530.577	393.56
530.792	390.56
531.007	364.56
531.221	352.56
531.436	383.56
531.651	373.56
531.865	380.56
532.08	353.56
532.295	377.56
532.509	351.56
532.724	397.56
532.938	379.56
533.153	389.56
533.367	391.56
533.582	378.56
533.796	366.56
534.011	360.56
534.225	362.56
534.44	374.56
534.654	358.56
534.868	372.56
535.083	357.56
535.297	360.56
535.511	372.56
535.726	398.56
535.94	389.56
536.154	349.56
536.369	375.56
536.583	352.56
536.797	350.56
537.011	341.56
537.225	343.56
537.44	357.56
537.654	345.56
537.868	346.56
538.082	363.56
538.296	357.56
538.51	349.56
538.724	380.56
538.938	363.56
539.153	373.56
539.367	405.56
539.581	394.56
539.795	351.56
540.009	353.56
540.222	360.56
540.436	371.56
540.65	364.56
540.864	349.56
541.078	374.56
541.292	362.56
541.506	374.56
541.72	385.56
541.934	363.56
542.147	374.56
542.361	362.56
542.575	356.56
542.789	366.56
543.002	372.56
543.216	378.56
543.43	363.56
543.644	377.56
543.857	381.56
544.071	384.56
544.285	364.56
544.498	364.56
544.712	370.56
544.925	365.56
545.139	376.56
545.352	349.56
545.566	348.56
545.779	355.56
545.993	371.56
546.206	356.56
546.42	373.56
546.633	374.56
546.847	345.56
547.06	348.56
547.274	356.56
547.487	361.56
547.7	350.56
547.914	357.56
548.127	355.56
548.34	346.56
548.554	342.56
548.767	363.56
548.98	337.56
549.193	348.56
549.407	331.56
549.62	352.56
549.833	328.56
550.046	342.56
550.259	342.56
550.473	316.56
550.686	362.56
550.899	349.56
551.112	340.56
551.325	333.56
551.538	345.56
551.751	334.56
551.964	331.56
552.177	347.56
552.39	345.56
552.603	338.56
552.816	346.56
553.029	352.56
553.242	354.56
553.455	367.56
553.667	360.56
553.88	373.56
554.093	357.56
554.306	382.56
554.519	339.56
554.732	366.56
554.944	342.56
555.157	322.56
555.37	342.56
555.583	348.56
555.795	338.56
556.008	328.56
556.221	321.56
556.433	321.56
556.646	319.56
556.859	318.56
557.071	323.56
557.284	308.56
557.496	303.56
557.709	322.56
557.921	299.56
558.134	301.56
558.346	313.56
558.559	328.56
558.771	332.56
558.984	316.56
559.196	298.56
559.409	298.56
559.621	309.56
559.833	313.56
560.046	305.56
560.258	299.56
560.47	301.56
560.683	298.56
560.895	288.56
561.107	283.56
561.32	312.56
561.532	321.56
561.744	311.56
561.956	315.56
562.168	315.56
562.381	299.56
562.593	325.56
562.805	319.56
563.017	301.56
563.229	337.56
563.441	316.56
563.653	319.56
563.865	322.56
564.077	302.56
564.289	302.56
564.501	306.56
564.713	317.56
564.925	330.56
565.137	325.56
565.349	321.56
565.561	318.56
565.773	332.56
565.985	330.56
566.197	338.56
566.408	349.56
566.62	353.56
566.832	349.56
567.044	343.56
567.255	353.56
567.467	357.56
567.679	366.56
567.891	360.56
568.102	365.56
568.314	330.56
568.526	339.56
568.737	357.56
568.949	328.56
569.161	319.56
569.372	327.56
569.584	307.56
569.795	318.56
570.007	303.56
570.218	317.56
570.43	314.56
570.641	298.56
570.853	271.56
571.064	284.56
571.276	281.56
571.487	282.56
571.698	271.56
571.91	287.56
572.121	280.56
572.333	272.56
572.544	273.56
572.755	284.56
572.966	264.56
573.178	261.56
573.389	258.56
573.6	257.56
573.811	275.56
574.023	262.56
574.234	269.56
574.445	271.56
574.656	261.56
574.867	270.56
575.078	260.56
575.289	262.56
575.501	268.56
575.712	255.56
575.923	274.56
576.134	261.56
576.345	257.56
576.556	253.56
576.767	244.56
576.978	267.56
577.188	266.56
577.399	250.56
577.61	249.56
577.821	261.56
578.032	264.56
578.243	288.56
578.454	423.56
578.665	340.56
578.875	252.56
579.086	261.56
579.297	257.56
579.508	241.56
579.718	247.56
579.929	238.56
580.14	232.56
580.35	250.56
580.561	246.56
580.772	266.56
580.982	245.56
581.193	220.56
581.403	234.56
581.614	228.56
581.825	248.56
582.035	228.56
582.246	243.56
582.456	238.56
582.667	230.56
582.877	238.56
583.087	238.56
583.298	242.56
583.508	249.56
583.719	255.56
583.929	222.56
584.139	215.56
584.35	227.56
584.56	228.56
584.77	247.56
584.981	236.56
585.191	231.56
585.401	242.56
585.611	215.56
585.821	238.56
586.032	236.56
586.242	247.56
586.452	224.56
586.662	214.56
586.872	228.56
587.082	228.56
587.292	227.56
587.502	247.56
587.713	225.56
587.923	236.56
588.133	249.56
588.343	230.56
588.553	223.56
588.762	216.56
588.972	226.56
589.182	227.56
589.392	224.56
589.602	223.56
589.812	242.56
590.022	247.56
590.232	244.56
590.441	234.56
590.651	241.56
590.861	231.56
591.071	244.56
591.281	230.56
591.49	253.56
591.7	218.56
591.91	228.56
592.119	230.56
592.329	237.56
592.539	249.56
592.748	242.56
592.958	227.56
593.167	239.56
593.377	246.56
593.587	228.56
593.796	235.56
594.006	236.56
594.215	224.56
594.424	230.56
594.634	238.56
594.843	230.56
595.053	231.56
595.262	236.56
595.472	237.56
595.681	225.56
595.89	213.56
596.1	232.56
596.309	226.56
596.518	226.56
596.727	234.56
596.937	226.56
597.146	214.56
597.355	218.56
597.564	204.56
597.774	207.56
597.983	218.56
598.192	213.56
598.401	229.56
598.61	219.56
598.819	216.56
599.028	224.56
599.237	221.56
599.446	215.56
599.655	217.56
599.864	201.56
600.073	207.56
600.282	203.56
600.491	195.56
600.7	185.56
600.909	196.56
601.118	215.56
601.327	210.56
601.536	212.56
601.745	208.56
601.953	216.56
602.162	199.56
602.371	213.56
602.58	194.56
602.789	211.56
602.997	201.56
603.206	227.56
603.415	215.56
603.623	214.56
603.832	217.56
604.041	216.56
604.249	207.56
604.458	201.56
604.666	199.56
604.875	181.56
605.084	204.56
605.292	212.56
605.501	205.56
605.709	202.56
605.918	205.56
606.126	204.56
606.334	205.56
606.543	196.56
606.751	204.56
606.96	197.56
607.168	203.56
607.376	209.56
607.585	205.56
607.793	210.56
608.001	207.56
608.21	201.56
608.418	211.56
608.626	217.56
608.834	197.56
609.043	187.56
609.251	198.56
609.459	207.56
609.667	209.56
609.875	199.56
610.083	206.56
610.291	199.56
610.499	206.56
610.707	202.56
610.916	206.56
611.124	196.56
611.332	195.56
611.54	217.56
611.748	207.56
611.955	206.56
612.163	193.56
612.371	198.56
612.579	196.56
612.787	199.56
612.995	185.56
613.203	211.56
613.411	193.56
613.618	209.56
613.826	211.56
614.034	191.56
614.242	193.56
614.449	206.56
614.657	212.56
614.865	202.56
615.072	214.56
615.28	194.56
615.488	193.56
615.695	190.56
615.903	201.56
616.111	198.56
616.318	217.56
616.526	187.56
616.733	209.56
616.941	196.56
617.148	183.56
617.356	213.56
617.563	199.56
617.771	202.56
617.978	175.56
618.185	193.56
618.393	186.56
618.6	189.56
618.807	189.56
619.015	174.56
619.222	185.56
619.429	205.56
619.637	189.56
619.844	211.56
620.051	177.56
620.258	181.56
620.466	186.56
620.673	193.56
620.88	181.56
621.087	173.56
621.294	191.56
621.501	193.56
621.708	170.56
621.915	201.56
622.122	190.56
622.329	167.56
622.536	179.56
622.743	187.56
622.95	177.56
623.157	197.56
623.364	191.56
623.571	180.56
623.778	169.56
623.985	190.56
624.192	191.56
624.399	167.56
624.606	193.56
624.812	185.56
625.019	170.56
625.226	177.56
625.433	183.56
625.639	169.56
625.846	174.56
626.053	183.56
626.259	167.56
626.466	181.56
626.673	171.56
626.879	170.56
627.086	186.56
627.293	181.56
627.499	180.56
627.706	171.56
627.912	187.56
628.119	176.56
628.325	178.56
628.532	167.56
628.738	157.56
628.945	173.56
629.151	172.56
629.357	171.56
629.564	162.56
629.77	190.56
629.976	154.56
630.183	173.56
630.389	172.56
630.595	170.56
630.802	165.56
631.008	175.56
631.214	172.56
631.42	191.56
631.627	178.56
631.833	165.56
632.039	158.56
632.245	156.56
632.451	158.56
632.657	170.56
632.863	163.56
633.069	149.56
633.275	156.56
633.481	165.56
633.688	164.56
633.893	167.56
634.099	164.56
634.305	158.56
634.511	146.56
634.717	166.56
634.923	161.56
635.129	159.56
635.335	165.56
635.541	166.56
635.747	162.56
635.952	154.56
636.158	145.56
636.364	153.56
636.57	153.56
636.775	162.56
636.981	155.56
637.187	174.56
637.392	162.56
637.598	161.56
637.804	162.56
638.009	164.56
638.215	150.56
638.421	160.56
638.626	163.56
638.832	156.56
639.037	135.56
639.243	163.56
639.448	144.56
639.654	147.56
639.859	161.56
640.065	149.56
640.27	163.56
640.475	161.56
640.681	145.56
640.886	152.56
641.091	139.56
641.297	170.56
641.502	148.56
641.707	173.56
641.913	160.56
642.118	147.56
642.323	135.56
642.528	142.56
642.733	142.56
642.939	148.56
643.144	155.56
643.349	149.56
643.554	144.56
643.759	140.56
643.964	141.56
644.169	143.56
644.374	150.56
644.579	142.56
644.784	152.56
644.989	148.56
645.194	149.56
645.399	153.56
645.604	148.56
645.809	148.56
646.014	159.56
646.219	149.56
646.423	152.56
646.628	143.56
646.833	143.56
647.038	146.56
647.243	155.56
647.447	152.56
647.652	139.56
647.857	141.56
648.062	145.56
648.266	141.56
648.471	150.56
648.676	158.56
648.88	150.56
649.085	166.56
649.289	163.56
649.494	158.56
649.698	161.56
649.903	145.56
650.107	151.56
650.312	153.56
650.516	142.56
650.721	133.56
650.925	140.56
651.13	135.56
651.334	133.56
651.539	142.56
651.743	129.56
651.947	145.56
652.152	144.56
652.356	125.56
652.56	121.56
652.764	146.56
652.969	131.56
653.173	123.56
653.377	131.56
653.581	129.56
653.785	139.56
653.99	132.56
654.194	133.56
654.398	136.56
654.602	134.56
654.806	120.56
655.01	144.56
655.214	129.56
655.418	125.56
655.622	137.56
655.826	120.56
656.03	138.56
656.234	126.56
656.438	135.56
656.642	149.56
656.846	121.56
657.049	123.56
657.253	130.56
657.457	121.56
657.661	118.56
657.865	109.56
658.068	122.56
658.272	116.56
658.476	110.56
658.68	99.56
658.883	97.56
659.087	105.56
659.291	101.56
659.494	98.56
659.698	97.56
659.901	112.56
660.105	97.56
660.309	106.56
660.512	84.56
660.716	92.56
660.919	110.56
661.123	89.56
661.326	90.56
661.53	98.56
661.733	96.56
661.936	82.56
662.14	99.56
662.343	95.56
662.546	93.56
662.75	85.56
662.953	84.56
663.156	90.56
663.36	75.56
663.563	83.56
663.766	75.56
663.969	79.56
664.173	95.56
664.376	77.56
664.579	61.56
664.782	79.56
664.985	75.56
665.188	83.56
665.391	92.56
665.594	93.56
665.797	82.56
666	79.56
666.203	77.56
666.406	75.56
666.609	86.56
666.812	93.56
667.015	76.56
667.218	75.56
667.421	79.56
667.624	68.56
667.827	81.56
668.03	78.56
668.232	94.56
668.435	79.56
668.638	87.56
668.841	85.56
669.043	80.56
669.246	86.56
669.449	91.56
669.651	81.56
669.854	78.56
670.057	85.56
670.259	86.56
670.462	74.56
670.665	91.56
670.867	81.56
671.07	83.56
671.272	82.56
671.475	81.56
671.677	70.56
671.88	78.56
672.082	72.56
672.284	96.56
672.487	89.56
672.689	86.56
672.892	94.56
