Data from 1971.PennyLincolnUp.Lamp.En5.5.200Scan.071719.P1.Scan 2. Changed Angle._HRD10591_15-23-33-842.txt Node
Date: Thu Jul 18 15:23:33 EDT 2019
User: cochatt
Spectrometer: HR+D1059
Trigger mode: 1
Integration Time (sec): 1.000000E-1
Scans to average: 1
Electric dark correction enabled: true
Nonlinearity correction enabled: false
Boxcar width: 0
XAxis mode: Wavelengths
Number of Pixels in Spectrum: 2048
>>>>>Begin Spectral Data<<<<<
223.165	-16.81
223.4	-16.81
223.635	-16.81
223.869	-26.81
224.104	-23.81
224.338	-20.81
224.573	-8.81
224.808	-4.81
225.042	1.19
225.277	-16.81
225.511	-26.81
225.746	17.19
225.98	-4.81
226.215	13.19
226.449	21.19
226.683	30.19
226.918	36.19
227.152	31.19
227.387	29.19
227.621	45.19
227.856	33.19
228.09	59.19
228.324	46.19
228.559	55.19
228.793	80.19
229.027	118.19
229.262	111.19
229.496	121.19
229.73	149.19
229.964	181.19
230.199	150.19
230.433	128.19
230.667	127.19
230.901	112.19
231.136	108.19
231.37	127.19
231.604	120.19
231.838	126.19
232.072	122.19
232.306	116.19
232.541	119.19
232.775	120.19
233.009	118.19
233.243	111.19
233.477	112.19
233.711	124.19
233.945	104.19
234.179	134.19
234.413	122.19
234.647	120.19
234.881	126.19
235.115	122.19
235.349	112.19
235.583	125.19
235.817	134.19
236.051	136.19
236.285	126.19
236.519	124.19
236.753	126.19
236.987	161.19
237.221	204.19
237.455	273.19
237.689	213.19
237.922	151.19
238.156	134.19
238.39	144.19
238.624	134.19
238.858	129.19
239.091	114.19
239.325	119.19
239.559	129.19
239.793	111.19
240.027	141.19
240.26	141.19
240.494	182.19
240.728	175.19
240.961	169.19
241.195	155.19
241.429	147.19
241.662	138.19
241.896	149.19
242.13	142.19
242.363	156.19
242.597	132.19
242.83	156.19
243.064	139.19
243.298	131.19
243.531	142.19
243.765	140.19
243.998	149.19
244.232	140.19
244.465	157.19
244.699	150.19
244.932	159.19
245.166	152.19
245.399	155.19
245.633	156.19
245.866	164.19
246.099	166.19
246.333	177.19
246.566	168.19
246.8	149.19
247.033	156.19
247.266	183.19
247.5	181.19
247.733	185.19
247.966	177.19
248.2	156.19
248.433	177.19
248.666	202.19
248.899	193.19
249.133	213.19
249.366	221.19
249.599	213.19
249.832	219.19
250.066	199.19
250.299	193.19
250.532	206.19
250.765	219.19
250.998	237.19
251.231	249.19
251.465	233.19
251.698	230.19
251.931	216.19
252.164	205.19
252.397	195.19
252.63	225.19
252.863	219.19
253.096	234.19
253.329	225.19
253.562	250.19
253.795	247.19
254.028	230.19
254.261	245.19
254.494	246.19
254.727	297.19
254.96	317.19
255.193	303.19
255.426	296.19
255.659	263.19
255.892	268.19
256.124	239.19
256.357	240.19
256.59	237.19
256.823	248.19
257.056	248.19
257.289	241.19
257.521	228.19
257.754	224.19
257.987	207.19
258.22	220.19
258.452	223.19
258.685	225.19
258.918	219.19
259.151	227.19
259.383	225.19
259.616	220.19
259.849	236.19
260.081	252.19
260.314	279.19
260.547	273.19
260.779	253.19
261.012	250.19
261.244	244.19
261.477	260.19
261.71	249.19
261.942	235.19
262.175	268.19
262.407	225.19
262.64	226.19
262.872	223.19
263.105	212.19
263.337	214.19
263.57	236.19
263.802	221.19
264.035	230.19
264.267	227.19
264.499	212.19
264.732	211.19
264.964	216.19
265.197	217.19
265.429	231.19
265.661	218.19
265.894	219.19
266.126	220.19
266.358	219.19
266.591	217.19
266.823	226.19
267.055	214.19
267.287	234.19
267.52	222.19
267.752	240.19
267.984	227.19
268.216	243.19
268.448	238.19
268.681	222.19
268.913	257.19
269.145	270.19
269.377	299.19
269.609	288.19
269.841	271.19
270.073	286.19
270.306	306.19
270.538	345.19
270.77	350.19
271.002	321.19
271.234	301.19
271.466	310.19
271.698	331.19
271.93	323.19
272.162	344.19
272.394	345.19
272.626	332.19
272.858	316.19
273.09	287.19
273.322	302.19
273.553	279.19
273.785	284.19
274.017	261.19
274.249	276.19
274.481	251.19
274.713	270.19
274.945	281.19
275.176	272.19
275.408	262.19
275.64	258.19
275.872	271.19
276.104	273.19
276.335	258.19
276.567	274.19
276.799	306.19
277.031	308.19
277.262	339.19
277.494	324.19
277.726	320.19
277.957	304.19
278.189	274.19
278.421	276.19
278.652	281.19
278.884	283.19
279.115	273.19
279.347	280.19
279.579	268.19
279.81	271.19
280.042	273.19
280.273	263.19
280.505	265.19
280.736	264.19
280.968	269.19
281.199	266.19
281.431	286.19
281.662	266.19
281.894	267.19
282.125	256.19
282.356	273.19
282.588	311.19
282.819	299.19
283.051	272.19
283.282	279.19
283.513	269.19
283.745	270.19
283.976	278.19
284.207	269.19
284.439	286.19
284.67	282.19
284.901	279.19
285.132	272.19
285.364	257.19
285.595	265.19
285.826	265.19
286.057	275.19
286.288	271.19
286.52	258.19
286.751	263.19
286.982	278.19
287.213	266.19
287.444	265.19
287.675	258.19
287.906	281.19
288.138	296.19
288.369	282.19
288.6	312.19
288.831	308.19
289.062	293.19
289.293	287.19
289.524	296.19
289.755	285.19
289.986	270.19
290.217	281.19
290.448	273.19
290.679	286.19
290.91	273.19
291.141	267.19
291.371	277.19
291.602	282.19
291.833	276.19
292.064	276.19
292.295	261.19
292.526	278.19
292.757	280.19
292.987	286.19
293.218	276.19
293.449	281.19
293.68	296.19
293.91	296.19
294.141	286.19
294.372	273.19
294.603	284.19
294.833	283.19
295.064	290.19
295.295	276.19
295.525	301.19
295.756	290.19
295.987	298.19
296.217	317.19
296.448	344.19
296.679	320.19
296.909	300.19
297.14	285.19
297.37	313.19
297.601	291.19
297.831	286.19
298.062	292.19
298.292	297.19
298.523	304.19
298.753	277.19
298.984	286.19
299.214	285.19
299.445	305.19
299.675	305.19
299.905	312.19
300.136	300.19
300.366	316.19
300.597	307.19
300.827	311.19
301.057	304.19
301.288	313.19
301.518	310.19
301.748	328.19
301.979	301.19
302.209	328.19
302.439	320.19
302.669	317.19
302.9	318.19
303.13	319.19
303.36	324.19
303.59	330.19
303.82	319.19
304.051	340.19
304.281	334.19
304.511	313.19
304.741	311.19
304.971	317.19
305.201	333.19
305.431	310.19
305.661	313.19
305.891	306.19
306.121	332.19
306.352	331.19
306.582	330.19
306.812	322.19
307.042	324.19
307.272	325.19
307.502	320.19
307.731	322.19
307.961	323.19
308.191	328.19
308.421	316.19
308.651	327.19
308.881	330.19
309.111	340.19
309.341	335.19
309.571	352.19
309.8	355.19
310.03	379.19
310.26	373.19
310.49	381.19
310.72	395.19
310.949	404.19
311.179	402.19
311.409	377.19
311.639	369.19
311.868	383.19
312.098	380.19
312.328	387.19
312.557	414.19
312.787	406.19
313.017	414.19
313.246	389.19
313.476	363.19
313.706	371.19
313.935	380.19
314.165	401.19
314.394	422.19
314.624	410.19
314.853	396.19
315.083	403.19
315.312	385.19
315.542	375.19
315.771	388.19
316.001	369.19
316.23	355.19
316.46	376.19
316.689	379.19
316.919	374.19
317.148	376.19
317.377	371.19
317.607	398.19
317.836	386.19
318.065	384.19
318.295	392.19
318.524	383.19
318.753	376.19
318.983	388.19
319.212	376.19
319.441	398.19
319.67	399.19
319.9	400.19
320.129	356.19
320.358	367.19
320.587	407.19
320.816	419.19
321.046	400.19
321.275	402.19
321.504	424.19
321.733	446.19
321.962	413.19
322.191	448.19
322.42	470.19
322.649	465.19
322.878	500.19
323.108	473.19
323.337	506.19
323.566	531.19
323.795	582.19
324.024	670.19
324.253	818.19
324.482	1183.19
324.71	1788.19
324.939	2566.19
325.168	2252.19
325.397	1170.19
325.626	751.19
325.855	625.19
326.084	576.19
326.313	560.19
326.542	556.19
326.77	620.19
326.999	730.19
327.228	1031.19
327.457	1572.19
327.686	1944.19
327.914	1276.19
328.143	839.19
328.372	746.19
328.6	710.19
328.829	639.19
329.058	669.19
329.287	672.19
329.515	604.19
329.744	570.19
329.972	580.19
330.201	570.19
330.43	614.19
330.658	655.19
330.887	688.19
331.115	651.19
331.344	565.19
331.572	519.19
331.801	527.19
332.03	509.19
332.258	491.19
332.486	476.19
332.715	458.19
332.943	456.19
333.172	445.19
333.4	465.19
333.629	452.19
333.857	477.19
334.085	511.19
334.314	522.19
334.542	530.19
334.771	572.19
334.999	537.19
335.227	479.19
335.455	446.19
335.684	429.19
335.912	463.19
336.14	433.19
336.369	444.19
336.597	465.19
336.825	447.19
337.053	442.19
337.281	443.19
337.51	450.19
337.738	443.19
337.966	428.19
338.194	449.19
338.422	442.19
338.65	424.19
338.878	443.19
339.106	432.19
339.334	452.19
339.562	421.19
339.79	418.19
340.018	462.19
340.246	436.19
340.474	417.19
340.702	445.19
340.93	420.19
341.158	424.19
341.386	441.19
341.614	429.19
341.842	424.19
342.07	438.19
342.298	428.19
342.526	434.19
342.754	419.19
342.981	414.19
343.209	416.19
343.437	416.19
343.665	433.19
343.893	417.19
344.12	430.19
344.348	436.19
344.576	448.19
344.804	442.19
345.031	452.19
345.259	477.19
345.487	455.19
345.714	449.19
345.942	449.19
346.17	425.19
346.397	429.19
346.625	443.19
346.853	418.19
347.08	417.19
347.308	422.19
347.535	442.19
347.763	454.19
347.99	436.19
348.218	446.19
348.445	461.19
348.673	448.19
348.9	447.19
349.128	447.19
349.355	413.19
349.583	415.19
349.81	400.19
350.037	422.19
350.265	421.19
350.492	424.19
350.72	407.19
350.947	417.19
351.174	453.19
351.402	454.19
351.629	443.19
351.856	415.19
352.083	462.19
352.311	460.19
352.538	472.19
352.765	475.19
352.992	451.19
353.22	457.19
353.447	444.19
353.674	446.19
353.901	428.19
354.128	420.19
354.355	415.19
354.583	397.19
354.81	403.19
355.037	410.19
355.264	387.19
355.491	388.19
355.718	386.19
355.945	401.19
356.172	403.19
356.399	382.19
356.626	400.19
356.853	403.19
357.08	408.19
357.307	397.19
357.534	396.19
357.761	403.19
357.988	390.19
358.215	395.19
358.441	423.19
358.668	403.19
358.895	401.19
359.122	420.19
359.349	440.19
359.576	441.19
359.802	494.19
360.029	502.19
360.256	528.19
360.483	497.19
360.709	455.19
360.936	429.19
361.163	430.19
361.39	446.19
361.616	454.19
361.843	430.19
362.07	440.19
362.296	452.19
362.523	445.19
362.749	442.19
362.976	432.19
363.203	425.19
363.429	417.19
363.656	423.19
363.882	407.19
364.109	421.19
364.335	422.19
364.562	420.19
364.788	411.19
365.015	417.19
365.241	422.19
365.468	417.19
365.694	418.19
365.92	448.19
366.147	425.19
366.373	421.19
366.599	408.19
366.826	414.19
367.052	406.19
367.278	413.19
367.505	412.19
367.731	409.19
367.957	420.19
368.184	386.19
368.41	431.19
368.636	426.19
368.862	439.19
369.089	428.19
369.315	428.19
369.541	414.19
369.767	414.19
369.993	426.19
370.219	399.19
370.445	413.19
370.672	420.19
370.898	393.19
371.124	417.19
371.35	402.19
371.576	417.19
371.802	402.19
372.028	402.19
372.254	403.19
372.48	386.19
372.706	412.19
372.932	415.19
373.158	432.19
373.384	411.19
373.61	407.19
373.835	397.19
374.061	433.19
374.287	424.19
374.513	411.19
374.739	428.19
374.965	424.19
375.191	425.19
375.416	423.19
375.642	412.19
375.868	424.19
376.094	420.19
376.319	421.19
376.545	428.19
376.771	423.19
376.997	390.19
377.222	414.19
377.448	402.19
377.674	414.19
377.899	414.19
378.125	416.19
378.35	423.19
378.576	420.19
378.802	410.19
379.027	417.19
379.253	414.19
379.478	412.19
379.704	398.19
379.929	415.19
380.155	408.19
380.38	415.19
380.606	422.19
380.831	411.19
381.057	448.19
381.282	396.19
381.507	417.19
381.733	413.19
381.958	415.19
382.184	430.19
382.409	440.19
382.634	430.19
382.86	426.19
383.085	414.19
383.31	433.19
383.535	426.19
383.761	420.19
383.986	413.19
384.211	420.19
384.436	441.19
384.662	444.19
384.887	441.19
385.112	428.19
385.337	410.19
385.562	424.19
385.787	438.19
386.013	452.19
386.238	477.19
386.463	461.19
386.688	442.19
386.913	462.19
387.138	426.19
387.363	458.19
387.588	436.19
387.813	463.19
388.038	433.19
388.263	423.19
388.488	437.19
388.713	458.19
388.938	450.19
389.163	456.19
389.387	442.19
389.612	462.19
389.837	455.19
390.062	454.19
390.287	466.19
390.512	455.19
390.736	448.19
390.961	457.19
391.186	443.19
391.411	459.19
391.636	456.19
391.86	447.19
392.085	461.19
392.31	475.19
392.534	463.19
392.759	448.19
392.984	438.19
393.208	457.19
393.433	465.19
393.658	482.19
393.882	442.19
394.107	464.19
394.331	446.19
394.556	448.19
394.78	455.19
395.005	440.19
395.229	463.19
395.454	446.19
395.678	450.19
395.903	468.19
396.127	476.19
396.352	500.19
396.576	482.19
396.801	484.19
397.025	466.19
397.249	492.19
397.474	494.19
397.698	502.19
397.922	507.19
398.147	485.19
398.371	520.19
398.595	500.19
398.82	511.19
399.044	493.19
399.268	518.19
399.492	542.19
399.717	559.19
399.941	593.19
400.165	634.19
400.389	626.19
400.613	580.19
400.837	545.19
401.062	534.19
401.286	529.19
401.51	528.19
401.734	491.19
401.958	530.19
402.182	526.19
402.406	541.19
402.63	528.19
402.854	546.19
403.078	529.19
403.302	524.19
403.526	525.19
403.75	544.19
403.974	545.19
404.198	543.19
404.422	549.19
404.645	568.19
404.869	542.19
405.093	579.19
405.317	615.19
405.541	654.19
405.765	602.19
405.988	573.19
406.212	594.19
406.436	625.19
406.66	620.19
406.883	608.19
407.107	629.19
407.331	694.19
407.555	728.19
407.778	725.19
408.002	669.19
408.226	611.19
408.449	583.19
408.673	600.19
408.896	650.19
409.12	679.19
409.344	654.19
409.567	602.19
409.791	580.19
410.014	571.19
410.238	548.19
410.461	559.19
410.685	552.19
410.908	540.19
411.132	614.19
411.355	634.19
411.578	617.19
411.802	580.19
412.025	549.19
412.249	554.19
412.472	599.19
412.695	644.19
412.919	596.19
413.142	570.19
413.365	542.19
413.589	534.19
413.812	523.19
414.035	504.19
414.258	507.19
414.482	503.19
414.705	528.19
414.928	521.19
415.151	506.19
415.374	494.19
415.597	534.19
415.821	523.19
416.044	525.19
416.267	542.19
416.49	516.19
416.713	505.19
416.936	519.19
417.159	530.19
417.382	517.19
417.605	530.19
417.828	538.19
418.051	566.19
418.274	542.19
418.497	525.19
418.72	531.19
418.943	543.19
419.166	541.19
419.389	546.19
419.611	573.19
419.834	561.19
420.057	552.19
420.28	569.19
420.503	555.19
420.726	560.19
420.948	577.19
421.171	621.19
421.394	647.19
421.617	588.19
421.839	576.19
422.062	559.19
422.285	578.19
422.507	616.19
422.73	713.19
422.953	700.19
423.175	612.19
423.398	588.19
423.621	579.19
423.843	596.19
424.066	611.19
424.288	622.19
424.511	622.19
424.733	701.19
424.956	798.19
425.178	760.19
425.401	740.19
425.623	766.19
425.846	634.19
426.068	619.19
426.291	600.19
426.513	624.19
426.735	655.19
426.958	671.19
427.18	778.19
427.402	917.19
427.625	1017.19
427.847	904.19
428.069	776.19
428.292	680.19
428.514	628.19
428.736	610.19
428.958	606.19
429.181	565.19
429.403	572.19
429.625	597.19
429.847	640.19
430.069	694.19
430.292	698.19
430.514	606.19
430.736	591.19
430.958	554.19
431.18	552.19
431.402	521.19
431.624	510.19
431.846	528.19
432.068	524.19
432.29	542.19
432.512	554.19
432.734	545.19
432.956	550.19
433.178	558.19
433.4	520.19
433.622	554.19
433.844	528.19
434.066	533.19
434.287	549.19
434.509	534.19
434.731	542.19
434.953	592.19
435.175	572.19
435.397	604.19
435.618	633.19
435.84	676.19
436.062	784.19
436.284	832.19
436.505	717.19
436.727	648.19
436.949	574.19
437.17	616.19
437.392	605.19
437.614	607.19
437.835	655.19
438.057	732.19
438.278	856.19
438.5	870.19
438.721	921.19
438.943	868.19
439.165	748.19
439.386	658.19
439.608	650.19
439.829	642.19
440.05	670.19
440.272	722.19
440.493	688.19
440.715	627.19
440.936	602.19
441.158	575.19
441.379	581.19
441.6	589.19
441.822	594.19
442.043	657.19
442.264	743.19
442.486	784.19
442.707	707.19
442.928	623.19
443.149	655.19
443.371	674.19
443.592	702.19
443.813	804.19
444.034	879.19
444.255	711.19
444.476	638.19
444.698	617.19
444.919	620.19
445.14	708.19
445.361	666.19
445.582	689.19
445.803	754.19
446.024	885.19
446.245	868.19
446.466	801.19
446.687	683.19
446.908	652.19
447.129	624.19
447.35	601.19
447.571	592.19
447.792	568.19
448.013	582.19
448.234	624.19
448.455	688.19
448.675	811.19
448.896	901.19
449.117	768.19
449.338	733.19
449.559	852.19
449.779	952.19
450	768.19
450.221	653.19
450.442	613.19
450.662	577.19
450.883	596.19
451.104	591.19
451.324	608.19
451.545	551.19
451.766	544.19
451.986	549.19
452.207	519.19
452.428	492.19
452.648	529.19
452.869	514.19
453.089	536.19
453.31	544.19
453.53	523.19
453.751	533.19
453.971	531.19
454.192	551.19
454.412	543.19
454.633	541.19
454.853	516.19
455.073	527.19
455.294	556.19
455.514	652.19
455.734	615.19
455.955	528.19
456.175	502.19
456.395	501.19
456.616	463.19
456.836	476.19
457.056	479.19
457.276	467.19
457.497	481.19
457.717	480.19
457.937	488.19
458.157	517.19
458.377	516.19
458.598	509.19
458.818	614.19
459.038	723.19
459.258	706.19
459.478	607.19
459.698	560.19
459.918	545.19
460.138	525.19
460.358	532.19
460.578	527.19
460.798	528.19
461.018	532.19
461.238	528.19
461.458	532.19
461.678	513.19
461.898	531.19
462.118	530.19
462.338	533.19
462.558	530.19
462.777	547.19
462.997	534.19
463.217	555.19
463.437	559.19
463.657	553.19
463.876	556.19
464.096	538.19
464.316	538.19
464.536	568.19
464.755	589.19
464.975	560.19
465.195	654.19
465.414	727.19
465.634	629.19
465.854	590.19
466.073	583.19
466.293	536.19
466.512	554.19
466.732	521.19
466.951	531.19
467.171	554.19
467.391	549.19
467.61	551.19
467.829	586.19
468.049	527.19
468.268	528.19
468.488	530.19
468.707	510.19
468.927	518.19
469.146	516.19
469.365	490.19
469.585	508.19
469.804	524.19
470.023	559.19
470.243	518.19
470.462	523.19
470.681	565.19
470.901	574.19
471.12	537.19
471.339	530.19
471.558	536.19
471.777	545.19
471.997	528.19
472.216	535.19
472.435	571.19
472.654	572.19
472.873	524.19
473.092	554.19
473.311	505.19
473.53	532.19
473.749	540.19
473.968	593.19
474.187	713.19
474.406	761.19
474.625	612.19
474.844	554.19
475.063	549.19
475.282	500.19
475.501	533.19
475.72	553.19
475.939	558.19
476.158	541.19
476.377	545.19
476.596	554.19
476.814	561.19
477.033	550.19
477.252	571.19
477.471	577.19
477.69	575.19
477.908	567.19
478.127	589.19
478.346	584.19
478.564	584.19
478.783	589.19
479.002	576.19
479.22	607.19
479.439	608.19
479.658	634.19
479.876	647.19
480.095	661.19
480.313	679.19
480.532	649.19
480.751	658.19
480.969	670.19
481.188	742.19
481.406	790.19
481.624	711.19
481.843	664.19
482.061	664.19
482.28	631.19
482.498	643.19
482.717	629.19
482.935	636.19
483.153	625.19
483.372	633.19
483.59	640.19
483.808	617.19
484.027	640.19
484.245	628.19
484.463	650.19
484.681	661.19
484.9	640.19
485.118	676.19
485.336	641.19
485.554	689.19
485.772	650.19
485.99	662.19
486.209	664.19
486.427	649.19
486.645	695.19
486.863	698.19
487.081	699.19
487.299	692.19
487.517	698.19
487.735	681.19
487.953	683.19
488.171	714.19
488.389	710.19
488.607	702.19
488.825	696.19
489.043	686.19
489.261	694.19
489.479	689.19
489.696	725.19
489.914	685.19
490.132	706.19
490.35	696.19
490.568	743.19
490.786	747.19
491.003	763.19
491.221	775.19
491.439	786.19
491.657	804.19
491.874	820.19
492.092	823.19
492.31	814.19
492.527	844.19
492.745	812.19
492.963	827.19
493.18	821.19
493.398	858.19
493.615	848.19
493.833	866.19
494.05	840.19
494.268	852.19
494.485	813.19
494.703	832.19
494.92	818.19
495.138	807.19
495.355	839.19
495.573	854.19
495.79	846.19
496.008	844.19
496.225	828.19
496.442	845.19
496.66	840.19
496.877	833.19
497.094	829.19
497.312	861.19
497.529	847.19
497.746	876.19
497.963	885.19
498.181	882.19
498.398	878.19
498.615	893.19
498.832	872.19
499.049	928.19
499.267	954.19
499.484	942.19
499.701	944.19
499.918	997.19
500.135	1017.19
500.352	1015.19
500.569	1034.19
500.786	1052.19
501.003	1031.19
501.22	1055.19
501.437	982.19
501.654	998.19
501.871	1008.19
502.088	969.19
502.305	940.19
502.522	921.19
502.739	918.19
502.956	884.19
503.172	875.19
503.389	868.19
503.606	894.19
503.823	852.19
504.04	857.19
504.256	848.19
504.473	861.19
504.69	826.19
504.907	810.19
505.123	804.19
505.34	811.19
505.557	802.19
505.773	813.19
505.99	792.19
506.207	811.19
506.423	783.19
506.64	793.19
506.856	790.19
507.073	779.19
507.289	786.19
507.506	800.19
507.722	792.19
507.939	822.19
508.155	808.19
508.372	790.19
508.588	767.19
508.805	768.19
509.021	791.19
509.238	797.19
509.454	793.19
509.67	776.19
509.887	785.19
510.103	779.19
510.319	791.19
510.536	914.19
510.752	1547.19
510.968	1270.19
511.184	819.19
511.401	754.19
511.617	746.19
511.833	725.19
512.049	744.19
512.265	728.19
512.481	759.19
512.698	742.19
512.914	750.19
513.13	744.19
513.346	713.19
513.562	725.19
513.778	755.19
513.994	749.19
514.21	776.19
514.426	806.19
514.642	862.19
514.858	923.19
515.074	993.19
515.29	1160.19
515.506	1739.19
515.721	1434.19
515.937	958.19
516.153	826.19
516.369	812.19
516.585	786.19
516.801	769.19
517.016	771.19
517.232	736.19
517.448	752.19
517.664	746.19
517.879	729.19
518.095	712.19
518.311	738.19
518.527	726.19
518.742	713.19
518.958	729.19
519.173	730.19
519.389	718.19
519.605	725.19
519.82	735.19
520.036	777.19
520.251	772.19
520.467	819.19
520.682	823.19
520.898	827.19
521.113	868.19
521.329	936.19
521.544	1056.19
521.76	1388.19
521.975	2368.19
522.19	2341.19
522.406	1219.19
522.621	905.19
522.836	812.19
523.052	750.19
523.267	728.19
523.482	700.19
523.698	683.19
523.913	671.19
524.128	698.19
524.343	674.19
524.559	636.19
524.774	632.19
524.989	636.19
525.204	632.19
525.419	652.19
525.634	640.19
525.849	646.19
526.064	608.19
526.28	587.19
526.495	605.19
526.71	617.19
526.925	581.19
527.14	577.19
527.355	594.19
527.57	613.19
527.785	592.19
527.999	603.19
528.214	577.19
528.429	576.19
528.644	592.19
528.859	594.19
529.074	590.19
529.289	621.19
529.503	756.19
529.718	734.19
529.933	658.19
530.148	602.19
530.363	602.19
530.577	578.19
530.792	564.19
531.007	574.19
531.221	580.19
531.436	570.19
531.651	558.19
531.865	557.19
532.08	554.19
532.295	570.19
532.509	538.19
532.724	548.19
532.938	550.19
533.153	539.19
533.367	572.19
533.582	561.19
533.796	556.19
534.011	544.19
534.225	550.19
534.44	539.19
534.654	534.19
534.868	540.19
535.083	553.19
535.297	536.19
535.511	546.19
535.726	575.19
535.94	558.19
536.154	561.19
536.369	545.19
536.583	543.19
536.797	532.19
537.011	515.19
537.225	542.19
537.44	522.19
537.654	522.19
537.868	534.19
538.082	553.19
538.296	546.19
538.51	541.19
538.724	531.19
538.938	536.19
539.153	535.19
539.367	536.19
539.581	567.19
539.795	530.19
540.009	506.19
540.222	541.19
540.436	530.19
540.65	543.19
540.864	536.19
541.078	528.19
541.292	538.19
541.506	528.19
541.72	553.19
541.934	542.19
542.147	529.19
542.361	539.19
542.575	520.19
542.789	526.19
543.002	531.19
543.216	531.19
543.43	505.19
543.644	537.19
543.857	543.19
544.071	530.19
544.285	530.19
544.498	518.19
544.712	508.19
544.925	518.19
545.139	522.19
545.352	513.19
545.566	515.19
545.779	518.19
545.993	545.19
546.206	506.19
546.42	547.19
546.633	502.19
546.847	509.19
547.06	529.19
547.274	490.19
547.487	510.19
547.7	508.19
547.914	494.19
548.127	486.19
548.34	493.19
548.554	503.19
548.767	503.19
548.98	513.19
549.193	494.19
549.407	487.19
549.62	494.19
549.833	517.19
550.046	487.19
550.259	511.19
550.473	504.19
550.686	500.19
550.899	514.19
551.112	502.19
551.325	486.19
551.538	486.19
551.751	486.19
551.964	485.19
552.177	463.19
552.39	478.19
552.603	516.19
552.816	480.19
553.029	504.19
553.242	490.19
553.455	488.19
553.667	510.19
553.88	531.19
554.093	527.19
554.306	525.19
554.519	494.19
554.732	517.19
554.944	480.19
555.157	494.19
555.37	479.19
555.583	480.19
555.795	493.19
556.008	481.19
556.221	462.19
556.433	449.19
556.646	466.19
556.859	457.19
557.071	467.19
557.284	444.19
557.496	442.19
557.709	446.19
557.921	459.19
558.134	441.19
558.346	439.19
558.559	459.19
558.771	471.19
558.984	439.19
559.196	440.19
559.409	446.19
559.621	432.19
559.833	432.19
560.046	452.19
560.258	431.19
560.47	433.19
560.683	461.19
560.895	436.19
561.107	426.19
561.32	457.19
561.532	441.19
561.744	426.19
561.956	426.19
562.168	431.19
562.381	438.19
562.593	447.19
562.805	446.19
563.017	439.19
563.229	446.19
563.441	447.19
563.653	432.19
563.865	444.19
564.077	453.19
564.289	465.19
564.501	461.19
564.713	440.19
564.925	448.19
565.137	470.19
565.349	462.19
565.561	475.19
565.773	483.19
565.985	474.19
566.197	486.19
566.408	477.19
566.62	501.19
566.832	476.19
567.044	495.19
567.255	479.19
567.467	498.19
567.679	509.19
567.891	530.19
568.102	506.19
568.314	485.19
568.526	487.19
568.737	489.19
568.949	463.19
569.161	469.19
569.372	452.19
569.584	440.19
569.795	461.19
570.007	457.19
570.218	502.19
570.43	492.19
570.641	434.19
570.853	403.19
571.064	429.19
571.276	396.19
571.487	418.19
571.698	402.19
571.91	407.19
572.121	388.19
572.333	392.19
572.544	396.19
572.755	384.19
572.966	411.19
573.178	381.19
573.389	368.19
573.6	374.19
573.811	371.19
574.023	381.19
574.234	372.19
574.445	377.19
574.656	374.19
574.867	381.19
575.078	359.19
575.289	400.19
575.501	367.19
575.712	368.19
575.923	381.19
576.134	365.19
576.345	376.19
576.556	372.19
576.767	353.19
576.978	364.19
577.188	358.19
577.399	360.19
577.61	366.19
577.821	364.19
578.032	380.19
578.243	401.19
578.454	721.19
578.665	539.19
578.875	364.19
579.086	361.19
579.297	384.19
579.508	381.19
579.718	359.19
579.929	328.19
580.14	362.19
580.35	348.19
580.561	351.19
580.772	370.19
580.982	358.19
581.193	357.19
581.403	350.19
581.614	364.19
581.825	352.19
582.035	350.19
582.246	351.19
582.456	338.19
582.667	348.19
582.877	335.19
583.087	343.19
583.298	358.19
583.508	352.19
583.719	345.19
583.929	334.19
584.139	347.19
584.35	343.19
584.56	326.19
584.77	345.19
584.981	309.19
585.191	348.19
585.401	340.19
585.611	333.19
585.821	326.19
586.032	343.19
586.242	320.19
586.452	321.19
586.662	323.19
586.872	326.19
587.082	332.19
587.292	331.19
587.502	331.19
587.713	327.19
587.923	350.19
588.133	315.19
588.343	312.19
588.553	330.19
588.762	336.19
588.972	339.19
589.182	333.19
589.392	327.19
589.602	325.19
589.812	326.19
590.022	340.19
590.232	317.19
590.441	325.19
590.651	335.19
590.861	314.19
591.071	330.19
591.281	320.19
591.49	338.19
591.7	329.19
591.91	312.19
592.119	329.19
592.329	331.19
592.539	350.19
592.748	341.19
592.958	330.19
593.167	332.19
593.377	332.19
593.587	341.19
593.796	327.19
594.006	335.19
594.215	331.19
594.424	327.19
594.634	321.19
594.843	346.19
595.053	323.19
595.262	333.19
595.472	303.19
595.681	310.19
595.89	316.19
596.1	304.19
596.309	304.19
596.518	301.19
596.727	300.19
596.937	313.19
597.146	330.19
597.355	313.19
597.564	311.19
597.774	299.19
597.983	297.19
598.192	297.19
598.401	295.19
598.61	294.19
598.819	297.19
599.028	299.19
599.237	283.19
599.446	299.19
599.655	299.19
599.864	295.19
600.073	300.19
600.282	292.19
600.491	286.19
600.7	284.19
600.909	282.19
601.118	290.19
601.327	300.19
601.536	299.19
601.745	302.19
601.953	297.19
602.162	295.19
602.371	282.19
602.58	283.19
602.789	283.19
602.997	302.19
603.206	284.19
603.415	273.19
603.623	288.19
603.832	296.19
604.041	284.19
604.249	282.19
604.458	280.19
604.666	267.19
604.875	285.19
605.084	265.19
605.292	274.19
605.501	272.19
605.709	284.19
605.918	275.19
606.126	300.19
606.334	275.19
606.543	280.19
606.751	255.19
606.96	278.19
607.168	269.19
607.376	263.19
607.585	270.19
607.793	300.19
608.001	275.19
608.21	282.19
608.418	290.19
608.626	283.19
608.834	285.19
609.043	289.19
609.251	274.19
609.459	273.19
609.667	280.19
609.875	278.19
610.083	268.19
610.291	282.19
610.499	289.19
610.707	298.19
610.916	274.19
611.124	282.19
611.332	272.19
611.54	280.19
611.748	281.19
611.955	275.19
612.163	282.19
612.371	251.19
612.579	284.19
612.787	272.19
612.995	267.19
613.203	255.19
613.411	279.19
613.618	283.19
613.826	265.19
614.034	268.19
614.242	266.19
614.449	265.19
614.657	267.19
614.865	272.19
615.072	263.19
615.28	268.19
615.488	294.19
615.695	279.19
615.903	269.19
616.111	262.19
616.318	285.19
616.526	258.19
616.733	254.19
616.941	260.19
617.148	262.19
617.356	277.19
617.563	265.19
617.771	273.19
617.978	252.19
618.185	265.19
618.393	254.19
618.6	260.19
618.807	258.19
619.015	266.19
619.222	257.19
619.429	261.19
619.637	255.19
619.844	244.19
620.051	261.19
620.258	257.19
620.466	254.19
620.673	259.19
620.88	227.19
621.087	258.19
621.294	262.19
621.501	249.19
621.708	270.19
621.915	268.19
622.122	258.19
622.329	260.19
622.536	264.19
622.743	258.19
622.95	266.19
623.157	226.19
623.364	263.19
623.571	264.19
623.778	241.19
623.985	242.19
624.192	242.19
624.399	251.19
624.606	237.19
624.812	231.19
625.019	242.19
625.226	262.19
625.433	240.19
625.639	240.19
625.846	221.19
626.053	224.19
626.259	220.19
626.466	224.19
626.673	246.19
626.879	254.19
627.086	223.19
627.293	220.19
627.499	241.19
627.706	241.19
627.912	241.19
628.119	245.19
628.325	221.19
628.532	222.19
628.738	222.19
628.945	218.19
629.151	237.19
629.357	225.19
629.564	229.19
629.77	225.19
629.976	222.19
630.183	216.19
630.389	222.19
630.595	214.19
630.802	223.19
631.008	233.19
631.214	200.19
631.42	207.19
631.627	224.19
631.833	229.19
632.039	198.19
632.245	208.19
632.451	206.19
632.657	209.19
632.863	217.19
633.069	220.19
633.275	213.19
633.481	197.19
633.688	223.19
633.893	224.19
634.099	200.19
634.305	211.19
634.511	201.19
634.717	189.19
634.923	190.19
635.129	210.19
635.335	211.19
635.541	211.19
635.747	207.19
635.952	207.19
636.158	201.19
636.364	209.19
636.57	198.19
636.775	208.19
636.981	205.19
637.187	189.19
637.392	201.19
637.598	203.19
637.804	197.19
638.009	204.19
638.215	207.19
638.421	213.19
638.626	194.19
638.832	192.19
639.037	183.19
639.243	196.19
639.448	190.19
639.654	186.19
639.859	186.19
640.065	183.19
640.27	209.19
640.475	185.19
640.681	204.19
640.886	194.19
641.091	181.19
641.297	167.19
641.502	193.19
641.707	200.19
641.913	214.19
642.118	194.19
642.323	185.19
642.528	191.19
642.733	183.19
642.939	189.19
643.144	206.19
643.349	200.19
643.554	189.19
643.759	200.19
643.964	180.19
644.169	188.19
644.374	188.19
644.579	179.19
644.784	185.19
644.989	172.19
645.194	175.19
645.399	169.19
645.604	177.19
645.809	186.19
646.014	190.19
646.219	186.19
646.423	179.19
646.628	184.19
646.833	187.19
647.038	186.19
647.243	188.19
647.447	184.19
647.652	190.19
647.857	184.19
648.062	192.19
648.266	206.19
648.471	184.19
648.676	180.19
648.88	182.19
649.085	177.19
649.289	193.19
649.494	188.19
649.698	212.19
649.903	208.19
650.107	172.19
650.312	171.19
650.516	180.19
650.721	174.19
650.925	175.19
651.13	169.19
651.334	173.19
651.539	164.19
651.743	176.19
651.947	153.19
652.152	169.19
652.356	149.19
652.56	156.19
652.764	172.19
652.969	153.19
653.173	163.19
653.377	158.19
653.581	154.19
653.785	141.19
653.99	154.19
654.194	144.19
654.398	151.19
654.602	146.19
654.806	129.19
655.01	152.19
655.214	153.19
655.418	134.19
655.622	148.19
655.826	152.19
656.03	136.19
656.234	145.19
656.438	134.19
656.642	132.19
656.846	135.19
657.049	131.19
657.253	128.19
657.457	143.19
657.661	128.19
657.865	116.19
658.068	120.19
658.272	118.19
658.476	117.19
658.68	109.19
658.883	122.19
659.087	108.19
659.291	106.19
659.494	108.19
659.698	95.19
659.901	120.19
660.105	113.19
660.309	114.19
660.512	103.19
660.716	117.19
660.919	89.19
661.123	110.19
661.326	90.19
661.53	95.19
661.733	95.19
661.936	92.19
662.14	94.19
662.343	93.19
662.546	80.19
662.75	99.19
662.953	84.19
663.156	83.19
663.36	86.19
663.563	83.19
663.766	93.19
663.969	90.19
664.173	104.19
664.376	77.19
664.579	65.19
664.782	80.19
664.985	79.19
665.188	87.19
665.391	96.19
665.594	74.19
665.797	95.19
666	93.19
666.203	81.19
666.406	79.19
666.609	96.19
666.812	78.19
667.015	87.19
667.218	84.19
667.421	97.19
667.624	89.19
667.827	77.19
668.03	97.19
668.232	74.19
668.435	83.19
668.638	87.19
668.841	90.19
669.043	93.19
669.246	100.19
669.449	88.19
669.651	93.19
669.854	97.19
670.057	87.19
670.259	107.19
670.462	86.19
670.665	81.19
670.867	90.19
671.07	95.19
671.272	87.19
671.475	80.19
671.677	84.19
671.88	82.19
672.082	95.19
672.284	75.19
672.487	94.19
672.689	84.19
672.892	81.19
