Data from 1971.PennyLincolnUp.Lamp.En5.5.200Scan.071719.P1._HRD10591_15-18-58-843.txt Node
Date: Thu Jul 18 15:18:58 EDT 2019
User: cochatt
Spectrometer: HR+D1059
Trigger mode: 1
Integration Time (sec): 1.000000E-1
Scans to average: 1
Electric dark correction enabled: true
Nonlinearity correction enabled: false
Boxcar width: 0
XAxis mode: Wavelengths
Number of Pixels in Spectrum: 2048
>>>>>Begin Spectral Data<<<<<
223.165	-14.38
223.4	-14.38
223.635	-14.38
223.869	-0.38
224.104	-18.38
224.338	-4.38
224.573	-21.38
224.808	-22.38
225.042	1.62
225.277	-9.38
225.511	7.62
225.746	-4.38
225.98	2.62
226.215	12.62
226.449	11.62
226.683	7.62
226.918	19.62
227.152	31.62
227.387	32.62
227.621	27.62
227.856	40.62
228.09	43.62
228.324	32.62
228.559	51.62
228.793	58.62
229.027	83.62
229.262	79.62
229.496	95.62
229.73	104.62
229.964	127.62
230.199	119.62
230.433	97.62
230.667	94.62
230.901	96.62
231.136	120.62
231.37	107.62
231.604	99.62
231.838	112.62
232.072	105.62
232.306	115.62
232.541	117.62
232.775	99.62
233.009	111.62
233.243	111.62
233.477	107.62
233.711	116.62
233.945	102.62
234.179	114.62
234.413	107.62
234.647	113.62
234.881	118.62
235.115	116.62
235.349	114.62
235.583	113.62
235.817	105.62
236.051	131.62
236.285	123.62
236.519	126.62
236.753	110.62
236.987	125.62
237.221	169.62
237.455	206.62
237.689	168.62
237.922	129.62
238.156	129.62
238.39	128.62
238.624	99.62
238.858	123.62
239.091	120.62
239.325	115.62
239.559	109.62
239.793	120.62
240.027	117.62
240.26	123.62
240.494	144.62
240.728	132.62
240.961	119.62
241.195	150.62
241.429	136.62
241.662	130.62
241.896	135.62
242.13	132.62
242.363	138.62
242.597	134.62
242.83	134.62
243.064	137.62
243.298	133.62
243.531	129.62
243.765	143.62
243.998	137.62
244.232	132.62
244.465	154.62
244.699	134.62
244.932	142.62
245.166	150.62
245.399	147.62
245.633	150.62
245.866	143.62
246.099	127.62
246.333	143.62
246.566	127.62
246.8	147.62
247.033	158.62
247.266	167.62
247.5	155.62
247.733	182.62
247.966	163.62
248.2	177.62
248.433	177.62
248.666	175.62
248.899	173.62
249.133	183.62
249.366	202.62
249.599	201.62
249.832	188.62
250.066	173.62
250.299	177.62
250.532	185.62
250.765	196.62
250.998	223.62
251.231	216.62
251.465	208.62
251.698	199.62
251.931	216.62
252.164	207.62
252.397	198.62
252.63	187.62
252.863	203.62
253.096	229.62
253.329	226.62
253.562	213.62
253.795	217.62
254.028	223.62
254.261	215.62
254.494	222.62
254.727	231.62
254.96	261.62
255.193	266.62
255.426	233.62
255.659	239.62
255.892	243.62
256.124	228.62
256.357	217.62
256.59	234.62
256.823	211.62
257.056	220.62
257.289	202.62
257.521	198.62
257.754	200.62
257.987	197.62
258.22	203.62
258.452	216.62
258.685	216.62
258.918	216.62
259.151	206.62
259.383	223.62
259.616	201.62
259.849	223.62
260.081	230.62
260.314	245.62
260.547	246.62
260.779	237.62
261.012	228.62
261.244	231.62
261.477	229.62
261.71	201.62
261.942	213.62
262.175	223.62
262.407	210.62
262.64	202.62
262.872	225.62
263.105	230.62
263.337	218.62
263.57	219.62
263.802	205.62
264.035	215.62
264.267	204.62
264.499	216.62
264.732	205.62
264.964	205.62
265.197	219.62
265.429	214.62
265.661	225.62
265.894	215.62
266.126	207.62
266.358	216.62
266.591	217.62
266.823	224.62
267.055	230.62
267.287	245.62
267.52	221.62
267.752	239.62
267.984	225.62
268.216	236.62
268.448	224.62
268.681	231.62
268.913	255.62
269.145	259.62
269.377	265.62
269.609	269.62
269.841	272.62
270.073	265.62
270.306	291.62
270.538	305.62
270.77	305.62
271.002	296.62
271.234	290.62
271.466	295.62
271.698	312.62
271.93	305.62
272.162	317.62
272.394	308.62
272.626	289.62
272.858	282.62
273.09	277.62
273.322	267.62
273.553	293.62
273.785	278.62
274.017	270.62
274.249	242.62
274.481	249.62
274.713	249.62
274.945	273.62
275.176	289.62
275.408	270.62
275.64	260.62
275.872	273.62
276.104	282.62
276.335	263.62
276.567	254.62
276.799	268.62
277.031	312.62
277.262	321.62
277.494	306.62
277.726	305.62
277.957	298.62
278.189	271.62
278.421	274.62
278.652	273.62
278.884	272.62
279.115	270.62
279.347	270.62
279.579	272.62
279.81	262.62
280.042	271.62
280.273	256.62
280.505	271.62
280.736	281.62
280.968	271.62
281.199	275.62
281.431	284.62
281.662	279.62
281.894	269.62
282.125	257.62
282.356	298.62
282.588	293.62
282.819	287.62
283.051	282.62
283.282	282.62
283.513	258.62
283.745	274.62
283.976	279.62
284.207	283.62
284.439	294.62
284.67	265.62
284.901	295.62
285.132	272.62
285.364	274.62
285.595	274.62
285.826	275.62
286.057	301.62
286.288	297.62
286.52	296.62
286.751	278.62
286.982	283.62
287.213	290.62
287.444	283.62
287.675	288.62
287.906	297.62
288.138	301.62
288.369	313.62
288.6	297.62
288.831	279.62
289.062	294.62
289.293	284.62
289.524	297.62
289.755	303.62
289.986	275.62
290.217	313.62
290.448	287.62
290.679	281.62
290.91	302.62
291.141	293.62
291.371	298.62
291.602	288.62
291.833	281.62
292.064	298.62
292.295	284.62
292.526	294.62
292.757	297.62
292.987	277.62
293.218	281.62
293.449	289.62
293.68	311.62
293.91	308.62
294.141	296.62
294.372	277.62
294.603	288.62
294.833	302.62
295.064	298.62
295.295	278.62
295.525	291.62
295.756	299.62
295.987	296.62
296.217	314.62
296.448	337.62
296.679	301.62
296.909	297.62
297.14	297.62
297.37	309.62
297.601	297.62
297.831	314.62
298.062	305.62
298.292	317.62
298.523	301.62
298.753	315.62
298.984	324.62
299.214	327.62
299.445	290.62
299.675	293.62
299.905	315.62
300.136	309.62
300.366	314.62
300.597	329.62
300.827	323.62
301.057	322.62
301.288	324.62
301.518	322.62
301.748	305.62
301.979	339.62
302.209	312.62
302.439	320.62
302.669	335.62
302.9	328.62
303.13	328.62
303.36	339.62
303.59	329.62
303.82	328.62
304.051	335.62
304.281	325.62
304.511	323.62
304.741	325.62
304.971	322.62
305.201	319.62
305.431	319.62
305.661	325.62
305.891	325.62
306.121	328.62
306.352	322.62
306.582	335.62
306.812	327.62
307.042	325.62
307.272	321.62
307.502	326.62
307.731	306.62
307.961	332.62
308.191	331.62
308.421	318.62
308.651	330.62
308.881	336.62
309.111	343.62
309.341	359.62
309.571	349.62
309.8	345.62
310.03	369.62
310.26	374.62
310.49	370.62
310.72	377.62
310.949	399.62
311.179	395.62
311.409	358.62
311.639	352.62
311.868	346.62
312.098	369.62
312.328	365.62
312.557	379.62
312.787	411.62
313.017	407.62
313.246	375.62
313.476	378.62
313.706	366.62
313.935	377.62
314.165	397.62
314.394	401.62
314.624	379.62
314.853	381.62
315.083	373.62
315.312	368.62
315.542	376.62
315.771	370.62
316.001	370.62
316.23	370.62
316.46	377.62
316.689	365.62
316.919	356.62
317.148	373.62
317.377	388.62
317.607	367.62
317.836	377.62
318.065	378.62
318.295	359.62
318.524	359.62
318.753	377.62
318.983	358.62
319.212	357.62
319.441	370.62
319.67	371.62
319.9	385.62
320.129	385.62
320.358	358.62
320.587	382.62
320.816	378.62
321.046	397.62
321.275	388.62
321.504	396.62
321.733	407.62
321.962	394.62
322.191	410.62
322.42	432.62
322.649	424.62
322.878	429.62
323.108	444.62
323.337	460.62
323.566	475.62
323.795	508.62
324.024	542.62
324.253	679.62
324.482	919.62
324.71	1379.62
324.939	1871.62
325.168	1503.62
325.397	837.62
325.626	573.62
325.855	503.62
326.084	488.62
326.313	475.62
326.542	499.62
326.77	532.62
326.999	618.62
327.228	840.62
327.457	1219.62
327.686	1407.62
327.914	947.62
328.143	655.62
328.372	572.62
328.6	511.62
328.829	513.62
329.058	548.62
329.287	541.62
329.515	522.62
329.744	489.62
329.972	477.62
330.201	499.62
330.43	523.62
330.658	535.62
330.887	563.62
331.115	539.62
331.344	497.62
331.572	476.62
331.801	475.62
332.03	480.62
332.258	450.62
332.486	426.62
332.715	441.62
332.943	436.62
333.172	453.62
333.4	448.62
333.629	471.62
333.857	461.62
334.085	468.62
334.314	462.62
334.542	490.62
334.771	484.62
334.999	449.62
335.227	462.62
335.455	421.62
335.684	435.62
335.912	431.62
336.14	425.62
336.369	444.62
336.597	459.62
336.825	439.62
337.053	417.62
337.281	439.62
337.51	414.62
337.738	429.62
337.966	420.62
338.194	424.62
338.422	417.62
338.65	421.62
338.878	409.62
339.106	421.62
339.334	421.62
339.562	399.62
339.79	400.62
340.018	421.62
340.246	420.62
340.474	407.62
340.702	423.62
340.93	412.62
341.158	409.62
341.386	392.62
341.614	409.62
341.842	416.62
342.07	409.62
342.298	393.62
342.526	391.62
342.754	411.62
342.981	408.62
343.209	390.62
343.437	390.62
343.665	398.62
343.893	402.62
344.12	415.62
344.348	426.62
344.576	401.62
344.804	426.62
345.031	426.62
345.259	426.62
345.487	407.62
345.714	409.62
345.942	400.62
346.17	401.62
346.397	388.62
346.625	403.62
346.853	404.62
347.08	379.62
347.308	399.62
347.535	401.62
347.763	393.62
347.99	378.62
348.218	402.62
348.445	399.62
348.673	392.62
348.9	379.62
349.128	401.62
349.355	371.62
349.583	380.62
349.81	354.62
350.037	385.62
350.265	379.62
350.492	370.62
350.72	376.62
350.947	375.62
351.174	394.62
351.402	402.62
351.629	419.62
351.856	394.62
352.083	380.62
352.311	394.62
352.538	404.62
352.765	396.62
352.992	393.62
353.22	383.62
353.447	375.62
353.674	383.62
353.901	380.62
354.128	377.62
354.355	371.62
354.583	376.62
354.81	354.62
355.037	349.62
355.264	351.62
355.491	359.62
355.718	353.62
355.945	365.62
356.172	365.62
356.399	360.62
356.626	348.62
356.853	357.62
357.08	344.62
357.307	370.62
357.534	341.62
357.761	362.62
357.988	342.62
358.215	376.62
358.441	357.62
358.668	359.62
358.895	388.62
359.122	361.62
359.349	389.62
359.576	378.62
359.802	395.62
360.029	410.62
360.256	414.62
360.483	408.62
360.709	375.62
360.936	372.62
361.163	361.62
361.39	369.62
361.616	375.62
361.843	372.62
362.07	370.62
362.296	393.62
362.523	372.62
362.749	376.62
362.976	378.62
363.203	372.62
363.429	371.62
363.656	356.62
363.882	353.62
364.109	352.62
364.335	361.62
364.562	360.62
364.788	350.62
365.015	354.62
365.241	368.62
365.468	389.62
365.694	376.62
365.92	350.62
366.147	357.62
366.373	375.62
366.599	353.62
366.826	346.62
367.052	355.62
367.278	350.62
367.505	363.62
367.731	352.62
367.957	360.62
368.184	359.62
368.41	381.62
368.636	392.62
368.862	354.62
369.089	348.62
369.315	344.62
369.541	352.62
369.767	377.62
369.993	351.62
370.219	367.62
370.445	365.62
370.672	350.62
370.898	343.62
371.124	362.62
371.35	358.62
371.576	375.62
371.802	362.62
372.028	348.62
372.254	342.62
372.48	361.62
372.706	356.62
372.932	344.62
373.158	327.62
373.384	337.62
373.61	358.62
373.835	357.62
374.061	356.62
374.287	368.62
374.513	364.62
374.739	378.62
374.965	368.62
375.191	339.62
375.416	360.62
375.642	344.62
375.868	346.62
376.094	360.62
376.319	353.62
376.545	362.62
376.771	342.62
376.997	326.62
377.222	349.62
377.448	367.62
377.674	343.62
377.899	338.62
378.125	347.62
378.35	357.62
378.576	353.62
378.802	337.62
379.027	346.62
379.253	346.62
379.478	358.62
379.704	337.62
379.929	337.62
380.155	347.62
380.38	338.62
380.606	342.62
380.831	346.62
381.057	359.62
381.282	357.62
381.507	354.62
381.733	348.62
381.958	349.62
382.184	343.62
382.409	367.62
382.634	355.62
382.86	343.62
383.085	369.62
383.31	361.62
383.535	375.62
383.761	336.62
383.986	363.62
384.211	363.62
384.436	360.62
384.662	347.62
384.887	369.62
385.112	362.62
385.337	367.62
385.562	346.62
385.787	357.62
386.013	394.62
386.238	399.62
386.463	376.62
386.688	371.62
386.913	371.62
387.138	374.62
387.363	372.62
387.588	378.62
387.813	377.62
388.038	365.62
388.263	372.62
388.488	373.62
388.713	361.62
388.938	372.62
389.163	387.62
389.387	372.62
389.612	352.62
389.837	353.62
390.062	374.62
390.287	350.62
390.512	355.62
390.736	352.62
390.961	373.62
391.186	367.62
391.411	349.62
391.636	385.62
391.86	389.62
392.085	381.62
392.31	365.62
392.534	381.62
392.759	385.62
392.984	365.62
393.208	382.62
393.433	361.62
393.658	377.62
393.882	365.62
394.107	361.62
394.331	369.62
394.556	377.62
394.78	370.62
395.005	369.62
395.229	370.62
395.454	384.62
395.678	391.62
395.903	374.62
396.127	394.62
396.352	396.62
396.576	385.62
396.801	383.62
397.025	376.62
397.249	381.62
397.474	378.62
397.698	385.62
397.922	370.62
398.147	405.62
398.371	405.62
398.595	413.62
398.82	393.62
399.044	417.62
399.268	439.62
399.492	439.62
399.717	466.62
399.941	479.62
400.165	496.62
400.389	509.62
400.613	473.62
400.837	440.62
401.062	413.62
401.286	389.62
401.51	409.62
401.734	402.62
401.958	412.62
402.182	397.62
402.406	393.62
402.63	407.62
402.854	413.62
403.078	428.62
403.302	411.62
403.526	415.62
403.75	419.62
403.974	421.62
404.198	422.62
404.422	416.62
404.645	449.62
404.869	418.62
405.093	439.62
405.317	490.62
405.541	514.62
405.765	475.62
405.988	423.62
406.212	446.62
406.436	443.62
406.66	472.62
406.883	450.62
407.107	504.62
407.331	530.62
407.555	565.62
407.778	535.62
408.002	507.62
408.226	464.62
408.449	465.62
408.673	446.62
408.896	481.62
409.12	503.62
409.344	498.62
409.567	453.62
409.791	431.62
410.014	425.62
410.238	421.62
410.461	421.62
410.685	452.62
410.908	431.62
411.132	479.62
411.355	490.62
411.578	443.62
411.802	407.62
412.025	429.62
412.249	445.62
412.472	428.62
412.695	473.62
412.919	457.62
413.142	410.62
413.365	429.62
413.589	401.62
413.812	413.62
414.035	391.62
414.258	413.62
414.482	374.62
414.705	412.62
414.928	391.62
415.151	392.62
415.374	379.62
415.597	390.62
415.821	396.62
416.044	385.62
416.267	377.62
416.49	393.62
416.713	398.62
416.936	409.62
417.159	394.62
417.382	379.62
417.605	377.62
417.828	403.62
418.051	402.62
418.274	404.62
418.497	381.62
418.72	391.62
418.943	390.62
419.166	401.62
419.389	409.62
419.611	406.62
419.834	419.62
420.057	431.62
420.28	422.62
420.503	401.62
420.726	402.62
420.948	413.62
421.171	451.62
421.394	486.62
421.617	445.62
421.839	417.62
422.062	416.62
422.285	432.62
422.507	486.62
422.73	555.62
422.953	501.62
423.175	455.62
423.398	435.62
423.621	442.62
423.843	457.62
424.066	447.62
424.288	456.62
424.511	476.62
424.733	495.62
424.956	584.62
425.178	558.62
425.401	529.62
425.623	538.62
425.846	468.62
426.068	450.62
426.291	434.62
426.513	439.62
426.735	461.62
426.958	462.62
427.18	545.62
427.402	657.62
427.625	715.62
427.847	625.62
428.069	533.62
428.292	493.62
428.514	446.62
428.736	430.62
428.958	427.62
429.181	431.62
429.403	413.62
429.625	407.62
429.847	468.62
430.069	496.62
430.292	478.62
430.514	430.62
430.736	424.62
430.958	401.62
431.18	374.62
431.402	386.62
431.624	379.62
431.846	385.62
432.068	384.62
432.29	374.62
432.512	389.62
432.734	405.62
432.956	398.62
433.178	389.62
433.4	410.62
433.622	395.62
433.844	389.62
434.066	379.62
434.287	386.62
434.509	386.62
434.731	386.62
434.953	394.62
435.175	407.62
435.397	459.62
435.618	450.62
435.84	471.62
436.062	551.62
436.284	596.62
436.505	503.62
436.727	448.62
436.949	410.62
437.17	407.62
437.392	390.62
437.614	416.62
437.835	447.62
438.057	532.62
438.278	610.62
438.5	601.62
438.721	631.62
438.943	603.62
439.165	467.62
439.386	476.62
439.608	457.62
439.829	467.62
440.05	475.62
440.272	509.62
440.493	473.62
440.715	435.62
440.936	424.62
441.158	413.62
441.379	399.62
441.6	424.62
441.822	440.62
442.043	469.62
442.264	534.62
442.486	575.62
442.707	497.62
442.928	459.62
443.149	451.62
443.371	477.62
443.592	499.62
443.813	584.62
444.034	605.62
444.255	496.62
444.476	447.62
444.698	438.62
444.919	449.62
445.14	575.62
445.361	513.62
445.582	517.62
445.803	529.62
446.024	597.62
446.245	586.62
446.466	548.62
446.687	477.62
446.908	461.62
447.129	435.62
447.35	420.62
447.571	415.62
447.792	406.62
448.013	396.62
448.234	422.62
448.455	462.62
448.675	576.62
448.896	642.62
449.117	579.62
449.338	517.62
449.559	586.62
449.779	662.62
450	534.62
450.221	442.62
450.442	413.62
450.662	390.62
450.883	391.62
451.104	391.62
451.324	394.62
451.545	398.62
451.766	383.62
451.986	362.62
452.207	360.62
452.428	359.62
452.648	373.62
452.869	375.62
453.089	391.62
453.31	358.62
453.53	374.62
453.751	368.62
453.971	365.62
454.192	372.62
454.412	352.62
454.633	341.62
454.853	355.62
455.073	370.62
455.294	401.62
455.514	440.62
455.734	429.62
455.955	357.62
456.175	353.62
456.395	337.62
456.616	328.62
456.836	342.62
457.056	335.62
457.276	328.62
457.497	347.62
457.717	327.62
457.937	358.62
458.157	346.62
458.377	371.62
458.598	368.62
458.818	432.62
459.038	465.62
459.258	482.62
459.478	394.62
459.698	374.62
459.918	349.62
460.138	367.62
460.358	381.62
460.578	385.62
460.798	393.62
461.018	387.62
461.238	394.62
461.458	378.62
461.678	359.62
461.898	383.62
462.118	387.62
462.338	392.62
462.558	415.62
462.777	373.62
462.997	392.62
463.217	420.62
463.437	432.62
463.657	393.62
463.876	413.62
464.096	411.62
464.316	386.62
464.536	400.62
464.755	415.62
464.975	412.62
465.195	423.62
465.414	479.62
465.634	438.62
465.854	381.62
466.073	374.62
466.293	393.62
466.512	367.62
466.732	355.62
466.951	379.62
467.171	383.62
467.391	367.62
467.61	376.62
467.829	391.62
468.049	377.62
468.268	353.62
468.488	378.62
468.707	365.62
468.927	357.62
469.146	357.62
469.365	367.62
469.585	366.62
469.804	371.62
470.023	357.62
470.243	389.62
470.462	374.62
470.681	406.62
470.901	394.62
471.12	390.62
471.339	384.62
471.558	379.62
471.777	394.62
471.997	377.62
472.216	378.62
472.435	372.62
472.654	380.62
472.873	368.62
473.092	386.62
473.311	354.62
473.53	373.62
473.749	397.62
473.968	431.62
474.187	514.62
474.406	511.62
474.625	457.62
474.844	393.62
475.063	404.62
475.282	397.62
475.501	392.62
475.72	387.62
475.939	389.62
476.158	401.62
476.377	407.62
476.596	372.62
476.814	389.62
477.033	391.62
477.252	387.62
477.471	401.62
477.69	399.62
477.908	409.62
478.127	409.62
478.346	402.62
478.564	411.62
478.783	399.62
479.002	452.62
479.22	420.62
479.439	451.62
479.658	441.62
479.876	464.62
480.095	432.62
480.313	470.62
480.532	458.62
480.751	424.62
480.969	447.62
481.188	495.62
481.406	510.62
481.624	477.62
481.843	440.62
482.061	455.62
482.28	457.62
482.498	441.62
482.717	435.62
482.935	420.62
483.153	438.62
483.372	438.62
483.59	437.62
483.808	449.62
484.027	441.62
484.245	440.62
484.463	432.62
484.681	438.62
484.9	437.62
485.118	429.62
485.336	421.62
485.554	433.62
485.772	436.62
485.99	451.62
486.209	458.62
486.427	452.62
486.645	474.62
486.863	463.62
487.081	473.62
487.299	459.62
487.517	447.62
487.735	467.62
487.953	463.62
488.171	454.62
488.389	484.62
488.607	459.62
488.825	490.62
489.043	457.62
489.261	492.62
489.479	461.62
489.696	486.62
489.914	463.62
490.132	476.62
490.35	487.62
490.568	470.62
490.786	487.62
491.003	499.62
491.221	520.62
491.439	529.62
491.657	534.62
491.874	540.62
492.092	547.62
492.31	534.62
492.527	534.62
492.745	535.62
492.963	555.62
493.18	547.62
493.398	553.62
493.615	550.62
493.833	557.62
494.05	565.62
494.268	553.62
494.485	544.62
494.703	554.62
494.92	549.62
495.138	575.62
495.355	571.62
495.573	571.62
495.79	547.62
496.008	565.62
496.225	530.62
496.442	549.62
496.66	574.62
496.877	545.62
497.094	550.62
497.312	551.62
497.529	563.62
497.746	581.62
497.963	584.62
498.181	579.62
498.398	591.62
498.615	598.62
498.832	612.62
499.049	629.62
499.267	630.62
499.484	646.62
499.701	662.62
499.918	690.62
500.135	696.62
500.352	711.62
500.569	742.62
500.786	741.62
501.003	718.62
501.22	728.62
501.437	707.62
501.654	693.62
501.871	678.62
502.088	650.62
502.305	617.62
502.522	617.62
502.739	595.62
502.956	588.62
503.172	577.62
503.389	577.62
503.606	587.62
503.823	569.62
504.04	552.62
504.256	572.62
504.473	555.62
504.69	555.62
504.907	558.62
505.123	537.62
505.34	525.62
505.557	501.62
505.773	509.62
505.99	526.62
506.207	525.62
506.423	548.62
506.64	537.62
506.856	537.62
507.073	546.62
507.289	512.62
507.506	532.62
507.722	497.62
507.939	524.62
508.155	513.62
508.372	499.62
508.588	505.62
508.805	488.62
509.021	509.62
509.238	511.62
509.454	528.62
509.67	507.62
509.887	495.62
510.103	524.62
510.319	490.62
510.536	567.62
510.752	884.62
510.968	704.62
511.184	501.62
511.401	477.62
511.617	457.62
511.833	475.62
512.049	454.62
512.265	487.62
512.481	466.62
512.698	473.62
512.914	464.62
513.13	474.62
513.346	474.62
513.562	434.62
513.778	460.62
513.994	464.62
514.21	466.62
514.426	490.62
514.642	505.62
514.858	531.62
515.074	541.62
515.29	662.62
515.506	926.62
515.721	724.62
515.937	547.62
516.153	523.62
516.369	500.62
516.585	478.62
516.801	488.62
517.016	473.62
517.232	486.62
517.448	462.62
517.664	471.62
517.879	487.62
518.095	486.62
518.311	458.62
518.527	451.62
518.742	496.62
518.958	467.62
519.173	456.62
519.389	473.62
519.605	456.62
519.82	457.62
520.036	461.62
520.251	497.62
520.467	513.62
520.682	515.62
520.898	506.62
521.113	529.62
521.329	546.62
521.544	599.62
521.76	738.62
521.975	1189.62
522.19	1098.62
522.406	639.62
522.621	493.62
522.836	464.62
523.052	465.62
523.267	437.62
523.482	429.62
523.698	430.62
523.913	435.62
524.128	416.62
524.343	425.62
524.559	421.62
524.774	392.62
524.989	415.62
525.204	432.62
525.419	418.62
525.634	404.62
525.849	399.62
526.064	386.62
526.28	396.62
526.495	387.62
526.71	387.62
526.925	386.62
527.14	400.62
527.355	372.62
527.57	382.62
527.785	387.62
527.999	395.62
528.214	383.62
528.429	376.62
528.644	385.62
528.859	402.62
529.074	411.62
529.289	407.62
529.503	470.62
529.718	453.62
529.933	411.62
530.148	394.62
530.363	403.62
530.577	357.62
530.792	356.62
531.007	357.62
531.221	384.62
531.436	354.62
531.651	354.62
531.865	375.62
532.08	393.62
532.295	362.62
532.509	361.62
532.724	363.62
532.938	384.62
533.153	362.62
533.367	365.62
533.582	379.62
533.796	355.62
534.011	365.62
534.225	376.62
534.44	370.62
534.654	367.62
534.868	370.62
535.083	350.62
535.297	354.62
535.511	378.62
535.726	354.62
535.94	367.62
536.154	366.62
536.369	362.62
536.583	352.62
536.797	355.62
537.011	338.62
537.225	350.62
537.44	355.62
537.654	359.62
537.868	352.62
538.082	359.62
538.296	353.62
538.51	359.62
538.724	358.62
538.938	373.62
539.153	361.62
539.367	373.62
539.581	356.62
539.795	357.62
540.009	363.62
540.222	375.62
540.436	343.62
540.65	360.62
540.864	370.62
541.078	403.62
541.292	372.62
541.506	372.62
541.72	368.62
541.934	368.62
542.147	374.62
542.361	379.62
542.575	368.62
542.789	357.62
543.002	353.62
543.216	342.62
543.43	362.62
543.644	347.62
543.857	371.62
544.071	369.62
544.285	371.62
544.498	360.62
544.712	373.62
544.925	360.62
545.139	363.62
545.352	364.62
545.566	347.62
545.779	360.62
545.993	351.62
546.206	362.62
546.42	356.62
546.633	346.62
546.847	346.62
547.06	343.62
547.274	349.62
547.487	339.62
547.7	345.62
547.914	362.62
548.127	341.62
548.34	356.62
548.554	344.62
548.767	383.62
548.98	367.62
549.193	324.62
549.407	337.62
549.62	334.62
549.833	365.62
550.046	353.62
550.259	333.62
550.473	329.62
550.686	337.62
550.899	317.62
551.112	344.62
551.325	324.62
551.538	350.62
551.751	324.62
551.964	319.62
552.177	340.62
552.39	331.62
552.603	328.62
552.816	333.62
553.029	346.62
553.242	338.62
553.455	349.62
553.667	355.62
553.88	361.62
554.093	360.62
554.306	351.62
554.519	340.62
554.732	340.62
554.944	354.62
555.157	320.62
555.37	326.62
555.583	335.62
555.795	301.62
556.008	323.62
556.221	336.62
556.433	318.62
556.646	294.62
556.859	296.62
557.071	303.62
557.284	295.62
557.496	306.62
557.709	331.62
557.921	316.62
558.134	336.62
558.346	311.62
558.559	322.62
558.771	322.62
558.984	296.62
559.196	313.62
559.409	304.62
559.621	289.62
559.833	298.62
560.046	279.62
560.258	298.62
560.47	310.62
560.683	312.62
560.895	296.62
561.107	286.62
561.32	313.62
561.532	305.62
561.744	294.62
561.956	307.62
562.168	307.62
562.381	298.62
562.593	303.62
562.805	301.62
563.017	299.62
563.229	316.62
563.441	301.62
563.653	295.62
563.865	317.62
564.077	283.62
564.289	313.62
564.501	293.62
564.713	327.62
564.925	326.62
565.137	324.62
565.349	313.62
565.561	307.62
565.773	317.62
565.985	313.62
566.197	333.62
566.408	326.62
566.62	332.62
566.832	347.62
567.044	356.62
567.255	361.62
567.467	341.62
567.679	351.62
567.891	371.62
568.102	373.62
568.314	347.62
568.526	330.62
568.737	313.62
568.949	317.62
569.161	314.62
569.372	312.62
569.584	317.62
569.795	298.62
570.007	293.62
570.218	324.62
570.43	310.62
570.641	281.62
570.853	290.62
571.064	301.62
571.276	278.62
571.487	282.62
571.698	283.62
571.91	288.62
572.121	277.62
572.333	289.62
572.544	281.62
572.755	262.62
572.966	278.62
573.178	258.62
573.389	266.62
573.6	280.62
573.811	263.62
574.023	262.62
574.234	266.62
574.445	263.62
574.656	261.62
574.867	246.62
575.078	241.62
575.289	255.62
575.501	253.62
575.712	245.62
575.923	249.62
576.134	255.62
576.345	243.62
576.556	253.62
576.767	242.62
576.978	250.62
577.188	242.62
577.399	261.62
577.61	252.62
577.821	255.62
578.032	254.62
578.243	276.62
578.454	432.62
578.665	321.62
578.875	247.62
579.086	240.62
579.297	252.62
579.508	259.62
579.718	229.62
579.929	223.62
580.14	241.62
580.35	239.62
580.561	231.62
580.772	231.62
580.982	237.62
581.193	237.62
581.403	241.62
581.614	226.62
581.825	235.62
582.035	239.62
582.246	218.62
582.456	234.62
582.667	225.62
582.877	242.62
583.087	241.62
583.298	234.62
583.508	241.62
583.719	233.62
583.929	230.62
584.139	234.62
584.35	230.62
584.56	221.62
584.77	238.62
584.981	239.62
585.191	243.62
585.401	240.62
585.611	243.62
585.821	232.62
586.032	214.62
586.242	221.62
586.452	218.62
586.662	227.62
586.872	212.62
587.082	231.62
587.292	238.62
587.502	226.62
587.713	218.62
587.923	226.62
588.133	232.62
588.343	234.62
588.553	225.62
588.762	227.62
588.972	202.62
589.182	237.62
589.392	210.62
589.602	227.62
589.812	228.62
590.022	227.62
590.232	227.62
590.441	231.62
590.651	234.62
590.861	221.62
591.071	222.62
591.281	220.62
591.49	225.62
591.7	227.62
591.91	224.62
592.119	214.62
592.329	229.62
592.539	245.62
592.748	226.62
592.958	225.62
593.167	226.62
593.377	237.62
593.587	245.62
593.796	232.62
594.006	255.62
594.215	225.62
594.424	242.62
594.634	246.62
594.843	257.62
595.053	237.62
595.262	213.62
595.472	229.62
595.681	228.62
595.89	218.62
596.1	214.62
596.309	217.62
596.518	224.62
596.727	216.62
596.937	221.62
597.146	224.62
597.355	201.62
597.564	218.62
597.774	206.62
597.983	209.62
598.192	215.62
598.401	210.62
598.61	197.62
598.819	211.62
599.028	214.62
599.237	200.62
599.446	200.62
599.655	211.62
599.864	215.62
600.073	214.62
600.282	208.62
600.491	213.62
600.7	205.62
600.909	212.62
601.118	209.62
601.327	209.62
601.536	218.62
601.745	205.62
601.953	187.62
602.162	201.62
602.371	199.62
602.58	197.62
602.789	202.62
602.997	217.62
603.206	215.62
603.415	191.62
603.623	199.62
603.832	189.62
604.041	200.62
604.249	200.62
604.458	212.62
604.666	201.62
604.875	189.62
605.084	180.62
605.292	203.62
605.501	177.62
605.709	200.62
605.918	210.62
606.126	202.62
606.334	208.62
606.543	213.62
606.751	203.62
606.96	192.62
607.168	193.62
607.376	216.62
607.585	192.62
607.793	205.62
608.001	186.62
608.21	214.62
608.418	219.62
608.626	199.62
608.834	193.62
609.043	206.62
609.251	200.62
609.459	186.62
609.667	201.62
609.875	196.62
610.083	200.62
610.291	187.62
610.499	195.62
610.707	206.62
610.916	199.62
611.124	221.62
611.332	221.62
611.54	200.62
611.748	203.62
611.955	205.62
612.163	223.62
612.371	199.62
612.579	191.62
612.787	203.62
612.995	203.62
613.203	195.62
613.411	203.62
613.618	197.62
613.826	195.62
614.034	196.62
614.242	207.62
614.449	210.62
614.657	190.62
614.865	202.62
615.072	173.62
615.28	193.62
615.488	192.62
615.695	192.62
615.903	177.62
616.111	193.62
616.318	191.62
616.526	202.62
616.733	206.62
616.941	194.62
617.148	208.62
617.356	185.62
617.563	197.62
617.771	187.62
617.978	206.62
618.185	179.62
618.393	170.62
618.6	179.62
618.807	190.62
619.015	191.62
619.222	185.62
619.429	184.62
619.637	183.62
619.844	182.62
620.051	174.62
620.258	173.62
620.466	181.62
620.673	177.62
620.88	178.62
621.087	192.62
621.294	189.62
621.501	182.62
621.708	193.62
621.915	183.62
622.122	188.62
622.329	188.62
622.536	187.62
622.743	177.62
622.95	181.62
623.157	189.62
623.364	178.62
623.571	191.62
623.778	186.62
623.985	184.62
624.192	178.62
624.399	174.62
624.606	164.62
624.812	164.62
625.019	173.62
625.226	165.62
625.433	159.62
625.639	175.62
625.846	165.62
626.053	166.62
626.259	169.62
626.466	170.62
626.673	164.62
626.879	168.62
627.086	170.62
627.293	181.62
627.499	175.62
627.706	161.62
627.912	174.62
628.119	172.62
628.325	174.62
628.532	177.62
628.738	166.62
628.945	175.62
629.151	183.62
629.357	155.62
629.564	158.62
629.77	163.62
629.976	154.62
630.183	177.62
630.389	159.62
630.595	158.62
630.802	167.62
631.008	159.62
631.214	161.62
631.42	148.62
631.627	153.62
631.833	167.62
632.039	167.62
632.245	154.62
632.451	173.62
632.657	162.62
632.863	156.62
633.069	162.62
633.275	157.62
633.481	161.62
633.688	150.62
633.893	165.62
634.099	147.62
634.305	154.62
634.511	146.62
634.717	151.62
634.923	150.62
635.129	150.62
635.335	154.62
635.541	157.62
635.747	163.62
635.952	165.62
636.158	145.62
636.364	179.62
636.57	161.62
636.775	158.62
636.981	147.62
637.187	151.62
637.392	161.62
637.598	162.62
637.804	158.62
638.009	163.62
638.215	150.62
638.421	157.62
638.626	160.62
638.832	156.62
639.037	142.62
639.243	133.62
639.448	161.62
639.654	143.62
639.859	152.62
640.065	141.62
640.27	146.62
640.475	143.62
640.681	140.62
640.886	150.62
641.091	140.62
641.297	148.62
641.502	155.62
641.707	156.62
641.913	147.62
642.118	152.62
642.323	144.62
642.528	151.62
642.733	139.62
642.939	147.62
643.144	154.62
643.349	155.62
643.554	150.62
643.759	155.62
643.964	142.62
644.169	145.62
644.374	143.62
644.579	130.62
644.784	142.62
644.989	135.62
645.194	139.62
645.399	151.62
645.604	143.62
645.809	146.62
646.014	133.62
646.219	130.62
646.423	149.62
646.628	139.62
646.833	143.62
647.038	138.62
647.243	145.62
647.447	149.62
647.652	151.62
647.857	153.62
648.062	142.62
648.266	150.62
648.471	156.62
648.676	142.62
648.88	155.62
649.085	163.62
649.289	146.62
649.494	154.62
649.698	168.62
649.903	175.62
650.107	154.62
650.312	127.62
650.516	138.62
650.721	133.62
650.925	146.62
651.13	135.62
651.334	120.62
651.539	132.62
651.743	139.62
651.947	122.62
652.152	128.62
652.356	117.62
652.56	135.62
652.764	131.62
652.969	134.62
653.173	137.62
653.377	130.62
653.581	149.62
653.785	122.62
653.99	117.62
654.194	135.62
654.398	145.62
654.602	118.62
654.806	109.62
655.01	133.62
655.214	128.62
655.418	115.62
655.622	122.62
655.826	122.62
656.03	119.62
656.234	119.62
656.438	120.62
656.642	103.62
656.846	102.62
657.049	117.62
657.253	117.62
657.457	114.62
657.661	109.62
657.865	122.62
658.068	121.62
658.272	108.62
658.476	106.62
658.68	93.62
658.883	101.62
659.087	92.62
659.291	89.62
659.494	89.62
659.698	88.62
659.901	94.62
660.105	86.62
660.309	84.62
660.512	90.62
660.716	80.62
660.919	81.62
661.123	92.62
661.326	95.62
661.53	81.62
661.733	81.62
661.936	71.62
662.14	88.62
662.343	79.62
662.546	84.62
662.75	85.62
662.953	85.62
663.156	81.62
663.36	78.62
663.563	89.62
663.766	73.62
663.969	77.62
664.173	72.62
664.376	84.62
664.579	74.62
664.782	70.62
664.985	93.62
665.188	89.62
665.391	93.62
665.594	104.62
665.797	95.62
666	97.62
666.203	87.62
666.406	77.62
666.609	86.62
666.812	71.62
667.015	78.62
667.218	88.62
667.421	75.62
667.624	82.62
667.827	74.62
668.03	76.62
668.232	71.62
668.435	68.62
668.638	86.62
668.841	70.62
669.043	72.62
669.246	70.62
669.449	80.62
669.651	81.62
669.854	85.62
670.057	73.62
670.259	85.62
670.462	76.62
670.665	80.62
670.867	82.62
671.07	67.62
671.272	67.62
671.475	92.62
671.677	82.62
671.88	84.62
672.082	73.62
672.284	83.62
672.487	85.62
672.689	81.62
672.892	74.62
