Data from 1971.PennyLincolnUp.Lamp.En5.5.200Scan.071719.P1._HRD10591_15-20-49-842.txt Node
Date: Thu Jul 18 15:20:49 EDT 2019
User: cochatt
Spectrometer: HR+D1059
Trigger mode: 1
Integration Time (sec): 1.000000E-1
Scans to average: 1
Electric dark correction enabled: true
Nonlinearity correction enabled: false
Boxcar width: 0
XAxis mode: Wavelengths
Number of Pixels in Spectrum: 2048
>>>>>Begin Spectral Data<<<<<
223.165	-26.19
223.4	-26.19
223.635	-26.19
223.869	-16.19
224.104	-14.19
224.338	-13.19
224.573	-6.19
224.808	-12.19
225.042	-17.19
225.277	-5.19
225.511	-8.19
225.746	11.81
225.98	8.81
226.215	9.81
226.449	11.81
226.683	18.81
226.918	26.81
227.152	30.81
227.387	35.81
227.621	42.81
227.856	45.81
228.09	57.81
228.324	49.81
228.559	53.81
228.793	61.81
229.027	87.81
229.262	96.81
229.496	106.81
229.73	124.81
229.964	150.81
230.199	126.81
230.433	119.81
230.667	119.81
230.901	106.81
231.136	96.81
231.37	108.81
231.604	100.81
231.838	108.81
232.072	116.81
232.306	107.81
232.541	109.81
232.775	107.81
233.009	128.81
233.243	101.81
233.477	118.81
233.711	105.81
233.945	115.81
234.179	99.81
234.413	117.81
234.647	111.81
234.881	118.81
235.115	117.81
235.349	115.81
235.583	113.81
235.817	114.81
236.051	106.81
236.285	114.81
236.519	120.81
236.753	135.81
236.987	163.81
237.221	190.81
237.455	207.81
237.689	168.81
237.922	134.81
238.156	123.81
238.39	134.81
238.624	136.81
238.858	118.81
239.091	107.81
239.325	106.81
239.559	113.81
239.793	119.81
240.027	136.81
240.26	151.81
240.494	151.81
240.728	153.81
240.961	126.81
241.195	141.81
241.429	137.81
241.662	133.81
241.896	123.81
242.13	137.81
242.363	119.81
242.597	133.81
242.83	146.81
243.064	138.81
243.298	130.81
243.531	142.81
243.765	150.81
243.998	144.81
244.232	129.81
244.465	161.81
244.699	143.81
244.932	145.81
245.166	155.81
245.399	140.81
245.633	149.81
245.866	122.81
246.099	156.81
246.333	157.81
246.566	132.81
246.8	150.81
247.033	142.81
247.266	159.81
247.5	162.81
247.733	176.81
247.966	170.81
248.2	172.81
248.433	186.81
248.666	180.81
248.899	187.81
249.133	198.81
249.366	211.81
249.599	198.81
249.832	176.81
250.066	180.81
250.299	202.81
250.532	193.81
250.765	197.81
250.998	215.81
251.231	226.81
251.465	209.81
251.698	201.81
251.931	197.81
252.164	222.81
252.397	182.81
252.63	209.81
252.863	209.81
253.096	223.81
253.329	210.81
253.562	247.81
253.795	229.81
254.028	219.81
254.261	243.81
254.494	238.81
254.727	263.81
254.96	287.81
255.193	277.81
255.426	272.81
255.659	249.81
255.892	243.81
256.124	234.81
256.357	261.81
256.59	230.81
256.823	217.81
257.056	226.81
257.289	226.81
257.521	228.81
257.754	222.81
257.987	218.81
258.22	200.81
258.452	222.81
258.685	235.81
258.918	215.81
259.151	216.81
259.383	235.81
259.616	234.81
259.849	237.81
260.081	258.81
260.314	267.81
260.547	271.81
260.779	268.81
261.012	249.81
261.244	230.81
261.477	226.81
261.71	242.81
261.942	243.81
262.175	250.81
262.407	231.81
262.64	199.81
262.872	225.81
263.105	202.81
263.337	208.81
263.57	222.81
263.802	218.81
264.035	214.81
264.267	225.81
264.499	215.81
264.732	230.81
264.964	218.81
265.197	195.81
265.429	216.81
265.661	210.81
265.894	223.81
266.126	221.81
266.358	241.81
266.591	226.81
266.823	232.81
267.055	237.81
267.287	237.81
267.52	236.81
267.752	242.81
267.984	225.81
268.216	247.81
268.448	249.81
268.681	255.81
268.913	258.81
269.145	272.81
269.377	265.81
269.609	284.81
269.841	285.81
270.073	297.81
270.306	303.81
270.538	332.81
270.77	321.81
271.002	307.81
271.234	296.81
271.466	319.81
271.698	334.81
271.93	342.81
272.162	332.81
272.394	328.81
272.626	308.81
272.858	310.81
273.09	305.81
273.322	305.81
273.553	301.81
273.785	287.81
274.017	281.81
274.249	299.81
274.481	271.81
274.713	274.81
274.945	291.81
275.176	286.81
275.408	274.81
275.64	285.81
275.872	270.81
276.104	278.81
276.335	287.81
276.567	286.81
276.799	300.81
277.031	314.81
277.262	339.81
277.494	328.81
277.726	318.81
277.957	309.81
278.189	293.81
278.421	277.81
278.652	278.81
278.884	290.81
279.115	268.81
279.347	271.81
279.579	283.81
279.81	290.81
280.042	285.81
280.273	287.81
280.505	264.81
280.736	266.81
280.968	266.81
281.199	268.81
281.431	303.81
281.662	286.81
281.894	284.81
282.125	301.81
282.356	315.81
282.588	315.81
282.819	307.81
283.051	293.81
283.282	275.81
283.513	285.81
283.745	283.81
283.976	296.81
284.207	315.81
284.439	293.81
284.67	285.81
284.901	292.81
285.132	279.81
285.364	265.81
285.595	303.81
285.826	294.81
286.057	284.81
286.288	285.81
286.52	279.81
286.751	285.81
286.982	291.81
287.213	299.81
287.444	309.81
287.675	299.81
287.906	294.81
288.138	326.81
288.369	318.81
288.6	328.81
288.831	305.81
289.062	320.81
289.293	298.81
289.524	298.81
289.755	326.81
289.986	311.81
290.217	309.81
290.448	305.81
290.679	303.81
290.91	310.81
291.141	294.81
291.371	298.81
291.602	303.81
291.833	306.81
292.064	305.81
292.295	291.81
292.526	315.81
292.757	317.81
292.987	300.81
293.218	300.81
293.449	301.81
293.68	302.81
293.91	305.81
294.141	315.81
294.372	295.81
294.603	302.81
294.833	296.81
295.064	319.81
295.295	321.81
295.525	298.81
295.756	308.81
295.987	301.81
296.217	321.81
296.448	345.81
296.679	325.81
296.909	310.81
297.14	305.81
297.37	307.81
297.601	307.81
297.831	306.81
298.062	313.81
298.292	316.81
298.523	311.81
298.753	329.81
298.984	317.81
299.214	315.81
299.445	331.81
299.675	312.81
299.905	315.81
300.136	324.81
300.366	318.81
300.597	317.81
300.827	340.81
301.057	330.81
301.288	328.81
301.518	329.81
301.748	321.81
301.979	346.81
302.209	313.81
302.439	345.81
302.669	333.81
302.9	334.81
303.13	344.81
303.36	333.81
303.59	332.81
303.82	352.81
304.051	356.81
304.281	322.81
304.511	331.81
304.741	352.81
304.971	347.81
305.201	326.81
305.431	337.81
305.661	339.81
305.891	335.81
306.121	340.81
306.352	351.81
306.582	351.81
306.812	354.81
307.042	329.81
307.272	338.81
307.502	340.81
307.731	341.81
307.961	340.81
308.191	358.81
308.421	356.81
308.651	345.81
308.881	349.81
309.111	358.81
309.341	366.81
309.571	361.81
309.8	375.81
310.03	375.81
310.26	399.81
310.49	393.81
310.72	388.81
310.949	392.81
311.179	402.81
311.409	372.81
311.639	377.81
311.868	363.81
312.098	374.81
312.328	377.81
312.557	404.81
312.787	411.81
313.017	388.81
313.246	378.81
313.476	379.81
313.706	389.81
313.935	396.81
314.165	410.81
314.394	393.81
314.624	424.81
314.853	392.81
315.083	404.81
315.312	370.81
315.542	378.81
315.771	383.81
316.001	372.81
316.23	391.81
316.46	396.81
316.689	404.81
316.919	382.81
317.148	403.81
317.377	389.81
317.607	401.81
317.836	403.81
318.065	395.81
318.295	391.81
318.524	388.81
318.753	391.81
318.983	395.81
319.212	387.81
319.441	386.81
319.67	392.81
319.9	374.81
320.129	375.81
320.358	389.81
320.587	400.81
320.816	410.81
321.046	418.81
321.275	431.81
321.504	385.81
321.733	405.81
321.962	437.81
322.191	427.81
322.42	458.81
322.649	462.81
322.878	454.81
323.108	450.81
323.337	490.81
323.566	514.81
323.795	543.81
324.024	588.81
324.253	714.81
324.482	1010.81
324.71	1515.81
324.939	2039.81
325.168	1670.81
325.397	902.81
325.626	625.81
325.855	565.81
326.084	517.81
326.313	507.81
326.542	516.81
326.77	552.81
326.999	656.81
327.228	901.81
327.457	1261.81
327.686	1486.81
327.914	1019.81
328.143	699.81
328.372	620.81
328.6	569.81
328.829	561.81
329.058	580.81
329.287	558.81
329.515	547.81
329.744	515.81
329.972	524.81
330.201	510.81
330.43	549.81
330.658	585.81
330.887	589.81
331.115	576.81
331.344	518.81
331.572	500.81
331.801	467.81
332.03	479.81
332.258	470.81
332.486	453.81
332.715	460.81
332.943	447.81
333.172	438.81
333.4	447.81
333.629	457.81
333.857	461.81
334.085	479.81
334.314	518.81
334.542	499.81
334.771	526.81
334.999	487.81
335.227	469.81
335.455	467.81
335.684	475.81
335.912	448.81
336.14	434.81
336.369	456.81
336.597	445.81
336.825	434.81
337.053	447.81
337.281	425.81
337.51	417.81
337.738	427.81
337.966	442.81
338.194	442.81
338.422	440.81
338.65	434.81
338.878	411.81
339.106	427.81
339.334	415.81
339.562	428.81
339.79	411.81
340.018	424.81
340.246	444.81
340.474	426.81
340.702	441.81
340.93	439.81
341.158	425.81
341.386	394.81
341.614	441.81
341.842	423.81
342.07	410.81
342.298	394.81
342.526	404.81
342.754	417.81
342.981	397.81
343.209	405.81
343.437	421.81
343.665	418.81
343.893	419.81
344.12	440.81
344.348	438.81
344.576	438.81
344.804	419.81
345.031	436.81
345.259	435.81
345.487	426.81
345.714	447.81
345.942	408.81
346.17	422.81
346.397	407.81
346.625	397.81
346.853	417.81
347.08	426.81
347.308	406.81
347.535	426.81
347.763	421.81
347.99	415.81
348.218	423.81
348.445	413.81
348.673	400.81
348.9	427.81
349.128	417.81
349.355	386.81
349.583	387.81
349.81	399.81
350.037	396.81
350.265	376.81
350.492	394.81
350.72	396.81
350.947	397.81
351.174	397.81
351.402	402.81
351.629	423.81
351.856	414.81
352.083	403.81
352.311	411.81
352.538	419.81
352.765	395.81
352.992	396.81
353.22	413.81
353.447	408.81
353.674	388.81
353.901	386.81
354.128	382.81
354.355	376.81
354.583	388.81
354.81	393.81
355.037	382.81
355.264	383.81
355.491	358.81
355.718	345.81
355.945	381.81
356.172	381.81
356.399	366.81
356.626	364.81
356.853	352.81
357.08	346.81
357.307	367.81
357.534	367.81
357.761	380.81
357.988	383.81
358.215	392.81
358.441	369.81
358.668	368.81
358.895	363.81
359.122	373.81
359.349	381.81
359.576	385.81
359.802	410.81
360.029	429.81
360.256	426.81
360.483	417.81
360.709	392.81
360.936	370.81
361.163	373.81
361.39	389.81
361.616	400.81
361.843	408.81
362.07	404.81
362.296	394.81
362.523	396.81
362.749	398.81
362.976	380.81
363.203	383.81
363.429	378.81
363.656	385.81
363.882	379.81
364.109	381.81
364.335	379.81
364.562	372.81
364.788	371.81
365.015	366.81
365.241	373.81
365.468	367.81
365.694	383.81
365.92	375.81
366.147	349.81
366.373	353.81
366.599	376.81
366.826	357.81
367.052	378.81
367.278	343.81
367.505	388.81
367.731	377.81
367.957	366.81
368.184	366.81
368.41	373.81
368.636	371.81
368.862	374.81
369.089	375.81
369.315	385.81
369.541	362.81
369.767	379.81
369.993	369.81
370.219	365.81
370.445	369.81
370.672	370.81
370.898	357.81
371.124	371.81
371.35	339.81
371.576	364.81
371.802	365.81
372.028	335.81
372.254	362.81
372.48	349.81
372.706	362.81
372.932	364.81
373.158	369.81
373.384	379.81
373.61	363.81
373.835	348.81
374.061	361.81
374.287	358.81
374.513	371.81
374.739	376.81
374.965	364.81
375.191	370.81
375.416	379.81
375.642	363.81
375.868	381.81
376.094	373.81
376.319	354.81
376.545	341.81
376.771	353.81
376.997	362.81
377.222	370.81
377.448	328.81
377.674	347.81
377.899	343.81
378.125	345.81
378.35	346.81
378.576	341.81
378.802	351.81
379.027	354.81
379.253	370.81
379.478	359.81
379.704	367.81
379.929	362.81
380.155	361.81
380.38	350.81
380.606	347.81
380.831	357.81
381.057	361.81
381.282	351.81
381.507	345.81
381.733	324.81
381.958	360.81
382.184	366.81
382.409	377.81
382.634	362.81
382.86	346.81
383.085	373.81
383.31	360.81
383.535	347.81
383.761	364.81
383.986	377.81
384.211	371.81
384.436	360.81
384.662	364.81
384.887	370.81
385.112	377.81
385.337	366.81
385.562	366.81
385.787	363.81
386.013	393.81
386.238	381.81
386.463	373.81
386.688	356.81
386.913	359.81
387.138	367.81
387.363	374.81
387.588	369.81
387.813	377.81
388.038	376.81
388.263	366.81
388.488	381.81
388.713	386.81
388.938	367.81
389.163	378.81
389.387	393.81
389.612	383.81
389.837	382.81
390.062	381.81
390.287	375.81
390.512	368.81
390.736	378.81
390.961	370.81
391.186	376.81
391.411	375.81
391.636	362.81
391.86	381.81
392.085	391.81
392.31	392.81
392.534	378.81
392.759	381.81
392.984	373.81
393.208	363.81
393.433	387.81
393.658	363.81
393.882	377.81
394.107	385.81
394.331	389.81
394.556	388.81
394.78	378.81
395.005	362.81
395.229	367.81
395.454	390.81
395.678	391.81
395.903	391.81
396.127	404.81
396.352	413.81
396.576	400.81
396.801	383.81
397.025	374.81
397.249	382.81
397.474	380.81
397.698	398.81
397.922	411.81
398.147	398.81
398.371	412.81
398.595	410.81
398.82	422.81
399.044	412.81
399.268	421.81
399.492	451.81
399.717	491.81
399.941	496.81
400.165	489.81
400.389	497.81
400.613	466.81
400.837	455.81
401.062	437.81
401.286	420.81
401.51	413.81
401.734	410.81
401.958	414.81
402.182	412.81
402.406	431.81
402.63	435.81
402.854	419.81
403.078	433.81
403.302	423.81
403.526	424.81
403.75	437.81
403.974	423.81
404.198	425.81
404.422	441.81
404.645	440.81
404.869	454.81
405.093	454.81
405.317	482.81
405.541	542.81
405.765	471.81
405.988	461.81
406.212	477.81
406.436	476.81
406.66	474.81
406.883	483.81
407.107	473.81
407.331	500.81
407.555	591.81
407.778	553.81
408.002	519.81
408.226	487.81
408.449	477.81
408.673	476.81
408.896	473.81
409.12	547.81
409.344	485.81
409.567	451.81
409.791	454.81
410.014	413.81
410.238	407.81
410.461	427.81
410.685	429.81
410.908	450.81
411.132	457.81
411.355	511.81
411.578	467.81
411.802	457.81
412.025	438.81
412.249	448.81
412.472	446.81
412.695	478.81
412.919	478.81
413.142	423.81
413.365	435.81
413.589	420.81
413.812	427.81
414.035	407.81
414.258	401.81
414.482	405.81
414.705	399.81
414.928	396.81
415.151	395.81
415.374	403.81
415.597	400.81
415.821	409.81
416.044	411.81
416.267	411.81
416.49	397.81
416.713	382.81
416.936	405.81
417.159	419.81
417.382	408.81
417.605	405.81
417.828	421.81
418.051	417.81
418.274	412.81
418.497	408.81
418.72	418.81
418.943	402.81
419.166	412.81
419.389	440.81
419.611	442.81
419.834	430.81
420.057	437.81
420.28	425.81
420.503	429.81
420.726	422.81
420.948	455.81
421.171	470.81
421.394	481.81
421.617	446.81
421.839	430.81
422.062	440.81
422.285	433.81
422.507	477.81
422.73	534.81
422.953	511.81
423.175	451.81
423.398	438.81
423.621	448.81
423.843	449.81
424.066	455.81
424.288	460.81
424.511	476.81
424.733	529.81
424.956	593.81
425.178	556.81
425.401	538.81
425.623	575.81
425.846	501.81
426.068	469.81
426.291	454.81
426.513	443.81
426.735	470.81
426.958	496.81
427.18	565.81
427.402	655.81
427.625	725.81
427.847	638.81
428.069	537.81
428.292	485.81
428.514	446.81
428.736	448.81
428.958	422.81
429.181	428.81
429.403	407.81
429.625	437.81
429.847	471.81
430.069	533.81
430.292	506.81
430.514	442.81
430.736	446.81
430.958	423.81
431.18	394.81
431.402	410.81
431.624	390.81
431.846	391.81
432.068	386.81
432.29	392.81
432.512	402.81
432.734	417.81
432.956	421.81
433.178	415.81
433.4	438.81
433.622	416.81
433.844	392.81
434.066	381.81
434.287	409.81
434.509	394.81
434.731	395.81
434.953	399.81
435.175	411.81
435.397	434.81
435.618	457.81
435.84	485.81
436.062	580.81
436.284	609.81
436.505	520.81
436.727	479.81
436.949	429.81
437.17	412.81
437.392	446.81
437.614	437.81
437.835	458.81
438.057	546.81
438.278	615.81
438.5	620.81
438.721	682.81
438.943	646.81
439.165	505.81
439.386	470.81
439.608	473.81
439.829	480.81
440.05	501.81
440.272	539.81
440.493	473.81
440.715	443.81
440.936	406.81
441.158	434.81
441.379	446.81
441.6	422.81
441.822	463.81
442.043	482.81
442.264	562.81
442.486	562.81
442.707	504.81
442.928	464.81
443.149	474.81
443.371	490.81
443.592	526.81
443.813	620.81
444.034	655.81
444.255	533.81
444.476	492.81
444.698	460.81
444.919	445.81
445.14	528.81
445.361	506.81
445.582	505.81
445.803	547.81
446.024	639.81
446.245	613.81
446.466	569.81
446.687	491.81
446.908	475.81
447.129	442.81
447.35	436.81
447.571	434.81
447.792	421.81
448.013	435.81
448.234	449.81
448.455	499.81
448.675	581.81
448.896	664.81
449.117	567.81
449.338	549.81
449.559	624.81
449.779	694.81
450	548.81
450.221	472.81
450.442	431.81
450.662	417.81
450.883	400.81
451.104	412.81
451.324	417.81
451.545	406.81
451.766	399.81
451.986	375.81
452.207	363.81
452.428	364.81
452.648	366.81
452.869	384.81
453.089	385.81
453.31	394.81
453.53	387.81
453.751	378.81
453.971	374.81
454.192	393.81
454.412	385.81
454.633	373.81
454.853	376.81
455.073	362.81
455.294	379.81
455.514	449.81
455.734	420.81
455.955	385.81
456.175	357.81
456.395	361.81
456.616	357.81
456.836	347.81
457.056	353.81
457.276	363.81
457.497	355.81
457.717	355.81
457.937	359.81
458.157	375.81
458.377	339.81
458.598	381.81
458.818	437.81
459.038	467.81
459.258	510.81
459.478	417.81
459.698	390.81
459.918	395.81
460.138	393.81
460.358	395.81
460.578	383.81
460.798	365.81
461.018	383.81
461.238	409.81
461.458	379.81
461.678	393.81
461.898	403.81
462.118	388.81
462.338	399.81
462.558	402.81
462.777	425.81
462.997	422.81
463.217	419.81
463.437	422.81
463.657	424.81
463.876	413.81
464.096	413.81
464.316	413.81
464.536	387.81
464.755	414.81
464.975	413.81
465.195	442.81
465.414	478.81
465.634	448.81
465.854	420.81
466.073	413.81
466.293	378.81
466.512	373.81
466.732	371.81
466.951	377.81
467.171	370.81
467.391	375.81
467.61	389.81
467.829	379.81
468.049	399.81
468.268	386.81
468.488	376.81
468.707	388.81
468.927	380.81
469.146	362.81
469.365	399.81
469.585	389.81
469.804	388.81
470.023	422.81
470.243	397.81
470.462	406.81
470.681	414.81
470.901	412.81
471.12	380.81
471.339	381.81
471.558	400.81
471.777	395.81
471.997	404.81
472.216	381.81
472.435	423.81
472.654	393.81
472.873	374.81
473.092	391.81
473.311	390.81
473.53	406.81
473.749	402.81
473.968	430.81
474.187	506.81
474.406	537.81
474.625	433.81
474.844	420.81
475.063	403.81
475.282	391.81
475.501	392.81
475.72	395.81
475.939	407.81
476.158	406.81
476.377	403.81
476.596	392.81
476.814	407.81
477.033	404.81
477.252	397.81
477.471	409.81
477.69	404.81
477.908	423.81
478.127	405.81
478.346	414.81
478.564	427.81
478.783	439.81
479.002	447.81
479.22	440.81
479.439	443.81
479.658	448.81
479.876	435.81
480.095	464.81
480.313	496.81
480.532	482.81
480.751	462.81
480.969	462.81
481.188	527.81
481.406	513.81
481.624	471.81
481.843	461.81
482.061	437.81
482.28	448.81
482.498	446.81
482.717	442.81
482.935	449.81
483.153	438.81
483.372	450.81
483.59	428.81
483.808	451.81
484.027	441.81
484.245	440.81
484.463	446.81
484.681	453.81
484.9	448.81
485.118	473.81
485.336	452.81
485.554	458.81
485.772	449.81
485.99	453.81
486.209	484.81
486.427	469.81
486.645	446.81
486.863	489.81
487.081	467.81
487.299	470.81
487.517	481.81
487.735	490.81
487.953	474.81
488.171	499.81
488.389	483.81
488.607	481.81
488.825	474.81
489.043	496.81
489.261	470.81
489.479	478.81
489.696	497.81
489.914	499.81
490.132	490.81
490.35	519.81
490.568	515.81
490.786	512.81
491.003	508.81
491.221	539.81
491.439	553.81
491.657	527.81
491.874	570.81
492.092	528.81
492.31	556.81
492.527	550.81
492.745	571.81
492.963	559.81
493.18	561.81
493.398	568.81
493.615	566.81
493.833	593.81
494.05	578.81
494.268	554.81
494.485	550.81
494.703	546.81
494.92	597.81
495.138	575.81
495.355	570.81
495.573	550.81
495.79	571.81
496.008	590.81
496.225	578.81
496.442	556.81
496.66	591.81
496.877	562.81
497.094	575.81
497.312	550.81
497.529	580.81
497.746	598.81
497.963	574.81
498.181	593.81
498.398	614.81
498.615	612.81
498.832	614.81
499.049	619.81
499.267	635.81
499.484	657.81
499.701	669.81
499.918	701.81
500.135	711.81
500.352	719.81
500.569	757.81
500.786	739.81
501.003	748.81
501.22	729.81
501.437	691.81
501.654	725.81
501.871	696.81
502.088	665.81
502.305	649.81
502.522	635.81
502.739	637.81
502.956	603.81
503.172	562.81
503.389	557.81
503.606	577.81
503.823	591.81
504.04	578.81
504.256	563.81
504.473	545.81
504.69	569.81
504.907	538.81
505.123	547.81
505.34	543.81
505.557	553.81
505.773	552.81
505.99	526.81
506.207	542.81
506.423	534.81
506.64	527.81
506.856	549.81
507.073	542.81
507.289	533.81
507.506	540.81
507.722	528.81
507.939	572.81
508.155	529.81
508.372	531.81
508.588	491.81
508.805	523.81
509.021	504.81
509.238	533.81
509.454	543.81
509.67	522.81
509.887	514.81
510.103	522.81
510.319	516.81
510.536	594.81
510.752	907.81
510.968	740.81
511.184	509.81
511.401	484.81
511.617	482.81
511.833	477.81
512.049	494.81
512.265	487.81
512.481	502.81
512.698	484.81
512.914	462.81
513.13	475.81
513.346	470.81
513.562	485.81
513.778	492.81
513.994	494.81
514.21	483.81
514.426	499.81
514.642	545.81
514.858	575.81
515.074	596.81
515.29	689.81
515.506	969.81
515.721	757.81
515.937	557.81
516.153	543.81
516.369	504.81
516.585	484.81
516.801	490.81
517.016	486.81
517.232	511.81
517.448	515.81
517.664	494.81
517.879	488.81
518.095	470.81
518.311	491.81
518.527	490.81
518.742	495.81
518.958	493.81
519.173	485.81
519.389	493.81
519.605	473.81
519.82	477.81
520.036	492.81
520.251	519.81
520.467	542.81
520.682	524.81
520.898	531.81
521.113	545.81
521.329	563.81
521.544	629.81
521.76	779.81
521.975	1236.81
522.19	1153.81
522.406	693.81
522.621	532.81
522.836	488.81
523.052	479.81
523.267	464.81
523.482	466.81
523.698	450.81
523.913	452.81
524.128	444.81
524.343	441.81
524.559	407.81
524.774	419.81
524.989	419.81
525.204	432.81
525.419	412.81
525.634	415.81
525.849	395.81
526.064	416.81
526.28	417.81
526.495	404.81
526.71	383.81
526.925	376.81
527.14	393.81
527.355	382.81
527.57	389.81
527.785	395.81
527.999	397.81
528.214	400.81
528.429	380.81
528.644	384.81
528.859	390.81
529.074	401.81
529.289	422.81
529.503	469.81
529.718	459.81
529.933	423.81
530.148	403.81
530.363	406.81
530.577	393.81
530.792	393.81
531.007	380.81
531.221	394.81
531.436	372.81
531.651	367.81
531.865	389.81
532.08	363.81
532.295	375.81
532.509	377.81
532.724	395.81
532.938	381.81
533.153	366.81
533.367	373.81
533.582	374.81
533.796	378.81
534.011	382.81
534.225	375.81
534.44	380.81
534.654	360.81
534.868	381.81
535.083	368.81
535.297	376.81
535.511	375.81
535.726	371.81
535.94	383.81
536.154	381.81
536.369	367.81
536.583	375.81
536.797	354.81
537.011	371.81
537.225	368.81
537.44	359.81
537.654	376.81
537.868	366.81
538.082	358.81
538.296	373.81
538.51	372.81
538.724	350.81
538.938	358.81
539.153	359.81
539.367	371.81
539.581	393.81
539.795	359.81
540.009	390.81
540.222	361.81
540.436	348.81
540.65	356.81
540.864	391.81
541.078	375.81
541.292	381.81
541.506	373.81
541.72	371.81
541.934	356.81
542.147	369.81
542.361	379.81
542.575	366.81
542.789	367.81
543.002	357.81
543.216	372.81
543.43	362.81
543.644	353.81
543.857	358.81
544.071	375.81
544.285	355.81
544.498	357.81
544.712	362.81
544.925	383.81
545.139	362.81
545.352	367.81
545.566	363.81
545.779	368.81
545.993	375.81
546.206	357.81
546.42	363.81
546.633	359.81
546.847	360.81
547.06	350.81
547.274	352.81
547.487	353.81
547.7	371.81
547.914	369.81
548.127	360.81
548.34	348.81
548.554	367.81
548.767	347.81
548.98	343.81
549.193	350.81
549.407	329.81
549.62	349.81
549.833	356.81
550.046	335.81
550.259	353.81
550.473	345.81
550.686	326.81
550.899	356.81
551.112	332.81
551.325	349.81
551.538	342.81
551.751	343.81
551.964	343.81
552.177	335.81
552.39	349.81
552.603	359.81
552.816	358.81
553.029	326.81
553.242	337.81
553.455	345.81
553.667	356.81
553.88	376.81
554.093	356.81
554.306	361.81
554.519	342.81
554.732	347.81
554.944	350.81
555.157	332.81
555.37	335.81
555.583	334.81
555.795	319.81
556.008	337.81
556.221	325.81
556.433	325.81
556.646	327.81
556.859	306.81
557.071	331.81
557.284	313.81
557.496	307.81
557.709	319.81
557.921	312.81
558.134	303.81
558.346	327.81
558.559	313.81
558.771	313.81
558.984	302.81
559.196	287.81
559.409	307.81
559.621	314.81
559.833	316.81
560.046	325.81
560.258	328.81
560.47	318.81
560.683	324.81
560.895	318.81
561.107	324.81
561.32	306.81
561.532	308.81
561.744	313.81
561.956	316.81
562.168	314.81
562.381	300.81
562.593	313.81
562.805	310.81
563.017	328.81
563.229	313.81
563.441	312.81
563.653	326.81
563.865	312.81
564.077	319.81
564.289	320.81
564.501	305.81
564.713	339.81
564.925	313.81
565.137	320.81
565.349	322.81
565.561	324.81
565.773	340.81
565.985	339.81
566.197	330.81
566.408	349.81
566.62	360.81
566.832	355.81
567.044	343.81
567.255	353.81
567.467	367.81
567.679	347.81
567.891	364.81
568.102	377.81
568.314	385.81
568.526	346.81
568.737	329.81
568.949	327.81
569.161	330.81
569.372	313.81
569.584	325.81
569.795	317.81
570.007	313.81
570.218	331.81
570.43	353.81
570.641	282.81
570.853	294.81
571.064	286.81
571.276	271.81
571.487	295.81
571.698	307.81
571.91	290.81
572.121	302.81
572.333	278.81
572.544	274.81
572.755	274.81
572.966	274.81
573.178	272.81
573.389	262.81
573.6	277.81
573.811	283.81
574.023	253.81
574.234	279.81
574.445	265.81
574.656	261.81
574.867	260.81
575.078	259.81
575.289	251.81
575.501	268.81
575.712	257.81
575.923	245.81
576.134	269.81
576.345	250.81
576.556	257.81
576.767	265.81
576.978	240.81
577.188	262.81
577.399	267.81
577.61	252.81
577.821	259.81
578.032	270.81
578.243	265.81
578.454	423.81
578.665	321.81
578.875	262.81
579.086	247.81
579.297	242.81
579.508	245.81
579.718	267.81
579.929	242.81
580.14	243.81
580.35	236.81
580.561	255.81
580.772	229.81
580.982	246.81
581.193	259.81
581.403	246.81
581.614	250.81
581.825	236.81
582.035	252.81
582.246	253.81
582.456	243.81
582.667	241.81
582.877	230.81
583.087	224.81
583.298	233.81
583.508	240.81
583.719	243.81
583.929	241.81
584.139	261.81
584.35	244.81
584.56	239.81
584.77	238.81
584.981	242.81
585.191	225.81
585.401	225.81
585.611	232.81
585.821	229.81
586.032	233.81
586.242	235.81
586.452	220.81
586.662	227.81
586.872	214.81
587.082	241.81
587.292	240.81
587.502	222.81
587.713	234.81
587.923	217.81
588.133	233.81
588.343	232.81
588.553	219.81
588.762	237.81
588.972	228.81
589.182	229.81
589.392	227.81
589.602	246.81
589.812	243.81
590.022	223.81
590.232	247.81
590.441	234.81
590.651	228.81
590.861	239.81
591.071	225.81
591.281	225.81
591.49	236.81
591.7	232.81
591.91	236.81
592.119	229.81
592.329	237.81
592.539	228.81
592.748	223.81
592.958	245.81
593.167	253.81
593.377	237.81
593.587	255.81
593.796	252.81
594.006	221.81
594.215	232.81
594.424	230.81
594.634	228.81
594.843	244.81
595.053	246.81
595.262	244.81
595.472	245.81
595.681	238.81
595.89	227.81
596.1	218.81
596.309	215.81
596.518	209.81
596.727	207.81
596.937	211.81
597.146	215.81
597.355	222.81
597.564	215.81
597.774	207.81
597.983	217.81
598.192	208.81
598.401	216.81
598.61	220.81
598.819	221.81
599.028	216.81
599.237	212.81
599.446	218.81
599.655	227.81
599.864	209.81
600.073	191.81
600.282	215.81
600.491	214.81
600.7	198.81
600.909	200.81
601.118	195.81
601.327	205.81
601.536	211.81
601.745	214.81
601.953	189.81
602.162	210.81
602.371	201.81
602.58	205.81
602.789	196.81
602.997	213.81
603.206	215.81
603.415	208.81
603.623	227.81
603.832	196.81
604.041	211.81
604.249	194.81
604.458	207.81
604.666	203.81
604.875	199.81
605.084	196.81
605.292	209.81
605.501	191.81
605.709	203.81
605.918	209.81
606.126	199.81
606.334	203.81
606.543	205.81
606.751	203.81
606.96	196.81
607.168	197.81
607.376	199.81
607.585	217.81
607.793	210.81
608.001	198.81
608.21	205.81
608.418	198.81
608.626	199.81
608.834	207.81
609.043	211.81
609.251	196.81
609.459	210.81
609.667	201.81
609.875	202.81
610.083	198.81
610.291	193.81
610.499	221.81
610.707	202.81
610.916	201.81
611.124	191.81
611.332	220.81
611.54	216.81
611.748	196.81
611.955	198.81
612.163	200.81
612.371	201.81
612.579	201.81
612.787	213.81
612.995	193.81
613.203	215.81
613.411	193.81
613.618	190.81
613.826	207.81
614.034	209.81
614.242	185.81
614.449	181.81
614.657	190.81
614.865	216.81
615.072	190.81
615.28	185.81
615.488	199.81
615.695	199.81
615.903	198.81
616.111	206.81
616.318	200.81
616.526	217.81
616.733	199.81
616.941	215.81
617.148	196.81
617.356	204.81
617.563	200.81
617.771	197.81
617.978	201.81
618.185	194.81
618.393	202.81
618.6	200.81
618.807	200.81
619.015	194.81
619.222	198.81
619.429	202.81
619.637	207.81
619.844	182.81
620.051	193.81
620.258	183.81
620.466	199.81
620.673	204.81
620.88	173.81
621.087	165.81
621.294	189.81
621.501	189.81
621.708	191.81
621.915	174.81
622.122	177.81
622.329	177.81
622.536	179.81
622.743	197.81
622.95	194.81
623.157	182.81
623.364	190.81
623.571	183.81
623.778	175.81
623.985	191.81
624.192	179.81
624.399	170.81
624.606	185.81
624.812	204.81
625.019	174.81
625.226	181.81
625.433	174.81
625.639	188.81
625.846	178.81
626.053	171.81
626.259	177.81
626.466	179.81
626.673	185.81
626.879	169.81
627.086	166.81
627.293	166.81
627.499	171.81
627.706	183.81
627.912	183.81
628.119	185.81
628.325	177.81
628.532	172.81
628.738	173.81
628.945	172.81
629.151	178.81
629.357	155.81
629.564	156.81
629.77	188.81
629.976	165.81
630.183	189.81
630.389	182.81
630.595	158.81
630.802	178.81
631.008	171.81
631.214	157.81
631.42	169.81
631.627	161.81
631.833	164.81
632.039	167.81
632.245	150.81
632.451	153.81
632.657	159.81
632.863	164.81
633.069	166.81
633.275	155.81
633.481	161.81
633.688	171.81
633.893	161.81
634.099	158.81
634.305	152.81
634.511	161.81
634.717	173.81
634.923	173.81
635.129	150.81
635.335	158.81
635.541	162.81
635.747	154.81
635.952	150.81
636.158	171.81
636.364	152.81
636.57	165.81
636.775	166.81
636.981	158.81
637.187	161.81
637.392	157.81
637.598	154.81
637.804	161.81
638.009	165.81
638.215	153.81
638.421	164.81
638.626	155.81
638.832	172.81
639.037	143.81
639.243	142.81
639.448	158.81
639.654	164.81
639.859	143.81
640.065	143.81
640.27	154.81
640.475	164.81
640.681	145.81
640.886	150.81
641.091	146.81
641.297	160.81
641.502	139.81
641.707	151.81
641.913	162.81
642.118	166.81
642.323	150.81
642.528	159.81
642.733	157.81
642.939	150.81
643.144	149.81
643.349	138.81
643.554	152.81
643.759	148.81
643.964	146.81
644.169	170.81
644.374	138.81
644.579	153.81
644.784	155.81
644.989	132.81
645.194	155.81
645.399	130.81
645.604	141.81
645.809	143.81
646.014	156.81
646.219	154.81
646.423	140.81
646.628	148.81
646.833	149.81
647.038	146.81
647.243	133.81
647.447	133.81
647.652	160.81
647.857	142.81
648.062	142.81
648.266	146.81
648.471	155.81
648.676	148.81
648.88	155.81
649.085	147.81
649.289	138.81
649.494	149.81
649.698	165.81
649.903	174.81
650.107	163.81
650.312	150.81
650.516	140.81
650.721	152.81
650.925	134.81
651.13	151.81
651.334	132.81
651.539	148.81
651.743	143.81
651.947	159.81
652.152	136.81
652.356	128.81
652.56	124.81
652.764	129.81
652.969	128.81
653.173	138.81
653.377	117.81
653.581	141.81
653.785	134.81
653.99	137.81
654.194	131.81
654.398	129.81
654.602	130.81
654.806	105.81
655.01	117.81
655.214	131.81
655.418	127.81
655.622	113.81
655.826	129.81
656.03	130.81
656.234	129.81
656.438	129.81
656.642	138.81
656.846	124.81
657.049	125.81
657.253	115.81
657.457	122.81
657.661	118.81
657.865	94.81
658.068	103.81
658.272	108.81
658.476	115.81
658.68	101.81
658.883	108.81
659.087	112.81
659.291	105.81
659.494	97.81
659.698	94.81
659.901	96.81
660.105	91.81
660.309	99.81
660.512	75.81
660.716	93.81
660.919	95.81
661.123	100.81
661.326	96.81
661.53	85.81
661.733	85.81
661.936	87.81
662.14	86.81
662.343	91.81
662.546	85.81
662.75	80.81
662.953	87.81
663.156	103.81
663.36	82.81
663.563	91.81
663.766	84.81
663.969	84.81
664.173	73.81
664.376	86.81
664.579	85.81
664.782	92.81
664.985	76.81
665.188	78.81
665.391	94.81
665.594	83.81
665.797	95.81
666	93.81
666.203	77.81
666.406	87.81
666.609	84.81
666.812	86.81
667.015	89.81
667.218	78.81
667.421	90.81
667.624	83.81
667.827	87.81
668.03	70.81
668.232	78.81
668.435	84.81
668.638	94.81
668.841	76.81
669.043	83.81
669.246	97.81
669.449	71.81
669.651	70.81
669.854	86.81
670.057	76.81
670.259	78.81
670.462	84.81
670.665	83.81
670.867	75.81
671.07	80.81
671.272	81.81
671.475	86.81
671.677	78.81
671.88	85.81
672.082	81.81
672.284	86.81
672.487	79.81
672.689	79.81
672.892	98.81
