Data from 1971.PennyLincolnUp.Lamp.En5.5.200Scan.071719.P1.Scan 2. Changed Angle._HRD10591_15-24-26-842.txt Node
Date: Thu Jul 18 15:24:26 EDT 2019
User: cochatt
Spectrometer: HR+D1059
Trigger mode: 1
Integration Time (sec): 1.000000E-1
Scans to average: 1
Electric dark correction enabled: true
Nonlinearity correction enabled: false
Boxcar width: 0
XAxis mode: Wavelengths
Number of Pixels in Spectrum: 2048
>>>>>Begin Spectral Data<<<<<
223.165	-13.81
223.4	-13.81
223.635	-13.81
223.869	-21.81
224.104	-26.81
224.338	-2.81
224.573	-19.81
224.808	-12.81
225.042	-1.81
225.277	-21.81
225.511	7.19
225.746	16.19
225.98	-9.81
226.215	20.19
226.449	14.19
226.683	10.19
226.918	27.19
227.152	36.19
227.387	33.19
227.621	40.19
227.856	50.19
228.09	31.19
228.324	45.19
228.559	48.19
228.793	74.19
229.027	110.19
229.262	110.19
229.496	123.19
229.73	150.19
229.964	181.19
230.199	144.19
230.433	138.19
230.667	122.19
230.901	127.19
231.136	123.19
231.37	110.19
231.604	118.19
231.838	120.19
232.072	129.19
232.306	119.19
232.541	115.19
232.775	109.19
233.009	108.19
233.243	123.19
233.477	116.19
233.711	115.19
233.945	124.19
234.179	119.19
234.413	112.19
234.647	128.19
234.881	122.19
235.115	137.19
235.349	125.19
235.583	127.19
235.817	142.19
236.051	137.19
236.285	111.19
236.519	132.19
236.753	148.19
236.987	165.19
237.221	203.19
237.455	261.19
237.689	212.19
237.922	160.19
238.156	150.19
238.39	142.19
238.624	128.19
238.858	137.19
239.091	130.19
239.325	140.19
239.559	133.19
239.793	134.19
240.027	148.19
240.26	154.19
240.494	185.19
240.728	171.19
240.961	170.19
241.195	164.19
241.429	162.19
241.662	134.19
241.896	126.19
242.13	133.19
242.363	126.19
242.597	137.19
242.83	156.19
243.064	154.19
243.298	157.19
243.531	142.19
243.765	134.19
243.998	147.19
244.232	156.19
244.465	165.19
244.699	142.19
244.932	170.19
245.166	163.19
245.399	162.19
245.633	156.19
245.866	154.19
246.099	141.19
246.333	170.19
246.566	156.19
246.8	162.19
247.033	178.19
247.266	166.19
247.5	183.19
247.733	170.19
247.966	201.19
248.2	189.19
248.433	195.19
248.666	189.19
248.899	199.19
249.133	219.19
249.366	229.19
249.599	229.19
249.832	211.19
250.066	197.19
250.299	199.19
250.532	208.19
250.765	211.19
250.998	245.19
251.231	255.19
251.465	236.19
251.698	217.19
251.931	220.19
252.164	224.19
252.397	226.19
252.63	223.19
252.863	228.19
253.096	247.19
253.329	249.19
253.562	276.19
253.795	254.19
254.028	227.19
254.261	255.19
254.494	266.19
254.727	308.19
254.96	330.19
255.193	311.19
255.426	298.19
255.659	268.19
255.892	263.19
256.124	250.19
256.357	260.19
256.59	266.19
256.823	231.19
257.056	230.19
257.289	238.19
257.521	238.19
257.754	234.19
257.987	217.19
258.22	222.19
258.452	230.19
258.685	227.19
258.918	225.19
259.151	240.19
259.383	229.19
259.616	228.19
259.849	266.19
260.081	260.19
260.314	272.19
260.547	290.19
260.779	276.19
261.012	265.19
261.244	245.19
261.477	248.19
261.71	241.19
261.942	239.19
262.175	267.19
262.407	250.19
262.64	227.19
262.872	235.19
263.105	230.19
263.337	228.19
263.57	205.19
263.802	221.19
264.035	227.19
264.267	224.19
264.499	205.19
264.732	224.19
264.964	231.19
265.197	230.19
265.429	210.19
265.661	231.19
265.894	212.19
266.126	217.19
266.358	214.19
266.591	245.19
266.823	239.19
267.055	239.19
267.287	232.19
267.52	233.19
267.752	235.19
267.984	236.19
268.216	246.19
268.448	218.19
268.681	235.19
268.913	246.19
269.145	280.19
269.377	295.19
269.609	285.19
269.841	307.19
270.073	294.19
270.306	325.19
270.538	361.19
270.77	327.19
271.002	342.19
271.234	320.19
271.466	334.19
271.698	355.19
271.93	354.19
272.162	358.19
272.394	351.19
272.626	347.19
272.858	311.19
273.09	306.19
273.322	301.19
273.553	297.19
273.785	272.19
274.017	286.19
274.249	285.19
274.481	278.19
274.713	287.19
274.945	267.19
275.176	295.19
275.408	271.19
275.64	270.19
275.872	261.19
276.104	292.19
276.335	299.19
276.567	279.19
276.799	281.19
277.031	333.19
277.262	354.19
277.494	360.19
277.726	319.19
277.957	317.19
278.189	299.19
278.421	297.19
278.652	298.19
278.884	278.19
279.115	287.19
279.347	271.19
279.579	281.19
279.81	261.19
280.042	278.19
280.273	260.19
280.505	257.19
280.736	269.19
280.968	276.19
281.199	254.19
281.431	260.19
281.662	275.19
281.894	276.19
282.125	264.19
282.356	286.19
282.588	317.19
282.819	327.19
283.051	281.19
283.282	262.19
283.513	287.19
283.745	281.19
283.976	276.19
284.207	284.19
284.439	277.19
284.67	282.19
284.901	272.19
285.132	278.19
285.364	269.19
285.595	276.19
285.826	306.19
286.057	274.19
286.288	277.19
286.52	276.19
286.751	270.19
286.982	261.19
287.213	278.19
287.444	278.19
287.675	297.19
287.906	283.19
288.138	292.19
288.369	320.19
288.6	298.19
288.831	311.19
289.062	308.19
289.293	292.19
289.524	290.19
289.755	289.19
289.986	269.19
290.217	269.19
290.448	301.19
290.679	288.19
290.91	281.19
291.141	279.19
291.371	276.19
291.602	293.19
291.833	297.19
292.064	290.19
292.295	295.19
292.526	307.19
292.757	296.19
292.987	277.19
293.218	291.19
293.449	294.19
293.68	280.19
293.91	285.19
294.141	286.19
294.372	289.19
294.603	289.19
294.833	281.19
295.064	294.19
295.295	287.19
295.525	293.19
295.756	296.19
295.987	304.19
296.217	340.19
296.448	349.19
296.679	320.19
296.909	293.19
297.14	300.19
297.37	295.19
297.601	299.19
297.831	290.19
298.062	289.19
298.292	280.19
298.523	299.19
298.753	278.19
298.984	310.19
299.214	308.19
299.445	298.19
299.675	299.19
299.905	314.19
300.136	310.19
300.366	306.19
300.597	307.19
300.827	309.19
301.057	325.19
301.288	333.19
301.518	318.19
301.748	331.19
301.979	330.19
302.209	311.19
302.439	324.19
302.669	340.19
302.9	324.19
303.13	322.19
303.36	324.19
303.59	331.19
303.82	332.19
304.051	325.19
304.281	314.19
304.511	320.19
304.741	322.19
304.971	324.19
305.201	312.19
305.431	320.19
305.661	323.19
305.891	311.19
306.121	318.19
306.352	335.19
306.582	336.19
306.812	320.19
307.042	326.19
307.272	303.19
307.502	326.19
307.731	320.19
307.961	328.19
308.191	325.19
308.421	332.19
308.651	338.19
308.881	330.19
309.111	343.19
309.341	336.19
309.571	366.19
309.8	354.19
310.03	390.19
310.26	381.19
310.49	377.19
310.72	398.19
310.949	416.19
311.179	408.19
311.409	403.19
311.639	415.19
311.868	404.19
312.098	394.19
312.328	399.19
312.557	420.19
312.787	432.19
313.017	444.19
313.246	414.19
313.476	382.19
313.706	401.19
313.935	388.19
314.165	426.19
314.394	434.19
314.624	405.19
314.853	406.19
315.083	376.19
315.312	382.19
315.542	370.19
315.771	382.19
316.001	378.19
316.23	357.19
316.46	370.19
316.689	372.19
316.919	376.19
317.148	402.19
317.377	418.19
317.607	405.19
317.836	384.19
318.065	405.19
318.295	393.19
318.524	380.19
318.753	395.19
318.983	383.19
319.212	403.19
319.441	409.19
319.67	408.19
319.9	404.19
320.129	393.19
320.358	394.19
320.587	401.19
320.816	399.19
321.046	415.19
321.275	413.19
321.504	420.19
321.733	418.19
321.962	450.19
322.191	448.19
322.42	464.19
322.649	490.19
322.878	493.19
323.108	521.19
323.337	563.19
323.566	570.19
323.795	620.19
324.024	690.19
324.253	874.19
324.482	1230.19
324.71	1987.19
324.939	2812.19
325.168	2434.19
325.397	1227.19
325.626	811.19
325.855	655.19
326.084	588.19
326.313	570.19
326.542	584.19
326.77	649.19
326.999	760.19
327.228	1092.19
327.457	1706.19
327.686	2135.19
327.914	1354.19
328.143	896.19
328.372	758.19
328.6	709.19
328.829	668.19
329.058	674.19
329.287	707.19
329.515	629.19
329.744	574.19
329.972	586.19
330.201	627.19
330.43	669.19
330.658	685.19
330.887	727.19
331.115	698.19
331.344	592.19
331.572	553.19
331.801	564.19
332.03	555.19
332.258	504.19
332.486	480.19
332.715	488.19
332.943	481.19
333.172	484.19
333.4	464.19
333.629	472.19
333.857	507.19
334.085	510.19
334.314	532.19
334.542	569.19
334.771	579.19
334.999	549.19
335.227	503.19
335.455	486.19
335.684	454.19
335.912	451.19
336.14	442.19
336.369	453.19
336.597	462.19
336.825	462.19
337.053	459.19
337.281	440.19
337.51	432.19
337.738	416.19
337.966	436.19
338.194	464.19
338.422	441.19
338.65	452.19
338.878	449.19
339.106	450.19
339.334	448.19
339.562	425.19
339.79	436.19
340.018	442.19
340.246	442.19
340.474	448.19
340.702	446.19
340.93	454.19
341.158	448.19
341.386	452.19
341.614	451.19
341.842	447.19
342.07	434.19
342.298	466.19
342.526	435.19
342.754	432.19
342.981	418.19
343.209	421.19
343.437	422.19
343.665	411.19
343.893	440.19
344.12	426.19
344.348	443.19
344.576	445.19
344.804	467.19
345.031	475.19
345.259	461.19
345.487	485.19
345.714	450.19
345.942	458.19
346.17	428.19
346.397	447.19
346.625	448.19
346.853	447.19
347.08	441.19
347.308	450.19
347.535	455.19
347.763	472.19
347.99	471.19
348.218	472.19
348.445	460.19
348.673	470.19
348.9	460.19
349.128	441.19
349.355	418.19
349.583	428.19
349.81	423.19
350.037	428.19
350.265	431.19
350.492	430.19
350.72	421.19
350.947	439.19
351.174	456.19
351.402	477.19
351.629	428.19
351.856	427.19
352.083	463.19
352.311	478.19
352.538	468.19
352.765	470.19
352.992	463.19
353.22	460.19
353.447	468.19
353.674	439.19
353.901	408.19
354.128	430.19
354.355	405.19
354.583	387.19
354.81	427.19
355.037	388.19
355.264	392.19
355.491	408.19
355.718	406.19
355.945	411.19
356.172	382.19
356.399	420.19
356.626	398.19
356.853	406.19
357.08	405.19
357.307	397.19
357.534	384.19
357.761	390.19
357.988	384.19
358.215	399.19
358.441	407.19
358.668	391.19
358.895	408.19
359.122	409.19
359.349	438.19
359.576	436.19
359.802	482.19
360.029	524.19
360.256	554.19
360.483	533.19
360.709	471.19
360.936	450.19
361.163	454.19
361.39	430.19
361.616	454.19
361.843	433.19
362.07	471.19
362.296	452.19
362.523	434.19
362.749	445.19
362.976	468.19
363.203	454.19
363.429	416.19
363.656	432.19
363.882	448.19
364.109	436.19
364.335	424.19
364.562	421.19
364.788	431.19
365.015	436.19
365.241	436.19
365.468	443.19
365.694	455.19
365.92	456.19
366.147	405.19
366.373	425.19
366.599	409.19
366.826	412.19
367.052	414.19
367.278	405.19
367.505	415.19
367.731	430.19
367.957	431.19
368.184	425.19
368.41	406.19
368.636	451.19
368.862	476.19
369.089	438.19
369.315	444.19
369.541	415.19
369.767	412.19
369.993	404.19
370.219	417.19
370.445	432.19
370.672	419.19
370.898	423.19
371.124	422.19
371.35	419.19
371.576	397.19
371.802	406.19
372.028	400.19
372.254	421.19
372.48	415.19
372.706	403.19
372.932	422.19
373.158	426.19
373.384	404.19
373.61	416.19
373.835	424.19
374.061	408.19
374.287	431.19
374.513	434.19
374.739	419.19
374.965	434.19
375.191	404.19
375.416	418.19
375.642	408.19
375.868	417.19
376.094	415.19
376.319	409.19
376.545	403.19
376.771	399.19
376.997	395.19
377.222	413.19
377.448	444.19
377.674	412.19
377.899	394.19
378.125	417.19
378.35	404.19
378.576	410.19
378.802	418.19
379.027	390.19
379.253	385.19
379.478	400.19
379.704	397.19
379.929	447.19
380.155	434.19
380.38	425.19
380.606	423.19
380.831	413.19
381.057	430.19
381.282	439.19
381.507	411.19
381.733	422.19
381.958	422.19
382.184	395.19
382.409	411.19
382.634	422.19
382.86	407.19
383.085	428.19
383.31	441.19
383.535	426.19
383.761	404.19
383.986	438.19
384.211	450.19
384.436	439.19
384.662	427.19
384.887	446.19
385.112	442.19
385.337	439.19
385.562	419.19
385.787	455.19
386.013	444.19
386.238	456.19
386.463	471.19
386.688	454.19
386.913	446.19
387.138	447.19
387.363	441.19
387.588	431.19
387.813	455.19
388.038	436.19
388.263	439.19
388.488	441.19
388.713	425.19
388.938	440.19
389.163	448.19
389.387	467.19
389.612	450.19
389.837	432.19
390.062	436.19
390.287	437.19
390.512	452.19
390.736	442.19
390.961	462.19
391.186	429.19
391.411	442.19
391.636	451.19
391.86	463.19
392.085	444.19
392.31	471.19
392.534	460.19
392.759	459.19
392.984	453.19
393.208	446.19
393.433	450.19
393.658	435.19
393.882	445.19
394.107	438.19
394.331	459.19
394.556	453.19
394.78	445.19
395.005	459.19
395.229	483.19
395.454	497.19
395.678	472.19
395.903	476.19
396.127	493.19
396.352	499.19
396.576	478.19
396.801	474.19
397.025	481.19
397.249	473.19
397.474	487.19
397.698	482.19
397.922	482.19
398.147	498.19
398.371	523.19
398.595	506.19
398.82	504.19
399.044	501.19
399.268	520.19
399.492	522.19
399.717	558.19
399.941	579.19
400.165	644.19
400.389	628.19
400.613	572.19
400.837	528.19
401.062	540.19
401.286	534.19
401.51	548.19
401.734	510.19
401.958	537.19
402.182	508.19
402.406	544.19
402.63	540.19
402.854	538.19
403.078	538.19
403.302	537.19
403.526	550.19
403.75	529.19
403.974	515.19
404.198	519.19
404.422	536.19
404.645	540.19
404.869	551.19
405.093	588.19
405.317	636.19
405.541	681.19
405.765	614.19
405.988	565.19
406.212	621.19
406.436	620.19
406.66	635.19
406.883	612.19
407.107	640.19
407.331	668.19
407.555	758.19
407.778	738.19
408.002	651.19
408.226	635.19
408.449	613.19
408.673	594.19
408.896	634.19
409.12	674.19
409.344	630.19
409.567	596.19
409.791	537.19
410.014	564.19
410.238	538.19
410.461	537.19
410.685	559.19
410.908	587.19
411.132	600.19
411.355	653.19
411.578	609.19
411.802	577.19
412.025	552.19
412.249	573.19
412.472	571.19
412.695	630.19
412.919	634.19
413.142	573.19
413.365	564.19
413.589	547.19
413.812	522.19
414.035	524.19
414.258	530.19
414.482	509.19
414.705	505.19
414.928	519.19
415.151	504.19
415.374	518.19
415.597	511.19
415.821	502.19
416.044	530.19
416.267	529.19
416.49	517.19
416.713	514.19
416.936	527.19
417.159	521.19
417.382	555.19
417.605	558.19
417.828	557.19
418.051	544.19
418.274	561.19
418.497	535.19
418.72	532.19
418.943	504.19
419.166	532.19
419.389	581.19
419.611	538.19
419.834	543.19
420.057	559.19
420.28	565.19
420.503	538.19
420.726	540.19
420.948	591.19
421.171	655.19
421.394	667.19
421.617	588.19
421.839	558.19
422.062	566.19
422.285	592.19
422.507	646.19
422.73	733.19
422.953	687.19
423.175	630.19
423.398	583.19
423.621	597.19
423.843	618.19
424.066	625.19
424.288	618.19
424.511	631.19
424.733	708.19
424.956	798.19
425.178	744.19
425.401	748.19
425.623	778.19
425.846	678.19
426.068	646.19
426.291	645.19
426.513	636.19
426.735	626.19
426.958	694.19
427.18	783.19
427.402	950.19
427.625	1007.19
427.847	920.19
428.069	801.19
428.292	698.19
428.514	648.19
428.736	611.19
428.958	598.19
429.181	572.19
429.403	580.19
429.625	582.19
429.847	638.19
430.069	746.19
430.292	691.19
430.514	596.19
430.736	585.19
430.958	572.19
431.18	544.19
431.402	540.19
431.624	540.19
431.846	539.19
432.068	525.19
432.29	536.19
432.512	538.19
432.734	549.19
432.956	552.19
433.178	564.19
433.4	555.19
433.622	564.19
433.844	526.19
434.066	538.19
434.287	530.19
434.509	545.19
434.731	554.19
434.953	540.19
435.175	585.19
435.397	598.19
435.618	616.19
435.84	690.19
436.062	796.19
436.284	872.19
436.505	728.19
436.727	649.19
436.949	599.19
437.17	576.19
437.392	569.19
437.614	606.19
437.835	650.19
438.057	785.19
438.278	896.19
438.5	870.19
438.721	953.19
438.943	923.19
439.165	728.19
439.386	678.19
439.608	676.19
439.829	651.19
440.05	700.19
440.272	752.19
440.493	681.19
440.715	631.19
440.936	613.19
441.158	593.19
441.379	584.19
441.6	618.19
441.822	642.19
442.043	685.19
442.264	788.19
442.486	811.19
442.707	715.19
442.928	644.19
443.149	649.19
443.371	684.19
443.592	743.19
443.813	835.19
444.034	892.19
444.255	771.19
444.476	664.19
444.698	616.19
444.919	636.19
445.14	782.19
445.361	698.19
445.582	677.19
445.803	763.19
446.024	889.19
446.245	887.19
446.466	831.19
446.687	706.19
446.908	644.19
447.129	626.19
447.35	568.19
447.571	595.19
447.792	595.19
448.013	602.19
448.234	615.19
448.455	676.19
448.675	812.19
448.896	939.19
449.117	801.19
449.338	770.19
449.559	856.19
449.779	960.19
450	805.19
450.221	677.19
450.442	621.19
450.662	583.19
450.883	607.19
451.104	627.19
451.324	621.19
451.545	566.19
451.766	550.19
451.986	534.19
452.207	511.19
452.428	503.19
452.648	516.19
452.869	530.19
453.089	532.19
453.31	560.19
453.53	566.19
453.751	528.19
453.971	555.19
454.192	558.19
454.412	567.19
454.633	530.19
454.853	541.19
455.073	532.19
455.294	557.19
455.514	654.19
455.734	628.19
455.955	536.19
456.175	496.19
456.395	486.19
456.616	470.19
456.836	475.19
457.056	499.19
457.276	482.19
457.497	490.19
457.717	499.19
457.937	500.19
458.157	494.19
458.377	510.19
458.598	530.19
458.818	632.19
459.038	735.19
459.258	734.19
459.478	631.19
459.698	570.19
459.918	532.19
460.138	534.19
460.358	537.19
460.578	517.19
460.798	531.19
461.018	524.19
461.238	532.19
461.458	518.19
461.678	528.19
461.898	534.19
462.118	511.19
462.338	546.19
462.558	518.19
462.777	534.19
462.997	526.19
463.217	557.19
463.437	551.19
463.657	548.19
463.876	559.19
464.096	561.19
464.316	562.19
464.536	569.19
464.755	575.19
464.975	581.19
465.195	634.19
465.414	784.19
465.634	668.19
465.854	604.19
466.073	580.19
466.293	571.19
466.512	566.19
466.732	524.19
466.951	542.19
467.171	504.19
467.391	512.19
467.61	562.19
467.829	554.19
468.049	553.19
468.268	514.19
468.488	510.19
468.707	518.19
468.927	506.19
469.146	486.19
469.365	502.19
469.585	506.19
469.804	517.19
470.023	550.19
470.243	550.19
470.462	546.19
470.681	595.19
470.901	558.19
471.12	543.19
471.339	541.19
471.558	531.19
471.777	556.19
471.997	556.19
472.216	540.19
472.435	597.19
472.654	566.19
472.873	570.19
473.092	538.19
473.311	519.19
473.53	536.19
473.749	557.19
473.968	626.19
474.187	740.19
474.406	724.19
474.625	633.19
474.844	560.19
475.063	540.19
475.282	551.19
475.501	572.19
475.72	558.19
475.939	523.19
476.158	562.19
476.377	542.19
476.596	548.19
476.814	560.19
477.033	571.19
477.252	562.19
477.471	575.19
477.69	599.19
477.908	587.19
478.127	605.19
478.346	609.19
478.564	584.19
478.783	598.19
479.002	594.19
479.22	619.19
479.439	630.19
479.658	618.19
479.876	657.19
480.095	656.19
480.313	724.19
480.532	668.19
480.751	628.19
480.969	657.19
481.188	761.19
481.406	818.19
481.624	709.19
481.843	669.19
482.061	663.19
482.28	669.19
482.498	640.19
482.717	652.19
482.935	646.19
483.153	636.19
483.372	660.19
483.59	650.19
483.808	638.19
484.027	657.19
484.245	651.19
484.463	640.19
484.681	642.19
484.9	657.19
485.118	646.19
485.336	661.19
485.554	658.19
485.772	668.19
485.99	636.19
486.209	656.19
486.427	693.19
486.645	688.19
486.863	694.19
487.081	728.19
487.299	706.19
487.517	718.19
487.735	706.19
487.953	699.19
488.171	714.19
488.389	692.19
488.607	713.19
488.825	725.19
489.043	710.19
489.261	712.19
489.479	722.19
489.696	716.19
489.914	752.19
490.132	757.19
490.35	724.19
490.568	766.19
490.786	757.19
491.003	796.19
491.221	759.19
491.439	813.19
491.657	800.19
491.874	821.19
492.092	818.19
492.31	826.19
492.527	847.19
492.745	835.19
492.963	862.19
493.18	867.19
493.398	828.19
493.615	871.19
493.833	835.19
494.05	826.19
494.268	854.19
494.485	879.19
494.703	794.19
494.92	851.19
495.138	842.19
495.355	847.19
495.573	867.19
495.79	843.19
496.008	893.19
496.225	844.19
496.442	862.19
496.66	852.19
496.877	834.19
497.094	859.19
497.312	848.19
497.529	846.19
497.746	853.19
497.963	887.19
498.181	894.19
498.398	902.19
498.615	922.19
498.832	905.19
499.049	932.19
499.267	917.19
499.484	922.19
499.701	927.19
499.918	996.19
500.135	994.19
500.352	1025.19
500.569	1063.19
500.786	1024.19
501.003	1019.19
501.22	1010.19
501.437	999.19
501.654	998.19
501.871	1024.19
502.088	962.19
502.305	928.19
502.522	941.19
502.739	932.19
502.956	874.19
503.172	855.19
503.389	871.19
503.606	884.19
503.823	900.19
504.04	839.19
504.256	848.19
504.473	833.19
504.69	851.19
504.907	827.19
505.123	815.19
505.34	831.19
505.557	813.19
505.773	825.19
505.99	858.19
506.207	823.19
506.423	824.19
506.64	812.19
506.856	812.19
507.073	800.19
507.289	820.19
507.506	818.19
507.722	850.19
507.939	840.19
508.155	812.19
508.372	814.19
508.588	795.19
508.805	772.19
509.021	784.19
509.238	794.19
509.454	813.19
509.67	787.19
509.887	798.19
510.103	792.19
510.319	823.19
510.536	940.19
510.752	1610.19
510.968	1302.19
511.184	838.19
511.401	792.19
511.617	762.19
511.833	754.19
512.049	763.19
512.265	735.19
512.481	765.19
512.698	746.19
512.914	754.19
513.13	767.19
513.346	755.19
513.562	746.19
513.778	755.19
513.994	772.19
514.21	797.19
514.426	841.19
514.642	882.19
514.858	952.19
515.074	989.19
515.29	1214.19
515.506	1866.19
515.721	1486.19
515.937	982.19
516.153	890.19
516.369	828.19
516.585	819.19
516.801	777.19
517.016	790.19
517.232	746.19
517.448	749.19
517.664	744.19
517.879	770.19
518.095	736.19
518.311	730.19
518.527	749.19
518.742	754.19
518.958	738.19
519.173	752.19
519.389	739.19
519.605	727.19
519.82	772.19
520.036	810.19
520.251	808.19
520.467	853.19
520.682	866.19
520.898	864.19
521.113	909.19
521.329	969.19
521.544	1109.19
521.76	1472.19
521.975	2490.19
522.19	2436.19
522.406	1291.19
522.621	916.19
522.836	811.19
523.052	809.19
523.267	741.19
523.482	723.19
523.698	690.19
523.913	716.19
524.128	698.19
524.343	700.19
524.559	669.19
524.774	664.19
524.989	648.19
525.204	660.19
525.419	670.19
525.634	642.19
525.849	623.19
526.064	627.19
526.28	633.19
526.495	607.19
526.71	626.19
526.925	606.19
527.14	591.19
527.355	593.19
527.57	583.19
527.785	575.19
527.999	605.19
528.214	595.19
528.429	586.19
528.644	584.19
528.859	586.19
529.074	608.19
529.289	644.19
529.503	758.19
529.718	727.19
529.933	660.19
530.148	640.19
530.363	619.19
530.577	596.19
530.792	593.19
531.007	584.19
531.221	587.19
531.436	571.19
531.651	577.19
531.865	584.19
532.08	553.19
532.295	577.19
532.509	582.19
532.724	533.19
532.938	555.19
533.153	562.19
533.367	546.19
533.582	552.19
533.796	552.19
534.011	534.19
534.225	562.19
534.44	534.19
534.654	545.19
534.868	540.19
535.083	562.19
535.297	554.19
535.511	551.19
535.726	557.19
535.94	574.19
536.154	564.19
536.369	550.19
536.583	564.19
536.797	521.19
537.011	529.19
537.225	549.19
537.44	531.19
537.654	536.19
537.868	516.19
538.082	531.19
538.296	539.19
538.51	536.19
538.724	546.19
538.938	545.19
539.153	524.19
539.367	562.19
539.581	554.19
539.795	563.19
540.009	528.19
540.222	516.19
540.436	534.19
540.65	534.19
540.864	552.19
541.078	562.19
541.292	559.19
541.506	532.19
541.72	538.19
541.934	542.19
542.147	537.19
542.361	547.19
542.575	546.19
542.789	535.19
543.002	518.19
543.216	544.19
543.43	548.19
543.644	546.19
543.857	552.19
544.071	526.19
544.285	531.19
544.498	533.19
544.712	532.19
544.925	508.19
545.139	543.19
545.352	535.19
545.566	507.19
545.779	526.19
545.993	522.19
546.206	516.19
546.42	517.19
546.633	513.19
546.847	533.19
547.06	500.19
547.274	507.19
547.487	516.19
547.7	502.19
547.914	510.19
548.127	503.19
548.34	487.19
548.554	506.19
548.767	494.19
548.98	505.19
549.193	495.19
549.407	487.19
549.62	497.19
549.833	495.19
550.046	493.19
550.259	495.19
550.473	508.19
550.686	488.19
550.899	506.19
551.112	491.19
551.325	502.19
551.538	489.19
551.751	477.19
551.964	459.19
552.177	470.19
552.39	485.19
552.603	495.19
552.816	501.19
553.029	504.19
553.242	511.19
553.455	486.19
553.667	505.19
553.88	526.19
554.093	498.19
554.306	487.19
554.519	491.19
554.732	504.19
554.944	485.19
555.157	486.19
555.37	468.19
555.583	474.19
555.795	478.19
556.008	493.19
556.221	449.19
556.433	454.19
556.646	471.19
556.859	461.19
557.071	460.19
557.284	457.19
557.496	438.19
557.709	452.19
557.921	453.19
558.134	447.19
558.346	456.19
558.559	468.19
558.771	469.19
558.984	461.19
559.196	432.19
559.409	452.19
559.621	446.19
559.833	441.19
560.046	450.19
560.258	436.19
560.47	445.19
560.683	442.19
560.895	435.19
561.107	450.19
561.32	420.19
561.532	445.19
561.744	434.19
561.956	444.19
562.168	438.19
562.381	438.19
562.593	427.19
562.805	449.19
563.017	461.19
563.229	443.19
563.441	434.19
563.653	450.19
563.865	434.19
564.077	447.19
564.289	431.19
564.501	457.19
564.713	456.19
564.925	440.19
565.137	460.19
565.349	473.19
565.561	469.19
565.773	481.19
565.985	472.19
566.197	481.19
566.408	480.19
566.62	490.19
566.832	489.19
567.044	518.19
567.255	506.19
567.467	487.19
567.679	523.19
567.891	519.19
568.102	495.19
568.314	483.19
568.526	490.19
568.737	479.19
568.949	467.19
569.161	460.19
569.372	451.19
569.584	454.19
569.795	430.19
570.007	430.19
570.218	524.19
570.43	489.19
570.641	432.19
570.853	434.19
571.064	419.19
571.276	414.19
571.487	421.19
571.698	414.19
571.91	388.19
572.121	402.19
572.333	392.19
572.544	395.19
572.755	394.19
572.966	384.19
573.178	395.19
573.389	412.19
573.6	406.19
573.811	387.19
574.023	381.19
574.234	376.19
574.445	386.19
574.656	371.19
574.867	374.19
575.078	377.19
575.289	376.19
575.501	383.19
575.712	373.19
575.923	369.19
576.134	365.19
576.345	382.19
576.556	364.19
576.767	365.19
576.978	372.19
577.188	360.19
577.399	377.19
577.61	375.19
577.821	365.19
578.032	372.19
578.243	399.19
578.454	764.19
578.665	550.19
578.875	394.19
579.086	373.19
579.297	364.19
579.508	363.19
579.718	360.19
579.929	357.19
580.14	350.19
580.35	356.19
580.561	341.19
580.772	346.19
580.982	338.19
581.193	328.19
581.403	352.19
581.614	350.19
581.825	325.19
582.035	336.19
582.246	336.19
582.456	356.19
582.667	335.19
582.877	359.19
583.087	354.19
583.298	343.19
583.508	349.19
583.719	330.19
583.929	344.19
584.139	328.19
584.35	348.19
584.56	342.19
584.77	344.19
584.981	332.19
585.191	341.19
585.401	343.19
585.611	329.19
585.821	330.19
586.032	335.19
586.242	339.19
586.452	326.19
586.662	314.19
586.872	345.19
587.082	322.19
587.292	335.19
587.502	329.19
587.713	323.19
587.923	332.19
588.133	328.19
588.343	317.19
588.553	337.19
588.762	317.19
588.972	330.19
589.182	325.19
589.392	324.19
589.602	327.19
589.812	307.19
590.022	324.19
590.232	318.19
590.441	320.19
590.651	318.19
590.861	333.19
591.071	338.19
591.281	322.19
591.49	330.19
591.7	331.19
591.91	333.19
592.119	328.19
592.329	320.19
592.539	333.19
592.748	328.19
592.958	340.19
593.167	336.19
593.377	324.19
593.587	347.19
593.796	339.19
594.006	334.19
594.215	326.19
594.424	342.19
594.634	346.19
594.843	333.19
595.053	326.19
595.262	316.19
595.472	326.19
595.681	341.19
595.89	332.19
596.1	324.19
596.309	308.19
596.518	294.19
596.727	294.19
596.937	311.19
597.146	325.19
597.355	300.19
597.564	303.19
597.774	296.19
597.983	297.19
598.192	308.19
598.401	312.19
598.61	314.19
598.819	271.19
599.028	290.19
599.237	306.19
599.446	298.19
599.655	264.19
599.864	298.19
600.073	283.19
600.282	289.19
600.491	310.19
600.7	299.19
600.909	292.19
601.118	280.19
601.327	287.19
601.536	301.19
601.745	293.19
601.953	278.19
602.162	264.19
602.371	293.19
602.58	299.19
602.789	286.19
602.997	293.19
603.206	301.19
603.415	294.19
603.623	284.19
603.832	288.19
604.041	270.19
604.249	294.19
604.458	293.19
604.666	269.19
604.875	269.19
605.084	279.19
605.292	274.19
605.501	271.19
605.709	271.19
605.918	270.19
606.126	276.19
606.334	293.19
606.543	296.19
606.751	283.19
606.96	263.19
607.168	270.19
607.376	265.19
607.585	272.19
607.793	288.19
608.001	280.19
608.21	264.19
608.418	281.19
608.626	278.19
608.834	272.19
609.043	262.19
609.251	270.19
609.459	250.19
609.667	278.19
609.875	265.19
610.083	272.19
610.291	275.19
610.499	269.19
610.707	250.19
610.916	265.19
611.124	272.19
611.332	286.19
611.54	269.19
611.748	273.19
611.955	271.19
612.163	271.19
612.371	292.19
612.579	272.19
612.787	264.19
612.995	270.19
613.203	276.19
613.411	264.19
613.618	269.19
613.826	265.19
614.034	291.19
614.242	272.19
614.449	264.19
614.657	283.19
614.865	270.19
615.072	267.19
615.28	271.19
615.488	250.19
615.695	271.19
615.903	258.19
616.111	268.19
616.318	261.19
616.526	259.19
616.733	270.19
616.941	249.19
617.148	267.19
617.356	261.19
617.563	262.19
617.771	260.19
617.978	246.19
618.185	247.19
618.393	264.19
618.6	270.19
618.807	262.19
619.015	247.19
619.222	252.19
619.429	269.19
619.637	249.19
619.844	264.19
620.051	264.19
620.258	254.19
620.466	251.19
620.673	231.19
620.88	235.19
621.087	226.19
621.294	237.19
621.501	243.19
621.708	239.19
621.915	255.19
622.122	244.19
622.329	270.19
622.536	250.19
622.743	266.19
622.95	264.19
623.157	244.19
623.364	246.19
623.571	242.19
623.778	242.19
623.985	248.19
624.192	261.19
624.399	250.19
624.606	239.19
624.812	249.19
625.019	260.19
625.226	234.19
625.433	239.19
625.639	249.19
625.846	249.19
626.053	230.19
626.259	220.19
626.466	226.19
626.673	233.19
626.879	221.19
627.086	223.19
627.293	231.19
627.499	226.19
627.706	226.19
627.912	237.19
628.119	229.19
628.325	224.19
628.532	243.19
628.738	251.19
628.945	222.19
629.151	205.19
629.357	216.19
629.564	215.19
629.77	201.19
629.976	204.19
630.183	215.19
630.389	211.19
630.595	212.19
630.802	207.19
631.008	218.19
631.214	204.19
631.42	219.19
631.627	210.19
631.833	222.19
632.039	209.19
632.245	216.19
632.451	201.19
632.657	198.19
632.863	222.19
633.069	205.19
633.275	214.19
633.481	200.19
633.688	220.19
633.893	208.19
634.099	194.19
634.305	203.19
634.511	212.19
634.717	210.19
634.923	205.19
635.129	202.19
635.335	184.19
635.541	206.19
635.747	192.19
635.952	196.19
636.158	187.19
636.364	216.19
636.57	212.19
636.775	228.19
636.981	199.19
637.187	202.19
637.392	198.19
637.598	194.19
637.804	210.19
638.009	191.19
638.215	224.19
638.421	190.19
638.626	200.19
638.832	193.19
639.037	185.19
639.243	175.19
639.448	200.19
639.654	189.19
639.859	194.19
640.065	178.19
640.27	204.19
640.475	199.19
640.681	196.19
640.886	197.19
641.091	195.19
641.297	190.19
641.502	195.19
641.707	198.19
641.913	192.19
642.118	182.19
642.323	174.19
642.528	198.19
642.733	166.19
642.939	181.19
643.144	190.19
643.349	197.19
643.554	188.19
643.759	166.19
643.964	196.19
644.169	182.19
644.374	186.19
644.579	198.19
644.784	197.19
644.989	189.19
645.194	167.19
645.399	178.19
645.604	178.19
645.809	179.19
646.014	188.19
646.219	162.19
646.423	182.19
646.628	188.19
646.833	172.19
647.038	183.19
647.243	191.19
647.447	197.19
647.652	186.19
647.857	199.19
648.062	200.19
648.266	165.19
648.471	189.19
648.676	182.19
648.88	195.19
649.085	196.19
649.289	195.19
649.494	193.19
649.698	219.19
649.903	186.19
650.107	202.19
650.312	178.19
650.516	168.19
650.721	178.19
650.925	150.19
651.13	168.19
651.334	180.19
651.539	148.19
651.743	170.19
651.947	166.19
652.152	159.19
652.356	164.19
652.56	171.19
652.764	157.19
652.969	143.19
653.173	155.19
653.377	158.19
653.581	155.19
653.785	161.19
653.99	143.19
654.194	137.19
654.398	148.19
654.602	141.19
654.806	154.19
655.01	148.19
655.214	154.19
655.418	145.19
655.622	136.19
655.826	139.19
656.03	141.19
656.234	135.19
656.438	132.19
656.642	155.19
656.846	142.19
657.049	134.19
657.253	132.19
657.457	134.19
657.661	126.19
657.865	105.19
658.068	121.19
658.272	118.19
658.476	116.19
658.68	119.19
658.883	109.19
659.087	98.19
659.291	95.19
659.494	102.19
659.698	104.19
659.901	101.19
660.105	104.19
660.309	107.19
660.512	102.19
660.716	95.19
660.919	105.19
661.123	91.19
661.326	97.19
661.53	83.19
661.733	91.19
661.936	88.19
662.14	70.19
662.343	100.19
662.546	91.19
662.75	78.19
662.953	91.19
663.156	79.19
663.36	90.19
663.563	90.19
663.766	88.19
663.969	80.19
664.173	82.19
664.376	71.19
664.579	86.19
664.782	78.19
664.985	81.19
665.188	91.19
665.391	83.19
665.594	89.19
665.797	90.19
666	76.19
666.203	79.19
666.406	75.19
666.609	89.19
666.812	75.19
667.015	80.19
667.218	89.19
667.421	97.19
667.624	75.19
667.827	75.19
668.03	77.19
668.232	86.19
668.435	82.19
668.638	76.19
668.841	89.19
669.043	71.19
669.246	81.19
669.449	77.19
669.651	80.19
669.854	89.19
670.057	82.19
670.259	87.19
670.462	78.19
670.665	88.19
670.867	75.19
671.07	98.19
671.272	68.19
671.475	78.19
671.677	88.19
671.88	88.19
672.082	76.19
672.284	95.19
672.487	90.19
672.689	84.19
672.892	78.19
