Data from 1971.PennyLincolnUp.Lamp.En5.5.200Scan.071719.P1._HRD10591_15-20-13-841.txt Node
Date: Thu Jul 18 15:20:13 EDT 2019
User: cochatt
Spectrometer: HR+D1059
Trigger mode: 1
Integration Time (sec): 1.000000E-1
Scans to average: 1
Electric dark correction enabled: true
Nonlinearity correction enabled: false
Boxcar width: 0
XAxis mode: Wavelengths
Number of Pixels in Spectrum: 2048
>>>>>Begin Spectral Data<<<<<
223.165	-14.88
223.4	-14.88
223.635	-14.88
223.869	-10.88
224.104	-29.88
224.338	-14.88
224.573	-9.88
224.808	-27.88
225.042	-6.88
225.277	-7.88
225.511	6.12
225.746	10.12
225.98	6.12
226.215	6.12
226.449	7.12
226.683	16.12
226.918	33.12
227.152	38.12
227.387	39.12
227.621	29.12
227.856	41.12
228.09	35.12
228.324	47.12
228.559	53.12
228.793	74.12
229.027	89.12
229.262	105.12
229.496	109.12
229.73	118.12
229.964	137.12
230.199	114.12
230.433	123.12
230.667	116.12
230.901	97.12
231.136	119.12
231.37	107.12
231.604	113.12
231.838	121.12
232.072	115.12
232.306	106.12
232.541	113.12
232.775	98.12
233.009	128.12
233.243	102.12
233.477	109.12
233.711	114.12
233.945	124.12
234.179	114.12
234.413	104.12
234.647	123.12
234.881	116.12
235.115	125.12
235.349	125.12
235.583	114.12
235.817	123.12
236.051	117.12
236.285	129.12
236.519	108.12
236.753	135.12
236.987	141.12
237.221	182.12
237.455	204.12
237.689	190.12
237.922	135.12
238.156	113.12
238.39	120.12
238.624	128.12
238.858	125.12
239.091	125.12
239.325	124.12
239.559	113.12
239.793	133.12
240.027	121.12
240.26	139.12
240.494	156.12
240.728	154.12
240.961	158.12
241.195	143.12
241.429	140.12
241.662	128.12
241.896	136.12
242.13	123.12
242.363	123.12
242.597	131.12
242.83	128.12
243.064	141.12
243.298	142.12
243.531	131.12
243.765	143.12
243.998	155.12
244.232	141.12
244.465	140.12
244.699	152.12
244.932	155.12
245.166	148.12
245.399	142.12
245.633	149.12
245.866	167.12
246.099	139.12
246.333	159.12
246.566	157.12
246.8	132.12
247.033	149.12
247.266	166.12
247.5	138.12
247.733	155.12
247.966	169.12
248.2	174.12
248.433	170.12
248.666	182.12
248.899	192.12
249.133	212.12
249.366	215.12
249.599	193.12
249.832	182.12
250.066	205.12
250.299	199.12
250.532	204.12
250.765	200.12
250.998	225.12
251.231	227.12
251.465	218.12
251.698	211.12
251.931	196.12
252.164	212.12
252.397	202.12
252.63	225.12
252.863	204.12
253.096	213.12
253.329	245.12
253.562	219.12
253.795	247.12
254.028	224.12
254.261	227.12
254.494	246.12
254.727	266.12
254.96	273.12
255.193	255.12
255.426	261.12
255.659	231.12
255.892	250.12
256.124	232.12
256.357	255.12
256.59	229.12
256.823	221.12
257.056	227.12
257.289	221.12
257.521	227.12
257.754	235.12
257.987	218.12
258.22	225.12
258.452	218.12
258.685	213.12
258.918	206.12
259.151	220.12
259.383	230.12
259.616	214.12
259.849	233.12
260.081	237.12
260.314	266.12
260.547	277.12
260.779	248.12
261.012	229.12
261.244	232.12
261.477	225.12
261.71	245.12
261.942	244.12
262.175	237.12
262.407	222.12
262.64	238.12
262.872	224.12
263.105	232.12
263.337	212.12
263.57	207.12
263.802	245.12
264.035	231.12
264.267	211.12
264.499	238.12
264.732	217.12
264.964	216.12
265.197	217.12
265.429	229.12
265.661	222.12
265.894	227.12
266.126	216.12
266.358	250.12
266.591	231.12
266.823	233.12
267.055	244.12
267.287	235.12
267.52	225.12
267.752	240.12
267.984	232.12
268.216	244.12
268.448	223.12
268.681	257.12
268.913	269.12
269.145	262.12
269.377	277.12
269.609	288.12
269.841	295.12
270.073	279.12
270.306	299.12
270.538	315.12
270.77	340.12
271.002	302.12
271.234	324.12
271.466	309.12
271.698	315.12
271.93	338.12
272.162	341.12
272.394	338.12
272.626	324.12
272.858	288.12
273.09	296.12
273.322	274.12
273.553	285.12
273.785	271.12
274.017	279.12
274.249	269.12
274.481	297.12
274.713	294.12
274.945	271.12
275.176	300.12
275.408	278.12
275.64	278.12
275.872	270.12
276.104	286.12
276.335	275.12
276.567	280.12
276.799	280.12
277.031	329.12
277.262	339.12
277.494	338.12
277.726	324.12
277.957	313.12
278.189	299.12
278.421	285.12
278.652	286.12
278.884	265.12
279.115	283.12
279.347	269.12
279.579	297.12
279.81	270.12
280.042	291.12
280.273	275.12
280.505	294.12
280.736	282.12
280.968	267.12
281.199	285.12
281.431	271.12
281.662	278.12
281.894	274.12
282.125	282.12
282.356	287.12
282.588	314.12
282.819	323.12
283.051	292.12
283.282	294.12
283.513	280.12
283.745	295.12
283.976	292.12
284.207	283.12
284.439	297.12
284.67	282.12
284.901	301.12
285.132	309.12
285.364	283.12
285.595	291.12
285.826	296.12
286.057	292.12
286.288	293.12
286.52	312.12
286.751	291.12
286.982	302.12
287.213	298.12
287.444	296.12
287.675	295.12
287.906	297.12
288.138	320.12
288.369	305.12
288.6	314.12
288.831	314.12
289.062	295.12
289.293	296.12
289.524	304.12
289.755	303.12
289.986	289.12
290.217	286.12
290.448	309.12
290.679	314.12
290.91	301.12
291.141	307.12
291.371	318.12
291.602	318.12
291.833	282.12
292.064	295.12
292.295	311.12
292.526	313.12
292.757	320.12
292.987	306.12
293.218	288.12
293.449	310.12
293.68	288.12
293.91	295.12
294.141	294.12
294.372	308.12
294.603	307.12
294.833	314.12
295.064	294.12
295.295	316.12
295.525	309.12
295.756	305.12
295.987	320.12
296.217	319.12
296.448	332.12
296.679	350.12
296.909	307.12
297.14	316.12
297.37	314.12
297.601	314.12
297.831	328.12
298.062	313.12
298.292	297.12
298.523	302.12
298.753	334.12
298.984	332.12
299.214	301.12
299.445	324.12
299.675	322.12
299.905	317.12
300.136	315.12
300.366	325.12
300.597	313.12
300.827	313.12
301.057	340.12
301.288	325.12
301.518	344.12
301.748	312.12
301.979	327.12
302.209	311.12
302.439	343.12
302.669	337.12
302.9	348.12
303.13	357.12
303.36	345.12
303.59	340.12
303.82	338.12
304.051	347.12
304.281	336.12
304.511	352.12
304.741	329.12
304.971	353.12
305.201	327.12
305.431	331.12
305.661	342.12
305.891	340.12
306.121	325.12
306.352	341.12
306.582	349.12
306.812	341.12
307.042	333.12
307.272	340.12
307.502	349.12
307.731	359.12
307.961	359.12
308.191	357.12
308.421	354.12
308.651	360.12
308.881	357.12
309.111	373.12
309.341	344.12
309.571	383.12
309.8	367.12
310.03	381.12
310.26	381.12
310.49	403.12
310.72	373.12
310.949	417.12
311.179	405.12
311.409	381.12
311.639	391.12
311.868	362.12
312.098	387.12
312.328	385.12
312.557	418.12
312.787	415.12
313.017	427.12
313.246	415.12
313.476	385.12
313.706	396.12
313.935	403.12
314.165	409.12
314.394	407.12
314.624	409.12
314.853	413.12
315.083	411.12
315.312	392.12
315.542	397.12
315.771	391.12
316.001	365.12
316.23	377.12
316.46	377.12
316.689	380.12
316.919	379.12
317.148	393.12
317.377	392.12
317.607	389.12
317.836	407.12
318.065	392.12
318.295	388.12
318.524	404.12
318.753	368.12
318.983	396.12
319.212	407.12
319.441	423.12
319.67	406.12
319.9	408.12
320.129	399.12
320.358	387.12
320.587	381.12
320.816	413.12
321.046	402.12
321.275	401.12
321.504	417.12
321.733	435.12
321.962	433.12
322.191	455.12
322.42	434.12
322.649	468.12
322.878	461.12
323.108	448.12
323.337	491.12
323.566	517.12
323.795	527.12
324.024	584.12
324.253	709.12
324.482	999.12
324.71	1524.12
324.939	2063.12
325.168	1700.12
325.397	945.12
325.626	628.12
325.855	552.12
326.084	513.12
326.313	503.12
326.542	523.12
326.77	559.12
326.999	659.12
327.228	878.12
327.457	1281.12
327.686	1488.12
327.914	1031.12
328.143	674.12
328.372	607.12
328.6	589.12
328.829	564.12
329.058	589.12
329.287	582.12
329.515	538.12
329.744	517.12
329.972	515.12
330.201	538.12
330.43	543.12
330.658	584.12
330.887	581.12
331.115	575.12
331.344	498.12
331.572	507.12
331.801	516.12
332.03	486.12
332.258	492.12
332.486	461.12
332.715	428.12
332.943	435.12
333.172	447.12
333.4	449.12
333.629	469.12
333.857	475.12
334.085	483.12
334.314	467.12
334.542	528.12
334.771	540.12
334.999	505.12
335.227	476.12
335.455	463.12
335.684	461.12
335.912	453.12
336.14	421.12
336.369	448.12
336.597	449.12
336.825	442.12
337.053	433.12
337.281	441.12
337.51	435.12
337.738	435.12
337.966	436.12
338.194	436.12
338.422	442.12
338.65	424.12
338.878	418.12
339.106	425.12
339.334	437.12
339.562	422.12
339.79	418.12
340.018	426.12
340.246	427.12
340.474	423.12
340.702	436.12
340.93	420.12
341.158	445.12
341.386	425.12
341.614	427.12
341.842	437.12
342.07	439.12
342.298	427.12
342.526	416.12
342.754	403.12
342.981	405.12
343.209	399.12
343.437	410.12
343.665	430.12
343.893	437.12
344.12	437.12
344.348	442.12
344.576	422.12
344.804	424.12
345.031	423.12
345.259	441.12
345.487	423.12
345.714	437.12
345.942	397.12
346.17	405.12
346.397	411.12
346.625	415.12
346.853	406.12
347.08	396.12
347.308	409.12
347.535	413.12
347.763	417.12
347.99	425.12
348.218	417.12
348.445	406.12
348.673	414.12
348.9	408.12
349.128	405.12
349.355	392.12
349.583	404.12
349.81	412.12
350.037	380.12
350.265	395.12
350.492	387.12
350.72	389.12
350.947	395.12
351.174	391.12
351.402	417.12
351.629	404.12
351.856	416.12
352.083	412.12
352.311	412.12
352.538	410.12
352.765	410.12
352.992	396.12
353.22	413.12
353.447	402.12
353.674	387.12
353.901	396.12
354.128	386.12
354.355	379.12
354.583	397.12
354.81	351.12
355.037	372.12
355.264	374.12
355.491	395.12
355.718	380.12
355.945	354.12
356.172	366.12
356.399	375.12
356.626	389.12
356.853	382.12
357.08	371.12
357.307	385.12
357.534	373.12
357.761	393.12
357.988	383.12
358.215	375.12
358.441	393.12
358.668	381.12
358.895	381.12
359.122	378.12
359.349	392.12
359.576	388.12
359.802	405.12
360.029	419.12
360.256	442.12
360.483	426.12
360.709	408.12
360.936	393.12
361.163	399.12
361.39	398.12
361.616	391.12
361.843	380.12
362.07	405.12
362.296	393.12
362.523	375.12
362.749	390.12
362.976	362.12
363.203	385.12
363.429	379.12
363.656	365.12
363.882	379.12
364.109	372.12
364.335	379.12
364.562	389.12
364.788	375.12
365.015	363.12
365.241	377.12
365.468	371.12
365.694	400.12
365.92	385.12
366.147	389.12
366.373	344.12
366.599	371.12
366.826	373.12
367.052	386.12
367.278	378.12
367.505	364.12
367.731	377.12
367.957	366.12
368.184	359.12
368.41	381.12
368.636	385.12
368.862	397.12
369.089	384.12
369.315	390.12
369.541	371.12
369.767	371.12
369.993	362.12
370.219	358.12
370.445	375.12
370.672	371.12
370.898	364.12
371.124	371.12
371.35	353.12
371.576	353.12
371.802	354.12
372.028	365.12
372.254	370.12
372.48	358.12
372.706	357.12
372.932	357.12
373.158	353.12
373.384	367.12
373.61	378.12
373.835	359.12
374.061	369.12
374.287	355.12
374.513	385.12
374.739	373.12
374.965	387.12
375.191	369.12
375.416	379.12
375.642	374.12
375.868	363.12
376.094	344.12
376.319	350.12
376.545	359.12
376.771	360.12
376.997	355.12
377.222	356.12
377.448	338.12
377.674	357.12
377.899	360.12
378.125	359.12
378.35	340.12
378.576	341.12
378.802	341.12
379.027	373.12
379.253	355.12
379.478	345.12
379.704	352.12
379.929	346.12
380.155	355.12
380.38	371.12
380.606	355.12
380.831	347.12
381.057	379.12
381.282	350.12
381.507	343.12
381.733	353.12
381.958	346.12
382.184	356.12
382.409	356.12
382.634	378.12
382.86	361.12
383.085	373.12
383.31	355.12
383.535	380.12
383.761	379.12
383.986	357.12
384.211	371.12
384.436	371.12
384.662	350.12
384.887	377.12
385.112	373.12
385.337	372.12
385.562	358.12
385.787	381.12
386.013	385.12
386.238	369.12
386.463	387.12
386.688	383.12
386.913	357.12
387.138	370.12
387.363	379.12
387.588	352.12
387.813	378.12
388.038	379.12
388.263	379.12
388.488	366.12
388.713	380.12
388.938	371.12
389.163	395.12
389.387	389.12
389.612	378.12
389.837	378.12
390.062	387.12
390.287	351.12
390.512	379.12
390.736	361.12
390.961	375.12
391.186	373.12
391.411	381.12
391.636	370.12
391.86	383.12
392.085	398.12
392.31	371.12
392.534	381.12
392.759	396.12
392.984	371.12
393.208	393.12
393.433	376.12
393.658	379.12
393.882	374.12
394.107	365.12
394.331	353.12
394.556	372.12
394.78	375.12
395.005	363.12
395.229	379.12
395.454	375.12
395.678	387.12
395.903	411.12
396.127	408.12
396.352	385.12
396.576	376.12
396.801	378.12
397.025	393.12
397.249	406.12
397.474	389.12
397.698	390.12
397.922	409.12
398.147	439.12
398.371	422.12
398.595	405.12
398.82	396.12
399.044	433.12
399.268	429.12
399.492	446.12
399.717	488.12
399.941	501.12
400.165	517.12
400.389	520.12
400.613	490.12
400.837	461.12
401.062	433.12
401.286	412.12
401.51	431.12
401.734	439.12
401.958	441.12
402.182	421.12
402.406	415.12
402.63	417.12
402.854	434.12
403.078	422.12
403.302	435.12
403.526	436.12
403.75	422.12
403.974	433.12
404.198	421.12
404.422	433.12
404.645	447.12
404.869	431.12
405.093	452.12
405.317	480.12
405.541	517.12
405.765	463.12
405.988	439.12
406.212	451.12
406.436	467.12
406.66	482.12
406.883	478.12
407.107	492.12
407.331	524.12
407.555	578.12
407.778	584.12
408.002	502.12
408.226	463.12
408.449	466.12
408.673	475.12
408.896	484.12
409.12	537.12
409.344	504.12
409.567	450.12
409.791	454.12
410.014	442.12
410.238	437.12
410.461	439.12
410.685	428.12
410.908	449.12
411.132	461.12
411.355	493.12
411.578	477.12
411.802	428.12
412.025	434.12
412.249	438.12
412.472	443.12
412.695	471.12
412.919	474.12
413.142	431.12
413.365	436.12
413.589	432.12
413.812	421.12
414.035	414.12
414.258	396.12
414.482	407.12
414.705	419.12
414.928	395.12
415.151	393.12
415.374	408.12
415.597	411.12
415.821	408.12
416.044	423.12
416.267	417.12
416.49	414.12
416.713	415.12
416.936	418.12
417.159	397.12
417.382	395.12
417.605	401.12
417.828	434.12
418.051	428.12
418.274	427.12
418.497	401.12
418.72	425.12
418.943	417.12
419.166	410.12
419.389	421.12
419.611	431.12
419.834	423.12
420.057	443.12
420.28	435.12
420.503	392.12
420.726	437.12
420.948	456.12
421.171	457.12
421.394	499.12
421.617	441.12
421.839	438.12
422.062	434.12
422.285	440.12
422.507	490.12
422.73	565.12
422.953	528.12
423.175	478.12
423.398	430.12
423.621	451.12
423.843	474.12
424.066	462.12
424.288	447.12
424.511	476.12
424.733	540.12
424.956	581.12
425.178	553.12
425.401	565.12
425.623	557.12
425.846	499.12
426.068	455.12
426.291	465.12
426.513	450.12
426.735	462.12
426.958	497.12
427.18	575.12
427.402	650.12
427.625	709.12
427.847	630.12
428.069	535.12
428.292	483.12
428.514	463.12
428.736	447.12
428.958	447.12
429.181	408.12
429.403	433.12
429.625	457.12
429.847	468.12
430.069	526.12
430.292	497.12
430.514	458.12
430.736	409.12
430.958	410.12
431.18	411.12
431.402	396.12
431.624	379.12
431.846	401.12
432.068	385.12
432.29	392.12
432.512	386.12
432.734	409.12
432.956	409.12
433.178	410.12
433.4	389.12
433.622	397.12
433.844	413.12
434.066	391.12
434.287	395.12
434.509	395.12
434.731	401.12
434.953	410.12
435.175	437.12
435.397	450.12
435.618	471.12
435.84	499.12
436.062	587.12
436.284	621.12
436.505	539.12
436.727	462.12
436.949	437.12
437.17	428.12
437.392	437.12
437.614	448.12
437.835	459.12
438.057	545.12
438.278	639.12
438.5	631.12
438.721	665.12
438.943	673.12
439.165	510.12
439.386	474.12
439.608	466.12
439.829	464.12
440.05	506.12
440.272	542.12
440.493	497.12
440.715	454.12
440.936	449.12
441.158	441.12
441.379	432.12
441.6	435.12
441.822	448.12
442.043	482.12
442.264	567.12
442.486	573.12
442.707	501.12
442.928	465.12
443.149	474.12
443.371	493.12
443.592	528.12
443.813	614.12
444.034	625.12
444.255	570.12
444.476	477.12
444.698	457.12
444.919	470.12
445.14	526.12
445.361	523.12
445.582	500.12
445.803	553.12
446.024	619.12
446.245	623.12
446.466	575.12
446.687	489.12
446.908	457.12
447.129	444.12
447.35	423.12
447.571	439.12
447.792	403.12
448.013	437.12
448.234	439.12
448.455	486.12
448.675	592.12
448.896	649.12
449.117	571.12
449.338	544.12
449.559	634.12
449.779	675.12
450	577.12
450.221	461.12
450.442	438.12
450.662	431.12
450.883	410.12
451.104	419.12
451.324	421.12
451.545	387.12
451.766	388.12
451.986	388.12
452.207	367.12
452.428	376.12
452.648	386.12
452.869	365.12
453.089	397.12
453.31	387.12
453.53	370.12
453.751	374.12
453.971	378.12
454.192	391.12
454.412	365.12
454.633	361.12
454.853	367.12
455.073	383.12
455.294	403.12
455.514	463.12
455.734	453.12
455.955	386.12
456.175	359.12
456.395	341.12
456.616	351.12
456.836	347.12
457.056	353.12
457.276	346.12
457.497	358.12
457.717	350.12
457.937	343.12
458.157	376.12
458.377	387.12
458.598	374.12
458.818	407.12
459.038	487.12
459.258	493.12
459.478	425.12
459.698	400.12
459.918	387.12
460.138	381.12
460.358	377.12
460.578	374.12
460.798	383.12
461.018	402.12
461.238	404.12
461.458	392.12
461.678	395.12
461.898	402.12
462.118	386.12
462.338	401.12
462.558	399.12
462.777	391.12
462.997	407.12
463.217	412.12
463.437	420.12
463.657	417.12
463.876	410.12
464.096	424.12
464.316	404.12
464.536	409.12
464.755	405.12
464.975	414.12
465.195	445.12
465.414	485.12
465.634	429.12
465.854	412.12
466.073	403.12
466.293	391.12
466.512	384.12
466.732	403.12
466.951	378.12
467.171	379.12
467.391	383.12
467.61	376.12
467.829	371.12
468.049	377.12
468.268	385.12
468.488	384.12
468.707	364.12
468.927	362.12
469.146	376.12
469.365	368.12
469.585	385.12
469.804	373.12
470.023	362.12
470.243	387.12
470.462	407.12
470.681	379.12
470.901	406.12
471.12	405.12
471.339	401.12
471.558	378.12
471.777	386.12
471.997	372.12
472.216	375.12
472.435	421.12
472.654	391.12
472.873	375.12
473.092	385.12
473.311	391.12
473.53	411.12
473.749	399.12
473.968	429.12
474.187	489.12
474.406	528.12
474.625	417.12
474.844	407.12
475.063	399.12
475.282	393.12
475.501	386.12
475.72	387.12
475.939	379.12
476.158	394.12
476.377	416.12
476.596	398.12
476.814	410.12
477.033	402.12
477.252	401.12
477.471	412.12
477.69	407.12
477.908	413.12
478.127	424.12
478.346	418.12
478.564	430.12
478.783	429.12
479.002	444.12
479.22	428.12
479.439	430.12
479.658	451.12
479.876	446.12
480.095	474.12
480.313	480.12
480.532	467.12
480.751	456.12
480.969	466.12
481.188	512.12
481.406	535.12
481.624	496.12
481.843	455.12
482.061	443.12
482.28	436.12
482.498	437.12
482.717	455.12
482.935	439.12
483.153	445.12
483.372	464.12
483.59	454.12
483.808	455.12
484.027	461.12
484.245	448.12
484.463	453.12
484.681	466.12
484.9	465.12
485.118	472.12
485.336	477.12
485.554	482.12
485.772	455.12
485.99	456.12
486.209	456.12
486.427	450.12
486.645	452.12
486.863	471.12
487.081	483.12
487.299	490.12
487.517	481.12
487.735	499.12
487.953	472.12
488.171	478.12
488.389	499.12
488.607	471.12
488.825	470.12
489.043	455.12
489.261	474.12
489.479	497.12
489.696	475.12
489.914	506.12
490.132	492.12
490.35	490.12
490.568	512.12
490.786	510.12
491.003	517.12
491.221	521.12
491.439	525.12
491.657	537.12
491.874	549.12
492.092	558.12
492.31	573.12
492.527	551.12
492.745	557.12
492.963	571.12
493.18	555.12
493.398	572.12
493.615	565.12
493.833	561.12
494.05	574.12
494.268	589.12
494.485	587.12
494.703	567.12
494.92	555.12
495.138	543.12
495.355	574.12
495.573	585.12
495.79	580.12
496.008	575.12
496.225	580.12
496.442	550.12
496.66	589.12
496.877	583.12
497.094	568.12
497.312	584.12
497.529	598.12
497.746	591.12
497.963	610.12
498.181	633.12
498.398	630.12
498.615	636.12
498.832	611.12
499.049	631.12
499.267	660.12
499.484	660.12
499.701	686.12
499.918	669.12
500.135	718.12
500.352	757.12
500.569	745.12
500.786	759.12
501.003	741.12
501.22	708.12
501.437	711.12
501.654	741.12
501.871	713.12
502.088	647.12
502.305	646.12
502.522	649.12
502.739	613.12
502.956	617.12
503.172	599.12
503.389	572.12
503.606	580.12
503.823	585.12
504.04	555.12
504.256	563.12
504.473	568.12
504.69	561.12
504.907	556.12
505.123	564.12
505.34	546.12
505.557	543.12
505.773	567.12
505.99	560.12
506.207	533.12
506.423	543.12
506.64	538.12
506.856	531.12
507.073	541.12
507.289	536.12
507.506	545.12
507.722	523.12
507.939	566.12
508.155	518.12
508.372	521.12
508.588	518.12
508.805	515.12
509.021	527.12
509.238	530.12
509.454	527.12
509.67	527.12
509.887	530.12
510.103	519.12
510.319	514.12
510.536	597.12
510.752	909.12
510.968	743.12
511.184	504.12
511.401	479.12
511.617	504.12
511.833	489.12
512.049	481.12
512.265	476.12
512.481	476.12
512.698	482.12
512.914	489.12
513.13	471.12
513.346	468.12
513.562	501.12
513.778	495.12
513.994	490.12
514.21	511.12
514.426	496.12
514.642	553.12
514.858	537.12
515.074	588.12
515.29	695.12
515.506	971.12
515.721	789.12
515.937	580.12
516.153	524.12
516.369	503.12
516.585	492.12
516.801	507.12
517.016	504.12
517.232	471.12
517.448	502.12
517.664	490.12
517.879	499.12
518.095	495.12
518.311	503.12
518.527	497.12
518.742	477.12
518.958	481.12
519.173	490.12
519.389	484.12
519.605	485.12
519.82	483.12
520.036	504.12
520.251	511.12
520.467	517.12
520.682	515.12
520.898	505.12
521.113	527.12
521.329	562.12
521.544	628.12
521.76	794.12
521.975	1248.12
522.19	1173.12
522.406	701.12
522.621	538.12
522.836	486.12
523.052	483.12
523.267	473.12
523.482	459.12
523.698	424.12
523.913	454.12
524.128	467.12
524.343	433.12
524.559	437.12
524.774	435.12
524.989	434.12
525.204	431.12
525.419	425.12
525.634	417.12
525.849	409.12
526.064	420.12
526.28	409.12
526.495	405.12
526.71	402.12
526.925	404.12
527.14	393.12
527.355	413.12
527.57	383.12
527.785	375.12
527.999	389.12
528.214	415.12
528.429	381.12
528.644	388.12
528.859	389.12
529.074	419.12
529.289	427.12
529.503	456.12
529.718	455.12
529.933	435.12
530.148	399.12
530.363	389.12
530.577	391.12
530.792	389.12
531.007	383.12
531.221	393.12
531.436	366.12
531.651	376.12
531.865	377.12
532.08	377.12
532.295	379.12
532.509	385.12
532.724	380.12
532.938	370.12
533.153	379.12
533.367	403.12
533.582	392.12
533.796	384.12
534.011	348.12
534.225	380.12
534.44	382.12
534.654	369.12
534.868	358.12
535.083	377.12
535.297	377.12
535.511	372.12
535.726	383.12
535.94	371.12
536.154	389.12
536.369	378.12
536.583	371.12
536.797	366.12
537.011	349.12
537.225	348.12
537.44	366.12
537.654	369.12
537.868	352.12
538.082	360.12
538.296	369.12
538.51	355.12
538.724	369.12
538.938	362.12
539.153	379.12
539.367	359.12
539.581	374.12
539.795	374.12
540.009	354.12
540.222	343.12
540.436	374.12
540.65	381.12
540.864	369.12
541.078	396.12
541.292	375.12
541.506	365.12
541.72	364.12
541.934	383.12
542.147	377.12
542.361	355.12
542.575	374.12
542.789	377.12
543.002	371.12
543.216	362.12
543.43	374.12
543.644	381.12
543.857	387.12
544.071	367.12
544.285	383.12
544.498	391.12
544.712	366.12
544.925	360.12
545.139	361.12
545.352	373.12
545.566	353.12
545.779	367.12
545.993	370.12
546.206	371.12
546.42	357.12
546.633	349.12
546.847	361.12
547.06	365.12
547.274	356.12
547.487	348.12
547.7	366.12
547.914	359.12
548.127	341.12
548.34	361.12
548.554	346.12
548.767	342.12
548.98	362.12
549.193	348.12
549.407	329.12
549.62	350.12
549.833	352.12
550.046	362.12
550.259	352.12
550.473	354.12
550.686	345.12
550.899	353.12
551.112	336.12
551.325	359.12
551.538	334.12
551.751	349.12
551.964	355.12
552.177	350.12
552.39	334.12
552.603	348.12
552.816	363.12
553.029	367.12
553.242	366.12
553.455	347.12
553.667	346.12
553.88	367.12
554.093	333.12
554.306	342.12
554.519	355.12
554.732	328.12
554.944	336.12
555.157	324.12
555.37	343.12
555.583	331.12
555.795	343.12
556.008	322.12
556.221	330.12
556.433	328.12
556.646	339.12
556.859	323.12
557.071	326.12
557.284	320.12
557.496	319.12
557.709	327.12
557.921	309.12
558.134	332.12
558.346	304.12
558.559	331.12
558.771	336.12
558.984	302.12
559.196	302.12
559.409	307.12
559.621	309.12
559.833	316.12
560.046	317.12
560.258	302.12
560.47	318.12
560.683	292.12
560.895	301.12
561.107	300.12
561.32	310.12
561.532	300.12
561.744	307.12
561.956	313.12
562.168	309.12
562.381	324.12
562.593	332.12
562.805	307.12
563.017	290.12
563.229	291.12
563.441	328.12
563.653	324.12
563.865	301.12
564.077	307.12
564.289	304.12
564.501	310.12
564.713	325.12
564.925	329.12
565.137	327.12
565.349	315.12
565.561	326.12
565.773	318.12
565.985	360.12
566.197	354.12
566.408	355.12
566.62	360.12
566.832	369.12
567.044	348.12
567.255	360.12
567.467	381.12
567.679	353.12
567.891	353.12
568.102	362.12
568.314	356.12
568.526	351.12
568.737	335.12
568.949	332.12
569.161	322.12
569.372	316.12
569.584	309.12
569.795	298.12
570.007	302.12
570.218	338.12
570.43	314.12
570.641	322.12
570.853	310.12
571.064	308.12
571.276	306.12
571.487	298.12
571.698	285.12
571.91	289.12
572.121	294.12
572.333	269.12
572.544	271.12
572.755	273.12
572.966	263.12
573.178	277.12
573.389	277.12
573.6	284.12
573.811	256.12
574.023	259.12
574.234	258.12
574.445	266.12
574.656	247.12
574.867	257.12
575.078	274.12
575.289	253.12
575.501	264.12
575.712	284.12
575.923	262.12
576.134	278.12
576.345	258.12
576.556	261.12
576.767	264.12
576.978	277.12
577.188	260.12
577.399	258.12
577.61	252.12
577.821	241.12
578.032	250.12
578.243	285.12
578.454	450.12
578.665	323.12
578.875	253.12
579.086	257.12
579.297	257.12
579.508	264.12
579.718	258.12
579.929	240.12
580.14	222.12
580.35	233.12
580.561	242.12
580.772	237.12
580.982	257.12
581.193	231.12
581.403	263.12
581.614	251.12
581.825	246.12
582.035	222.12
582.246	247.12
582.456	241.12
582.667	246.12
582.877	238.12
583.087	257.12
583.298	256.12
583.508	238.12
583.719	239.12
583.929	270.12
584.139	242.12
584.35	223.12
584.56	263.12
584.77	233.12
584.981	243.12
585.191	243.12
585.401	223.12
585.611	224.12
585.821	235.12
586.032	232.12
586.242	234.12
586.452	231.12
586.662	238.12
586.872	238.12
587.082	228.12
587.292	239.12
587.502	240.12
587.713	228.12
587.923	232.12
588.133	227.12
588.343	224.12
588.553	241.12
588.762	229.12
588.972	227.12
589.182	214.12
589.392	208.12
589.602	215.12
589.812	226.12
590.022	231.12
590.232	232.12
590.441	225.12
590.651	231.12
590.861	238.12
591.071	238.12
591.281	227.12
591.49	235.12
591.7	237.12
591.91	226.12
592.119	248.12
592.329	241.12
592.539	239.12
592.748	257.12
592.958	241.12
593.167	237.12
593.377	225.12
593.587	247.12
593.796	245.12
594.006	234.12
594.215	233.12
594.424	241.12
594.634	243.12
594.843	244.12
595.053	221.12
595.262	260.12
595.472	229.12
595.681	241.12
595.89	235.12
596.1	221.12
596.309	233.12
596.518	222.12
596.727	223.12
596.937	213.12
597.146	230.12
597.355	235.12
597.564	205.12
597.774	200.12
597.983	219.12
598.192	220.12
598.401	213.12
598.61	219.12
598.819	219.12
599.028	217.12
599.237	216.12
599.446	209.12
599.655	223.12
599.864	224.12
600.073	209.12
600.282	201.12
600.491	211.12
600.7	200.12
600.909	212.12
601.118	217.12
601.327	228.12
601.536	225.12
601.745	213.12
601.953	208.12
602.162	217.12
602.371	213.12
602.58	226.12
602.789	220.12
602.997	205.12
603.206	205.12
603.415	201.12
603.623	217.12
603.832	201.12
604.041	210.12
604.249	194.12
604.458	201.12
604.666	207.12
604.875	212.12
605.084	188.12
605.292	190.12
605.501	211.12
605.709	212.12
605.918	205.12
606.126	219.12
606.334	194.12
606.543	204.12
606.751	218.12
606.96	219.12
607.168	224.12
607.376	217.12
607.585	191.12
607.793	203.12
608.001	210.12
608.21	207.12
608.418	209.12
608.626	200.12
608.834	193.12
609.043	207.12
609.251	216.12
609.459	216.12
609.667	201.12
609.875	195.12
610.083	191.12
610.291	202.12
610.499	202.12
610.707	227.12
610.916	210.12
611.124	185.12
611.332	218.12
611.54	211.12
611.748	216.12
611.955	220.12
612.163	194.12
612.371	191.12
612.579	199.12
612.787	186.12
612.995	216.12
613.203	216.12
613.411	189.12
613.618	205.12
613.826	220.12
614.034	205.12
614.242	205.12
614.449	203.12
614.657	194.12
614.865	200.12
615.072	203.12
615.28	196.12
615.488	193.12
615.695	200.12
615.903	208.12
616.111	213.12
616.318	207.12
616.526	199.12
616.733	210.12
616.941	214.12
617.148	200.12
617.356	196.12
617.563	188.12
617.771	206.12
617.978	190.12
618.185	199.12
618.393	189.12
618.6	181.12
618.807	201.12
619.015	188.12
619.222	199.12
619.429	183.12
619.637	201.12
619.844	174.12
620.051	201.12
620.258	183.12
620.466	188.12
620.673	177.12
620.88	187.12
621.087	188.12
621.294	175.12
621.501	177.12
621.708	198.12
621.915	199.12
622.122	191.12
622.329	194.12
622.536	184.12
622.743	191.12
622.95	175.12
623.157	172.12
623.364	173.12
623.571	194.12
623.778	179.12
623.985	193.12
624.192	184.12
624.399	175.12
624.606	181.12
624.812	177.12
625.019	189.12
625.226	194.12
625.433	177.12
625.639	185.12
625.846	168.12
626.053	189.12
626.259	181.12
626.466	182.12
626.673	166.12
626.879	173.12
627.086	171.12
627.293	179.12
627.499	174.12
627.706	171.12
627.912	174.12
628.119	164.12
628.325	189.12
628.532	167.12
628.738	170.12
628.945	189.12
629.151	171.12
629.357	162.12
629.564	164.12
629.77	164.12
629.976	188.12
630.183	179.12
630.389	167.12
630.595	176.12
630.802	160.12
631.008	168.12
631.214	156.12
631.42	171.12
631.627	176.12
631.833	144.12
632.039	167.12
632.245	149.12
632.451	171.12
632.657	177.12
632.863	165.12
633.069	168.12
633.275	173.12
633.481	166.12
633.688	161.12
633.893	170.12
634.099	164.12
634.305	168.12
634.511	169.12
634.717	171.12
634.923	146.12
635.129	156.12
635.335	163.12
635.541	160.12
635.747	166.12
635.952	155.12
636.158	163.12
636.364	170.12
636.57	161.12
636.775	153.12
636.981	169.12
637.187	165.12
637.392	147.12
637.598	154.12
637.804	153.12
638.009	156.12
638.215	171.12
638.421	155.12
638.626	156.12
638.832	170.12
639.037	165.12
639.243	162.12
639.448	146.12
639.654	145.12
639.859	143.12
640.065	149.12
640.27	163.12
640.475	153.12
640.681	153.12
640.886	172.12
641.091	171.12
641.297	141.12
641.502	144.12
641.707	151.12
641.913	136.12
642.118	151.12
642.323	152.12
642.528	160.12
642.733	161.12
642.939	133.12
643.144	149.12
643.349	141.12
643.554	155.12
643.759	149.12
643.964	150.12
644.169	144.12
644.374	125.12
644.579	149.12
644.784	141.12
644.989	151.12
645.194	159.12
645.399	156.12
645.604	149.12
645.809	143.12
646.014	153.12
646.219	150.12
646.423	147.12
646.628	133.12
646.833	148.12
647.038	146.12
647.243	159.12
647.447	152.12
647.652	139.12
647.857	131.12
648.062	157.12
648.266	146.12
648.471	153.12
648.676	170.12
648.88	143.12
649.085	151.12
649.289	162.12
649.494	153.12
649.698	155.12
649.903	169.12
650.107	153.12
650.312	148.12
650.516	144.12
650.721	158.12
650.925	134.12
651.13	143.12
651.334	124.12
651.539	127.12
651.743	129.12
651.947	129.12
652.152	127.12
652.356	145.12
652.56	133.12
652.764	135.12
652.969	134.12
653.173	142.12
653.377	129.12
653.581	131.12
653.785	130.12
653.99	124.12
654.194	120.12
654.398	116.12
654.602	133.12
654.806	131.12
655.01	134.12
655.214	121.12
655.418	118.12
655.622	116.12
655.826	134.12
656.03	134.12
656.234	125.12
656.438	127.12
656.642	137.12
656.846	123.12
657.049	117.12
657.253	116.12
657.457	123.12
657.661	113.12
657.865	104.12
658.068	95.12
658.272	104.12
658.476	102.12
658.68	99.12
658.883	92.12
659.087	108.12
659.291	97.12
659.494	101.12
659.698	95.12
659.901	87.12
660.105	107.12
660.309	86.12
660.512	90.12
660.716	83.12
660.919	97.12
661.123	94.12
661.326	96.12
661.53	92.12
661.733	86.12
661.936	87.12
662.14	88.12
662.343	75.12
662.546	84.12
662.75	100.12
662.953	97.12
663.156	90.12
663.36	75.12
663.563	74.12
663.766	81.12
663.969	87.12
664.173	86.12
664.376	93.12
664.579	93.12
664.782	91.12
664.985	87.12
665.188	74.12
665.391	85.12
665.594	78.12
665.797	79.12
666	81.12
666.203	86.12
666.406	93.12
666.609	87.12
666.812	77.12
667.015	93.12
667.218	83.12
667.421	83.12
667.624	84.12
667.827	80.12
668.03	82.12
668.232	69.12
668.435	75.12
668.638	75.12
668.841	85.12
669.043	79.12
669.246	86.12
669.449	85.12
669.651	75.12
669.854	73.12
670.057	70.12
670.259	84.12
670.462	83.12
670.665	71.12
670.867	91.12
671.07	89.12
671.272	86.12
671.475	87.12
671.677	90.12
671.88	84.12
672.082	81.12
672.284	86.12
672.487	86.12
672.689	91.12
672.892	76.12
