Data from 1971.PennyLincolnUp.Lamp.En5.5.200Scan.071719.P1._HRD10591_15-18-55-842.txt Node
Date: Thu Jul 18 15:18:55 EDT 2019
User: cochatt
Spectrometer: HR+D1059
Trigger mode: 1
Integration Time (sec): 1.000000E-1
Scans to average: 1
Electric dark correction enabled: true
Nonlinearity correction enabled: false
Boxcar width: 0
XAxis mode: Wavelengths
Number of Pixels in Spectrum: 2048
>>>>>Begin Spectral Data<<<<<
223.165	-2.06
223.4	-2.06
223.635	-2.06
223.869	-27.06
224.104	-20.06
224.338	-10.06
224.573	-16.06
224.808	-17.06
225.042	-18.06
225.277	4.94
225.511	-9.06
225.746	4.94
225.98	-6.06
226.215	17.94
226.449	12.94
226.683	22.94
226.918	24.94
227.152	36.94
227.387	29.94
227.621	30.94
227.856	44.94
228.09	55.94
228.324	53.94
228.559	62.94
228.793	66.94
229.027	84.94
229.262	105.94
229.496	101.94
229.73	127.94
229.964	141.94
230.199	121.94
230.433	112.94
230.667	128.94
230.901	109.94
231.136	111.94
231.37	119.94
231.604	117.94
231.838	113.94
232.072	108.94
232.306	123.94
232.541	103.94
232.775	110.94
233.009	122.94
233.243	111.94
233.477	102.94
233.711	95.94
233.945	114.94
234.179	125.94
234.413	107.94
234.647	119.94
234.881	118.94
235.115	115.94
235.349	108.94
235.583	124.94
235.817	120.94
236.051	137.94
236.285	120.94
236.519	125.94
236.753	134.94
236.987	129.94
237.221	178.94
237.455	206.94
237.689	181.94
237.922	140.94
238.156	130.94
238.39	129.94
238.624	145.94
238.858	122.94
239.091	127.94
239.325	127.94
239.559	124.94
239.793	131.94
240.027	129.94
240.26	134.94
240.494	134.94
240.728	143.94
240.961	150.94
241.195	138.94
241.429	142.94
241.662	130.94
241.896	140.94
242.13	125.94
242.363	128.94
242.597	141.94
242.83	131.94
243.064	132.94
243.298	145.94
243.531	140.94
243.765	142.94
243.998	133.94
244.232	132.94
244.465	133.94
244.699	149.94
244.932	153.94
245.166	154.94
245.399	147.94
245.633	157.94
245.866	149.94
246.099	146.94
246.333	134.94
246.566	135.94
246.8	146.94
247.033	157.94
247.266	141.94
247.5	178.94
247.733	176.94
247.966	175.94
248.2	165.94
248.433	175.94
248.666	170.94
248.899	202.94
249.133	198.94
249.366	189.94
249.599	175.94
249.832	169.94
250.066	185.94
250.299	192.94
250.532	186.94
250.765	207.94
250.998	226.94
251.231	223.94
251.465	224.94
251.698	214.94
251.931	201.94
252.164	211.94
252.397	204.94
252.63	210.94
252.863	210.94
253.096	213.94
253.329	225.94
253.562	248.94
253.795	215.94
254.028	214.94
254.261	220.94
254.494	233.94
254.727	255.94
254.96	280.94
255.193	272.94
255.426	248.94
255.659	239.94
255.892	232.94
256.124	230.94
256.357	257.94
256.59	222.94
256.823	221.94
257.056	224.94
257.289	220.94
257.521	222.94
257.754	207.94
257.987	207.94
258.22	197.94
258.452	209.94
258.685	201.94
258.918	207.94
259.151	208.94
259.383	222.94
259.616	231.94
259.849	246.94
260.081	236.94
260.314	256.94
260.547	258.94
260.779	246.94
261.012	241.94
261.244	237.94
261.477	232.94
261.71	238.94
261.942	226.94
262.175	243.94
262.407	229.94
262.64	205.94
262.872	206.94
263.105	209.94
263.337	217.94
263.57	213.94
263.802	221.94
264.035	218.94
264.267	212.94
264.499	213.94
264.732	217.94
264.964	219.94
265.197	216.94
265.429	221.94
265.661	229.94
265.894	224.94
266.126	239.94
266.358	220.94
266.591	218.94
266.823	226.94
267.055	220.94
267.287	233.94
267.52	226.94
267.752	208.94
267.984	230.94
268.216	250.94
268.448	237.94
268.681	231.94
268.913	262.94
269.145	253.94
269.377	270.94
269.609	293.94
269.841	262.94
270.073	281.94
270.306	288.94
270.538	318.94
270.77	316.94
271.002	312.94
271.234	289.94
271.466	300.94
271.698	303.94
271.93	313.94
272.162	316.94
272.394	312.94
272.626	287.94
272.858	287.94
273.09	277.94
273.322	278.94
273.553	261.94
273.785	261.94
274.017	274.94
274.249	271.94
274.481	278.94
274.713	263.94
274.945	267.94
275.176	265.94
275.408	253.94
275.64	262.94
275.872	263.94
276.104	258.94
276.335	270.94
276.567	267.94
276.799	276.94
277.031	296.94
277.262	327.94
277.494	312.94
277.726	307.94
277.957	286.94
278.189	281.94
278.421	272.94
278.652	278.94
278.884	284.94
279.115	274.94
279.347	293.94
279.579	281.94
279.81	269.94
280.042	261.94
280.273	284.94
280.505	278.94
280.736	277.94
280.968	277.94
281.199	251.94
281.431	290.94
281.662	262.94
281.894	267.94
282.125	274.94
282.356	292.94
282.588	302.94
282.819	280.94
283.051	285.94
283.282	266.94
283.513	268.94
283.745	290.94
283.976	296.94
284.207	286.94
284.439	276.94
284.67	284.94
284.901	283.94
285.132	284.94
285.364	271.94
285.595	277.94
285.826	280.94
286.057	301.94
286.288	294.94
286.52	275.94
286.751	287.94
286.982	268.94
287.213	267.94
287.444	285.94
287.675	276.94
287.906	294.94
288.138	300.94
288.369	290.94
288.6	289.94
288.831	303.94
289.062	314.94
289.293	287.94
289.524	305.94
289.755	272.94
289.986	280.94
290.217	282.94
290.448	277.94
290.679	299.94
290.91	308.94
291.141	292.94
291.371	277.94
291.602	278.94
291.833	283.94
292.064	285.94
292.295	281.94
292.526	313.94
292.757	289.94
292.987	297.94
293.218	304.94
293.449	322.94
293.68	285.94
293.91	296.94
294.141	297.94
294.372	287.94
294.603	284.94
294.833	296.94
295.064	289.94
295.295	300.94
295.525	294.94
295.756	299.94
295.987	305.94
296.217	319.94
296.448	321.94
296.679	301.94
296.909	281.94
297.14	305.94
297.37	300.94
297.601	305.94
297.831	280.94
298.062	314.94
298.292	308.94
298.523	300.94
298.753	307.94
298.984	294.94
299.214	297.94
299.445	312.94
299.675	309.94
299.905	301.94
300.136	314.94
300.366	295.94
300.597	314.94
300.827	319.94
301.057	331.94
301.288	324.94
301.518	323.94
301.748	325.94
301.979	328.94
302.209	318.94
302.439	334.94
302.669	315.94
302.9	311.94
303.13	328.94
303.36	348.94
303.59	323.94
303.82	346.94
304.051	346.94
304.281	337.94
304.511	331.94
304.741	335.94
304.971	320.94
305.201	341.94
305.431	342.94
305.661	314.94
305.891	320.94
306.121	316.94
306.352	337.94
306.582	310.94
306.812	321.94
307.042	335.94
307.272	333.94
307.502	327.94
307.731	332.94
307.961	342.94
308.191	332.94
308.421	338.94
308.651	353.94
308.881	341.94
309.111	358.94
309.341	335.94
309.571	335.94
309.8	351.94
310.03	356.94
310.26	362.94
310.49	363.94
310.72	372.94
310.949	388.94
311.179	385.94
311.409	375.94
311.639	380.94
311.868	361.94
312.098	362.94
312.328	398.94
312.557	396.94
312.787	391.94
313.017	390.94
313.246	379.94
313.476	368.94
313.706	366.94
313.935	393.94
314.165	404.94
314.394	397.94
314.624	404.94
314.853	365.94
315.083	356.94
315.312	369.94
315.542	368.94
315.771	353.94
316.001	376.94
316.23	376.94
316.46	364.94
316.689	389.94
316.919	386.94
317.148	385.94
317.377	396.94
317.607	380.94
317.836	364.94
318.065	386.94
318.295	378.94
318.524	372.94
318.753	356.94
318.983	377.94
319.212	378.94
319.441	388.94
319.67	388.94
319.9	390.94
320.129	369.94
320.358	402.94
320.587	394.94
320.816	408.94
321.046	391.94
321.275	399.94
321.504	395.94
321.733	398.94
321.962	399.94
322.191	414.94
322.42	410.94
322.649	424.94
322.878	418.94
323.108	443.94
323.337	446.94
323.566	470.94
323.795	500.94
324.024	538.94
324.253	641.94
324.482	928.94
324.71	1366.94
324.939	1827.94
325.168	1540.94
325.397	836.94
325.626	599.94
325.855	528.94
326.084	495.94
326.313	494.94
326.542	480.94
326.77	519.94
326.999	632.94
327.228	838.94
327.457	1178.94
327.686	1361.94
327.914	964.94
328.143	644.94
328.372	572.94
328.6	566.94
328.829	541.94
329.058	514.94
329.287	521.94
329.515	505.94
329.744	488.94
329.972	499.94
330.201	479.94
330.43	541.94
330.658	561.94
330.887	567.94
331.115	534.94
331.344	486.94
331.572	477.94
331.801	492.94
332.03	463.94
332.258	463.94
332.486	425.94
332.715	430.94
332.943	430.94
333.172	437.94
333.4	427.94
333.629	436.94
333.857	453.94
334.085	478.94
334.314	482.94
334.542	457.94
334.771	476.94
334.999	464.94
335.227	432.94
335.455	422.94
335.684	432.94
335.912	436.94
336.14	420.94
336.369	410.94
336.597	442.94
336.825	438.94
337.053	407.94
337.281	403.94
337.51	419.94
337.738	436.94
337.966	457.94
338.194	435.94
338.422	442.94
338.65	406.94
338.878	432.94
339.106	415.94
339.334	418.94
339.562	415.94
339.79	424.94
340.018	408.94
340.246	405.94
340.474	408.94
340.702	415.94
340.93	395.94
341.158	412.94
341.386	415.94
341.614	412.94
341.842	397.94
342.07	395.94
342.298	390.94
342.526	397.94
342.754	404.94
342.981	404.94
343.209	378.94
343.437	403.94
343.665	390.94
343.893	416.94
344.12	392.94
344.348	420.94
344.576	429.94
344.804	418.94
345.031	418.94
345.259	422.94
345.487	420.94
345.714	408.94
345.942	384.94
346.17	391.94
346.397	421.94
346.625	387.94
346.853	384.94
347.08	391.94
347.308	401.94
347.535	393.94
347.763	403.94
347.99	404.94
348.218	398.94
348.445	407.94
348.673	390.94
348.9	376.94
349.128	388.94
349.355	358.94
349.583	365.94
349.81	384.94
350.037	383.94
350.265	377.94
350.492	376.94
350.72	391.94
350.947	375.94
351.174	394.94
351.402	395.94
351.629	398.94
351.856	409.94
352.083	381.94
352.311	405.94
352.538	413.94
352.765	392.94
352.992	384.94
353.22	383.94
353.447	382.94
353.674	390.94
353.901	375.94
354.128	364.94
354.355	360.94
354.583	362.94
354.81	372.94
355.037	366.94
355.264	344.94
355.491	364.94
355.718	358.94
355.945	360.94
356.172	361.94
356.399	365.94
356.626	370.94
356.853	360.94
357.08	348.94
357.307	357.94
357.534	379.94
357.761	367.94
357.988	365.94
358.215	367.94
358.441	356.94
358.668	374.94
358.895	355.94
359.122	351.94
359.349	361.94
359.576	379.94
359.802	394.94
360.029	404.94
360.256	423.94
360.483	387.94
360.709	396.94
360.936	387.94
361.163	378.94
361.39	389.94
361.616	382.94
361.843	380.94
362.07	365.94
362.296	380.94
362.523	385.94
362.749	380.94
362.976	357.94
363.203	358.94
363.429	350.94
363.656	343.94
363.882	363.94
364.109	362.94
364.335	361.94
364.562	381.94
364.788	366.94
365.015	374.94
365.241	359.94
365.468	364.94
365.694	378.94
365.92	377.94
366.147	353.94
366.373	344.94
366.599	333.94
366.826	347.94
367.052	378.94
367.278	358.94
367.505	351.94
367.731	354.94
367.957	351.94
368.184	360.94
368.41	369.94
368.636	367.94
368.862	393.94
369.089	349.94
369.315	367.94
369.541	359.94
369.767	380.94
369.993	366.94
370.219	380.94
370.445	374.94
370.672	355.94
370.898	358.94
371.124	347.94
371.35	356.94
371.576	348.94
371.802	350.94
372.028	365.94
372.254	361.94
372.48	350.94
372.706	357.94
372.932	340.94
373.158	359.94
373.384	349.94
373.61	359.94
373.835	347.94
374.061	359.94
374.287	340.94
374.513	356.94
374.739	374.94
374.965	349.94
375.191	357.94
375.416	369.94
375.642	358.94
375.868	354.94
376.094	366.94
376.319	333.94
376.545	345.94
376.771	348.94
376.997	341.94
377.222	350.94
377.448	330.94
377.674	346.94
377.899	362.94
378.125	349.94
378.35	338.94
378.576	354.94
378.802	346.94
379.027	356.94
379.253	364.94
379.478	359.94
379.704	358.94
379.929	336.94
380.155	351.94
380.38	352.94
380.606	344.94
380.831	348.94
381.057	356.94
381.282	348.94
381.507	345.94
381.733	337.94
381.958	352.94
382.184	369.94
382.409	351.94
382.634	357.94
382.86	349.94
383.085	349.94
383.31	357.94
383.535	356.94
383.761	346.94
383.986	357.94
384.211	357.94
384.436	353.94
384.662	352.94
384.887	373.94
385.112	350.94
385.337	372.94
385.562	362.94
385.787	362.94
386.013	380.94
386.238	392.94
386.463	373.94
386.688	360.94
386.913	372.94
387.138	362.94
387.363	372.94
387.588	357.94
387.813	380.94
388.038	358.94
388.263	356.94
388.488	367.94
388.713	378.94
388.938	377.94
389.163	376.94
389.387	365.94
389.612	357.94
389.837	364.94
390.062	358.94
390.287	346.94
390.512	376.94
390.736	374.94
390.961	378.94
391.186	366.94
391.411	355.94
391.636	367.94
391.86	388.94
392.085	386.94
392.31	377.94
392.534	377.94
392.759	363.94
392.984	360.94
393.208	371.94
393.433	404.94
393.658	369.94
393.882	380.94
394.107	376.94
394.331	377.94
394.556	380.94
394.78	384.94
395.005	373.94
395.229	383.94
395.454	393.94
395.678	379.94
395.903	383.94
396.127	377.94
396.352	420.94
396.576	391.94
396.801	376.94
397.025	369.94
397.249	418.94
397.474	397.94
397.698	390.94
397.922	405.94
398.147	405.94
398.371	413.94
398.595	410.94
398.82	388.94
399.044	413.94
399.268	432.94
399.492	453.94
399.717	476.94
399.941	473.94
400.165	494.94
400.389	498.94
400.613	451.94
400.837	440.94
401.062	431.94
401.286	434.94
401.51	401.94
401.734	393.94
401.958	390.94
402.182	408.94
402.406	429.94
402.63	436.94
402.854	423.94
403.078	424.94
403.302	410.94
403.526	409.94
403.75	426.94
403.974	425.94
404.198	415.94
404.422	432.94
404.645	436.94
404.869	421.94
405.093	433.94
405.317	484.94
405.541	492.94
405.765	469.94
405.988	437.94
406.212	450.94
406.436	466.94
406.66	463.94
406.883	461.94
407.107	470.94
407.331	496.94
407.555	534.94
407.778	570.94
408.002	496.94
408.226	444.94
408.449	460.94
408.673	452.94
408.896	497.94
409.12	507.94
409.344	477.94
409.567	420.94
409.791	409.94
410.014	425.94
410.238	440.94
410.461	420.94
410.685	409.94
410.908	442.94
411.132	458.94
411.355	505.94
411.578	453.94
411.802	416.94
412.025	412.94
412.249	431.94
412.472	456.94
412.695	452.94
412.919	443.94
413.142	435.94
413.365	417.94
413.589	426.94
413.812	398.94
414.035	386.94
414.258	389.94
414.482	394.94
414.705	400.94
414.928	394.94
415.151	395.94
415.374	400.94
415.597	392.94
415.821	373.94
416.044	389.94
416.267	391.94
416.49	396.94
416.713	404.94
416.936	394.94
417.159	394.94
417.382	404.94
417.605	414.94
417.828	398.94
418.051	420.94
418.274	418.94
418.497	406.94
418.72	389.94
418.943	402.94
419.166	410.94
419.389	437.94
419.611	400.94
419.834	418.94
420.057	426.94
420.28	413.94
420.503	417.94
420.726	404.94
420.948	433.94
421.171	466.94
421.394	490.94
421.617	442.94
421.839	400.94
422.062	408.94
422.285	428.94
422.507	482.94
422.73	518.94
422.953	526.94
423.175	464.94
423.398	440.94
423.621	426.94
423.843	444.94
424.066	455.94
424.288	438.94
424.511	464.94
424.733	506.94
424.956	570.94
425.178	558.94
425.401	543.94
425.623	573.94
425.846	476.94
426.068	448.94
426.291	446.94
426.513	454.94
426.735	432.94
426.958	475.94
427.18	535.94
427.402	656.94
427.625	684.94
427.847	606.94
428.069	532.94
428.292	478.94
428.514	449.94
428.736	430.94
428.958	426.94
429.181	427.94
429.403	408.94
429.625	405.94
429.847	446.94
430.069	493.94
430.292	480.94
430.514	430.94
430.736	414.94
430.958	411.94
431.18	399.94
431.402	385.94
431.624	402.94
431.846	368.94
432.068	392.94
432.29	368.94
432.512	388.94
432.734	392.94
432.956	394.94
433.178	400.94
433.4	410.94
433.622	390.94
433.844	375.94
434.066	387.94
434.287	383.94
434.509	364.94
434.731	402.94
434.953	394.94
435.175	418.94
435.397	441.94
435.618	436.94
435.84	476.94
436.062	563.94
436.284	603.94
436.505	497.94
436.727	465.94
436.949	430.94
437.17	428.94
437.392	423.94
437.614	426.94
437.835	421.94
438.057	501.94
438.278	608.94
438.5	597.94
438.721	682.94
438.943	620.94
439.165	502.94
439.386	473.94
439.608	453.94
439.829	478.94
440.05	482.94
440.272	519.94
440.493	479.94
440.715	448.94
440.936	428.94
441.158	426.94
441.379	416.94
441.6	405.94
441.822	457.94
442.043	477.94
442.264	522.94
442.486	561.94
442.707	487.94
442.928	455.94
443.149	454.94
443.371	485.94
443.592	495.94
443.813	597.94
444.034	615.94
444.255	517.94
444.476	469.94
444.698	454.94
444.919	449.94
445.14	573.94
445.361	523.94
445.582	478.94
445.803	527.94
446.024	611.94
446.245	575.94
446.466	557.94
446.687	469.94
446.908	444.94
447.129	417.94
447.35	422.94
447.571	421.94
447.792	413.94
448.013	417.94
448.234	437.94
448.455	474.94
448.675	560.94
448.896	644.94
449.117	549.94
449.338	515.94
449.559	599.94
449.779	663.94
450	529.94
450.221	439.94
450.442	410.94
450.662	399.94
450.883	406.94
451.104	390.94
451.324	411.94
451.545	393.94
451.766	394.94
451.986	360.94
452.207	374.94
452.428	377.94
452.648	372.94
452.869	360.94
453.089	374.94
453.31	388.94
453.53	366.94
453.751	364.94
453.971	384.94
454.192	365.94
454.412	353.94
454.633	377.94
454.853	363.94
455.073	349.94
455.294	402.94
455.514	437.94
455.734	436.94
455.955	382.94
456.175	359.94
456.395	348.94
456.616	348.94
456.836	338.94
457.056	344.94
457.276	334.94
457.497	337.94
457.717	352.94
457.937	335.94
458.157	360.94
458.377	360.94
458.598	379.94
458.818	416.94
459.038	488.94
459.258	481.94
459.478	403.94
459.698	376.94
459.918	370.94
460.138	376.94
460.358	383.94
460.578	400.94
460.798	394.94
461.018	367.94
461.238	388.94
461.458	394.94
461.678	394.94
461.898	361.94
462.118	374.94
462.338	401.94
462.558	401.94
462.777	382.94
462.997	421.94
463.217	408.94
463.437	426.94
463.657	402.94
463.876	402.94
464.096	412.94
464.316	413.94
464.536	410.94
464.755	408.94
464.975	389.94
465.195	436.94
465.414	474.94
465.634	458.94
465.854	400.94
466.073	390.94
466.293	383.94
466.512	361.94
466.732	362.94
466.951	376.94
467.171	368.94
467.391	390.94
467.61	374.94
467.829	393.94
468.049	391.94
468.268	367.94
468.488	360.94
468.707	347.94
468.927	352.94
469.146	358.94
469.365	356.94
469.585	358.94
469.804	374.94
470.023	378.94
470.243	372.94
470.462	377.94
470.681	391.94
470.901	406.94
471.12	379.94
471.339	402.94
471.558	387.94
471.777	411.94
471.997	374.94
472.216	381.94
472.435	381.94
472.654	393.94
472.873	388.94
473.092	361.94
473.311	380.94
473.53	384.94
473.749	402.94
473.968	440.94
474.187	535.94
474.406	532.94
474.625	433.94
474.844	388.94
475.063	390.94
475.282	383.94
475.501	377.94
475.72	392.94
475.939	396.94
476.158	382.94
476.377	379.94
476.596	378.94
476.814	374.94
477.033	379.94
477.252	392.94
477.471	413.94
477.69	403.94
477.908	402.94
478.127	421.94
478.346	406.94
478.564	422.94
478.783	424.94
479.002	432.94
479.22	433.94
479.439	442.94
479.658	448.94
479.876	430.94
480.095	442.94
480.313	489.94
480.532	448.94
480.751	441.94
480.969	455.94
481.188	484.94
481.406	500.94
481.624	450.94
481.843	440.94
482.061	414.94
482.28	438.94
482.498	455.94
482.717	430.94
482.935	417.94
483.153	436.94
483.372	434.94
483.59	426.94
483.808	450.94
484.027	458.94
484.245	432.94
484.463	436.94
484.681	441.94
484.9	426.94
485.118	471.94
485.336	452.94
485.554	449.94
485.772	431.94
485.99	431.94
486.209	457.94
486.427	429.94
486.645	444.94
486.863	476.94
487.081	465.94
487.299	485.94
487.517	466.94
487.735	471.94
487.953	487.94
488.171	479.94
488.389	476.94
488.607	472.94
488.825	469.94
489.043	497.94
489.261	494.94
489.479	507.94
489.696	465.94
489.914	477.94
490.132	473.94
490.35	493.94
490.568	475.94
490.786	479.94
491.003	506.94
491.221	524.94
491.439	501.94
491.657	520.94
491.874	519.94
492.092	548.94
492.31	542.94
492.527	539.94
492.745	531.94
492.963	546.94
493.18	552.94
493.398	553.94
493.615	544.94
493.833	552.94
494.05	543.94
494.268	553.94
494.485	549.94
494.703	534.94
494.92	537.94
495.138	535.94
495.355	564.94
495.573	526.94
495.79	541.94
496.008	559.94
496.225	543.94
496.442	549.94
496.66	592.94
496.877	560.94
497.094	556.94
497.312	585.94
497.529	573.94
497.746	587.94
497.963	575.94
498.181	620.94
498.398	596.94
498.615	613.94
498.832	607.94
499.049	640.94
499.267	633.94
499.484	634.94
499.701	671.94
499.918	676.94
500.135	723.94
500.352	731.94
500.569	736.94
500.786	734.94
501.003	721.94
501.22	728.94
501.437	671.94
501.654	665.94
501.871	673.94
502.088	677.94
502.305	631.94
502.522	607.94
502.739	642.94
502.956	588.94
503.172	576.94
503.389	551.94
503.606	566.94
503.823	558.94
504.04	546.94
504.256	556.94
504.473	549.94
504.69	523.94
504.907	541.94
505.123	557.94
505.34	503.94
505.557	511.94
505.773	539.94
505.99	530.94
506.207	536.94
506.423	530.94
506.64	522.94
506.856	506.94
507.073	520.94
507.289	510.94
507.506	512.94
507.722	510.94
507.939	537.94
508.155	523.94
508.372	506.94
508.588	518.94
508.805	497.94
509.021	530.94
509.238	526.94
509.454	501.94
509.67	518.94
509.887	504.94
510.103	493.94
510.319	521.94
510.536	559.94
510.752	868.94
510.968	700.94
511.184	502.94
511.401	481.94
511.617	496.94
511.833	466.94
512.049	465.94
512.265	474.94
512.481	470.94
512.698	452.94
512.914	478.94
513.13	469.94
513.346	475.94
513.562	467.94
513.778	463.94
513.994	467.94
514.21	468.94
514.426	497.94
514.642	512.94
514.858	528.94
515.074	584.94
515.29	668.94
515.506	900.94
515.721	767.94
515.937	578.94
516.153	503.94
516.369	488.94
516.585	474.94
516.801	510.94
517.016	483.94
517.232	470.94
517.448	480.94
517.664	470.94
517.879	474.94
518.095	462.94
518.311	487.94
518.527	448.94
518.742	469.94
518.958	473.94
519.173	470.94
519.389	429.94
519.605	459.94
519.82	479.94
520.036	473.94
520.251	472.94
520.467	489.94
520.682	495.94
520.898	516.94
521.113	538.94
521.329	561.94
521.544	617.94
521.76	770.94
521.975	1160.94
522.19	1080.94
522.406	635.94
522.621	492.94
522.836	455.94
523.052	460.94
523.267	429.94
523.482	422.94
523.698	421.94
523.913	430.94
524.128	439.94
524.343	434.94
524.559	402.94
524.774	405.94
524.989	397.94
525.204	424.94
525.419	406.94
525.634	384.94
525.849	412.94
526.064	414.94
526.28	390.94
526.495	394.94
526.71	386.94
526.925	389.94
527.14	393.94
527.355	420.94
527.57	398.94
527.785	380.94
527.999	391.94
528.214	396.94
528.429	386.94
528.644	381.94
528.859	393.94
529.074	381.94
529.289	425.94
529.503	494.94
529.718	462.94
529.933	410.94
530.148	377.94
530.363	377.94
530.577	393.94
530.792	366.94
531.007	381.94
531.221	389.94
531.436	375.94
531.651	378.94
531.865	366.94
532.08	363.94
532.295	363.94
532.509	382.94
532.724	377.94
532.938	372.94
533.153	376.94
533.367	374.94
533.582	357.94
533.796	367.94
534.011	374.94
534.225	380.94
534.44	375.94
534.654	373.94
534.868	365.94
535.083	369.94
535.297	368.94
535.511	377.94
535.726	363.94
535.94	382.94
536.154	373.94
536.369	381.94
536.583	359.94
536.797	360.94
537.011	359.94
537.225	357.94
537.44	355.94
537.654	358.94
537.868	332.94
538.082	354.94
538.296	375.94
538.51	358.94
538.724	367.94
538.938	360.94
539.153	335.94
539.367	378.94
539.581	374.94
539.795	356.94
540.009	349.94
540.222	355.94
540.436	353.94
540.65	347.94
540.864	354.94
541.078	373.94
541.292	358.94
541.506	366.94
541.72	362.94
541.934	368.94
542.147	381.94
542.361	372.94
542.575	371.94
542.789	368.94
543.002	360.94
543.216	334.94
543.43	363.94
543.644	373.94
543.857	364.94
544.071	382.94
544.285	379.94
544.498	375.94
544.712	356.94
544.925	360.94
545.139	336.94
545.352	353.94
545.566	362.94
545.779	349.94
545.993	350.94
546.206	361.94
546.42	349.94
546.633	340.94
546.847	372.94
547.06	348.94
547.274	337.94
547.487	375.94
547.7	350.94
547.914	328.94
548.127	349.94
548.34	349.94
548.554	359.94
548.767	347.94
548.98	347.94
549.193	349.94
549.407	337.94
549.62	352.94
549.833	328.94
550.046	336.94
550.259	332.94
550.473	353.94
550.686	362.94
550.899	344.94
551.112	351.94
551.325	343.94
551.538	338.94
551.751	340.94
551.964	338.94
552.177	327.94
552.39	356.94
552.603	348.94
552.816	354.94
553.029	350.94
553.242	342.94
553.455	353.94
553.667	368.94
553.88	340.94
554.093	348.94
554.306	338.94
554.519	345.94
554.732	331.94
554.944	331.94
555.157	315.94
555.37	330.94
555.583	338.94
555.795	329.94
556.008	316.94
556.221	303.94
556.433	308.94
556.646	309.94
556.859	310.94
557.071	314.94
557.284	344.94
557.496	326.94
557.709	326.94
557.921	324.94
558.134	318.94
558.346	322.94
558.559	302.94
558.771	296.94
558.984	324.94
559.196	325.94
559.409	309.94
559.621	311.94
559.833	282.94
560.046	295.94
560.258	311.94
560.47	318.94
560.683	305.94
560.895	304.94
561.107	296.94
561.32	311.94
561.532	307.94
561.744	310.94
561.956	297.94
562.168	322.94
562.381	324.94
562.593	308.94
562.805	312.94
563.017	316.94
563.229	296.94
563.441	304.94
563.653	283.94
563.865	310.94
564.077	303.94
564.289	305.94
564.501	312.94
564.713	313.94
564.925	312.94
565.137	333.94
565.349	340.94
565.561	332.94
565.773	329.94
565.985	324.94
566.197	324.94
566.408	350.94
566.62	343.94
566.832	341.94
567.044	361.94
567.255	374.94
567.467	352.94
567.679	365.94
567.891	366.94
568.102	353.94
568.314	349.94
568.526	337.94
568.737	311.94
568.949	341.94
569.161	318.94
569.372	335.94
569.584	312.94
569.795	297.94
570.007	300.94
570.218	327.94
570.43	318.94
570.641	301.94
570.853	294.94
571.064	320.94
571.276	318.94
571.487	273.94
571.698	270.94
571.91	280.94
572.121	283.94
572.333	277.94
572.544	290.94
572.755	274.94
572.966	274.94
573.178	266.94
573.389	270.94
573.6	279.94
573.811	264.94
574.023	242.94
574.234	262.94
574.445	258.94
574.656	274.94
574.867	256.94
575.078	258.94
575.289	233.94
575.501	258.94
575.712	272.94
575.923	255.94
576.134	267.94
576.345	248.94
576.556	248.94
576.767	266.94
576.978	265.94
577.188	262.94
577.399	260.94
577.61	263.94
577.821	260.94
578.032	273.94
578.243	273.94
578.454	412.94
578.665	336.94
578.875	264.94
579.086	246.94
579.297	254.94
579.508	246.94
579.718	265.94
579.929	256.94
580.14	236.94
580.35	234.94
580.561	238.94
580.772	249.94
580.982	237.94
581.193	258.94
581.403	237.94
581.614	244.94
581.825	235.94
582.035	235.94
582.246	240.94
582.456	240.94
582.667	246.94
582.877	242.94
583.087	234.94
583.298	238.94
583.508	238.94
583.719	237.94
583.929	231.94
584.139	233.94
584.35	227.94
584.56	240.94
584.77	247.94
584.981	225.94
585.191	222.94
585.401	221.94
585.611	245.94
585.821	237.94
586.032	224.94
586.242	230.94
586.452	241.94
586.662	228.94
586.872	244.94
587.082	223.94
587.292	228.94
587.502	211.94
587.713	240.94
587.923	209.94
588.133	224.94
588.343	215.94
588.553	238.94
588.762	239.94
588.972	210.94
589.182	231.94
589.392	230.94
589.602	245.94
589.812	222.94
590.022	230.94
590.232	234.94
590.441	206.94
590.651	228.94
590.861	221.94
591.071	230.94
591.281	227.94
591.49	249.94
591.7	230.94
591.91	235.94
592.119	220.94
592.329	224.94
592.539	233.94
592.748	227.94
592.958	248.94
593.167	233.94
593.377	238.94
593.587	260.94
593.796	219.94
594.006	225.94
594.215	238.94
594.424	239.94
594.634	239.94
594.843	226.94
595.053	231.94
595.262	224.94
595.472	216.94
595.681	225.94
595.89	209.94
596.1	228.94
596.309	244.94
596.518	222.94
596.727	218.94
596.937	231.94
597.146	232.94
597.355	231.94
597.564	219.94
597.774	213.94
597.983	205.94
598.192	217.94
598.401	209.94
598.61	206.94
598.819	218.94
599.028	213.94
599.237	213.94
599.446	210.94
599.655	214.94
599.864	209.94
600.073	223.94
600.282	216.94
600.491	216.94
600.7	217.94
600.909	212.94
601.118	216.94
601.327	216.94
601.536	226.94
601.745	222.94
601.953	213.94
602.162	210.94
602.371	197.94
602.58	203.94
602.789	203.94
602.997	209.94
603.206	207.94
603.415	204.94
603.623	189.94
603.832	203.94
604.041	230.94
604.249	201.94
604.458	210.94
604.666	191.94
604.875	204.94
605.084	200.94
605.292	177.94
605.501	188.94
605.709	190.94
605.918	204.94
606.126	203.94
606.334	204.94
606.543	185.94
606.751	216.94
606.96	200.94
607.168	186.94
607.376	201.94
607.585	218.94
607.793	212.94
608.001	210.94
608.21	190.94
608.418	197.94
608.626	184.94
608.834	203.94
609.043	229.94
609.251	205.94
609.459	212.94
609.667	209.94
609.875	200.94
610.083	212.94
610.291	213.94
610.499	205.94
610.707	198.94
610.916	198.94
611.124	203.94
611.332	200.94
611.54	194.94
611.748	204.94
611.955	199.94
612.163	198.94
612.371	215.94
612.579	196.94
612.787	200.94
612.995	201.94
613.203	202.94
613.411	210.94
613.618	199.94
613.826	203.94
614.034	194.94
614.242	201.94
614.449	192.94
614.657	204.94
614.865	210.94
615.072	193.94
615.28	182.94
615.488	203.94
615.695	209.94
615.903	208.94
616.111	199.94
616.318	224.94
616.526	204.94
616.733	183.94
616.941	190.94
617.148	206.94
617.356	208.94
617.563	208.94
617.771	205.94
617.978	197.94
618.185	192.94
618.393	201.94
618.6	210.94
618.807	206.94
619.015	195.94
619.222	193.94
619.429	196.94
619.637	190.94
619.844	182.94
620.051	173.94
620.258	201.94
620.466	190.94
620.673	177.94
620.88	194.94
621.087	203.94
621.294	200.94
621.501	191.94
621.708	187.94
621.915	180.94
622.122	181.94
622.329	199.94
622.536	174.94
622.743	186.94
622.95	179.94
623.157	183.94
623.364	181.94
623.571	182.94
623.778	184.94
623.985	214.94
624.192	178.94
624.399	181.94
624.606	177.94
624.812	176.94
625.019	182.94
625.226	167.94
625.433	188.94
625.639	171.94
625.846	177.94
626.053	171.94
626.259	172.94
626.466	167.94
626.673	177.94
626.879	177.94
627.086	184.94
627.293	176.94
627.499	196.94
627.706	185.94
627.912	171.94
628.119	169.94
628.325	187.94
628.532	168.94
628.738	166.94
628.945	176.94
629.151	188.94
629.357	184.94
629.564	174.94
629.77	180.94
629.976	158.94
630.183	175.94
630.389	156.94
630.595	164.94
630.802	165.94
631.008	180.94
631.214	157.94
631.42	167.94
631.627	185.94
631.833	170.94
632.039	161.94
632.245	175.94
632.451	172.94
632.657	163.94
632.863	163.94
633.069	168.94
633.275	164.94
633.481	160.94
633.688	151.94
633.893	145.94
634.099	176.94
634.305	173.94
634.511	159.94
634.717	159.94
634.923	160.94
635.129	161.94
635.335	169.94
635.541	166.94
635.747	153.94
635.952	153.94
636.158	164.94
636.364	155.94
636.57	164.94
636.775	152.94
636.981	164.94
637.187	158.94
637.392	155.94
637.598	166.94
637.804	164.94
638.009	155.94
638.215	161.94
638.421	167.94
638.626	168.94
638.832	163.94
639.037	147.94
639.243	159.94
639.448	152.94
639.654	153.94
639.859	161.94
640.065	158.94
640.27	166.94
640.475	147.94
640.681	159.94
640.886	162.94
641.091	162.94
641.297	162.94
641.502	152.94
641.707	161.94
641.913	173.94
642.118	151.94
642.323	135.94
642.528	144.94
642.733	140.94
642.939	156.94
643.144	147.94
643.349	154.94
643.554	140.94
643.759	142.94
643.964	146.94
644.169	154.94
644.374	148.94
644.579	144.94
644.784	145.94
644.989	124.94
645.194	135.94
645.399	143.94
645.604	139.94
645.809	149.94
646.014	141.94
646.219	154.94
646.423	150.94
646.628	144.94
646.833	146.94
647.038	145.94
647.243	145.94
647.447	151.94
647.652	157.94
647.857	153.94
648.062	151.94
648.266	158.94
648.471	148.94
648.676	155.94
648.88	163.94
649.085	135.94
649.289	136.94
649.494	160.94
649.698	175.94
649.903	174.94
650.107	148.94
650.312	152.94
650.516	150.94
650.721	132.94
650.925	151.94
651.13	148.94
651.334	142.94
651.539	149.94
651.743	132.94
651.947	113.94
652.152	116.94
652.356	126.94
652.56	135.94
652.764	140.94
652.969	124.94
653.173	138.94
653.377	138.94
653.581	114.94
653.785	130.94
653.99	137.94
654.194	121.94
654.398	112.94
654.602	140.94
654.806	142.94
655.01	122.94
655.214	138.94
655.418	121.94
655.622	132.94
655.826	133.94
656.03	129.94
656.234	120.94
656.438	129.94
656.642	112.94
656.846	120.94
657.049	138.94
657.253	138.94
657.457	124.94
657.661	106.94
657.865	100.94
658.068	122.94
658.272	108.94
658.476	117.94
658.68	97.94
658.883	108.94
659.087	102.94
659.291	101.94
659.494	90.94
659.698	89.94
659.901	95.94
660.105	96.94
660.309	84.94
660.512	104.94
660.716	94.94
660.919	108.94
661.123	98.94
661.326	97.94
661.53	88.94
661.733	96.94
661.936	97.94
662.14	78.94
662.343	82.94
662.546	82.94
662.75	87.94
662.953	97.94
663.156	88.94
663.36	102.94
663.563	82.94
663.766	71.94
663.969	90.94
664.173	99.94
664.376	93.94
664.579	80.94
664.782	82.94
664.985	103.94
665.188	87.94
665.391	82.94
665.594	71.94
665.797	80.94
666	89.94
666.203	76.94
666.406	80.94
666.609	86.94
666.812	79.94
667.015	90.94
667.218	66.94
667.421	80.94
667.624	75.94
667.827	84.94
668.03	85.94
668.232	74.94
668.435	76.94
668.638	77.94
668.841	86.94
669.043	89.94
669.246	89.94
669.449	96.94
669.651	103.94
669.854	87.94
670.057	97.94
670.259	88.94
670.462	90.94
670.665	92.94
670.867	86.94
671.07	83.94
671.272	89.94
671.475	79.94
671.677	92.94
671.88	80.94
672.082	81.94
672.284	85.94
672.487	98.94
672.689	93.94
672.892	68.94
