Data from 1971.PennyLincolnUp.Lamp.En5.5.200Scan.071719.P1._HRD10591_15-18-14-841.txt Node
Date: Thu Jul 18 15:18:14 EDT 2019
User: cochatt
Spectrometer: HR+D1059
Trigger mode: 1
Integration Time (sec): 1.000000E-1
Scans to average: 1
Electric dark correction enabled: true
Nonlinearity correction enabled: false
Boxcar width: 0
XAxis mode: Wavelengths
Number of Pixels in Spectrum: 2048
>>>>>Begin Spectral Data<<<<<
223.165	-13.38
223.4	-13.38
223.635	-13.38
223.869	-22.38
224.104	-13.38
224.338	-14.38
224.573	-25.38
224.808	-9.38
225.042	-8.38
225.277	-9.38
225.511	11.62
225.746	-1.38
225.98	7.62
226.215	19.62
226.449	29.62
226.683	15.62
226.918	10.62
227.152	22.62
227.387	42.62
227.621	46.62
227.856	37.62
228.09	41.62
228.324	44.62
228.559	63.62
228.793	92.62
229.027	97.62
229.262	110.62
229.496	107.62
229.73	115.62
229.964	126.62
230.199	117.62
230.433	101.62
230.667	108.62
230.901	100.62
231.136	103.62
231.37	106.62
231.604	101.62
231.838	125.62
232.072	102.62
232.306	94.62
232.541	112.62
232.775	103.62
233.009	115.62
233.243	101.62
233.477	118.62
233.711	115.62
233.945	114.62
234.179	118.62
234.413	114.62
234.647	114.62
234.881	115.62
235.115	104.62
235.349	111.62
235.583	118.62
235.817	126.62
236.051	111.62
236.285	111.62
236.519	115.62
236.753	122.62
236.987	134.62
237.221	164.62
237.455	196.62
237.689	144.62
237.922	125.62
238.156	121.62
238.39	116.62
238.624	132.62
238.858	138.62
239.091	118.62
239.325	119.62
239.559	111.62
239.793	120.62
240.027	129.62
240.26	127.62
240.494	143.62
240.728	140.62
240.961	146.62
241.195	135.62
241.429	134.62
241.662	128.62
241.896	127.62
242.13	126.62
242.363	122.62
242.597	110.62
242.83	144.62
243.064	134.62
243.298	139.62
243.531	141.62
243.765	139.62
243.998	130.62
244.232	141.62
244.465	134.62
244.699	146.62
244.932	138.62
245.166	149.62
245.399	136.62
245.633	136.62
245.866	126.62
246.099	149.62
246.333	146.62
246.566	143.62
246.8	155.62
247.033	155.62
247.266	158.62
247.5	160.62
247.733	167.62
247.966	164.62
248.2	157.62
248.433	164.62
248.666	164.62
248.899	173.62
249.133	182.62
249.366	182.62
249.599	180.62
249.832	166.62
250.066	172.62
250.299	175.62
250.532	190.62
250.765	187.62
250.998	205.62
251.231	219.62
251.465	202.62
251.698	182.62
251.931	193.62
252.164	199.62
252.397	170.62
252.63	200.62
252.863	203.62
253.096	213.62
253.329	215.62
253.562	207.62
253.795	228.62
254.028	198.62
254.261	214.62
254.494	202.62
254.727	244.62
254.96	254.62
255.193	246.62
255.426	239.62
255.659	241.62
255.892	205.62
256.124	206.62
256.357	206.62
256.59	206.62
256.823	199.62
257.056	207.62
257.289	217.62
257.521	208.62
257.754	208.62
257.987	186.62
258.22	202.62
258.452	197.62
258.685	209.62
258.918	215.62
259.151	202.62
259.383	219.62
259.616	208.62
259.849	201.62
260.081	221.62
260.314	229.62
260.547	231.62
260.779	230.62
261.012	229.62
261.244	217.62
261.477	209.62
261.71	213.62
261.942	203.62
262.175	226.62
262.407	214.62
262.64	208.62
262.872	225.62
263.105	218.62
263.337	214.62
263.57	208.62
263.802	214.62
264.035	216.62
264.267	210.62
264.499	196.62
264.732	221.62
264.964	213.62
265.197	176.62
265.429	210.62
265.661	211.62
265.894	198.62
266.126	204.62
266.358	203.62
266.591	195.62
266.823	205.62
267.055	210.62
267.287	220.62
267.52	214.62
267.752	216.62
267.984	228.62
268.216	217.62
268.448	219.62
268.681	236.62
268.913	228.62
269.145	237.62
269.377	252.62
269.609	245.62
269.841	244.62
270.073	270.62
270.306	289.62
270.538	281.62
270.77	280.62
271.002	304.62
271.234	293.62
271.466	289.62
271.698	270.62
271.93	297.62
272.162	296.62
272.394	289.62
272.626	289.62
272.858	264.62
273.09	261.62
273.322	266.62
273.553	280.62
273.785	260.62
274.017	246.62
274.249	242.62
274.481	239.62
274.713	257.62
274.945	251.62
275.176	259.62
275.408	273.62
275.64	246.62
275.872	252.62
276.104	260.62
276.335	252.62
276.567	230.62
276.799	270.62
277.031	286.62
277.262	281.62
277.494	280.62
277.726	274.62
277.957	280.62
278.189	264.62
278.421	277.62
278.652	284.62
278.884	250.62
279.115	260.62
279.347	256.62
279.579	250.62
279.81	260.62
280.042	227.62
280.273	257.62
280.505	246.62
280.736	264.62
280.968	261.62
281.199	267.62
281.431	247.62
281.662	254.62
281.894	264.62
282.125	259.62
282.356	263.62
282.588	286.62
282.819	284.62
283.051	272.62
283.282	253.62
283.513	277.62
283.745	277.62
283.976	265.62
284.207	267.62
284.439	262.62
284.67	278.62
284.901	267.62
285.132	266.62
285.364	263.62
285.595	249.62
285.826	278.62
286.057	282.62
286.288	256.62
286.52	268.62
286.751	268.62
286.982	256.62
287.213	262.62
287.444	278.62
287.675	255.62
287.906	270.62
288.138	281.62
288.369	280.62
288.6	273.62
288.831	286.62
289.062	281.62
289.293	293.62
289.524	285.62
289.755	282.62
289.986	283.62
290.217	268.62
290.448	248.62
290.679	270.62
290.91	287.62
291.141	282.62
291.371	294.62
291.602	287.62
291.833	272.62
292.064	273.62
292.295	265.62
292.526	292.62
292.757	286.62
292.987	271.62
293.218	274.62
293.449	285.62
293.68	278.62
293.91	279.62
294.141	266.62
294.372	274.62
294.603	282.62
294.833	288.62
295.064	268.62
295.295	269.62
295.525	273.62
295.756	282.62
295.987	279.62
296.217	272.62
296.448	303.62
296.679	282.62
296.909	298.62
297.14	291.62
297.37	282.62
297.601	275.62
297.831	257.62
298.062	282.62
298.292	277.62
298.523	288.62
298.753	287.62
298.984	301.62
299.214	296.62
299.445	285.62
299.675	292.62
299.905	298.62
300.136	300.62
300.366	287.62
300.597	312.62
300.827	301.62
301.057	293.62
301.288	307.62
301.518	304.62
301.748	288.62
301.979	293.62
302.209	281.62
302.439	317.62
302.669	314.62
302.9	321.62
303.13	302.62
303.36	313.62
303.59	298.62
303.82	327.62
304.051	330.62
304.281	313.62
304.511	303.62
304.741	289.62
304.971	306.62
305.201	318.62
305.431	330.62
305.661	327.62
305.891	326.62
306.121	317.62
306.352	338.62
306.582	324.62
306.812	301.62
307.042	308.62
307.272	303.62
307.502	314.62
307.731	318.62
307.961	320.62
308.191	310.62
308.421	309.62
308.651	310.62
308.881	320.62
309.111	336.62
309.341	322.62
309.571	320.62
309.8	345.62
310.03	350.62
310.26	338.62
310.49	321.62
310.72	358.62
310.949	367.62
311.179	374.62
311.409	333.62
311.639	346.62
311.868	339.62
312.098	320.62
312.328	357.62
312.557	360.62
312.787	361.62
313.017	372.62
313.246	339.62
313.476	351.62
313.706	343.62
313.935	353.62
314.165	356.62
314.394	370.62
314.624	364.62
314.853	346.62
315.083	357.62
315.312	351.62
315.542	351.62
315.771	346.62
316.001	351.62
316.23	339.62
316.46	360.62
316.689	351.62
316.919	342.62
317.148	351.62
317.377	364.62
317.607	357.62
317.836	358.62
318.065	340.62
318.295	341.62
318.524	341.62
318.753	367.62
318.983	369.62
319.212	353.62
319.441	356.62
319.67	359.62
319.9	349.62
320.129	354.62
320.358	337.62
320.587	365.62
320.816	365.62
321.046	361.62
321.275	352.62
321.504	364.62
321.733	362.62
321.962	371.62
322.191	382.62
322.42	396.62
322.649	407.62
322.878	412.62
323.108	404.62
323.337	427.62
323.566	424.62
323.795	456.62
324.024	488.62
324.253	598.62
324.482	791.62
324.71	1172.62
324.939	1560.62
325.168	1326.62
325.397	738.62
325.626	516.62
325.855	458.62
326.084	460.62
326.313	464.62
326.542	452.62
326.77	466.62
326.999	551.62
327.228	737.62
327.457	1024.62
327.686	1188.62
327.914	797.62
328.143	559.62
328.372	497.62
328.6	494.62
328.829	464.62
329.058	478.62
329.287	473.62
329.515	443.62
329.744	451.62
329.972	432.62
330.201	441.62
330.43	465.62
330.658	486.62
330.887	488.62
331.115	479.62
331.344	456.62
331.572	420.62
331.801	434.62
332.03	445.62
332.258	419.62
332.486	395.62
332.715	390.62
332.943	421.62
333.172	412.62
333.4	424.62
333.629	415.62
333.857	393.62
334.085	411.62
334.314	442.62
334.542	442.62
334.771	452.62
334.999	440.62
335.227	407.62
335.455	416.62
335.684	398.62
335.912	416.62
336.14	390.62
336.369	400.62
336.597	406.62
336.825	402.62
337.053	397.62
337.281	397.62
337.51	406.62
337.738	392.62
337.966	400.62
338.194	405.62
338.422	384.62
338.65	385.62
338.878	400.62
339.106	379.62
339.334	378.62
339.562	369.62
339.79	382.62
340.018	376.62
340.246	388.62
340.474	389.62
340.702	384.62
340.93	373.62
341.158	388.62
341.386	398.62
341.614	373.62
341.842	358.62
342.07	374.62
342.298	374.62
342.526	364.62
342.754	382.62
342.981	367.62
343.209	376.62
343.437	370.62
343.665	387.62
343.893	379.62
344.12	398.62
344.348	393.62
344.576	395.62
344.804	393.62
345.031	388.62
345.259	381.62
345.487	380.62
345.714	372.62
345.942	385.62
346.17	393.62
346.397	362.62
346.625	358.62
346.853	379.62
347.08	366.62
347.308	379.62
347.535	395.62
347.763	377.62
347.99	387.62
348.218	377.62
348.445	370.62
348.673	355.62
348.9	394.62
349.128	378.62
349.355	359.62
349.583	361.62
349.81	352.62
350.037	353.62
350.265	365.62
350.492	369.62
350.72	357.62
350.947	349.62
351.174	363.62
351.402	384.62
351.629	365.62
351.856	364.62
352.083	375.62
352.311	378.62
352.538	382.62
352.765	368.62
352.992	357.62
353.22	365.62
353.447	348.62
353.674	356.62
353.901	352.62
354.128	358.62
354.355	344.62
354.583	335.62
354.81	369.62
355.037	344.62
355.264	340.62
355.491	335.62
355.718	346.62
355.945	341.62
356.172	306.62
356.399	355.62
356.626	347.62
356.853	346.62
357.08	347.62
357.307	332.62
357.534	333.62
357.761	320.62
357.988	326.62
358.215	339.62
358.441	348.62
358.668	343.62
358.895	337.62
359.122	335.62
359.349	328.62
359.576	357.62
359.802	367.62
360.029	389.62
360.256	400.62
360.483	391.62
360.709	364.62
360.936	389.62
361.163	347.62
361.39	359.62
361.616	360.62
361.843	331.62
362.07	352.62
362.296	355.62
362.523	353.62
362.749	368.62
362.976	345.62
363.203	352.62
363.429	326.62
363.656	350.62
363.882	347.62
364.109	343.62
364.335	331.62
364.562	318.62
364.788	353.62
365.015	349.62
365.241	328.62
365.468	346.62
365.694	349.62
365.92	367.62
366.147	350.62
366.373	350.62
366.599	359.62
366.826	342.62
367.052	330.62
367.278	329.62
367.505	319.62
367.731	356.62
367.957	344.62
368.184	353.62
368.41	333.62
368.636	359.62
368.862	361.62
369.089	359.62
369.315	345.62
369.541	335.62
369.767	321.62
369.993	352.62
370.219	346.62
370.445	344.62
370.672	326.62
370.898	329.62
371.124	318.62
371.35	361.62
371.576	324.62
371.802	344.62
372.028	341.62
372.254	328.62
372.48	341.62
372.706	332.62
372.932	353.62
373.158	342.62
373.384	335.62
373.61	352.62
373.835	349.62
374.061	338.62
374.287	367.62
374.513	346.62
374.739	352.62
374.965	338.62
375.191	349.62
375.416	336.62
375.642	352.62
375.868	366.62
376.094	332.62
376.319	352.62
376.545	336.62
376.771	316.62
376.997	329.62
377.222	348.62
377.448	342.62
377.674	337.62
377.899	339.62
378.125	335.62
378.35	335.62
378.576	325.62
378.802	312.62
379.027	320.62
379.253	326.62
379.478	336.62
379.704	331.62
379.929	336.62
380.155	351.62
380.38	343.62
380.606	340.62
380.831	335.62
381.057	337.62
381.282	339.62
381.507	312.62
381.733	342.62
381.958	336.62
382.184	375.62
382.409	342.62
382.634	364.62
382.86	356.62
383.085	349.62
383.31	337.62
383.535	348.62
383.761	356.62
383.986	339.62
384.211	349.62
384.436	343.62
384.662	350.62
384.887	342.62
385.112	340.62
385.337	332.62
385.562	342.62
385.787	354.62
386.013	362.62
386.238	369.62
386.463	349.62
386.688	366.62
386.913	366.62
387.138	343.62
387.363	354.62
387.588	331.62
387.813	340.62
388.038	338.62
388.263	344.62
388.488	365.62
388.713	355.62
388.938	362.62
389.163	374.62
389.387	357.62
389.612	357.62
389.837	351.62
390.062	363.62
390.287	340.62
390.512	372.62
390.736	362.62
390.961	337.62
391.186	350.62
391.411	348.62
391.636	363.62
391.86	371.62
392.085	353.62
392.31	350.62
392.534	365.62
392.759	363.62
392.984	353.62
393.208	365.62
393.433	346.62
393.658	332.62
393.882	358.62
394.107	351.62
394.331	352.62
394.556	357.62
394.78	361.62
395.005	349.62
395.229	364.62
395.454	348.62
395.678	361.62
395.903	366.62
396.127	375.62
396.352	381.62
396.576	377.62
396.801	365.62
397.025	365.62
397.249	370.62
397.474	363.62
397.698	367.62
397.922	375.62
398.147	366.62
398.371	392.62
398.595	379.62
398.82	366.62
399.044	384.62
399.268	399.62
399.492	398.62
399.717	464.62
399.941	461.62
400.165	452.62
400.389	464.62
400.613	425.62
400.837	408.62
401.062	381.62
401.286	410.62
401.51	402.62
401.734	391.62
401.958	366.62
402.182	386.62
402.406	392.62
402.63	385.62
402.854	393.62
403.078	385.62
403.302	389.62
403.526	405.62
403.75	394.62
403.974	414.62
404.198	400.62
404.422	391.62
404.645	406.62
404.869	418.62
405.093	436.62
405.317	442.62
405.541	467.62
405.765	430.62
405.988	400.62
406.212	428.62
406.436	420.62
406.66	440.62
406.883	431.62
407.107	444.62
407.331	441.62
407.555	518.62
407.778	503.62
408.002	458.62
408.226	447.62
408.449	428.62
408.673	461.62
408.896	456.62
409.12	487.62
409.344	476.62
409.567	426.62
409.791	383.62
410.014	397.62
410.238	401.62
410.461	415.62
410.685	373.62
410.908	408.62
411.132	446.62
411.355	464.62
411.578	440.62
411.802	397.62
412.025	391.62
412.249	385.62
412.472	392.62
412.695	438.62
412.919	421.62
413.142	401.62
413.365	396.62
413.589	393.62
413.812	376.62
414.035	384.62
414.258	368.62
414.482	380.62
414.705	378.62
414.928	378.62
415.151	376.62
415.374	382.62
415.597	365.62
415.821	378.62
416.044	370.62
416.267	369.62
416.49	389.62
416.713	375.62
416.936	363.62
417.159	382.62
417.382	378.62
417.605	383.62
417.828	393.62
418.051	412.62
418.274	381.62
418.497	382.62
418.72	384.62
418.943	390.62
419.166	388.62
419.389	399.62
419.611	387.62
419.834	383.62
420.057	397.62
420.28	399.62
420.503	399.62
420.726	407.62
420.948	415.62
421.171	425.62
421.394	448.62
421.617	412.62
421.839	373.62
422.062	401.62
422.285	414.62
422.507	448.62
422.73	478.62
422.953	489.62
423.175	412.62
423.398	408.62
423.621	402.62
423.843	423.62
424.066	438.62
424.288	423.62
424.511	445.62
424.733	461.62
424.956	520.62
425.178	484.62
425.401	515.62
425.623	517.62
425.846	451.62
426.068	415.62
426.291	412.62
426.513	420.62
426.735	422.62
426.958	456.62
427.18	493.62
427.402	618.62
427.625	671.62
427.847	548.62
428.069	487.62
428.292	442.62
428.514	399.62
428.736	410.62
428.958	404.62
429.181	377.62
429.403	386.62
429.625	398.62
429.847	418.62
430.069	462.62
430.292	455.62
430.514	395.62
430.736	383.62
430.958	390.62
431.18	349.62
431.402	362.62
431.624	339.62
431.846	361.62
432.068	374.62
432.29	372.62
432.512	376.62
432.734	378.62
432.956	384.62
433.178	378.62
433.4	377.62
433.622	357.62
433.844	364.62
434.066	369.62
434.287	379.62
434.509	365.62
434.731	367.62
434.953	378.62
435.175	386.62
435.397	408.62
435.618	411.62
435.84	439.62
436.062	505.62
436.284	564.62
436.505	466.62
436.727	422.62
436.949	409.62
437.17	397.62
437.392	385.62
437.614	413.62
437.835	410.62
438.057	467.62
438.278	539.62
438.5	557.62
438.721	597.62
438.943	573.62
439.165	471.62
439.386	424.62
439.608	421.62
439.829	432.62
440.05	407.62
440.272	462.62
440.493	453.62
440.715	420.62
440.936	402.62
441.158	413.62
441.379	397.62
441.6	393.62
441.822	406.62
442.043	460.62
442.264	505.62
442.486	541.62
442.707	448.62
442.928	422.62
443.149	422.62
443.371	441.62
443.592	479.62
443.813	531.62
444.034	567.62
444.255	503.62
444.476	445.62
444.698	438.62
444.919	417.62
445.14	553.62
445.361	479.62
445.582	436.62
445.803	487.62
446.024	545.62
446.245	551.62
446.466	512.62
446.687	448.62
446.908	417.62
447.129	409.62
447.35	414.62
447.571	396.62
447.792	401.62
448.013	387.62
448.234	381.62
448.455	427.62
448.675	532.62
448.896	606.62
449.117	536.62
449.338	456.62
449.559	539.62
449.779	626.62
450	481.62
450.221	428.62
450.442	386.62
450.662	375.62
450.883	384.62
451.104	374.62
451.324	391.62
451.545	362.62
451.766	362.62
451.986	351.62
452.207	347.62
452.428	330.62
452.648	338.62
452.869	356.62
453.089	354.62
453.31	352.62
453.53	343.62
453.751	336.62
453.971	349.62
454.192	356.62
454.412	337.62
454.633	321.62
454.853	325.62
455.073	355.62
455.294	364.62
455.514	398.62
455.734	375.62
455.955	333.62
456.175	344.62
456.395	329.62
456.616	341.62
456.836	327.62
457.056	324.62
457.276	312.62
457.497	314.62
457.717	336.62
457.937	319.62
458.157	331.62
458.377	330.62
458.598	343.62
458.818	363.62
459.038	432.62
459.258	460.62
459.478	379.62
459.698	347.62
459.918	362.62
460.138	362.62
460.358	385.62
460.578	351.62
460.798	364.62
461.018	380.62
461.238	354.62
461.458	361.62
461.678	369.62
461.898	365.62
462.118	376.62
462.338	348.62
462.558	378.62
462.777	388.62
462.997	391.62
463.217	398.62
463.437	386.62
463.657	392.62
463.876	386.62
464.096	391.62
464.316	393.62
464.536	393.62
464.755	393.62
464.975	373.62
465.195	407.62
465.414	458.62
465.634	414.62
465.854	373.62
466.073	381.62
466.293	354.62
466.512	362.62
466.732	341.62
466.951	354.62
467.171	358.62
467.391	345.62
467.61	353.62
467.829	362.62
468.049	348.62
468.268	342.62
468.488	333.62
468.707	333.62
468.927	342.62
469.146	337.62
469.365	372.62
469.585	338.62
469.804	368.62
470.023	329.62
470.243	363.62
470.462	362.62
470.681	353.62
470.901	360.62
471.12	357.62
471.339	367.62
471.558	375.62
471.777	388.62
471.997	348.62
472.216	352.62
472.435	363.62
472.654	344.62
472.873	347.62
473.092	344.62
473.311	349.62
473.53	345.62
473.749	369.62
473.968	396.62
474.187	460.62
474.406	480.62
474.625	394.62
474.844	357.62
475.063	352.62
475.282	346.62
475.501	378.62
475.72	353.62
475.939	359.62
476.158	386.62
476.377	371.62
476.596	359.62
476.814	361.62
477.033	365.62
477.252	374.62
477.471	383.62
477.69	376.62
477.908	385.62
478.127	390.62
478.346	361.62
478.564	382.62
478.783	399.62
479.002	409.62
479.22	406.62
479.439	407.62
479.658	389.62
479.876	441.62
480.095	415.62
480.313	459.62
480.532	434.62
480.751	412.62
480.969	423.62
481.188	452.62
481.406	476.62
481.624	418.62
481.843	408.62
482.061	425.62
482.28	412.62
482.498	414.62
482.717	384.62
482.935	407.62
483.153	419.62
483.372	398.62
483.59	406.62
483.808	396.62
484.027	401.62
484.245	395.62
484.463	422.62
484.681	413.62
484.9	427.62
485.118	415.62
485.336	432.62
485.554	414.62
485.772	420.62
485.99	418.62
486.209	426.62
486.427	409.62
486.645	433.62
486.863	431.62
487.081	442.62
487.299	457.62
487.517	444.62
487.735	438.62
487.953	433.62
488.171	432.62
488.389	420.62
488.607	423.62
488.825	443.62
489.043	426.62
489.261	441.62
489.479	445.62
489.696	454.62
489.914	464.62
490.132	477.62
490.35	489.62
490.568	470.62
490.786	473.62
491.003	474.62
491.221	481.62
491.439	477.62
491.657	487.62
491.874	528.62
492.092	502.62
492.31	506.62
492.527	538.62
492.745	511.62
492.963	526.62
493.18	505.62
493.398	504.62
493.615	494.62
493.833	508.62
494.05	520.62
494.268	497.62
494.485	496.62
494.703	503.62
494.92	530.62
495.138	504.62
495.355	526.62
495.573	515.62
495.79	508.62
496.008	539.62
496.225	521.62
496.442	526.62
496.66	533.62
496.877	541.62
497.094	497.62
497.312	527.62
497.529	550.62
497.746	552.62
497.963	546.62
498.181	554.62
498.398	579.62
498.615	575.62
498.832	582.62
499.049	572.62
499.267	584.62
499.484	584.62
499.701	615.62
499.918	642.62
500.135	666.62
500.352	685.62
500.569	699.62
500.786	700.62
501.003	706.62
501.22	667.62
501.437	655.62
501.654	629.62
501.871	607.62
502.088	617.62
502.305	603.62
502.522	586.62
502.739	577.62
502.956	524.62
503.172	539.62
503.389	529.62
503.606	522.62
503.823	537.62
504.04	526.62
504.256	504.62
504.473	516.62
504.69	513.62
504.907	501.62
505.123	497.62
505.34	498.62
505.557	489.62
505.773	491.62
505.99	498.62
506.207	488.62
506.423	482.62
506.64	484.62
506.856	481.62
507.073	484.62
507.289	482.62
507.506	477.62
507.722	493.62
507.939	501.62
508.155	465.62
508.372	458.62
508.588	469.62
508.805	466.62
509.021	470.62
509.238	481.62
509.454	473.62
509.67	463.62
509.887	465.62
510.103	474.62
510.319	460.62
510.536	500.62
510.752	795.62
510.968	620.62
511.184	455.62
511.401	417.62
511.617	437.62
511.833	440.62
512.049	428.62
512.265	437.62
512.481	441.62
512.698	437.62
512.914	433.62
513.13	426.62
513.346	432.62
513.562	428.62
513.778	456.62
513.994	419.62
514.21	441.62
514.426	456.62
514.642	472.62
514.858	490.62
515.074	514.62
515.29	580.62
515.506	780.62
515.721	693.62
515.937	501.62
516.153	438.62
516.369	473.62
516.585	439.62
516.801	462.62
517.016	432.62
517.232	429.62
517.448	450.62
517.664	446.62
517.879	457.62
518.095	458.62
518.311	415.62
518.527	452.62
518.742	428.62
518.958	443.62
519.173	420.62
519.389	422.62
519.605	434.62
519.82	431.62
520.036	449.62
520.251	471.62
520.467	482.62
520.682	441.62
520.898	474.62
521.113	461.62
521.329	492.62
521.544	549.62
521.76	648.62
521.975	964.62
522.19	954.62
522.406	566.62
522.621	486.62
522.836	446.62
523.052	422.62
523.267	414.62
523.482	403.62
523.698	393.62
523.913	388.62
524.128	422.62
524.343	399.62
524.559	408.62
524.774	382.62
524.989	401.62
525.204	379.62
525.419	392.62
525.634	380.62
525.849	378.62
526.064	381.62
526.28	382.62
526.495	370.62
526.71	356.62
526.925	349.62
527.14	381.62
527.355	362.62
527.57	352.62
527.785	362.62
527.999	351.62
528.214	349.62
528.429	378.62
528.644	372.62
528.859	389.62
529.074	379.62
529.289	380.62
529.503	428.62
529.718	409.62
529.933	390.62
530.148	369.62
530.363	376.62
530.577	347.62
530.792	346.62
531.007	353.62
531.221	345.62
531.436	337.62
531.651	359.62
531.865	361.62
532.08	348.62
532.295	361.62
532.509	339.62
532.724	350.62
532.938	342.62
533.153	358.62
533.367	374.62
533.582	349.62
533.796	360.62
534.011	347.62
534.225	337.62
534.44	350.62
534.654	363.62
534.868	342.62
535.083	356.62
535.297	362.62
535.511	336.62
535.726	353.62
535.94	341.62
536.154	346.62
536.369	331.62
536.583	347.62
536.797	325.62
537.011	363.62
537.225	350.62
537.44	338.62
537.654	354.62
537.868	329.62
538.082	337.62
538.296	345.62
538.51	341.62
538.724	333.62
538.938	349.62
539.153	353.62
539.367	341.62
539.581	332.62
539.795	351.62
540.009	355.62
540.222	328.62
540.436	341.62
540.65	330.62
540.864	345.62
541.078	359.62
541.292	344.62
541.506	342.62
541.72	340.62
541.934	342.62
542.147	349.62
542.361	349.62
542.575	344.62
542.789	351.62
543.002	330.62
543.216	349.62
543.43	347.62
543.644	335.62
543.857	345.62
544.071	360.62
544.285	350.62
544.498	352.62
544.712	354.62
544.925	354.62
545.139	365.62
545.352	335.62
545.566	336.62
545.779	333.62
545.993	346.62
546.206	356.62
546.42	348.62
546.633	375.62
546.847	353.62
547.06	351.62
547.274	342.62
547.487	351.62
547.7	335.62
547.914	328.62
548.127	330.62
548.34	351.62
548.554	330.62
548.767	327.62
548.98	330.62
549.193	321.62
549.407	318.62
549.62	331.62
549.833	337.62
550.046	329.62
550.259	317.62
550.473	326.62
550.686	329.62
550.899	342.62
551.112	319.62
551.325	318.62
551.538	320.62
551.751	298.62
551.964	310.62
552.177	310.62
552.39	329.62
552.603	333.62
552.816	325.62
553.029	346.62
553.242	343.62
553.455	329.62
553.667	327.62
553.88	336.62
554.093	340.62
554.306	334.62
554.519	346.62
554.732	326.62
554.944	322.62
555.157	340.62
555.37	333.62
555.583	320.62
555.795	323.62
556.008	320.62
556.221	302.62
556.433	289.62
556.646	292.62
556.859	301.62
557.071	298.62
557.284	316.62
557.496	306.62
557.709	297.62
557.921	305.62
558.134	308.62
558.346	290.62
558.559	309.62
558.771	301.62
558.984	296.62
559.196	280.62
559.409	289.62
559.621	297.62
559.833	303.62
560.046	294.62
560.258	304.62
560.47	285.62
560.683	304.62
560.895	288.62
561.107	292.62
561.32	293.62
561.532	317.62
561.744	303.62
561.956	277.62
562.168	296.62
562.381	296.62
562.593	272.62
562.805	273.62
563.017	284.62
563.229	295.62
563.441	296.62
563.653	302.62
563.865	289.62
564.077	300.62
564.289	306.62
564.501	305.62
564.713	296.62
564.925	307.62
565.137	296.62
565.349	310.62
565.561	319.62
565.773	322.62
565.985	322.62
566.197	304.62
566.408	326.62
566.62	336.62
566.832	336.62
567.044	330.62
567.255	352.62
567.467	349.62
567.679	338.62
567.891	354.62
568.102	349.62
568.314	328.62
568.526	314.62
568.737	329.62
568.949	325.62
569.161	319.62
569.372	300.62
569.584	303.62
569.795	289.62
570.007	299.62
570.218	325.62
570.43	299.62
570.641	289.62
570.853	272.62
571.064	282.62
571.276	281.62
571.487	264.62
571.698	274.62
571.91	284.62
572.121	273.62
572.333	266.62
572.544	282.62
572.755	258.62
572.966	264.62
573.178	245.62
573.389	262.62
573.6	282.62
573.811	239.62
574.023	248.62
574.234	248.62
574.445	258.62
574.656	264.62
574.867	242.62
575.078	268.62
575.289	244.62
575.501	244.62
575.712	246.62
575.923	241.62
576.134	246.62
576.345	231.62
576.556	246.62
576.767	250.62
576.978	264.62
577.188	255.62
577.399	242.62
577.61	252.62
577.821	246.62
578.032	229.62
578.243	270.62
578.454	387.62
578.665	295.62
578.875	252.62
579.086	243.62
579.297	234.62
579.508	229.62
579.718	236.62
579.929	239.62
580.14	253.62
580.35	233.62
580.561	229.62
580.772	248.62
580.982	226.62
581.193	239.62
581.403	232.62
581.614	253.62
581.825	247.62
582.035	228.62
582.246	230.62
582.456	234.62
582.667	222.62
582.877	225.62
583.087	239.62
583.298	244.62
583.508	212.62
583.719	229.62
583.929	233.62
584.139	236.62
584.35	241.62
584.56	228.62
584.77	231.62
584.981	222.62
585.191	216.62
585.401	208.62
585.611	222.62
585.821	246.62
586.032	232.62
586.242	225.62
586.452	230.62
586.662	236.62
586.872	228.62
587.082	220.62
587.292	226.62
587.502	225.62
587.713	222.62
587.923	216.62
588.133	217.62
588.343	229.62
588.553	222.62
588.762	237.62
588.972	221.62
589.182	236.62
589.392	220.62
589.602	221.62
589.812	226.62
590.022	220.62
590.232	231.62
590.441	222.62
590.651	216.62
590.861	215.62
591.071	225.62
591.281	237.62
591.49	221.62
591.7	230.62
591.91	222.62
592.119	223.62
592.329	234.62
592.539	231.62
592.748	235.62
592.958	225.62
593.167	225.62
593.377	217.62
593.587	229.62
593.796	237.62
594.006	217.62
594.215	220.62
594.424	216.62
594.634	218.62
594.843	210.62
595.053	208.62
595.262	225.62
595.472	234.62
595.681	214.62
595.89	214.62
596.1	231.62
596.309	212.62
596.518	225.62
596.727	224.62
596.937	212.62
597.146	210.62
597.355	210.62
597.564	219.62
597.774	205.62
597.983	208.62
598.192	211.62
598.401	212.62
598.61	203.62
598.819	225.62
599.028	203.62
599.237	190.62
599.446	199.62
599.655	216.62
599.864	209.62
600.073	188.62
600.282	200.62
600.491	202.62
600.7	220.62
600.909	192.62
601.118	197.62
601.327	200.62
601.536	214.62
601.745	208.62
601.953	202.62
602.162	189.62
602.371	197.62
602.58	217.62
602.789	202.62
602.997	203.62
603.206	202.62
603.415	208.62
603.623	207.62
603.832	201.62
604.041	209.62
604.249	197.62
604.458	187.62
604.666	192.62
604.875	193.62
605.084	196.62
605.292	188.62
605.501	210.62
605.709	204.62
605.918	206.62
606.126	191.62
606.334	201.62
606.543	184.62
606.751	199.62
606.96	200.62
607.168	197.62
607.376	204.62
607.585	196.62
607.793	196.62
608.001	201.62
608.21	198.62
608.418	190.62
608.626	204.62
608.834	185.62
609.043	188.62
609.251	215.62
609.459	191.62
609.667	189.62
609.875	204.62
610.083	198.62
610.291	202.62
610.499	184.62
610.707	211.62
610.916	201.62
611.124	198.62
611.332	205.62
611.54	218.62
611.748	206.62
611.955	184.62
612.163	195.62
612.371	190.62
612.579	187.62
612.787	202.62
612.995	179.62
613.203	189.62
613.411	216.62
613.618	196.62
613.826	195.62
614.034	213.62
614.242	187.62
614.449	196.62
614.657	182.62
614.865	204.62
615.072	196.62
615.28	192.62
615.488	191.62
615.695	195.62
615.903	200.62
616.111	193.62
616.318	206.62
616.526	188.62
616.733	190.62
616.941	196.62
617.148	193.62
617.356	199.62
617.563	206.62
617.771	185.62
617.978	194.62
618.185	185.62
618.393	194.62
618.6	188.62
618.807	182.62
619.015	187.62
619.222	193.62
619.429	184.62
619.637	190.62
619.844	190.62
620.051	171.62
620.258	180.62
620.466	181.62
620.673	173.62
620.88	180.62
621.087	178.62
621.294	170.62
621.501	200.62
621.708	175.62
621.915	178.62
622.122	187.62
622.329	200.62
622.536	188.62
622.743	189.62
622.95	193.62
623.157	190.62
623.364	158.62
623.571	169.62
623.778	174.62
623.985	186.62
624.192	181.62
624.399	175.62
624.606	182.62
624.812	178.62
625.019	152.62
625.226	181.62
625.433	180.62
625.639	173.62
625.846	173.62
626.053	171.62
626.259	170.62
626.466	177.62
626.673	178.62
626.879	166.62
627.086	176.62
627.293	175.62
627.499	178.62
627.706	177.62
627.912	167.62
628.119	182.62
628.325	180.62
628.532	191.62
628.738	181.62
628.945	171.62
629.151	170.62
629.357	166.62
629.564	156.62
629.77	160.62
629.976	166.62
630.183	146.62
630.389	175.62
630.595	168.62
630.802	165.62
631.008	173.62
631.214	175.62
631.42	172.62
631.627	169.62
631.833	171.62
632.039	161.62
632.245	139.62
632.451	144.62
632.657	165.62
632.863	155.62
633.069	166.62
633.275	153.62
633.481	154.62
633.688	155.62
633.893	170.62
634.099	184.62
634.305	165.62
634.511	140.62
634.717	153.62
634.923	165.62
635.129	149.62
635.335	164.62
635.541	157.62
635.747	146.62
635.952	158.62
636.158	152.62
636.364	162.62
636.57	152.62
636.775	151.62
636.981	150.62
637.187	138.62
637.392	150.62
637.598	152.62
637.804	157.62
638.009	166.62
638.215	158.62
638.421	152.62
638.626	141.62
638.832	157.62
639.037	151.62
639.243	162.62
639.448	167.62
639.654	154.62
639.859	141.62
640.065	153.62
640.27	137.62
640.475	154.62
640.681	152.62
640.886	146.62
641.091	149.62
641.297	160.62
641.502	172.62
641.707	157.62
641.913	166.62
642.118	150.62
642.323	162.62
642.528	146.62
642.733	150.62
642.939	156.62
643.144	151.62
643.349	165.62
643.554	150.62
643.759	146.62
643.964	148.62
644.169	151.62
644.374	144.62
644.579	152.62
644.784	155.62
644.989	146.62
645.194	139.62
645.399	153.62
645.604	148.62
645.809	144.62
646.014	146.62
646.219	143.62
646.423	139.62
646.628	138.62
646.833	151.62
647.038	150.62
647.243	154.62
647.447	133.62
647.652	150.62
647.857	152.62
648.062	138.62
648.266	160.62
648.471	152.62
648.676	144.62
648.88	147.62
649.085	158.62
649.289	155.62
649.494	148.62
649.698	175.62
649.903	144.62
650.107	164.62
650.312	156.62
650.516	134.62
650.721	146.62
650.925	142.62
651.13	135.62
651.334	143.62
651.539	143.62
651.743	139.62
651.947	137.62
652.152	144.62
652.356	140.62
652.56	136.62
652.764	135.62
652.969	132.62
653.173	134.62
653.377	117.62
653.581	115.62
653.785	139.62
653.99	125.62
654.194	143.62
654.398	124.62
654.602	124.62
654.806	126.62
655.01	143.62
655.214	141.62
655.418	119.62
655.622	114.62
655.826	127.62
656.03	119.62
656.234	121.62
656.438	125.62
656.642	130.62
656.846	123.62
657.049	120.62
657.253	132.62
657.457	111.62
657.661	120.62
657.865	117.62
658.068	104.62
658.272	111.62
658.476	112.62
658.68	111.62
658.883	104.62
659.087	107.62
659.291	88.62
659.494	74.62
659.698	102.62
659.901	103.62
660.105	112.62
660.309	93.62
660.512	84.62
660.716	109.62
660.919	86.62
661.123	96.62
661.326	96.62
661.53	95.62
661.733	98.62
661.936	81.62
662.14	95.62
662.343	98.62
662.546	100.62
662.75	85.62
662.953	94.62
663.156	83.62
663.36	77.62
663.563	83.62
663.766	90.62
663.969	89.62
664.173	88.62
664.376	80.62
664.579	76.62
664.782	98.62
664.985	88.62
665.188	92.62
665.391	80.62
665.594	80.62
665.797	93.62
666	82.62
666.203	87.62
666.406	78.62
666.609	89.62
666.812	78.62
667.015	69.62
667.218	87.62
667.421	88.62
667.624	77.62
667.827	85.62
668.03	96.62
668.232	77.62
668.435	81.62
668.638	82.62
668.841	86.62
669.043	81.62
669.246	86.62
669.449	74.62
669.651	82.62
669.854	78.62
670.057	96.62
670.259	91.62
670.462	80.62
670.665	77.62
670.867	72.62
671.07	86.62
671.272	77.62
671.475	73.62
671.677	82.62
671.88	96.62
672.082	78.62
672.284	101.62
672.487	88.62
672.689	85.62
672.892	89.62
