Data from 1971.PennyLincolnUp.Lamp.En5.5.200Scan.071719.P1.Scan 2. Changed Angle._HRD10591_15-22-27-848.txt Node
Date: Thu Jul 18 15:22:27 EDT 2019
User: cochatt
Spectrometer: HR+D1059
Trigger mode: 1
Integration Time (sec): 1.000000E-1
Scans to average: 1
Electric dark correction enabled: true
Nonlinearity correction enabled: false
Boxcar width: 0
XAxis mode: Wavelengths
Number of Pixels in Spectrum: 2048
>>>>>Begin Spectral Data<<<<<
223.165	-17.06
223.4	-17.06
223.635	-17.06
223.869	-28.06
224.104	-19.06
224.338	-7.06
224.573	-9.06
224.808	-8.06
225.042	-13.06
225.277	-17.06
225.511	1.94
225.746	3.94
225.98	-0.06
226.215	8.94
226.449	21.94
226.683	23.94
226.918	15.94
227.152	41.94
227.387	37.94
227.621	28.94
227.856	43.94
228.09	33.94
228.324	46.94
228.559	71.94
228.793	54.94
229.027	91.94
229.262	82.94
229.496	105.94
229.73	121.94
229.964	127.94
230.199	105.94
230.433	93.94
230.667	106.94
230.901	103.94
231.136	96.94
231.37	102.94
231.604	100.94
231.838	122.94
232.072	95.94
232.306	101.94
232.541	95.94
232.775	106.94
233.009	111.94
233.243	93.94
233.477	114.94
233.711	95.94
233.945	102.94
234.179	123.94
234.413	100.94
234.647	100.94
234.881	107.94
235.115	101.94
235.349	98.94
235.583	107.94
235.817	108.94
236.051	122.94
236.285	105.94
236.519	109.94
236.753	108.94
236.987	126.94
237.221	168.94
237.455	197.94
237.689	151.94
237.922	110.94
238.156	110.94
238.39	101.94
238.624	116.94
238.858	112.94
239.091	116.94
239.325	105.94
239.559	122.94
239.793	123.94
240.027	126.94
240.26	122.94
240.494	128.94
240.728	152.94
240.961	123.94
241.195	138.94
241.429	132.94
241.662	123.94
241.896	112.94
242.13	127.94
242.363	120.94
242.597	122.94
242.83	129.94
243.064	120.94
243.298	119.94
243.531	120.94
243.765	139.94
243.998	129.94
244.232	116.94
244.465	129.94
244.699	139.94
244.932	132.94
245.166	138.94
245.399	141.94
245.633	136.94
245.866	138.94
246.099	122.94
246.333	142.94
246.566	126.94
246.8	146.94
247.033	141.94
247.266	141.94
247.5	147.94
247.733	141.94
247.966	152.94
248.2	156.94
248.433	160.94
248.666	164.94
248.899	153.94
249.133	169.94
249.366	174.94
249.599	152.94
249.832	155.94
250.066	164.94
250.299	164.94
250.532	171.94
250.765	166.94
250.998	211.94
251.231	185.94
251.465	174.94
251.698	175.94
251.931	163.94
252.164	182.94
252.397	163.94
252.63	161.94
252.863	178.94
253.096	174.94
253.329	169.94
253.562	204.94
253.795	183.94
254.028	189.94
254.261	180.94
254.494	189.94
254.727	211.94
254.96	217.94
255.193	206.94
255.426	206.94
255.659	195.94
255.892	206.94
256.124	196.94
256.357	194.94
256.59	204.94
256.823	172.94
257.056	194.94
257.289	173.94
257.521	170.94
257.754	172.94
257.987	191.94
258.22	189.94
258.452	190.94
258.685	164.94
258.918	173.94
259.151	174.94
259.383	177.94
259.616	187.94
259.849	192.94
260.081	202.94
260.314	202.94
260.547	216.94
260.779	196.94
261.012	196.94
261.244	190.94
261.477	202.94
261.71	199.94
261.942	187.94
262.175	168.94
262.407	199.94
262.64	174.94
262.872	183.94
263.105	174.94
263.337	188.94
263.57	170.94
263.802	164.94
264.035	170.94
264.267	177.94
264.499	178.94
264.732	169.94
264.964	170.94
265.197	171.94
265.429	193.94
265.661	181.94
265.894	178.94
266.126	174.94
266.358	187.94
266.591	173.94
266.823	158.94
267.055	177.94
267.287	184.94
267.52	181.94
267.752	189.94
267.984	189.94
268.216	185.94
268.448	185.94
268.681	199.94
268.913	181.94
269.145	205.94
269.377	202.94
269.609	215.94
269.841	213.94
270.073	212.94
270.306	222.94
270.538	234.94
270.77	240.94
271.002	226.94
271.234	230.94
271.466	236.94
271.698	241.94
271.93	232.94
272.162	228.94
272.394	248.94
272.626	228.94
272.858	207.94
273.09	205.94
273.322	212.94
273.553	205.94
273.785	211.94
274.017	209.94
274.249	221.94
274.481	207.94
274.713	199.94
274.945	205.94
275.176	203.94
275.408	206.94
275.64	201.94
275.872	198.94
276.104	204.94
276.335	208.94
276.567	223.94
276.799	218.94
277.031	227.94
277.262	230.94
277.494	230.94
277.726	236.94
277.957	227.94
278.189	217.94
278.421	230.94
278.652	211.94
278.884	201.94
279.115	195.94
279.347	203.94
279.579	194.94
279.81	212.94
280.042	214.94
280.273	221.94
280.505	203.94
280.736	186.94
280.968	197.94
281.199	202.94
281.431	200.94
281.662	211.94
281.894	214.94
282.125	219.94
282.356	218.94
282.588	217.94
282.819	217.94
283.051	212.94
283.282	204.94
283.513	194.94
283.745	202.94
283.976	212.94
284.207	212.94
284.439	198.94
284.67	217.94
284.901	211.94
285.132	211.94
285.364	206.94
285.595	202.94
285.826	214.94
286.057	213.94
286.288	215.94
286.52	214.94
286.751	218.94
286.982	214.94
287.213	206.94
287.444	200.94
287.675	215.94
287.906	209.94
288.138	222.94
288.369	237.94
288.6	211.94
288.831	236.94
289.062	223.94
289.293	218.94
289.524	218.94
289.755	205.94
289.986	219.94
290.217	230.94
290.448	202.94
290.679	220.94
290.91	209.94
291.141	209.94
291.371	220.94
291.602	219.94
291.833	215.94
292.064	217.94
292.295	205.94
292.526	213.94
292.757	221.94
292.987	211.94
293.218	214.94
293.449	217.94
293.68	212.94
293.91	218.94
294.141	224.94
294.372	221.94
294.603	210.94
294.833	219.94
295.064	228.94
295.295	215.94
295.525	209.94
295.756	224.94
295.987	215.94
296.217	245.94
296.448	248.94
296.679	214.94
296.909	225.94
297.14	215.94
297.37	220.94
297.601	221.94
297.831	217.94
298.062	237.94
298.292	234.94
298.523	220.94
298.753	219.94
298.984	224.94
299.214	213.94
299.445	232.94
299.675	234.94
299.905	242.94
300.136	262.94
300.366	230.94
300.597	235.94
300.827	230.94
301.057	222.94
301.288	233.94
301.518	241.94
301.748	237.94
301.979	241.94
302.209	247.94
302.439	244.94
302.669	235.94
302.9	228.94
303.13	239.94
303.36	226.94
303.59	249.94
303.82	264.94
304.051	257.94
304.281	232.94
304.511	233.94
304.741	232.94
304.971	243.94
305.201	238.94
305.431	245.94
305.661	240.94
305.891	238.94
306.121	241.94
306.352	238.94
306.582	251.94
306.812	250.94
307.042	261.94
307.272	247.94
307.502	248.94
307.731	249.94
307.961	246.94
308.191	232.94
308.421	265.94
308.651	246.94
308.881	254.94
309.111	248.94
309.341	241.94
309.571	254.94
309.8	272.94
310.03	284.94
310.26	271.94
310.49	268.94
310.72	250.94
310.949	285.94
311.179	300.94
311.409	274.94
311.639	278.94
311.868	283.94
312.098	288.94
312.328	265.94
312.557	286.94
312.787	287.94
313.017	286.94
313.246	272.94
313.476	263.94
313.706	273.94
313.935	289.94
314.165	274.94
314.394	289.94
314.624	268.94
314.853	288.94
315.083	275.94
315.312	267.94
315.542	287.94
315.771	282.94
316.001	274.94
316.23	289.94
316.46	279.94
316.689	283.94
316.919	273.94
317.148	284.94
317.377	291.94
317.607	284.94
317.836	284.94
318.065	300.94
318.295	278.94
318.524	288.94
318.753	277.94
318.983	265.94
319.212	291.94
319.441	274.94
319.67	279.94
319.9	272.94
320.129	296.94
320.358	284.94
320.587	298.94
320.816	292.94
321.046	309.94
321.275	281.94
321.504	284.94
321.733	275.94
321.962	303.94
322.191	309.94
322.42	305.94
322.649	326.94
322.878	321.94
323.108	333.94
323.337	353.94
323.566	379.94
323.795	369.94
324.024	387.94
324.253	481.94
324.482	650.94
324.71	997.94
324.939	1462.94
325.168	1237.94
325.397	641.94
325.626	453.94
325.855	391.94
326.084	356.94
326.313	356.94
326.542	357.94
326.77	395.94
326.999	443.94
327.228	597.94
327.457	899.94
327.686	1095.94
327.914	737.94
328.143	480.94
328.372	431.94
328.6	402.94
328.829	413.94
329.058	385.94
329.287	406.94
329.515	385.94
329.744	351.94
329.972	340.94
330.201	346.94
330.43	364.94
330.658	401.94
330.887	399.94
331.115	419.94
331.344	380.94
331.572	350.94
331.801	369.94
332.03	349.94
332.258	342.94
332.486	352.94
332.715	325.94
332.943	320.94
333.172	327.94
333.4	338.94
333.629	330.94
333.857	322.94
334.085	335.94
334.314	338.94
334.542	368.94
334.771	373.94
334.999	346.94
335.227	347.94
335.455	322.94
335.684	319.94
335.912	346.94
336.14	326.94
336.369	326.94
336.597	323.94
336.825	324.94
337.053	352.94
337.281	339.94
337.51	318.94
337.738	332.94
337.966	317.94
338.194	332.94
338.422	336.94
338.65	337.94
338.878	327.94
339.106	317.94
339.334	317.94
339.562	308.94
339.79	323.94
340.018	332.94
340.246	312.94
340.474	314.94
340.702	314.94
340.93	314.94
341.158	324.94
341.386	319.94
341.614	309.94
341.842	324.94
342.07	317.94
342.298	316.94
342.526	343.94
342.754	314.94
342.981	321.94
343.209	305.94
343.437	336.94
343.665	328.94
343.893	314.94
344.12	325.94
344.348	340.94
344.576	341.94
344.804	331.94
345.031	333.94
345.259	342.94
345.487	327.94
345.714	329.94
345.942	329.94
346.17	311.94
346.397	308.94
346.625	305.94
346.853	310.94
347.08	324.94
347.308	307.94
347.535	324.94
347.763	327.94
347.99	323.94
348.218	322.94
348.445	322.94
348.673	323.94
348.9	313.94
349.128	317.94
349.355	322.94
349.583	302.94
349.81	316.94
350.037	309.94
350.265	307.94
350.492	301.94
350.72	303.94
350.947	300.94
351.174	323.94
351.402	339.94
351.629	321.94
351.856	315.94
352.083	307.94
352.311	333.94
352.538	328.94
352.765	317.94
352.992	347.94
353.22	330.94
353.447	315.94
353.674	311.94
353.901	311.94
354.128	307.94
354.355	305.94
354.583	315.94
354.81	315.94
355.037	316.94
355.264	308.94
355.491	305.94
355.718	302.94
355.945	299.94
356.172	296.94
356.399	310.94
356.626	310.94
356.853	299.94
357.08	313.94
357.307	311.94
357.534	295.94
357.761	297.94
357.988	306.94
358.215	311.94
358.441	327.94
358.668	327.94
358.895	325.94
359.122	321.94
359.349	335.94
359.576	339.94
359.802	328.94
360.029	367.94
360.256	377.94
360.483	344.94
360.709	348.94
360.936	342.94
361.163	313.94
361.39	298.94
361.616	318.94
361.843	333.94
362.07	333.94
362.296	314.94
362.523	314.94
362.749	321.94
362.976	338.94
363.203	350.94
363.429	316.94
363.656	312.94
363.882	319.94
364.109	332.94
364.335	324.94
364.562	330.94
364.788	319.94
365.015	323.94
365.241	322.94
365.468	314.94
365.694	342.94
365.92	324.94
366.147	321.94
366.373	314.94
366.599	302.94
366.826	313.94
367.052	324.94
367.278	311.94
367.505	310.94
367.731	316.94
367.957	329.94
368.184	328.94
368.41	316.94
368.636	335.94
368.862	325.94
369.089	324.94
369.315	332.94
369.541	326.94
369.767	343.94
369.993	314.94
370.219	311.94
370.445	360.94
370.672	322.94
370.898	321.94
371.124	337.94
371.35	284.94
371.576	313.94
371.802	327.94
372.028	323.94
372.254	321.94
372.48	336.94
372.706	326.94
372.932	330.94
373.158	321.94
373.384	325.94
373.61	322.94
373.835	341.94
374.061	326.94
374.287	338.94
374.513	316.94
374.739	346.94
374.965	334.94
375.191	338.94
375.416	339.94
375.642	327.94
375.868	327.94
376.094	326.94
376.319	360.94
376.545	341.94
376.771	332.94
376.997	314.94
377.222	334.94
377.448	331.94
377.674	339.94
377.899	317.94
378.125	331.94
378.35	333.94
378.576	359.94
378.802	329.94
379.027	325.94
379.253	319.94
379.478	313.94
379.704	344.94
379.929	328.94
380.155	334.94
380.38	343.94
380.606	339.94
380.831	324.94
381.057	332.94
381.282	342.94
381.507	330.94
381.733	327.94
381.958	331.94
382.184	337.94
382.409	346.94
382.634	335.94
382.86	335.94
383.085	338.94
383.31	351.94
383.535	364.94
383.761	337.94
383.986	353.94
384.211	329.94
384.436	342.94
384.662	355.94
384.887	360.94
385.112	357.94
385.337	372.94
385.562	359.94
385.787	362.94
386.013	375.94
386.238	350.94
386.463	365.94
386.688	358.94
386.913	347.94
387.138	373.94
387.363	362.94
387.588	366.94
387.813	358.94
388.038	353.94
388.263	352.94
388.488	350.94
388.713	364.94
388.938	372.94
389.163	362.94
389.387	377.94
389.612	364.94
389.837	347.94
390.062	371.94
390.287	357.94
390.512	373.94
390.736	362.94
390.961	348.94
391.186	363.94
391.411	374.94
391.636	373.94
391.86	375.94
392.085	371.94
392.31	398.94
392.534	384.94
392.759	377.94
392.984	362.94
393.208	398.94
393.433	485.94
393.658	531.94
393.882	408.94
394.107	380.94
394.331	385.94
394.556	348.94
394.78	363.94
395.005	366.94
395.229	375.94
395.454	373.94
395.678	365.94
395.903	369.94
396.127	427.94
396.352	405.94
396.576	404.94
396.801	450.94
397.025	451.94
397.249	424.94
397.474	403.94
397.698	373.94
397.922	397.94
398.147	400.94
398.371	401.94
398.595	407.94
398.82	383.94
399.044	404.94
399.268	424.94
399.492	446.94
399.717	460.94
399.941	480.94
400.165	484.94
400.389	490.94
400.613	470.94
400.837	437.94
401.062	449.94
401.286	419.94
401.51	411.94
401.734	391.94
401.958	419.94
402.182	409.94
402.406	427.94
402.63	421.94
402.854	427.94
403.078	410.94
403.302	417.94
403.526	417.94
403.75	428.94
403.974	419.94
404.198	417.94
404.422	413.94
404.645	410.94
404.869	429.94
405.093	439.94
405.317	468.94
405.541	501.94
405.765	461.94
405.988	435.94
406.212	457.94
406.436	464.94
406.66	473.94
406.883	460.94
407.107	502.94
407.331	533.94
407.555	551.94
407.778	565.94
408.002	514.94
408.226	487.94
408.449	479.94
408.673	468.94
408.896	499.94
409.12	538.94
409.344	504.94
409.567	470.94
409.791	437.94
410.014	437.94
410.238	422.94
410.461	446.94
410.685	450.94
410.908	447.94
411.132	473.94
411.355	504.94
411.578	478.94
411.802	462.94
412.025	408.94
412.249	434.94
412.472	422.94
412.695	460.94
412.919	457.94
413.142	428.94
413.365	445.94
413.589	390.94
413.812	426.94
414.035	419.94
414.258	405.94
414.482	423.94
414.705	408.94
414.928	408.94
415.151	398.94
415.374	413.94
415.597	411.94
415.821	409.94
416.044	411.94
416.267	434.94
416.49	413.94
416.713	400.94
416.936	389.94
417.159	405.94
417.382	413.94
417.605	417.94
417.828	422.94
418.051	421.94
418.274	426.94
418.497	418.94
418.72	422.94
418.943	414.94
419.166	413.94
419.389	443.94
419.611	454.94
419.834	438.94
420.057	442.94
420.28	420.94
420.503	422.94
420.726	436.94
420.948	433.94
421.171	465.94
421.394	499.94
421.617	463.94
421.839	447.94
422.062	440.94
422.285	459.94
422.507	492.94
422.73	584.94
422.953	562.94
423.175	451.94
423.398	455.94
423.621	430.94
423.843	453.94
424.066	464.94
424.288	462.94
424.511	485.94
424.733	557.94
424.956	585.94
425.178	566.94
425.401	576.94
425.623	594.94
425.846	514.94
426.068	473.94
426.291	461.94
426.513	478.94
426.735	476.94
426.958	502.94
427.18	586.94
427.402	673.94
427.625	735.94
427.847	669.94
428.069	545.94
428.292	494.94
428.514	469.94
428.736	461.94
428.958	463.94
429.181	427.94
429.403	441.94
429.625	443.94
429.847	455.94
430.069	517.94
430.292	532.94
430.514	460.94
430.736	429.94
430.958	428.94
431.18	428.94
431.402	422.94
431.624	418.94
431.846	401.94
432.068	417.94
432.29	411.94
432.512	417.94
432.734	409.94
432.956	432.94
433.178	417.94
433.4	435.94
433.622	419.94
433.844	424.94
434.066	439.94
434.287	418.94
434.509	414.94
434.731	425.94
434.953	433.94
435.175	433.94
435.397	466.94
435.618	461.94
435.84	500.94
436.062	581.94
436.284	605.94
436.505	541.94
436.727	497.94
436.949	449.94
437.17	449.94
437.392	442.94
437.614	453.94
437.835	471.94
438.057	550.94
438.278	646.94
438.5	659.94
438.721	697.94
438.943	666.94
439.165	555.94
439.386	485.94
439.608	490.94
439.829	492.94
440.05	507.94
440.272	525.94
440.493	514.94
440.715	470.94
440.936	455.94
441.158	450.94
441.379	454.94
441.6	459.94
441.822	498.94
442.043	499.94
442.264	567.94
442.486	604.94
442.707	536.94
442.928	488.94
443.149	467.94
443.371	486.94
443.592	550.94
443.813	615.94
444.034	636.94
444.255	551.94
444.476	489.94
444.698	491.94
444.919	475.94
445.14	555.94
445.361	519.94
445.582	517.94
445.803	543.94
446.024	621.94
446.245	648.94
446.466	577.94
446.687	523.94
446.908	483.94
447.129	457.94
447.35	439.94
447.571	457.94
447.792	453.94
448.013	452.94
448.234	438.94
448.455	512.94
448.675	592.94
448.896	697.94
449.117	590.94
449.338	554.94
449.559	641.94
449.779	719.94
450	547.94
450.221	485.94
450.442	463.94
450.662	419.94
450.883	435.94
451.104	438.94
451.324	441.94
451.545	421.94
451.766	403.94
451.986	396.94
452.207	405.94
452.428	397.94
452.648	417.94
452.869	398.94
453.089	404.94
453.31	408.94
453.53	396.94
453.751	390.94
453.971	386.94
454.192	403.94
454.412	390.94
454.633	385.94
454.853	387.94
455.073	381.94
455.294	422.94
455.514	453.94
455.734	459.94
455.955	397.94
456.175	381.94
456.395	399.94
456.616	379.94
456.836	369.94
457.056	374.94
457.276	379.94
457.497	362.94
457.717	373.94
457.937	385.94
458.157	390.94
458.377	394.94
458.598	386.94
458.818	456.94
459.038	488.94
459.258	510.94
459.478	448.94
459.698	413.94
459.918	407.94
460.138	416.94
460.358	427.94
460.578	429.94
460.798	427.94
461.018	436.94
461.238	428.94
461.458	416.94
461.678	398.94
461.898	422.94
462.118	425.94
462.338	440.94
462.558	449.94
462.777	455.94
462.997	453.94
463.217	458.94
463.437	451.94
463.657	459.94
463.876	440.94
464.096	443.94
464.316	447.94
464.536	449.94
464.755	458.94
464.975	445.94
465.195	484.94
465.414	510.94
465.634	468.94
465.854	444.94
466.073	440.94
466.293	422.94
466.512	403.94
466.732	397.94
466.951	406.94
467.171	412.94
467.391	405.94
467.61	411.94
467.829	443.94
468.049	410.94
468.268	430.94
468.488	429.94
468.707	414.94
468.927	415.94
469.146	400.94
469.365	424.94
469.585	409.94
469.804	407.94
470.023	413.94
470.243	409.94
470.462	437.94
470.681	424.94
470.901	413.94
471.12	424.94
471.339	420.94
471.558	421.94
471.777	446.94
471.997	398.94
472.216	423.94
472.435	425.94
472.654	418.94
472.873	403.94
473.092	413.94
473.311	398.94
473.53	421.94
473.749	401.94
473.968	464.94
474.187	519.94
474.406	537.94
474.625	469.94
474.844	440.94
475.063	436.94
475.282	437.94
475.501	408.94
475.72	408.94
475.939	414.94
476.158	412.94
476.377	420.94
476.596	427.94
476.814	436.94
477.033	429.94
477.252	457.94
477.471	444.94
477.69	461.94
477.908	459.94
478.127	467.94
478.346	439.94
478.564	462.94
478.783	469.94
479.002	459.94
479.22	470.94
479.439	482.94
479.658	492.94
479.876	500.94
480.095	498.94
480.313	515.94
480.532	526.94
480.751	494.94
480.969	496.94
481.188	521.94
481.406	544.94
481.624	519.94
481.843	509.94
482.061	505.94
482.28	499.94
482.498	525.94
482.717	486.94
482.935	495.94
483.153	494.94
483.372	498.94
483.59	486.94
483.808	482.94
484.027	514.94
484.245	514.94
484.463	491.94
484.681	502.94
484.9	492.94
485.118	513.94
485.336	504.94
485.554	514.94
485.772	509.94
485.99	492.94
486.209	501.94
486.427	491.94
486.645	541.94
486.863	536.94
487.081	508.94
487.299	550.94
487.517	536.94
487.735	536.94
487.953	516.94
488.171	568.94
488.389	545.94
488.607	538.94
488.825	530.94
489.043	522.94
489.261	531.94
489.479	540.94
489.696	546.94
489.914	544.94
490.132	539.94
490.35	573.94
490.568	582.94
490.786	575.94
491.003	588.94
491.221	590.94
491.439	599.94
491.657	602.94
491.874	599.94
492.092	620.94
492.31	622.94
492.527	618.94
492.745	616.94
492.963	610.94
493.18	609.94
493.398	629.94
493.615	628.94
493.833	620.94
494.05	599.94
494.268	618.94
494.485	620.94
494.703	622.94
494.92	643.94
495.138	627.94
495.355	637.94
495.573	648.94
495.79	627.94
496.008	632.94
496.225	644.94
496.442	643.94
496.66	629.94
496.877	646.94
497.094	655.94
497.312	633.94
497.529	653.94
497.746	670.94
497.963	667.94
498.181	669.94
498.398	698.94
498.615	689.94
498.832	675.94
499.049	725.94
499.267	723.94
499.484	734.94
499.701	760.94
499.918	771.94
500.135	826.94
500.352	847.94
500.569	833.94
500.786	823.94
501.003	841.94
501.22	821.94
501.437	792.94
501.654	776.94
501.871	781.94
502.088	783.94
502.305	746.94
502.522	730.94
502.739	715.94
502.956	682.94
503.172	678.94
503.389	690.94
503.606	664.94
503.823	679.94
504.04	652.94
504.256	664.94
504.473	625.94
504.69	633.94
504.907	641.94
505.123	639.94
505.34	616.94
505.557	579.94
505.773	619.94
505.99	604.94
506.207	586.94
506.423	591.94
506.64	583.94
506.856	613.94
507.073	582.94
507.289	583.94
507.506	613.94
507.722	605.94
507.939	609.94
508.155	600.94
508.372	566.94
508.588	577.94
508.805	606.94
509.021	575.94
509.238	591.94
509.454	594.94
509.67	596.94
509.887	582.94
510.103	567.94
510.319	594.94
510.536	639.94
510.752	966.94
510.968	787.94
511.184	577.94
511.401	575.94
511.617	570.94
511.833	547.94
512.049	533.94
512.265	539.94
512.481	540.94
512.698	550.94
512.914	520.94
513.13	535.94
513.346	534.94
513.562	545.94
513.778	549.94
513.994	548.94
514.21	557.94
514.426	556.94
514.642	593.94
514.858	614.94
515.074	607.94
515.29	738.94
515.506	1032.94
515.721	872.94
515.937	618.94
516.153	598.94
516.369	573.94
516.585	546.94
516.801	557.94
517.016	557.94
517.232	564.94
517.448	556.94
517.664	567.94
517.879	573.94
518.095	571.94
518.311	548.94
518.527	539.94
518.742	537.94
518.958	547.94
519.173	553.94
519.389	553.94
519.605	522.94
519.82	515.94
520.036	556.94
520.251	591.94
520.467	569.94
520.682	602.94
520.898	578.94
521.113	590.94
521.329	608.94
521.544	681.94
521.76	828.94
521.975	1277.94
522.19	1278.94
522.406	747.94
522.621	569.94
522.836	575.94
523.052	533.94
523.267	514.94
523.482	519.94
523.698	520.94
523.913	497.94
524.128	525.94
524.343	514.94
524.559	488.94
524.774	481.94
524.989	500.94
525.204	477.94
525.419	490.94
525.634	470.94
525.849	476.94
526.064	464.94
526.28	457.94
526.495	464.94
526.71	459.94
526.925	449.94
527.14	434.94
527.355	448.94
527.57	449.94
527.785	462.94
527.999	462.94
528.214	458.94
528.429	457.94
528.644	450.94
528.859	457.94
529.074	454.94
529.289	454.94
529.503	518.94
529.718	500.94
529.933	474.94
530.148	457.94
530.363	441.94
530.577	451.94
530.792	447.94
531.007	457.94
531.221	452.94
531.436	439.94
531.651	429.94
531.865	418.94
532.08	419.94
532.295	434.94
532.509	441.94
532.724	435.94
532.938	430.94
533.153	423.94
533.367	435.94
533.582	438.94
533.796	455.94
534.011	431.94
534.225	428.94
534.44	436.94
534.654	426.94
534.868	439.94
535.083	418.94
535.297	443.94
535.511	420.94
535.726	449.94
535.94	426.94
536.154	438.94
536.369	427.94
536.583	428.94
536.797	425.94
537.011	422.94
537.225	416.94
537.44	415.94
537.654	427.94
537.868	419.94
538.082	396.94
538.296	424.94
538.51	418.94
538.724	420.94
538.938	411.94
539.153	424.94
539.367	430.94
539.581	438.94
539.795	428.94
540.009	387.94
540.222	436.94
540.436	418.94
540.65	405.94
540.864	411.94
541.078	427.94
541.292	429.94
541.506	427.94
541.72	436.94
541.934	426.94
542.147	429.94
542.361	448.94
542.575	442.94
542.789	433.94
543.002	434.94
543.216	398.94
543.43	423.94
543.644	421.94
543.857	428.94
544.071	426.94
544.285	430.94
544.498	423.94
544.712	439.94
544.925	438.94
545.139	438.94
545.352	405.94
545.566	397.94
545.779	425.94
545.993	431.94
546.206	444.94
546.42	430.94
546.633	414.94
546.847	421.94
547.06	430.94
547.274	413.94
547.487	424.94
547.7	419.94
547.914	403.94
548.127	414.94
548.34	415.94
548.554	399.94
548.767	418.94
548.98	418.94
549.193	419.94
549.407	405.94
549.62	413.94
549.833	418.94
550.046	397.94
550.259	417.94
550.473	409.94
550.686	410.94
550.899	405.94
551.112	407.94
551.325	413.94
551.538	414.94
551.751	399.94
551.964	399.94
552.177	396.94
552.39	388.94
552.603	413.94
552.816	426.94
553.029	415.94
553.242	421.94
553.455	419.94
553.667	433.94
553.88	420.94
554.093	437.94
554.306	402.94
554.519	401.94
554.732	402.94
554.944	392.94
555.157	380.94
555.37	404.94
555.583	395.94
555.795	393.94
556.008	379.94
556.221	389.94
556.433	391.94
556.646	393.94
556.859	388.94
557.071	384.94
557.284	385.94
557.496	365.94
557.709	389.94
557.921	381.94
558.134	359.94
558.346	355.94
558.559	364.94
558.771	360.94
558.984	361.94
559.196	381.94
559.409	362.94
559.621	374.94
559.833	377.94
560.046	366.94
560.258	379.94
560.47	389.94
560.683	372.94
560.895	366.94
561.107	369.94
561.32	375.94
561.532	365.94
561.744	351.94
561.956	360.94
562.168	366.94
562.381	347.94
562.593	356.94
562.805	363.94
563.017	372.94
563.229	361.94
563.441	361.94
563.653	382.94
563.865	379.94
564.077	367.94
564.289	348.94
564.501	367.94
564.713	377.94
564.925	381.94
565.137	391.94
565.349	396.94
565.561	406.94
565.773	407.94
565.985	385.94
566.197	411.94
566.408	406.94
566.62	410.94
566.832	413.94
567.044	420.94
567.255	430.94
567.467	407.94
567.679	421.94
567.891	451.94
568.102	450.94
568.314	423.94
568.526	391.94
568.737	401.94
568.949	394.94
569.161	360.94
569.372	393.94
569.584	379.94
569.795	370.94
570.007	377.94
570.218	414.94
570.43	403.94
570.641	346.94
570.853	362.94
571.064	353.94
571.276	366.94
571.487	339.94
571.698	329.94
571.91	352.94
572.121	348.94
572.333	345.94
572.544	332.94
572.755	329.94
572.966	337.94
573.178	340.94
573.389	339.94
573.6	317.94
573.811	317.94
574.023	311.94
574.234	301.94
574.445	327.94
574.656	316.94
574.867	326.94
575.078	302.94
575.289	314.94
575.501	303.94
575.712	329.94
575.923	319.94
576.134	297.94
576.345	305.94
576.556	309.94
576.767	298.94
576.978	311.94
577.188	308.94
577.399	313.94
577.61	292.94
577.821	305.94
578.032	318.94
578.243	306.94
578.454	469.94
578.665	403.94
578.875	310.94
579.086	295.94
579.297	294.94
579.508	306.94
579.718	287.94
579.929	290.94
580.14	283.94
580.35	260.94
580.561	271.94
580.772	290.94
580.982	301.94
581.193	300.94
581.403	284.94
581.614	293.94
581.825	295.94
582.035	274.94
582.246	284.94
582.456	307.94
582.667	300.94
582.877	282.94
583.087	263.94
583.298	286.94
583.508	286.94
583.719	270.94
583.929	277.94
584.139	272.94
584.35	278.94
584.56	297.94
584.77	293.94
584.981	286.94
585.191	285.94
585.401	279.94
585.611	290.94
585.821	285.94
586.032	283.94
586.242	283.94
586.452	268.94
586.662	286.94
586.872	260.94
587.082	272.94
587.292	292.94
587.502	277.94
587.713	301.94
587.923	287.94
588.133	263.94
588.343	277.94
588.553	283.94
588.762	280.94
588.972	277.94
589.182	290.94
589.392	289.94
589.602	274.94
589.812	292.94
590.022	293.94
590.232	269.94
590.441	271.94
590.651	276.94
590.861	271.94
591.071	275.94
591.281	281.94
591.49	273.94
591.7	273.94
591.91	293.94
592.119	280.94
592.329	291.94
592.539	287.94
592.748	285.94
592.958	254.94
593.167	285.94
593.377	295.94
593.587	297.94
593.796	282.94
594.006	285.94
594.215	281.94
594.424	277.94
594.634	296.94
594.843	282.94
595.053	283.94
595.262	301.94
595.472	274.94
595.681	282.94
595.89	274.94
596.1	273.94
596.309	271.94
596.518	275.94
596.727	271.94
596.937	286.94
597.146	263.94
597.355	266.94
597.564	259.94
597.774	263.94
597.983	250.94
598.192	252.94
598.401	244.94
598.61	262.94
598.819	246.94
599.028	260.94
599.237	247.94
599.446	263.94
599.655	253.94
599.864	248.94
600.073	232.94
600.282	241.94
600.491	242.94
600.7	237.94
600.909	252.94
601.118	246.94
601.327	238.94
601.536	239.94
601.745	250.94
601.953	234.94
602.162	236.94
602.371	247.94
602.58	259.94
602.789	239.94
602.997	240.94
603.206	243.94
603.415	258.94
603.623	241.94
603.832	234.94
604.041	231.94
604.249	246.94
604.458	234.94
604.666	247.94
604.875	231.94
605.084	244.94
605.292	222.94
605.501	249.94
605.709	230.94
605.918	237.94
606.126	217.94
606.334	220.94
606.543	230.94
606.751	258.94
606.96	239.94
607.168	235.94
607.376	236.94
607.585	238.94
607.793	248.94
608.001	225.94
608.21	228.94
608.418	237.94
608.626	238.94
608.834	224.94
609.043	215.94
609.251	244.94
609.459	226.94
609.667	236.94
609.875	238.94
610.083	237.94
610.291	232.94
610.499	226.94
610.707	245.94
610.916	234.94
611.124	238.94
611.332	245.94
611.54	236.94
611.748	237.94
611.955	236.94
612.163	236.94
612.371	246.94
612.579	243.94
612.787	241.94
612.995	241.94
613.203	222.94
613.411	228.94
613.618	235.94
613.826	229.94
614.034	242.94
614.242	223.94
614.449	222.94
614.657	236.94
614.865	224.94
615.072	229.94
615.28	256.94
615.488	239.94
615.695	213.94
615.903	221.94
616.111	223.94
616.318	225.94
616.526	229.94
616.733	230.94
616.941	222.94
617.148	233.94
617.356	226.94
617.563	231.94
617.771	232.94
617.978	219.94
618.185	225.94
618.393	217.94
618.6	224.94
618.807	234.94
619.015	231.94
619.222	207.94
619.429	202.94
619.637	222.94
619.844	210.94
620.051	221.94
620.258	213.94
620.466	210.94
620.673	208.94
620.88	218.94
621.087	220.94
621.294	223.94
621.501	215.94
621.708	231.94
621.915	237.94
622.122	222.94
622.329	213.94
622.536	222.94
622.743	221.94
622.95	221.94
623.157	215.94
623.364	208.94
623.571	222.94
623.778	226.94
623.985	215.94
624.192	221.94
624.399	223.94
624.606	214.94
624.812	205.94
625.019	217.94
625.226	208.94
625.433	210.94
625.639	207.94
625.846	210.94
626.053	193.94
626.259	195.94
626.466	201.94
626.673	199.94
626.879	197.94
627.086	193.94
627.293	210.94
627.499	217.94
627.706	194.94
627.912	209.94
628.119	196.94
628.325	188.94
628.532	198.94
628.738	184.94
628.945	187.94
629.151	202.94
629.357	196.94
629.564	189.94
629.77	193.94
629.976	191.94
630.183	202.94
630.389	202.94
630.595	197.94
630.802	193.94
631.008	190.94
631.214	185.94
631.42	188.94
631.627	197.94
631.833	187.94
632.039	179.94
632.245	182.94
632.451	190.94
632.657	196.94
632.863	177.94
633.069	186.94
633.275	189.94
633.481	195.94
633.688	193.94
633.893	188.94
634.099	188.94
634.305	188.94
634.511	173.94
634.717	183.94
634.923	175.94
635.129	189.94
635.335	185.94
635.541	172.94
635.747	172.94
635.952	169.94
636.158	188.94
636.364	188.94
636.57	178.94
636.775	182.94
636.981	165.94
637.187	180.94
637.392	172.94
637.598	179.94
637.804	187.94
638.009	185.94
638.215	171.94
638.421	188.94
638.626	177.94
638.832	180.94
639.037	170.94
639.243	186.94
639.448	177.94
639.654	171.94
639.859	191.94
640.065	187.94
640.27	166.94
640.475	189.94
640.681	179.94
640.886	174.94
641.091	177.94
641.297	195.94
641.502	157.94
641.707	170.94
641.913	175.94
642.118	168.94
642.323	173.94
642.528	177.94
642.733	168.94
642.939	177.94
643.144	187.94
643.349	174.94
643.554	175.94
643.759	163.94
643.964	161.94
644.169	156.94
644.374	169.94
644.579	159.94
644.784	174.94
644.989	170.94
645.194	153.94
645.399	147.94
645.604	160.94
645.809	161.94
646.014	150.94
646.219	166.94
646.423	156.94
646.628	165.94
646.833	160.94
647.038	169.94
647.243	168.94
647.447	165.94
647.652	159.94
647.857	152.94
648.062	179.94
648.266	163.94
648.471	156.94
648.676	175.94
648.88	163.94
649.085	175.94
649.289	165.94
649.494	153.94
649.698	178.94
649.903	170.94
650.107	167.94
650.312	179.94
650.516	147.94
650.721	169.94
650.925	159.94
651.13	145.94
651.334	149.94
651.539	152.94
651.743	152.94
651.947	165.94
652.152	138.94
652.356	137.94
652.56	146.94
652.764	157.94
652.969	153.94
653.173	149.94
653.377	141.94
653.581	157.94
653.785	124.94
653.99	139.94
654.194	150.94
654.398	135.94
654.602	133.94
654.806	142.94
655.01	137.94
655.214	122.94
655.418	136.94
655.622	142.94
655.826	143.94
656.03	138.94
656.234	147.94
656.438	135.94
656.642	136.94
656.846	129.94
657.049	134.94
657.253	124.94
657.457	127.94
657.661	123.94
657.865	111.94
658.068	94.94
658.272	122.94
658.476	117.94
658.68	93.94
658.883	118.94
659.087	105.94
659.291	91.94
659.494	103.94
659.698	99.94
659.901	100.94
660.105	86.94
660.309	92.94
660.512	95.94
660.716	87.94
660.919	108.94
661.123	84.94
661.326	95.94
661.53	99.94
661.733	84.94
661.936	77.94
662.14	73.94
662.343	87.94
662.546	86.94
662.75	89.94
662.953	85.94
663.156	101.94
663.36	86.94
663.563	79.94
663.766	87.94
663.969	92.94
664.173	77.94
664.376	102.94
664.579	86.94
664.782	89.94
664.985	69.94
665.188	84.94
665.391	88.94
665.594	76.94
665.797	81.94
666	81.94
666.203	82.94
666.406	87.94
666.609	88.94
666.812	98.94
667.015	87.94
667.218	97.94
667.421	95.94
667.624	89.94
667.827	85.94
668.03	91.94
668.232	76.94
668.435	80.94
668.638	76.94
668.841	99.94
669.043	83.94
669.246	82.94
669.449	79.94
669.651	92.94
669.854	95.94
670.057	81.94
670.259	82.94
670.462	78.94
670.665	100.94
670.867	89.94
671.07	92.94
671.272	75.94
671.475	75.94
671.677	88.94
671.88	87.94
672.082	90.94
672.284	88.94
672.487	75.94
672.689	85.94
672.892	83.94
