Data from 1972.PennyLincolnUp.Lamp.En5.5.200Scan.071719.P1._HRD10591_15-29-41-844.txt Node
Date: Thu Jul 18 15:29:41 EDT 2019
User: cochatt
Spectrometer: HR+D1059
Trigger mode: 1
Integration Time (sec): 1.000000E-1
Scans to average: 1
Electric dark correction enabled: true
Nonlinearity correction enabled: false
Boxcar width: 0
XAxis mode: Wavelengths
Number of Pixels in Spectrum: 2048
>>>>>Begin Spectral Data<<<<<
223.165	-14.75
223.4	-14.75
223.635	-14.75
223.869	-23.75
224.104	-7.75
224.338	-16.75
224.573	-13.75
224.808	-2.75
225.042	-7.75
225.277	-21.75
225.511	6.25
225.746	3.25
225.98	-1.75
226.215	9.25
226.449	18.25
226.683	22.25
226.918	22.25
227.152	29.25
227.387	42.25
227.621	35.25
227.856	31.25
228.09	44.25
228.324	45.25
228.559	56.25
228.793	70.25
229.027	105.25
229.262	107.25
229.496	137.25
229.73	141.25
229.964	189.25
230.199	136.25
230.433	109.25
230.667	123.25
230.901	121.25
231.136	123.25
231.37	118.25
231.604	116.25
231.838	125.25
232.072	125.25
232.306	107.25
232.541	121.25
232.775	117.25
233.009	135.25
233.243	114.25
233.477	124.25
233.711	123.25
233.945	111.25
234.179	121.25
234.413	127.25
234.647	117.25
234.881	129.25
235.115	123.25
235.349	137.25
235.583	130.25
235.817	128.25
236.051	132.25
236.285	129.25
236.519	127.25
236.753	135.25
236.987	155.25
237.221	215.25
237.455	266.25
237.689	226.25
237.922	165.25
238.156	149.25
238.39	142.25
238.624	126.25
238.858	124.25
239.091	128.25
239.325	126.25
239.559	139.25
239.793	155.25
240.027	134.25
240.26	163.25
240.494	182.25
240.728	165.25
240.961	166.25
241.195	169.25
241.429	143.25
241.662	142.25
241.896	146.25
242.13	155.25
242.363	141.25
242.597	152.25
242.83	159.25
243.064	144.25
243.298	141.25
243.531	162.25
243.765	140.25
243.998	158.25
244.232	137.25
244.465	163.25
244.699	144.25
244.932	148.25
245.166	169.25
245.399	155.25
245.633	161.25
245.866	140.25
246.099	155.25
246.333	146.25
246.566	144.25
246.8	157.25
247.033	157.25
247.266	169.25
247.5	183.25
247.733	193.25
247.966	183.25
248.2	174.25
248.433	184.25
248.666	184.25
248.899	187.25
249.133	209.25
249.366	208.25
249.599	219.25
249.832	195.25
250.066	191.25
250.299	201.25
250.532	196.25
250.765	229.25
250.998	243.25
251.231	243.25
251.465	219.25
251.698	211.25
251.931	219.25
252.164	239.25
252.397	219.25
252.63	228.25
252.863	223.25
253.096	219.25
253.329	254.25
253.562	230.25
253.795	233.25
254.028	239.25
254.261	230.25
254.494	250.25
254.727	277.25
254.96	321.25
255.193	293.25
255.426	283.25
255.659	263.25
255.892	255.25
256.124	249.25
256.357	250.25
256.59	251.25
256.823	234.25
257.056	238.25
257.289	219.25
257.521	234.25
257.754	248.25
257.987	214.25
258.22	234.25
258.452	222.25
258.685	233.25
258.918	216.25
259.151	236.25
259.383	230.25
259.616	231.25
259.849	250.25
260.081	245.25
260.314	283.25
260.547	290.25
260.779	266.25
261.012	253.25
261.244	249.25
261.477	236.25
261.71	229.25
261.942	241.25
262.175	267.25
262.407	248.25
262.64	227.25
262.872	245.25
263.105	202.25
263.337	226.25
263.57	238.25
263.802	219.25
264.035	233.25
264.267	223.25
264.499	229.25
264.732	228.25
264.964	224.25
265.197	223.25
265.429	225.25
265.661	232.25
265.894	225.25
266.126	217.25
266.358	221.25
266.591	231.25
266.823	229.25
267.055	220.25
267.287	245.25
267.52	245.25
267.752	231.25
267.984	231.25
268.216	237.25
268.448	259.25
268.681	247.25
268.913	262.25
269.145	274.25
269.377	306.25
269.609	293.25
269.841	296.25
270.073	288.25
270.306	313.25
270.538	350.25
270.77	362.25
271.002	333.25
271.234	329.25
271.466	331.25
271.698	349.25
271.93	360.25
272.162	356.25
272.394	361.25
272.626	358.25
272.858	318.25
273.09	325.25
273.322	299.25
273.553	292.25
273.785	292.25
274.017	271.25
274.249	283.25
274.481	292.25
274.713	288.25
274.945	304.25
275.176	273.25
275.408	281.25
275.64	276.25
275.872	280.25
276.104	289.25
276.335	277.25
276.567	289.25
276.799	313.25
277.031	334.25
277.262	341.25
277.494	353.25
277.726	339.25
277.957	334.25
278.189	309.25
278.421	290.25
278.652	293.25
278.884	298.25
279.115	300.25
279.347	288.25
279.579	270.25
279.81	271.25
280.042	273.25
280.273	287.25
280.505	269.25
280.736	291.25
280.968	278.25
281.199	272.25
281.431	271.25
281.662	254.25
281.894	286.25
282.125	268.25
282.356	317.25
282.588	354.25
282.819	341.25
283.051	315.25
283.282	279.25
283.513	288.25
283.745	278.25
283.976	290.25
284.207	282.25
284.439	298.25
284.67	285.25
284.901	306.25
285.132	266.25
285.364	273.25
285.595	266.25
285.826	295.25
286.057	271.25
286.288	288.25
286.52	295.25
286.751	280.25
286.982	286.25
287.213	295.25
287.444	279.25
287.675	287.25
287.906	311.25
288.138	302.25
288.369	309.25
288.6	321.25
288.831	297.25
289.062	320.25
289.293	295.25
289.524	298.25
289.755	297.25
289.986	290.25
290.217	282.25
290.448	294.25
290.679	282.25
290.91	287.25
291.141	298.25
291.371	295.25
291.602	301.25
291.833	280.25
292.064	294.25
292.295	302.25
292.526	292.25
292.757	296.25
292.987	288.25
293.218	291.25
293.449	293.25
293.68	291.25
293.91	289.25
294.141	286.25
294.372	273.25
294.603	287.25
294.833	305.25
295.064	297.25
295.295	307.25
295.525	305.25
295.756	306.25
295.987	324.25
296.217	338.25
296.448	362.25
296.679	293.25
296.909	289.25
297.14	307.25
297.37	297.25
297.601	304.25
297.831	314.25
298.062	299.25
298.292	294.25
298.523	301.25
298.753	303.25
298.984	314.25
299.214	305.25
299.445	302.25
299.675	336.25
299.905	313.25
300.136	313.25
300.366	319.25
300.597	302.25
300.827	316.25
301.057	336.25
301.288	335.25
301.518	337.25
301.748	313.25
301.979	329.25
302.209	354.25
302.439	337.25
302.669	335.25
302.9	318.25
303.13	335.25
303.36	334.25
303.59	364.25
303.82	342.25
304.051	333.25
304.281	334.25
304.511	318.25
304.741	330.25
304.971	325.25
305.201	325.25
305.431	332.25
305.661	333.25
305.891	330.25
306.121	326.25
306.352	325.25
306.582	343.25
306.812	344.25
307.042	331.25
307.272	340.25
307.502	335.25
307.731	336.25
307.961	336.25
308.191	344.25
308.421	330.25
308.651	333.25
308.881	337.25
309.111	356.25
309.341	356.25
309.571	359.25
309.8	371.25
310.03	388.25
310.26	413.25
310.49	407.25
310.72	430.25
310.949	421.25
311.179	441.25
311.409	393.25
311.639	384.25
311.868	379.25
312.098	385.25
312.328	403.25
312.557	409.25
312.787	443.25
313.017	429.25
313.246	411.25
313.476	395.25
313.706	382.25
313.935	389.25
314.165	418.25
314.394	439.25
314.624	393.25
314.853	400.25
315.083	394.25
315.312	373.25
315.542	385.25
315.771	380.25
316.001	376.25
316.23	366.25
316.46	370.25
316.689	393.25
316.919	378.25
317.148	421.25
317.377	421.25
317.607	405.25
317.836	405.25
318.065	402.25
318.295	399.25
318.524	381.25
318.753	401.25
318.983	379.25
319.212	390.25
319.441	398.25
319.67	431.25
319.9	390.25
320.129	379.25
320.358	396.25
320.587	422.25
320.816	420.25
321.046	432.25
321.275	411.25
321.504	403.25
321.733	440.25
321.962	431.25
322.191	452.25
322.42	475.25
322.649	508.25
322.878	499.25
323.108	521.25
323.337	569.25
323.566	568.25
323.795	623.25
324.024	683.25
324.253	855.25
324.482	1263.25
324.71	2113.25
324.939	3003.25
325.168	2617.25
325.397	1335.25
325.626	828.25
325.855	649.25
326.084	587.25
326.313	570.25
326.542	586.25
326.77	659.25
326.999	786.25
327.228	1137.25
327.457	1795.25
327.686	2261.25
327.914	1446.25
328.143	894.25
328.372	773.25
328.6	723.25
328.829	679.25
329.058	688.25
329.287	704.25
329.515	655.25
329.744	595.25
329.972	592.25
330.201	638.25
330.43	682.25
330.658	732.25
330.887	739.25
331.115	711.25
331.344	589.25
331.572	552.25
331.801	558.25
332.03	531.25
332.258	526.25
332.486	479.25
332.715	495.25
332.943	464.25
333.172	483.25
333.4	471.25
333.629	487.25
333.857	527.25
334.085	523.25
334.314	563.25
334.542	593.25
334.771	604.25
334.999	546.25
335.227	515.25
335.455	462.25
335.684	476.25
335.912	467.25
336.14	440.25
336.369	466.25
336.597	457.25
336.825	478.25
337.053	442.25
337.281	449.25
337.51	441.25
337.738	447.25
337.966	456.25
338.194	459.25
338.422	458.25
338.65	447.25
338.878	447.25
339.106	428.25
339.334	422.25
339.562	401.25
339.79	441.25
340.018	428.25
340.246	432.25
340.474	441.25
340.702	415.25
340.93	429.25
341.158	434.25
341.386	415.25
341.614	423.25
341.842	441.25
342.07	423.25
342.298	417.25
342.526	405.25
342.754	418.25
342.981	402.25
343.209	396.25
343.437	424.25
343.665	427.25
343.893	412.25
344.12	405.25
344.348	427.25
344.576	453.25
344.804	441.25
345.031	461.25
345.259	455.25
345.487	451.25
345.714	438.25
345.942	415.25
346.17	404.25
346.397	431.25
346.625	432.25
346.853	427.25
347.08	421.25
347.308	426.25
347.535	429.25
347.763	454.25
347.99	419.25
348.218	432.25
348.445	469.25
348.673	465.25
348.9	440.25
349.128	421.25
349.355	404.25
349.583	406.25
349.81	399.25
350.037	410.25
350.265	419.25
350.492	417.25
350.72	398.25
350.947	438.25
351.174	434.25
351.402	453.25
351.629	437.25
351.856	418.25
352.083	453.25
352.311	453.25
352.538	443.25
352.765	464.25
352.992	457.25
353.22	432.25
353.447	437.25
353.674	407.25
353.901	395.25
354.128	393.25
354.355	385.25
354.583	405.25
354.81	391.25
355.037	389.25
355.264	386.25
355.491	378.25
355.718	373.25
355.945	362.25
356.172	356.25
356.399	401.25
356.626	373.25
356.853	385.25
357.08	391.25
357.307	371.25
357.534	371.25
357.761	395.25
357.988	370.25
358.215	390.25
358.441	393.25
358.668	380.25
358.895	397.25
359.122	399.25
359.349	417.25
359.576	411.25
359.802	454.25
360.029	505.25
360.256	502.25
360.483	483.25
360.709	439.25
360.936	445.25
361.163	439.25
361.39	430.25
361.616	425.25
361.843	428.25
362.07	402.25
362.296	409.25
362.523	417.25
362.749	419.25
362.976	423.25
363.203	408.25
363.429	389.25
363.656	396.25
363.882	413.25
364.109	389.25
364.335	384.25
364.562	402.25
364.788	394.25
365.015	394.25
365.241	410.25
365.468	395.25
365.694	402.25
365.92	412.25
366.147	394.25
366.373	388.25
366.599	407.25
366.826	377.25
367.052	381.25
367.278	394.25
367.505	400.25
367.731	393.25
367.957	392.25
368.184	405.25
368.41	409.25
368.636	408.25
368.862	422.25
369.089	410.25
369.315	389.25
369.541	384.25
369.767	367.25
369.993	391.25
370.219	391.25
370.445	363.25
370.672	377.25
370.898	395.25
371.124	383.25
371.35	377.25
371.576	372.25
371.802	389.25
372.028	389.25
372.254	374.25
372.48	359.25
372.706	383.25
372.932	382.25
373.158	386.25
373.384	396.25
373.61	386.25
373.835	382.25
374.061	376.25
374.287	383.25
374.513	370.25
374.739	386.25
374.965	381.25
375.191	402.25
375.416	390.25
375.642	390.25
375.868	374.25
376.094	359.25
376.319	367.25
376.545	374.25
376.771	365.25
376.997	379.25
377.222	367.25
377.448	373.25
377.674	361.25
377.899	373.25
378.125	370.25
378.35	370.25
378.576	370.25
378.802	387.25
379.027	375.25
379.253	382.25
379.478	360.25
379.704	381.25
379.929	357.25
380.155	378.25
380.38	387.25
380.606	371.25
380.831	352.25
381.057	378.25
381.282	377.25
381.507	382.25
381.733	399.25
381.958	379.25
382.184	366.25
382.409	377.25
382.634	373.25
382.86	377.25
383.085	367.25
383.31	391.25
383.535	386.25
383.761	409.25
383.986	394.25
384.211	382.25
384.436	379.25
384.662	390.25
384.887	403.25
385.112	407.25
385.337	385.25
385.562	378.25
385.787	388.25
386.013	422.25
386.238	414.25
386.463	408.25
386.688	386.25
386.913	398.25
387.138	396.25
387.363	405.25
387.588	409.25
387.813	395.25
388.038	385.25
388.263	380.25
388.488	395.25
388.713	389.25
388.938	413.25
389.163	398.25
389.387	406.25
389.612	399.25
389.837	402.25
390.062	403.25
390.287	392.25
390.512	403.25
390.736	390.25
390.961	393.25
391.186	397.25
391.411	397.25
391.636	406.25
391.86	389.25
392.085	407.25
392.31	390.25
392.534	397.25
392.759	409.25
392.984	397.25
393.208	405.25
393.433	401.25
393.658	379.25
393.882	397.25
394.107	396.25
394.331	411.25
394.556	395.25
394.78	383.25
395.005	390.25
395.229	389.25
395.454	405.25
395.678	399.25
395.903	417.25
396.127	447.25
396.352	454.25
396.576	423.25
396.801	416.25
397.025	405.25
397.249	411.25
397.474	400.25
397.698	410.25
397.922	443.25
398.147	475.25
398.371	450.25
398.595	443.25
398.82	439.25
399.044	458.25
399.268	449.25
399.492	458.25
399.717	457.25
399.941	513.25
400.165	545.25
400.389	557.25
400.613	525.25
400.837	473.25
401.062	471.25
401.286	444.25
401.51	450.25
401.734	449.25
401.958	429.25
402.182	461.25
402.406	471.25
402.63	460.25
402.854	465.25
403.078	446.25
403.302	463.25
403.526	464.25
403.75	471.25
403.974	485.25
404.198	455.25
404.422	459.25
404.645	480.25
404.869	494.25
405.093	528.25
405.317	573.25
405.541	602.25
405.765	551.25
405.988	523.25
406.212	535.25
406.436	529.25
406.66	565.25
406.883	533.25
407.107	544.25
407.331	573.25
407.555	645.25
407.778	653.25
408.002	593.25
408.226	554.25
408.449	537.25
408.673	529.25
408.896	565.25
409.12	608.25
409.344	573.25
409.567	506.25
409.791	496.25
410.014	496.25
410.238	456.25
410.461	481.25
410.685	477.25
410.908	505.25
411.132	551.25
411.355	579.25
411.578	545.25
411.802	503.25
412.025	471.25
412.249	482.25
412.472	510.25
412.695	565.25
412.919	567.25
413.142	498.25
413.365	470.25
413.589	463.25
413.812	464.25
414.035	451.25
414.258	441.25
414.482	457.25
414.705	434.25
414.928	417.25
415.151	448.25
415.374	433.25
415.597	435.25
415.821	413.25
416.044	449.25
416.267	448.25
416.49	416.25
416.713	435.25
416.936	469.25
417.159	444.25
417.382	461.25
417.605	464.25
417.828	475.25
418.051	486.25
418.274	480.25
418.497	447.25
418.72	455.25
418.943	440.25
419.166	472.25
419.389	486.25
419.611	458.25
419.834	474.25
420.057	489.25
420.28	478.25
420.503	490.25
420.726	451.25
420.948	505.25
421.171	532.25
421.394	558.25
421.617	517.25
421.839	490.25
422.062	494.25
422.285	511.25
422.507	552.25
422.73	650.25
422.953	617.25
423.175	544.25
423.398	525.25
423.621	508.25
423.843	535.25
424.066	530.25
424.288	530.25
424.511	571.25
424.733	602.25
424.956	712.25
425.178	647.25
425.401	659.25
425.623	685.25
425.846	583.25
426.068	538.25
426.291	564.25
426.513	540.25
426.735	553.25
426.958	597.25
427.18	705.25
427.402	840.25
427.625	902.25
427.847	821.25
428.069	715.25
428.292	634.25
428.514	562.25
428.736	505.25
428.958	507.25
429.181	487.25
429.403	505.25
429.625	525.25
429.847	536.25
430.069	621.25
430.292	599.25
430.514	526.25
430.736	485.25
430.958	476.25
431.18	467.25
431.402	466.25
431.624	446.25
431.846	452.25
432.068	451.25
432.29	449.25
432.512	454.25
432.734	469.25
432.956	455.25
433.178	480.25
433.4	501.25
433.622	463.25
433.844	461.25
434.066	453.25
434.287	458.25
434.509	459.25
434.731	481.25
434.953	465.25
435.175	495.25
435.397	522.25
435.618	529.25
435.84	590.25
436.062	681.25
436.284	750.25
436.505	629.25
436.727	565.25
436.949	529.25
437.17	517.25
437.392	482.25
437.614	504.25
437.835	563.25
438.057	704.25
438.278	802.25
438.5	776.25
438.721	846.25
438.943	796.25
439.165	621.25
439.386	597.25
439.608	576.25
439.829	567.25
440.05	606.25
440.272	671.25
440.493	596.25
440.715	563.25
440.936	539.25
441.158	501.25
441.379	488.25
441.6	524.25
441.822	544.25
442.043	575.25
442.264	680.25
442.486	745.25
442.707	618.25
442.928	567.25
443.149	575.25
443.371	597.25
443.592	633.25
443.813	725.25
444.034	813.25
444.255	653.25
444.476	555.25
444.698	533.25
444.919	544.25
445.14	615.25
445.361	595.25
445.582	589.25
445.803	671.25
446.024	826.25
446.245	823.25
446.466	743.25
446.687	594.25
446.908	565.25
447.129	524.25
447.35	526.25
447.571	493.25
447.792	488.25
448.013	508.25
448.234	536.25
448.455	583.25
448.675	722.25
448.896	838.25
449.117	727.25
449.338	671.25
449.559	796.25
449.779	878.25
450	716.25
450.221	583.25
450.442	519.25
450.662	496.25
450.883	493.25
451.104	528.25
451.324	525.25
451.545	489.25
451.766	473.25
451.986	452.25
452.207	445.25
452.428	441.25
452.648	427.25
452.869	461.25
453.089	453.25
453.31	475.25
453.53	449.25
453.751	463.25
453.971	442.25
454.192	484.25
454.412	491.25
454.633	464.25
454.853	437.25
455.073	449.25
455.294	480.25
455.514	589.25
455.734	553.25
455.955	476.25
456.175	426.25
456.395	421.25
456.616	396.25
456.836	406.25
457.056	402.25
457.276	423.25
457.497	395.25
457.717	408.25
457.937	415.25
458.157	439.25
458.377	414.25
458.598	458.25
458.818	518.25
459.038	626.25
459.258	617.25
459.478	541.25
459.698	474.25
459.918	467.25
460.138	456.25
460.358	453.25
460.578	462.25
460.798	474.25
461.018	467.25
461.238	445.25
461.458	446.25
461.678	421.25
461.898	462.25
462.118	435.25
462.338	421.25
462.558	458.25
462.777	465.25
462.997	457.25
463.217	461.25
463.437	452.25
463.657	465.25
463.876	485.25
464.096	471.25
464.316	481.25
464.536	457.25
464.755	482.25
464.975	484.25
465.195	553.25
465.414	667.25
465.634	576.25
465.854	523.25
466.073	481.25
466.293	449.25
466.512	454.25
466.732	431.25
466.951	451.25
467.171	430.25
467.391	447.25
467.61	490.25
467.829	468.25
468.049	482.25
468.268	486.25
468.488	445.25
468.707	465.25
468.927	438.25
469.146	428.25
469.365	453.25
469.585	421.25
469.804	439.25
470.023	463.25
470.243	480.25
470.462	478.25
470.681	493.25
470.901	467.25
471.12	467.25
471.339	437.25
471.558	453.25
471.777	454.25
471.997	446.25
472.216	483.25
472.435	526.25
472.654	493.25
472.873	456.25
473.092	439.25
473.311	461.25
473.53	457.25
473.749	453.25
473.968	534.25
474.187	644.25
474.406	671.25
474.625	543.25
474.844	479.25
475.063	466.25
475.282	465.25
475.501	438.25
475.72	467.25
475.939	454.25
476.158	479.25
476.377	461.25
476.596	453.25
476.814	472.25
477.033	492.25
477.252	460.25
477.471	474.25
477.69	488.25
477.908	475.25
478.127	495.25
478.346	496.25
478.564	477.25
478.783	496.25
479.002	521.25
479.22	515.25
479.439	527.25
479.658	544.25
479.876	558.25
480.095	549.25
480.313	597.25
480.532	577.25
480.751	560.25
480.969	562.25
481.188	630.25
481.406	731.25
481.624	604.25
481.843	579.25
482.061	558.25
482.28	542.25
482.498	537.25
482.717	546.25
482.935	552.25
483.153	532.25
483.372	527.25
483.59	532.25
483.808	531.25
484.027	527.25
484.245	526.25
484.463	549.25
484.681	544.25
484.9	550.25
485.118	529.25
485.336	543.25
485.554	540.25
485.772	554.25
485.99	543.25
486.209	532.25
486.427	562.25
486.645	573.25
486.863	607.25
487.081	575.25
487.299	570.25
487.517	568.25
487.735	556.25
487.953	559.25
488.171	574.25
488.389	573.25
488.607	579.25
488.825	586.25
489.043	589.25
489.261	568.25
489.479	583.25
489.696	605.25
489.914	592.25
490.132	573.25
490.35	617.25
490.568	610.25
490.786	631.25
491.003	621.25
491.221	659.25
491.439	681.25
491.657	648.25
491.874	674.25
492.092	659.25
492.31	656.25
492.527	684.25
492.745	665.25
492.963	673.25
493.18	683.25
493.398	676.25
493.615	678.25
493.833	686.25
494.05	670.25
494.268	697.25
494.485	686.25
494.703	675.25
494.92	677.25
495.138	675.25
495.355	658.25
495.573	679.25
495.79	684.25
496.008	663.25
496.225	697.25
496.442	682.25
496.66	673.25
496.877	665.25
497.094	670.25
497.312	712.25
497.529	703.25
497.746	699.25
497.963	714.25
498.181	737.25
498.398	733.25
498.615	729.25
498.832	742.25
499.049	732.25
499.267	745.25
499.484	750.25
499.701	764.25
499.918	793.25
500.135	810.25
500.352	832.25
500.569	835.25
500.786	857.25
501.003	816.25
501.22	825.25
501.437	802.25
501.654	820.25
501.871	840.25
502.088	787.25
502.305	787.25
502.522	762.25
502.739	757.25
502.956	707.25
503.172	714.25
503.389	717.25
503.606	717.25
503.823	712.25
504.04	699.25
504.256	677.25
504.473	680.25
504.69	672.25
504.907	690.25
505.123	670.25
505.34	663.25
505.557	647.25
505.773	646.25
505.99	655.25
506.207	674.25
506.423	689.25
506.64	670.25
506.856	666.25
507.073	658.25
507.289	657.25
507.506	662.25
507.722	679.25
507.939	706.25
508.155	671.25
508.372	672.25
508.588	634.25
508.805	639.25
509.021	650.25
509.238	665.25
509.454	666.25
509.67	663.25
509.887	632.25
510.103	647.25
510.319	652.25
510.536	805.25
510.752	1409.25
510.968	1111.25
511.184	693.25
511.401	641.25
511.617	623.25
511.833	623.25
512.049	606.25
512.265	604.25
512.481	613.25
512.698	613.25
512.914	629.25
513.13	603.25
513.346	602.25
513.562	613.25
513.778	618.25
513.994	650.25
514.21	635.25
514.426	674.25
514.642	757.25
514.858	765.25
515.074	811.25
515.29	1053.25
515.506	1629.25
515.721	1277.25
515.937	803.25
516.153	715.25
516.369	687.25
516.585	638.25
516.801	649.25
517.016	610.25
517.232	642.25
517.448	631.25
517.664	622.25
517.879	625.25
518.095	614.25
518.311	639.25
518.527	645.25
518.742	620.25
518.958	640.25
519.173	609.25
519.389	609.25
519.605	621.25
519.82	594.25
520.036	640.25
520.251	656.25
520.467	712.25
520.682	719.25
520.898	726.25
521.113	771.25
521.329	818.25
521.544	954.25
521.76	1277.25
521.975	2207.25
522.19	2098.25
522.406	1081.25
522.621	768.25
522.836	680.25
523.052	645.25
523.267	610.25
523.482	577.25
523.698	583.25
523.913	604.25
524.128	581.25
524.343	548.25
524.559	552.25
524.774	531.25
524.989	536.25
525.204	547.25
525.419	553.25
525.634	539.25
525.849	530.25
526.064	507.25
526.28	509.25
526.495	514.25
526.71	512.25
526.925	497.25
527.14	499.25
527.355	502.25
527.57	496.25
527.785	501.25
527.999	485.25
528.214	482.25
528.429	483.25
528.644	495.25
528.859	505.25
529.074	482.25
529.289	519.25
529.503	637.25
529.718	627.25
529.933	549.25
530.148	516.25
530.363	534.25
530.577	503.25
530.792	481.25
531.007	471.25
531.221	484.25
531.436	465.25
531.651	463.25
531.865	482.25
532.08	459.25
532.295	461.25
532.509	460.25
532.724	453.25
532.938	452.25
533.153	462.25
533.367	474.25
533.582	471.25
533.796	477.25
534.011	468.25
534.225	457.25
534.44	466.25
534.654	440.25
534.868	429.25
535.083	428.25
535.297	467.25
535.511	473.25
535.726	443.25
535.94	480.25
536.154	471.25
536.369	460.25
536.583	454.25
536.797	457.25
537.011	453.25
537.225	413.25
537.44	447.25
537.654	449.25
537.868	441.25
538.082	433.25
538.296	426.25
538.51	459.25
538.724	465.25
538.938	442.25
539.153	456.25
539.367	455.25
539.581	473.25
539.795	442.25
540.009	452.25
540.222	424.25
540.436	450.25
540.65	431.25
540.864	448.25
541.078	452.25
541.292	465.25
541.506	466.25
541.72	461.25
541.934	453.25
542.147	423.25
542.361	430.25
542.575	449.25
542.789	429.25
543.002	440.25
543.216	439.25
543.43	449.25
543.644	434.25
543.857	433.25
544.071	448.25
544.285	426.25
544.498	445.25
544.712	425.25
544.925	444.25
545.139	460.25
545.352	427.25
545.566	425.25
545.779	425.25
545.993	426.25
546.206	428.25
546.42	424.25
546.633	414.25
546.847	408.25
547.06	408.25
547.274	407.25
547.487	417.25
547.7	397.25
547.914	404.25
548.127	411.25
548.34	419.25
548.554	413.25
548.767	404.25
548.98	397.25
549.193	425.25
549.407	392.25
549.62	404.25
549.833	410.25
550.046	405.25
550.259	401.25
550.473	401.25
550.686	405.25
550.899	411.25
551.112	389.25
551.325	405.25
551.538	402.25
551.751	411.25
551.964	391.25
552.177	389.25
552.39	392.25
552.603	380.25
552.816	415.25
553.029	421.25
553.242	440.25
553.455	411.25
553.667	419.25
553.88	427.25
554.093	405.25
554.306	431.25
554.519	434.25
554.732	423.25
554.944	406.25
555.157	407.25
555.37	409.25
555.583	393.25
555.795	393.25
556.008	374.25
556.221	395.25
556.433	389.25
556.646	374.25
556.859	378.25
557.071	397.25
557.284	373.25
557.496	359.25
557.709	387.25
557.921	367.25
558.134	385.25
558.346	365.25
558.559	367.25
558.771	355.25
558.984	374.25
559.196	379.25
559.409	370.25
559.621	373.25
559.833	347.25
560.046	373.25
560.258	344.25
560.47	377.25
560.683	361.25
560.895	369.25
561.107	377.25
561.32	375.25
561.532	382.25
561.744	346.25
561.956	352.25
562.168	364.25
562.381	373.25
562.593	353.25
562.805	367.25
563.017	375.25
563.229	394.25
563.441	356.25
563.653	371.25
563.865	368.25
564.077	361.25
564.289	384.25
564.501	367.25
564.713	368.25
564.925	381.25
565.137	391.25
565.349	412.25
565.561	371.25
565.773	405.25
565.985	387.25
566.197	403.25
566.408	401.25
566.62	409.25
566.832	415.25
567.044	424.25
567.255	419.25
567.467	407.25
567.679	430.25
567.891	401.25
568.102	407.25
568.314	409.25
568.526	383.25
568.737	397.25
568.949	384.25
569.161	378.25
569.372	357.25
569.584	362.25
569.795	364.25
570.007	365.25
570.218	431.25
570.43	420.25
570.641	367.25
570.853	359.25
571.064	346.25
571.276	341.25
571.487	339.25
571.698	331.25
571.91	342.25
572.121	349.25
572.333	341.25
572.544	334.25
572.755	337.25
572.966	334.25
573.178	328.25
573.389	321.25
573.6	345.25
573.811	318.25
574.023	321.25
574.234	335.25
574.445	327.25
574.656	330.25
574.867	310.25
575.078	316.25
575.289	325.25
575.501	311.25
575.712	334.25
575.923	317.25
576.134	302.25
576.345	300.25
576.556	314.25
576.767	330.25
576.978	317.25
577.188	314.25
577.399	319.25
577.61	317.25
577.821	303.25
578.032	320.25
578.243	367.25
578.454	658.25
578.665	453.25
578.875	329.25
579.086	331.25
579.297	309.25
579.508	281.25
579.718	306.25
579.929	305.25
580.14	292.25
580.35	269.25
580.561	305.25
580.772	287.25
580.982	296.25
581.193	303.25
581.403	307.25
581.614	306.25
581.825	284.25
582.035	284.25
582.246	295.25
582.456	295.25
582.667	290.25
582.877	275.25
583.087	281.25
583.298	287.25
583.508	287.25
583.719	286.25
583.929	286.25
584.139	286.25
584.35	293.25
584.56	270.25
584.77	284.25
584.981	294.25
585.191	277.25
585.401	282.25
585.611	268.25
585.821	301.25
586.032	276.25
586.242	286.25
586.452	284.25
586.662	280.25
586.872	285.25
587.082	260.25
587.292	276.25
587.502	300.25
587.713	285.25
587.923	290.25
588.133	279.25
588.343	281.25
588.553	267.25
588.762	276.25
588.972	289.25
589.182	260.25
589.392	290.25
589.602	279.25
589.812	282.25
590.022	288.25
590.232	285.25
590.441	269.25
590.651	287.25
590.861	286.25
591.071	270.25
591.281	285.25
591.49	284.25
591.7	295.25
591.91	296.25
592.119	275.25
592.329	261.25
592.539	279.25
592.748	274.25
592.958	267.25
593.167	289.25
593.377	271.25
593.587	277.25
593.796	295.25
594.006	280.25
594.215	290.25
594.424	265.25
594.634	273.25
594.843	285.25
595.053	275.25
595.262	289.25
595.472	251.25
595.681	266.25
595.89	269.25
596.1	266.25
596.309	263.25
596.518	271.25
596.727	259.25
596.937	269.25
597.146	270.25
597.355	262.25
597.564	261.25
597.774	245.25
597.983	242.25
598.192	262.25
598.401	259.25
598.61	259.25
598.819	253.25
599.028	252.25
599.237	247.25
599.446	257.25
599.655	266.25
599.864	253.25
600.073	246.25
600.282	263.25
600.491	242.25
600.7	252.25
600.909	245.25
601.118	228.25
601.327	261.25
601.536	245.25
601.745	233.25
601.953	238.25
602.162	242.25
602.371	251.25
602.58	262.25
602.789	218.25
602.997	254.25
603.206	254.25
603.415	245.25
603.623	238.25
603.832	231.25
604.041	253.25
604.249	239.25
604.458	249.25
604.666	247.25
604.875	237.25
605.084	230.25
605.292	225.25
605.501	242.25
605.709	226.25
605.918	253.25
606.126	252.25
606.334	233.25
606.543	241.25
606.751	234.25
606.96	222.25
607.168	238.25
607.376	235.25
607.585	238.25
607.793	246.25
608.001	269.25
608.21	247.25
608.418	237.25
608.626	231.25
608.834	236.25
609.043	243.25
609.251	234.25
609.459	228.25
609.667	234.25
609.875	224.25
610.083	221.25
610.291	229.25
610.499	229.25
610.707	229.25
610.916	243.25
611.124	254.25
611.332	239.25
611.54	245.25
611.748	250.25
611.955	242.25
612.163	227.25
612.371	227.25
612.579	233.25
612.787	221.25
612.995	226.25
613.203	240.25
613.411	247.25
613.618	246.25
613.826	236.25
614.034	238.25
614.242	233.25
614.449	224.25
614.657	213.25
614.865	217.25
615.072	219.25
615.28	231.25
615.488	243.25
615.695	205.25
615.903	218.25
616.111	223.25
616.318	233.25
616.526	213.25
616.733	218.25
616.941	215.25
617.148	218.25
617.356	232.25
617.563	231.25
617.771	218.25
617.978	217.25
618.185	233.25
618.393	223.25
618.6	233.25
618.807	229.25
619.015	225.25
619.222	218.25
619.429	216.25
619.637	221.25
619.844	220.25
620.051	216.25
620.258	230.25
620.466	208.25
620.673	211.25
620.88	208.25
621.087	227.25
621.294	223.25
621.501	216.25
621.708	215.25
621.915	222.25
622.122	215.25
622.329	236.25
622.536	221.25
622.743	214.25
622.95	213.25
623.157	203.25
623.364	221.25
623.571	193.25
623.778	218.25
623.985	210.25
624.192	211.25
624.399	190.25
624.606	222.25
624.812	226.25
625.019	206.25
625.226	206.25
625.433	220.25
625.639	207.25
625.846	215.25
626.053	201.25
626.259	189.25
626.466	209.25
626.673	186.25
626.879	196.25
627.086	205.25
627.293	221.25
627.499	192.25
627.706	210.25
627.912	199.25
628.119	208.25
628.325	199.25
628.532	199.25
628.738	202.25
628.945	194.25
629.151	200.25
629.357	189.25
629.564	201.25
629.77	193.25
629.976	186.25
630.183	185.25
630.389	210.25
630.595	210.25
630.802	199.25
631.008	201.25
631.214	190.25
631.42	185.25
631.627	195.25
631.833	188.25
632.039	179.25
632.245	179.25
632.451	190.25
632.657	187.25
632.863	189.25
633.069	181.25
633.275	181.25
633.481	182.25
633.688	195.25
633.893	195.25
634.099	176.25
634.305	189.25
634.511	179.25
634.717	189.25
634.923	174.25
635.129	161.25
635.335	192.25
635.541	179.25
635.747	185.25
635.952	171.25
636.158	183.25
636.364	186.25
636.57	187.25
636.775	190.25
636.981	166.25
637.187	171.25
637.392	184.25
637.598	183.25
637.804	162.25
638.009	192.25
638.215	176.25
638.421	191.25
638.626	167.25
638.832	188.25
639.037	173.25
639.243	170.25
639.448	189.25
639.654	198.25
639.859	170.25
640.065	161.25
640.27	170.25
640.475	176.25
640.681	172.25
640.886	173.25
641.091	177.25
641.297	191.25
641.502	177.25
641.707	177.25
641.913	174.25
642.118	170.25
642.323	145.25
642.528	169.25
642.733	169.25
642.939	189.25
643.144	176.25
643.349	183.25
643.554	165.25
643.759	157.25
643.964	170.25
644.169	172.25
644.374	174.25
644.579	160.25
644.784	160.25
644.989	163.25
645.194	155.25
645.399	168.25
645.604	160.25
645.809	174.25
646.014	174.25
646.219	174.25
646.423	160.25
646.628	156.25
646.833	165.25
647.038	170.25
647.243	169.25
647.447	170.25
647.652	159.25
647.857	161.25
648.062	166.25
648.266	168.25
648.471	172.25
648.676	161.25
648.88	167.25
649.085	169.25
649.289	167.25
649.494	169.25
649.698	190.25
649.903	193.25
650.107	179.25
650.312	176.25
650.516	164.25
650.721	170.25
650.925	162.25
651.13	153.25
651.334	158.25
651.539	146.25
651.743	143.25
651.947	161.25
652.152	163.25
652.356	146.25
652.56	159.25
652.764	141.25
652.969	139.25
653.173	152.25
653.377	129.25
653.581	122.25
653.785	139.25
653.99	139.25
654.194	133.25
654.398	139.25
654.602	135.25
654.806	147.25
655.01	154.25
655.214	149.25
655.418	143.25
655.622	117.25
655.826	129.25
656.03	143.25
656.234	127.25
656.438	145.25
656.642	126.25
656.846	143.25
657.049	129.25
657.253	131.25
657.457	123.25
657.661	115.25
657.865	113.25
658.068	115.25
658.272	110.25
658.476	104.25
658.68	119.25
658.883	122.25
659.087	112.25
659.291	111.25
659.494	95.25
659.698	91.25
659.901	106.25
660.105	109.25
660.309	100.25
660.512	96.25
660.716	83.25
660.919	112.25
661.123	93.25
661.326	102.25
661.53	93.25
661.733	93.25
661.936	103.25
662.14	91.25
662.343	90.25
662.546	83.25
662.75	84.25
662.953	85.25
663.156	86.25
663.36	84.25
663.563	77.25
663.766	84.25
663.969	92.25
664.173	87.25
664.376	95.25
664.579	95.25
664.782	83.25
664.985	88.25
665.188	93.25
665.391	102.25
665.594	91.25
665.797	95.25
666	82.25
666.203	79.25
666.406	75.25
666.609	72.25
666.812	91.25
667.015	80.25
667.218	85.25
667.421	94.25
667.624	91.25
667.827	105.25
668.03	98.25
668.232	103.25
668.435	69.25
668.638	89.25
668.841	94.25
669.043	75.25
669.246	96.25
669.449	87.25
669.651	93.25
669.854	85.25
670.057	91.25
670.259	92.25
670.462	91.25
670.665	81.25
670.867	87.25
671.07	87.25
671.272	93.25
671.475	83.25
671.677	94.25
671.88	77.25
672.082	89.25
672.284	87.25
672.487	94.25
672.689	90.25
672.892	91.25
