Data from 1972.PennyLincolnUp.Lamp.En5.5.200Scan.071719.P1._HRD10591_15-28-48-844.txt Node
Date: Thu Jul 18 15:28:48 EDT 2019
User: cochatt
Spectrometer: HR+D1059
Trigger mode: 1
Integration Time (sec): 1.000000E-1
Scans to average: 1
Electric dark correction enabled: true
Nonlinearity correction enabled: false
Boxcar width: 0
XAxis mode: Wavelengths
Number of Pixels in Spectrum: 2048
>>>>>Begin Spectral Data<<<<<
223.165	-12.69
223.4	-12.69
223.635	-12.69
223.869	-20.69
224.104	-11.69
224.338	-4.69
224.573	-18.69
224.808	-8.69
225.042	-5.69
225.277	-10.69
225.511	-8.69
225.746	2.31
225.98	7.31
226.215	19.31
226.449	12.31
226.683	9.31
226.918	19.31
227.152	32.31
227.387	43.31
227.621	39.31
227.856	34.31
228.09	42.31
228.324	43.31
228.559	47.31
228.793	63.31
229.027	93.31
229.262	123.31
229.496	126.31
229.73	156.31
229.964	168.31
230.199	137.31
230.433	128.31
230.667	123.31
230.901	124.31
231.136	116.31
231.37	135.31
231.604	111.31
231.838	119.31
232.072	124.31
232.306	106.31
232.541	120.31
232.775	135.31
233.009	120.31
233.243	97.31
233.477	109.31
233.711	116.31
233.945	113.31
234.179	130.31
234.413	141.31
234.647	131.31
234.881	135.31
235.115	124.31
235.349	123.31
235.583	121.31
235.817	127.31
236.051	117.31
236.285	130.31
236.519	137.31
236.753	134.31
236.987	162.31
237.221	197.31
237.455	251.31
237.689	220.31
237.922	172.31
238.156	157.31
238.39	122.31
238.624	137.31
238.858	119.31
239.091	128.31
239.325	134.31
239.559	126.31
239.793	125.31
240.027	156.31
240.26	144.31
240.494	157.31
240.728	152.31
240.961	147.31
241.195	159.31
241.429	131.31
241.662	135.31
241.896	132.31
242.13	144.31
242.363	130.31
242.597	137.31
242.83	158.31
243.064	132.31
243.298	150.31
243.531	153.31
243.765	152.31
243.998	136.31
244.232	155.31
244.465	146.31
244.699	148.31
244.932	150.31
245.166	137.31
245.399	129.31
245.633	140.31
245.866	152.31
246.099	159.31
246.333	163.31
246.566	158.31
246.8	145.31
247.033	151.31
247.266	152.31
247.5	175.31
247.733	170.31
247.966	182.31
248.2	180.31
248.433	181.31
248.666	182.31
248.899	188.31
249.133	199.31
249.366	242.31
249.599	204.31
249.832	202.31
250.066	189.31
250.299	185.31
250.532	183.31
250.765	212.31
250.998	210.31
251.231	233.31
251.465	231.31
251.698	213.31
251.931	214.31
252.164	204.31
252.397	205.31
252.63	204.31
252.863	203.31
253.096	224.31
253.329	241.31
253.562	251.31
253.795	211.31
254.028	229.31
254.261	217.31
254.494	213.31
254.727	279.31
254.96	295.31
255.193	300.31
255.426	264.31
255.659	265.31
255.892	248.31
256.124	264.31
256.357	256.31
256.59	237.31
256.823	235.31
257.056	220.31
257.289	199.31
257.521	227.31
257.754	228.31
257.987	218.31
258.22	228.31
258.452	224.31
258.685	203.31
258.918	214.31
259.151	208.31
259.383	224.31
259.616	225.31
259.849	235.31
260.081	243.31
260.314	279.31
260.547	265.31
260.779	247.31
261.012	235.31
261.244	235.31
261.477	230.31
261.71	240.31
261.942	244.31
262.175	250.31
262.407	244.31
262.64	228.31
262.872	223.31
263.105	216.31
263.337	229.31
263.57	205.31
263.802	224.31
264.035	228.31
264.267	217.31
264.499	215.31
264.732	222.31
264.964	208.31
265.197	223.31
265.429	211.31
265.661	212.31
265.894	212.31
266.126	202.31
266.358	214.31
266.591	218.31
266.823	237.31
267.055	227.31
267.287	223.31
267.52	224.31
267.752	216.31
267.984	231.31
268.216	225.31
268.448	254.31
268.681	223.31
268.913	249.31
269.145	259.31
269.377	277.31
269.609	286.31
269.841	264.31
270.073	288.31
270.306	314.31
270.538	327.31
270.77	348.31
271.002	326.31
271.234	315.31
271.466	318.31
271.698	329.31
271.93	337.31
272.162	355.31
272.394	332.31
272.626	323.31
272.858	309.31
273.09	289.31
273.322	285.31
273.553	260.31
273.785	285.31
274.017	287.31
274.249	275.31
274.481	265.31
274.713	280.31
274.945	278.31
275.176	289.31
275.408	269.31
275.64	259.31
275.872	278.31
276.104	282.31
276.335	273.31
276.567	285.31
276.799	298.31
277.031	309.31
277.262	343.31
277.494	331.31
277.726	321.31
277.957	291.31
278.189	284.31
278.421	278.31
278.652	273.31
278.884	275.31
279.115	281.31
279.347	285.31
279.579	262.31
279.81	262.31
280.042	252.31
280.273	285.31
280.505	263.31
280.736	278.31
280.968	263.31
281.199	263.31
281.431	297.31
281.662	252.31
281.894	239.31
282.125	259.31
282.356	294.31
282.588	317.31
282.819	314.31
283.051	302.31
283.282	261.31
283.513	264.31
283.745	255.31
283.976	281.31
284.207	274.31
284.439	290.31
284.67	295.31
284.901	292.31
285.132	264.31
285.364	277.31
285.595	255.31
285.826	277.31
286.057	275.31
286.288	262.31
286.52	258.31
286.751	277.31
286.982	283.31
287.213	285.31
287.444	288.31
287.675	282.31
287.906	303.31
288.138	289.31
288.369	316.31
288.6	302.31
288.831	300.31
289.062	287.31
289.293	309.31
289.524	279.31
289.755	298.31
289.986	305.31
290.217	279.31
290.448	281.31
290.679	285.31
290.91	287.31
291.141	288.31
291.371	275.31
291.602	265.31
291.833	280.31
292.064	269.31
292.295	291.31
292.526	277.31
292.757	288.31
292.987	278.31
293.218	297.31
293.449	285.31
293.68	283.31
293.91	289.31
294.141	284.31
294.372	262.31
294.603	276.31
294.833	271.31
295.064	287.31
295.295	295.31
295.525	296.31
295.756	282.31
295.987	301.31
296.217	327.31
296.448	352.31
296.679	325.31
296.909	288.31
297.14	285.31
297.37	295.31
297.601	307.31
297.831	296.31
298.062	295.31
298.292	300.31
298.523	291.31
298.753	302.31
298.984	291.31
299.214	310.31
299.445	297.31
299.675	299.31
299.905	300.31
300.136	301.31
300.366	288.31
300.597	300.31
300.827	315.31
301.057	321.31
301.288	329.31
301.518	321.31
301.748	309.31
301.979	301.31
302.209	326.31
302.439	312.31
302.669	305.31
302.9	297.31
303.13	291.31
303.36	315.31
303.59	320.31
303.82	323.31
304.051	341.31
304.281	307.31
304.511	331.31
304.741	328.31
304.971	314.31
305.201	314.31
305.431	308.31
305.661	302.31
305.891	331.31
306.121	314.31
306.352	327.31
306.582	339.31
306.812	319.31
307.042	327.31
307.272	311.31
307.502	322.31
307.731	315.31
307.961	335.31
308.191	307.31
308.421	331.31
308.651	337.31
308.881	325.31
309.111	329.31
309.341	327.31
309.571	354.31
309.8	371.31
310.03	375.31
310.26	386.31
310.49	356.31
310.72	381.31
310.949	399.31
311.179	420.31
311.409	401.31
311.639	376.31
311.868	386.31
312.098	379.31
312.328	379.31
312.557	408.31
312.787	413.31
313.017	400.31
313.246	401.31
313.476	377.31
313.706	371.31
313.935	384.31
314.165	407.31
314.394	413.31
314.624	399.31
314.853	400.31
315.083	393.31
315.312	376.31
315.542	389.31
315.771	360.31
316.001	357.31
316.23	346.31
316.46	368.31
316.689	375.31
316.919	375.31
317.148	381.31
317.377	390.31
317.607	379.31
317.836	366.31
318.065	351.31
318.295	367.31
318.524	374.31
318.753	376.31
318.983	377.31
319.212	375.31
319.441	374.31
319.67	379.31
319.9	384.31
320.129	385.31
320.358	380.31
320.587	360.31
320.816	392.31
321.046	413.31
321.275	410.31
321.504	389.31
321.733	416.31
321.962	396.31
322.191	397.31
322.42	471.31
322.649	461.31
322.878	480.31
323.108	487.31
323.337	507.31
323.566	520.31
323.795	593.31
324.024	642.31
324.253	808.31
324.482	1169.31
324.71	1824.31
324.939	2689.31
325.168	2400.31
325.397	1173.31
325.626	771.31
325.855	615.31
326.084	566.31
326.313	557.31
326.542	551.31
326.77	607.31
326.999	745.31
327.228	1023.31
327.457	1625.31
327.686	1984.31
327.914	1316.31
328.143	865.31
328.372	729.31
328.6	635.31
328.829	650.31
329.058	635.31
329.287	636.31
329.515	620.31
329.744	553.31
329.972	565.31
330.201	590.31
330.43	614.31
330.658	655.31
330.887	699.31
331.115	660.31
331.344	577.31
331.572	526.31
331.801	519.31
332.03	506.31
332.258	485.31
332.486	464.31
332.715	451.31
332.943	439.31
333.172	454.31
333.4	471.31
333.629	472.31
333.857	476.31
334.085	480.31
334.314	497.31
334.542	538.31
334.771	572.31
334.999	525.31
335.227	475.31
335.455	441.31
335.684	438.31
335.912	446.31
336.14	441.31
336.369	433.31
336.597	452.31
336.825	450.31
337.053	443.31
337.281	403.31
337.51	417.31
337.738	443.31
337.966	453.31
338.194	405.31
338.422	427.31
338.65	430.31
338.878	409.31
339.106	411.31
339.334	410.31
339.562	396.31
339.79	419.31
340.018	409.31
340.246	405.31
340.474	441.31
340.702	416.31
340.93	413.31
341.158	421.31
341.386	425.31
341.614	449.31
341.842	412.31
342.07	397.31
342.298	415.31
342.526	386.31
342.754	380.31
342.981	394.31
343.209	407.31
343.437	397.31
343.665	403.31
343.893	389.31
344.12	406.31
344.348	414.31
344.576	426.31
344.804	407.31
345.031	422.31
345.259	426.31
345.487	447.31
345.714	415.31
345.942	426.31
346.17	409.31
346.397	391.31
346.625	409.31
346.853	402.31
347.08	403.31
347.308	408.31
347.535	417.31
347.763	430.31
347.99	423.31
348.218	412.31
348.445	424.31
348.673	427.31
348.9	415.31
349.128	408.31
349.355	391.31
349.583	397.31
349.81	392.31
350.037	382.31
350.265	391.31
350.492	404.31
350.72	391.31
350.947	399.31
351.174	443.31
351.402	405.31
351.629	400.31
351.856	428.31
352.083	427.31
352.311	435.31
352.538	423.31
352.765	440.31
352.992	445.31
353.22	394.31
353.447	396.31
353.674	394.31
353.901	401.31
354.128	385.31
354.355	385.31
354.583	371.31
354.81	377.31
355.037	384.31
355.264	344.31
355.491	351.31
355.718	369.31
355.945	361.31
356.172	350.31
356.399	357.31
356.626	368.31
356.853	368.31
357.08	366.31
357.307	377.31
357.534	352.31
357.761	357.31
357.988	357.31
358.215	386.31
358.441	373.31
358.668	365.31
358.895	364.31
359.122	388.31
359.349	395.31
359.576	398.31
359.802	428.31
360.029	453.31
360.256	478.31
360.483	446.31
360.709	403.31
360.936	398.31
361.163	405.31
361.39	404.31
361.616	424.31
361.843	400.31
362.07	414.31
362.296	433.31
362.523	391.31
362.749	396.31
362.976	384.31
363.203	389.31
363.429	397.31
363.656	388.31
363.882	383.31
364.109	388.31
364.335	357.31
364.562	383.31
364.788	363.31
365.015	363.31
365.241	383.31
365.468	373.31
365.694	383.31
365.92	389.31
366.147	384.31
366.373	388.31
366.599	368.31
366.826	380.31
367.052	356.31
367.278	399.31
367.505	377.31
367.731	361.31
367.957	359.31
368.184	372.31
368.41	377.31
368.636	383.31
368.862	384.31
369.089	353.31
369.315	364.31
369.541	376.31
369.767	346.31
369.993	399.31
370.219	374.31
370.445	375.31
370.672	384.31
370.898	357.31
371.124	371.31
371.35	371.31
371.576	371.31
371.802	350.31
372.028	357.31
372.254	355.31
372.48	350.31
372.706	352.31
372.932	372.31
373.158	363.31
373.384	365.31
373.61	351.31
373.835	346.31
374.061	352.31
374.287	371.31
374.513	373.31
374.739	371.31
374.965	370.31
375.191	364.31
375.416	357.31
375.642	362.31
375.868	358.31
376.094	368.31
376.319	356.31
376.545	348.31
376.771	334.31
376.997	356.31
377.222	355.31
377.448	358.31
377.674	364.31
377.899	372.31
378.125	351.31
378.35	361.31
378.576	366.31
378.802	354.31
379.027	356.31
379.253	371.31
379.478	335.31
379.704	347.31
379.929	367.31
380.155	347.31
380.38	367.31
380.606	347.31
380.831	337.31
381.057	357.31
381.282	353.31
381.507	375.31
381.733	360.31
381.958	360.31
382.184	376.31
382.409	375.31
382.634	366.31
382.86	371.31
383.085	370.31
383.31	355.31
383.535	359.31
383.761	380.31
383.986	389.31
384.211	371.31
384.436	357.31
384.662	366.31
384.887	393.31
385.112	386.31
385.337	382.31
385.562	364.31
385.787	389.31
386.013	416.31
386.238	383.31
386.463	390.31
386.688	387.31
386.913	366.31
387.138	375.31
387.363	381.31
387.588	377.31
387.813	391.31
388.038	382.31
388.263	384.31
388.488	394.31
388.713	387.31
388.938	384.31
389.163	421.31
389.387	375.31
389.612	376.31
389.837	360.31
390.062	385.31
390.287	384.31
390.512	381.31
390.736	375.31
390.961	344.31
391.186	375.31
391.411	382.31
391.636	397.31
391.86	381.31
392.085	379.31
392.31	391.31
392.534	372.31
392.759	401.31
392.984	394.31
393.208	386.31
393.433	398.31
393.658	406.31
393.882	394.31
394.107	387.31
394.331	382.31
394.556	402.31
394.78	388.31
395.005	399.31
395.229	405.31
395.454	375.31
395.678	397.31
395.903	436.31
396.127	445.31
396.352	423.31
396.576	401.31
396.801	394.31
397.025	399.31
397.249	402.31
397.474	389.31
397.698	421.31
397.922	422.31
398.147	443.31
398.371	443.31
398.595	439.31
398.82	407.31
399.044	430.31
399.268	438.31
399.492	449.31
399.717	468.31
399.941	507.31
400.165	517.31
400.389	528.31
400.613	495.31
400.837	453.31
401.062	454.31
401.286	438.31
401.51	414.31
401.734	438.31
401.958	444.31
402.182	458.31
402.406	465.31
402.63	453.31
402.854	445.31
403.078	448.31
403.302	462.31
403.526	475.31
403.75	464.31
403.974	450.31
404.198	470.31
404.422	451.31
404.645	465.31
404.869	480.31
405.093	479.31
405.317	535.31
405.541	579.31
405.765	517.31
405.988	489.31
406.212	506.31
406.436	521.31
406.66	524.31
406.883	504.31
407.107	525.31
407.331	541.31
407.555	607.31
407.778	633.31
408.002	548.31
408.226	503.31
408.449	498.31
408.673	513.31
408.896	551.31
409.12	569.31
409.344	557.31
409.567	492.31
409.791	475.31
410.014	454.31
410.238	439.31
410.461	456.31
410.685	465.31
410.908	487.31
411.132	530.31
411.355	552.31
411.578	528.31
411.802	472.31
412.025	470.31
412.249	464.31
412.472	496.31
412.695	542.31
412.919	523.31
413.142	476.31
413.365	455.31
413.589	462.31
413.812	464.31
414.035	436.31
414.258	421.31
414.482	424.31
414.705	413.31
414.928	417.31
415.151	429.31
415.374	423.31
415.597	409.31
415.821	418.31
416.044	413.31
416.267	429.31
416.49	409.31
416.713	416.31
416.936	416.31
417.159	417.31
417.382	419.31
417.605	470.31
417.828	452.31
418.051	444.31
418.274	449.31
418.497	453.31
418.72	447.31
418.943	437.31
419.166	452.31
419.389	451.31
419.611	454.31
419.834	463.31
420.057	464.31
420.28	470.31
420.503	464.31
420.726	443.31
420.948	477.31
421.171	520.31
421.394	547.31
421.617	482.31
421.839	475.31
422.062	481.31
422.285	481.31
422.507	538.31
422.73	617.31
422.953	601.31
423.175	496.31
423.398	475.31
423.621	486.31
423.843	518.31
424.066	509.31
424.288	503.31
424.511	535.31
424.733	591.31
424.956	670.31
425.178	627.31
425.401	624.31
425.623	641.31
425.846	536.31
426.068	517.31
426.291	512.31
426.513	496.31
426.735	533.31
426.958	565.31
427.18	667.31
427.402	753.31
427.625	870.31
427.847	785.31
428.069	701.31
428.292	584.31
428.514	535.31
428.736	507.31
428.958	476.31
429.181	477.31
429.403	481.31
429.625	495.31
429.847	524.31
430.069	584.31
430.292	560.31
430.514	499.31
430.736	480.31
430.958	473.31
431.18	447.31
431.402	439.31
431.624	432.31
431.846	435.31
432.068	413.31
432.29	439.31
432.512	436.31
432.734	477.31
432.956	451.31
433.178	466.31
433.4	470.31
433.622	454.31
433.844	441.31
434.066	448.31
434.287	442.31
434.509	454.31
434.731	466.31
434.953	436.31
435.175	480.31
435.397	499.31
435.618	535.31
435.84	555.31
436.062	651.31
436.284	722.31
436.505	618.31
436.727	569.31
436.949	492.31
437.17	456.31
437.392	477.31
437.614	519.31
437.835	539.31
438.057	642.31
438.278	778.31
438.5	740.31
438.721	795.31
438.943	792.31
439.165	614.31
439.386	545.31
439.608	517.31
439.829	561.31
440.05	577.31
440.272	643.31
440.493	581.31
440.715	531.31
440.936	475.31
441.158	472.31
441.379	454.31
441.6	486.31
441.822	527.31
442.043	574.31
442.264	639.31
442.486	719.31
442.707	565.31
442.928	521.31
443.149	550.31
443.371	568.31
443.592	590.31
443.813	705.31
444.034	763.31
444.255	619.31
444.476	552.31
444.698	515.31
444.919	495.31
445.14	594.31
445.361	545.31
445.582	583.31
445.803	641.31
446.024	728.31
446.245	771.31
446.466	695.31
446.687	593.31
446.908	539.31
447.129	499.31
447.35	491.31
447.571	454.31
447.792	476.31
448.013	475.31
448.234	520.31
448.455	529.31
448.675	669.31
448.896	790.31
449.117	673.31
449.338	631.31
449.559	751.31
449.779	850.31
450	654.31
450.221	546.31
450.442	513.31
450.662	488.31
450.883	476.31
451.104	511.31
451.324	484.31
451.545	464.31
451.766	431.31
451.986	438.31
452.207	441.31
452.428	417.31
452.648	424.31
452.869	430.31
453.089	450.31
453.31	439.31
453.53	465.31
453.751	439.31
453.971	435.31
454.192	452.31
454.412	440.31
454.633	439.31
454.853	447.31
455.073	417.31
455.294	462.31
455.514	539.31
455.734	518.31
455.955	455.31
456.175	401.31
456.395	407.31
456.616	396.31
456.836	387.31
457.056	396.31
457.276	387.31
457.497	393.31
457.717	413.31
457.937	390.31
458.157	402.31
458.377	420.31
458.598	439.31
458.818	492.31
459.038	589.31
459.258	609.31
459.478	506.31
459.698	458.31
459.918	426.31
460.138	424.31
460.358	436.31
460.578	423.31
460.798	435.31
461.018	429.31
461.238	415.31
461.458	428.31
461.678	431.31
461.898	438.31
462.118	417.31
462.338	423.31
462.558	437.31
462.777	444.31
462.997	430.31
463.217	444.31
463.437	453.31
463.657	441.31
463.876	453.31
464.096	436.31
464.316	454.31
464.536	455.31
464.755	456.31
464.975	469.31
465.195	519.31
465.414	604.31
465.634	538.31
465.854	476.31
466.073	463.31
466.293	437.31
466.512	421.31
466.732	431.31
466.951	418.31
467.171	420.31
467.391	414.31
467.61	450.31
467.829	445.31
468.049	444.31
468.268	432.31
468.488	410.31
468.707	425.31
468.927	448.31
469.146	423.31
469.365	419.31
469.585	399.31
469.804	436.31
470.023	435.31
470.243	428.31
470.462	437.31
470.681	458.31
470.901	455.31
471.12	432.31
471.339	417.31
471.558	450.31
471.777	423.31
471.997	425.31
472.216	431.31
472.435	497.31
472.654	478.31
472.873	438.31
473.092	428.31
473.311	441.31
473.53	447.31
473.749	457.31
473.968	501.31
474.187	599.31
474.406	639.31
474.625	521.31
474.844	469.31
475.063	453.31
475.282	445.31
475.501	430.31
475.72	455.31
475.939	442.31
476.158	453.31
476.377	436.31
476.596	448.31
476.814	454.31
477.033	467.31
477.252	470.31
477.471	472.31
477.69	464.31
477.908	476.31
478.127	480.31
478.346	471.31
478.564	469.31
478.783	480.31
479.002	485.31
479.22	480.31
479.439	495.31
479.658	512.31
479.876	543.31
480.095	532.31
480.313	568.31
480.532	547.31
480.751	524.31
480.969	552.31
481.188	659.31
481.406	697.31
481.624	596.31
481.843	545.31
482.061	552.31
482.28	519.31
482.498	504.31
482.717	508.31
482.935	503.31
483.153	511.31
483.372	525.31
483.59	503.31
483.808	516.31
484.027	509.31
484.245	499.31
484.463	513.31
484.681	533.31
484.9	521.31
485.118	534.31
485.336	500.31
485.554	511.31
485.772	524.31
485.99	541.31
486.209	525.31
486.427	520.31
486.645	535.31
486.863	552.31
487.081	557.31
487.299	554.31
487.517	566.31
487.735	549.31
487.953	546.31
488.171	574.31
488.389	569.31
488.607	552.31
488.825	563.31
489.043	570.31
489.261	542.31
489.479	555.31
489.696	555.31
489.914	575.31
490.132	572.31
490.35	591.31
490.568	567.31
490.786	592.31
491.003	615.31
491.221	598.31
491.439	602.31
491.657	612.31
491.874	639.31
492.092	622.31
492.31	641.31
492.527	643.31
492.745	629.31
492.963	620.31
493.18	629.31
493.398	649.31
493.615	658.31
493.833	670.31
494.05	649.31
494.268	658.31
494.485	624.31
494.703	653.31
494.92	663.31
495.138	656.31
495.355	633.31
495.573	647.31
495.79	644.31
496.008	643.31
496.225	663.31
496.442	669.31
496.66	656.31
496.877	645.31
497.094	661.31
497.312	660.31
497.529	664.31
497.746	650.31
497.963	677.31
498.181	708.31
498.398	709.31
498.615	697.31
498.832	709.31
499.049	724.31
499.267	712.31
499.484	721.31
499.701	717.31
499.918	763.31
500.135	766.31
500.352	808.31
500.569	808.31
500.786	789.31
501.003	804.31
501.22	815.31
501.437	743.31
501.654	758.31
501.871	797.31
502.088	777.31
502.305	744.31
502.522	730.31
502.739	686.31
502.956	692.31
503.172	680.31
503.389	672.31
503.606	680.31
503.823	678.31
504.04	672.31
504.256	657.31
504.473	638.31
504.69	651.31
504.907	642.31
505.123	627.31
505.34	640.31
505.557	622.31
505.773	649.31
505.99	641.31
506.207	632.31
506.423	632.31
506.64	625.31
506.856	605.31
507.073	623.31
507.289	652.31
507.506	645.31
507.722	645.31
507.939	668.31
508.155	667.31
508.372	634.31
508.588	628.31
508.805	621.31
509.021	643.31
509.238	619.31
509.454	624.31
509.67	622.31
509.887	617.31
510.103	621.31
510.319	607.31
510.536	738.31
510.752	1323.31
510.968	1054.31
511.184	665.31
511.401	635.31
511.617	611.31
511.833	597.31
512.049	587.31
512.265	615.31
512.481	582.31
512.698	568.31
512.914	557.31
513.13	581.31
513.346	592.31
513.562	587.31
513.778	572.31
513.994	607.31
514.21	616.31
514.426	636.31
514.642	691.31
514.858	742.31
515.074	783.31
515.29	957.31
515.506	1463.31
515.721	1172.31
515.937	752.31
516.153	688.31
516.369	650.31
516.585	618.31
516.801	596.31
517.016	605.31
517.232	577.31
517.448	585.31
517.664	573.31
517.879	601.31
518.095	580.31
518.311	600.31
518.527	591.31
518.742	587.31
518.958	589.31
519.173	576.31
519.389	581.31
519.605	581.31
519.82	588.31
520.036	613.31
520.251	634.31
520.467	663.31
520.682	667.31
520.898	675.31
521.113	711.31
521.329	796.31
521.544	854.31
521.76	1157.31
521.975	2015.31
522.19	1911.31
522.406	1000.31
522.621	713.31
522.836	643.31
523.052	617.31
523.267	581.31
523.482	539.31
523.698	560.31
523.913	552.31
524.128	551.31
524.343	539.31
524.559	516.31
524.774	504.31
524.989	530.31
525.204	523.31
525.419	519.31
525.634	496.31
525.849	502.31
526.064	466.31
526.28	464.31
526.495	479.31
526.71	477.31
526.925	497.31
527.14	448.31
527.355	493.31
527.57	465.31
527.785	469.31
527.999	481.31
528.214	485.31
528.429	469.31
528.644	473.31
528.859	472.31
529.074	477.31
529.289	529.31
529.503	605.31
529.718	591.31
529.933	535.31
530.148	484.31
530.363	489.31
530.577	467.31
530.792	461.31
531.007	472.31
531.221	477.31
531.436	461.31
531.651	445.31
531.865	457.31
532.08	460.31
532.295	440.31
532.509	449.31
532.724	453.31
532.938	464.31
533.153	452.31
533.367	430.31
533.582	425.31
533.796	431.31
534.011	438.31
534.225	432.31
534.44	429.31
534.654	425.31
534.868	425.31
535.083	426.31
535.297	427.31
535.511	431.31
535.726	452.31
535.94	455.31
536.154	444.31
536.369	447.31
536.583	414.31
536.797	428.31
537.011	433.31
537.225	426.31
537.44	424.31
537.654	429.31
537.868	427.31
538.082	424.31
538.296	417.31
538.51	441.31
538.724	441.31
538.938	433.31
539.153	413.31
539.367	458.31
539.581	449.31
539.795	433.31
540.009	431.31
540.222	432.31
540.436	433.31
540.65	439.31
540.864	430.31
541.078	439.31
541.292	437.31
541.506	431.31
541.72	425.31
541.934	419.31
542.147	429.31
542.361	411.31
542.575	419.31
542.789	425.31
543.002	435.31
543.216	414.31
543.43	451.31
543.644	453.31
543.857	422.31
544.071	424.31
544.285	434.31
544.498	412.31
544.712	413.31
544.925	432.31
545.139	417.31
545.352	400.31
545.566	407.31
545.779	399.31
545.993	407.31
546.206	418.31
546.42	403.31
546.633	411.31
546.847	415.31
547.06	435.31
547.274	427.31
547.487	395.31
547.7	394.31
547.914	396.31
548.127	384.31
548.34	384.31
548.554	382.31
548.767	397.31
548.98	404.31
549.193	395.31
549.407	388.31
549.62	398.31
549.833	389.31
550.046	400.31
550.259	365.31
550.473	364.31
550.686	376.31
550.899	385.31
551.112	413.31
551.325	380.31
551.538	391.31
551.751	377.31
551.964	384.31
552.177	368.31
552.39	394.31
552.603	393.31
552.816	411.31
553.029	413.31
553.242	396.31
553.455	413.31
553.667	405.31
553.88	399.31
554.093	419.31
554.306	397.31
554.519	391.31
554.732	407.31
554.944	390.31
555.157	391.31
555.37	382.31
555.583	392.31
555.795	400.31
556.008	388.31
556.221	366.31
556.433	379.31
556.646	377.31
556.859	359.31
557.071	349.31
557.284	347.31
557.496	371.31
557.709	379.31
557.921	341.31
558.134	372.31
558.346	368.31
558.559	369.31
558.771	352.31
558.984	356.31
559.196	354.31
559.409	340.31
559.621	337.31
559.833	370.31
560.046	341.31
560.258	350.31
560.47	346.31
560.683	351.31
560.895	330.31
561.107	337.31
561.32	361.31
561.532	352.31
561.744	352.31
561.956	344.31
562.168	349.31
562.381	367.31
562.593	357.31
562.805	352.31
563.017	335.31
563.229	368.31
563.441	355.31
563.653	357.31
563.865	364.31
564.077	346.31
564.289	338.31
564.501	356.31
564.713	357.31
564.925	348.31
565.137	379.31
565.349	386.31
565.561	374.31
565.773	367.31
565.985	365.31
566.197	386.31
566.408	383.31
566.62	396.31
566.832	368.31
567.044	393.31
567.255	407.31
567.467	411.31
567.679	407.31
567.891	390.31
568.102	406.31
568.314	398.31
568.526	384.31
568.737	394.31
568.949	373.31
569.161	381.31
569.372	375.31
569.584	364.31
569.795	369.31
570.007	364.31
570.218	413.31
570.43	404.31
570.641	357.31
570.853	333.31
571.064	333.31
571.276	338.31
571.487	337.31
571.698	331.31
571.91	335.31
572.121	336.31
572.333	314.31
572.544	328.31
572.755	322.31
572.966	341.31
573.178	317.31
573.389	332.31
573.6	312.31
573.811	319.31
574.023	329.31
574.234	307.31
574.445	309.31
574.656	319.31
574.867	304.31
575.078	309.31
575.289	307.31
575.501	292.31
575.712	308.31
575.923	301.31
576.134	291.31
576.345	294.31
576.556	293.31
576.767	300.31
576.978	299.31
577.188	310.31
577.399	309.31
577.61	306.31
577.821	308.31
578.032	291.31
578.243	362.31
578.454	628.31
578.665	439.31
578.875	321.31
579.086	305.31
579.297	314.31
579.508	277.31
579.718	289.31
579.929	286.31
580.14	280.31
580.35	285.31
580.561	301.31
580.772	288.31
580.982	285.31
581.193	273.31
581.403	292.31
581.614	280.31
581.825	292.31
582.035	294.31
582.246	285.31
582.456	270.31
582.667	267.31
582.877	268.31
583.087	279.31
583.298	279.31
583.508	280.31
583.719	274.31
583.929	285.31
584.139	281.31
584.35	276.31
584.56	267.31
584.77	269.31
584.981	274.31
585.191	272.31
585.401	275.31
585.611	269.31
585.821	263.31
586.032	256.31
586.242	267.31
586.452	259.31
586.662	286.31
586.872	267.31
587.082	274.31
587.292	295.31
587.502	259.31
587.713	280.31
587.923	274.31
588.133	251.31
588.343	264.31
588.553	275.31
588.762	274.31
588.972	288.31
589.182	285.31
589.392	268.31
589.602	274.31
589.812	265.31
590.022	268.31
590.232	276.31
590.441	267.31
590.651	255.31
590.861	268.31
591.071	263.31
591.281	263.31
591.49	265.31
591.7	260.31
591.91	256.31
592.119	265.31
592.329	280.31
592.539	285.31
592.748	263.31
592.958	269.31
593.167	265.31
593.377	289.31
593.587	263.31
593.796	273.31
594.006	271.31
594.215	280.31
594.424	267.31
594.634	259.31
594.843	271.31
595.053	272.31
595.262	276.31
595.472	253.31
595.681	272.31
595.89	267.31
596.1	249.31
596.309	254.31
596.518	231.31
596.727	247.31
596.937	245.31
597.146	254.31
597.355	248.31
597.564	266.31
597.774	252.31
597.983	246.31
598.192	252.31
598.401	246.31
598.61	236.31
598.819	253.31
599.028	245.31
599.237	267.31
599.446	225.31
599.655	230.31
599.864	235.31
600.073	216.31
600.282	236.31
600.491	230.31
600.7	236.31
600.909	245.31
601.118	242.31
601.327	231.31
601.536	228.31
601.745	221.31
601.953	212.31
602.162	221.31
602.371	256.31
602.58	229.31
602.789	222.31
602.997	224.31
603.206	223.31
603.415	245.31
603.623	244.31
603.832	249.31
604.041	262.31
604.249	223.31
604.458	229.31
604.666	212.31
604.875	233.31
605.084	226.31
605.292	216.31
605.501	248.31
605.709	246.31
605.918	226.31
606.126	225.31
606.334	230.31
606.543	235.31
606.751	223.31
606.96	230.31
607.168	232.31
607.376	219.31
607.585	228.31
607.793	233.31
608.001	243.31
608.21	237.31
608.418	245.31
608.626	222.31
608.834	220.31
609.043	235.31
609.251	221.31
609.459	221.31
609.667	233.31
609.875	220.31
610.083	222.31
610.291	245.31
610.499	216.31
610.707	237.31
610.916	219.31
611.124	222.31
611.332	228.31
611.54	226.31
611.748	214.31
611.955	228.31
612.163	228.31
612.371	213.31
612.579	213.31
612.787	218.31
612.995	211.31
613.203	221.31
613.411	215.31
613.618	213.31
613.826	204.31
614.034	232.31
614.242	228.31
614.449	223.31
614.657	223.31
614.865	212.31
615.072	220.31
615.28	208.31
615.488	207.31
615.695	212.31
615.903	220.31
616.111	222.31
616.318	208.31
616.526	217.31
616.733	215.31
616.941	219.31
617.148	232.31
617.356	219.31
617.563	227.31
617.771	227.31
617.978	210.31
618.185	208.31
618.393	207.31
618.6	206.31
618.807	198.31
619.015	183.31
619.222	212.31
619.429	193.31
619.637	213.31
619.844	219.31
620.051	203.31
620.258	207.31
620.466	210.31
620.673	211.31
620.88	207.31
621.087	210.31
621.294	209.31
621.501	194.31
621.708	198.31
621.915	209.31
622.122	201.31
622.329	204.31
622.536	207.31
622.743	195.31
622.95	202.31
623.157	197.31
623.364	196.31
623.571	212.31
623.778	209.31
623.985	220.31
624.192	204.31
624.399	201.31
624.606	208.31
624.812	203.31
625.019	203.31
625.226	204.31
625.433	207.31
625.639	212.31
625.846	192.31
626.053	191.31
626.259	190.31
626.466	197.31
626.673	204.31
626.879	197.31
627.086	179.31
627.293	196.31
627.499	191.31
627.706	214.31
627.912	183.31
628.119	190.31
628.325	193.31
628.532	205.31
628.738	184.31
628.945	183.31
629.151	187.31
629.357	176.31
629.564	185.31
629.77	193.31
629.976	193.31
630.183	204.31
630.389	206.31
630.595	205.31
630.802	201.31
631.008	208.31
631.214	176.31
631.42	183.31
631.627	193.31
631.833	162.31
632.039	153.31
632.245	170.31
632.451	173.31
632.657	182.31
632.863	177.31
633.069	180.31
633.275	183.31
633.481	176.31
633.688	165.31
633.893	192.31
634.099	177.31
634.305	171.31
634.511	175.31
634.717	175.31
634.923	167.31
635.129	174.31
635.335	165.31
635.541	165.31
635.747	174.31
635.952	164.31
636.158	189.31
636.364	171.31
636.57	176.31
636.775	187.31
636.981	169.31
637.187	173.31
637.392	174.31
637.598	175.31
637.804	164.31
638.009	182.31
638.215	176.31
638.421	171.31
638.626	170.31
638.832	176.31
639.037	165.31
639.243	182.31
639.448	167.31
639.654	173.31
639.859	155.31
640.065	157.31
640.27	165.31
640.475	161.31
640.681	170.31
640.886	163.31
641.091	171.31
641.297	174.31
641.502	174.31
641.707	174.31
641.913	161.31
642.118	161.31
642.323	166.31
642.528	179.31
642.733	176.31
642.939	153.31
643.144	160.31
643.349	149.31
643.554	144.31
643.759	138.31
643.964	150.31
644.169	157.31
644.374	164.31
644.579	152.31
644.784	163.31
644.989	159.31
645.194	152.31
645.399	169.31
645.604	156.31
645.809	159.31
646.014	147.31
646.219	161.31
646.423	173.31
646.628	146.31
646.833	152.31
647.038	160.31
647.243	142.31
647.447	151.31
647.652	148.31
647.857	150.31
648.062	160.31
648.266	143.31
648.471	150.31
648.676	159.31
648.88	161.31
649.085	158.31
649.289	160.31
649.494	156.31
649.698	191.31
649.903	192.31
650.107	167.31
650.312	170.31
650.516	142.31
650.721	149.31
650.925	164.31
651.13	138.31
651.334	142.31
651.539	149.31
651.743	133.31
651.947	135.31
652.152	139.31
652.356	136.31
652.56	134.31
652.764	138.31
652.969	136.31
653.173	144.31
653.377	139.31
653.581	135.31
653.785	118.31
653.99	131.31
654.194	123.31
654.398	134.31
654.602	128.31
654.806	137.31
655.01	144.31
655.214	136.31
655.418	143.31
655.622	133.31
655.826	127.31
656.03	129.31
656.234	135.31
656.438	137.31
656.642	122.31
656.846	118.31
657.049	115.31
657.253	111.31
657.457	116.31
657.661	117.31
657.865	107.31
658.068	101.31
658.272	94.31
658.476	103.31
658.68	104.31
658.883	93.31
659.087	119.31
659.291	94.31
659.494	108.31
659.698	93.31
659.901	102.31
660.105	94.31
660.309	90.31
660.512	98.31
660.716	92.31
660.919	106.31
661.123	106.31
661.326	100.31
661.53	96.31
661.733	91.31
661.936	97.31
662.14	101.31
662.343	73.31
662.546	88.31
662.75	99.31
662.953	88.31
663.156	72.31
663.36	81.31
663.563	84.31
663.766	79.31
663.969	86.31
664.173	77.31
664.376	91.31
664.579	85.31
664.782	89.31
664.985	101.31
665.188	84.31
665.391	91.31
665.594	87.31
665.797	96.31
666	71.31
666.203	87.31
666.406	86.31
666.609	78.31
666.812	69.31
667.015	83.31
667.218	77.31
667.421	94.31
667.624	77.31
667.827	94.31
668.03	87.31
668.232	73.31
668.435	96.31
668.638	90.31
668.841	90.31
669.043	87.31
669.246	100.31
669.449	87.31
669.651	83.31
669.854	78.31
670.057	75.31
670.259	76.31
670.462	85.31
670.665	85.31
670.867	91.31
671.07	82.31
671.272	86.31
671.475	78.31
671.677	87.31
671.88	77.31
672.082	85.31
672.284	89.31
672.487	84.31
672.689	83.31
672.892	82.31
