Data from 1972.PennyLincolnUp.Lamp.En5.5.200Scan.071719.P1._HRD10591_15-28-50-844.txt Node
Date: Thu Jul 18 15:28:50 EDT 2019
User: cochatt
Spectrometer: HR+D1059
Trigger mode: 1
Integration Time (sec): 1.000000E-1
Scans to average: 1
Electric dark correction enabled: true
Nonlinearity correction enabled: false
Boxcar width: 0
XAxis mode: Wavelengths
Number of Pixels in Spectrum: 2048
>>>>>Begin Spectral Data<<<<<
223.165	-17.81
223.4	-17.81
223.635	-17.81
223.869	-12.81
224.104	-10.81
224.338	-26.81
224.573	-9.81
224.808	-19.81
225.042	-4.81
225.277	-6.81
225.511	-3.81
225.746	13.19
225.98	3.19
226.215	9.19
226.449	21.19
226.683	15.19
226.918	25.19
227.152	26.19
227.387	37.19
227.621	41.19
227.856	46.19
228.09	45.19
228.324	46.19
228.559	60.19
228.793	67.19
229.027	105.19
229.262	121.19
229.496	124.19
229.73	135.19
229.964	168.19
230.199	135.19
230.433	114.19
230.667	109.19
230.901	125.19
231.136	113.19
231.37	119.19
231.604	94.19
231.838	127.19
232.072	104.19
232.306	113.19
232.541	108.19
232.775	103.19
233.009	126.19
233.243	123.19
233.477	107.19
233.711	115.19
233.945	106.19
234.179	122.19
234.413	110.19
234.647	113.19
234.881	105.19
235.115	99.19
235.349	127.19
235.583	125.19
235.817	130.19
236.051	106.19
236.285	133.19
236.519	137.19
236.753	133.19
236.987	150.19
237.221	177.19
237.455	257.19
237.689	199.19
237.922	141.19
238.156	135.19
238.39	126.19
238.624	141.19
238.858	131.19
239.091	113.19
239.325	127.19
239.559	122.19
239.793	131.19
240.027	138.19
240.26	136.19
240.494	157.19
240.728	164.19
240.961	169.19
241.195	146.19
241.429	150.19
241.662	127.19
241.896	141.19
242.13	153.19
242.363	133.19
242.597	127.19
242.83	137.19
243.064	135.19
243.298	129.19
243.531	146.19
243.765	147.19
243.998	143.19
244.232	153.19
244.465	130.19
244.699	157.19
244.932	137.19
245.166	151.19
245.399	146.19
245.633	143.19
245.866	134.19
246.099	158.19
246.333	144.19
246.566	160.19
246.8	152.19
247.033	150.19
247.266	140.19
247.5	151.19
247.733	153.19
247.966	185.19
248.2	161.19
248.433	169.19
248.666	160.19
248.899	201.19
249.133	220.19
249.366	214.19
249.599	199.19
249.832	205.19
250.066	182.19
250.299	188.19
250.532	206.19
250.765	211.19
250.998	233.19
251.231	229.19
251.465	197.19
251.698	214.19
251.931	196.19
252.164	201.19
252.397	198.19
252.63	187.19
252.863	225.19
253.096	222.19
253.329	223.19
253.562	226.19
253.795	217.19
254.028	211.19
254.261	211.19
254.494	238.19
254.727	263.19
254.96	287.19
255.193	289.19
255.426	255.19
255.659	229.19
255.892	253.19
256.124	245.19
256.357	238.19
256.59	243.19
256.823	218.19
257.056	231.19
257.289	222.19
257.521	207.19
257.754	211.19
257.987	203.19
258.22	198.19
258.452	218.19
258.685	200.19
258.918	211.19
259.151	207.19
259.383	217.19
259.616	221.19
259.849	230.19
260.081	254.19
260.314	268.19
260.547	276.19
260.779	263.19
261.012	233.19
261.244	234.19
261.477	225.19
261.71	237.19
261.942	229.19
262.175	247.19
262.407	221.19
262.64	229.19
262.872	222.19
263.105	214.19
263.337	205.19
263.57	216.19
263.802	202.19
264.035	211.19
264.267	198.19
264.499	222.19
264.732	215.19
264.964	221.19
265.197	201.19
265.429	219.19
265.661	198.19
265.894	211.19
266.126	205.19
266.358	202.19
266.591	220.19
266.823	228.19
267.055	230.19
267.287	233.19
267.52	217.19
267.752	223.19
267.984	232.19
268.216	225.19
268.448	230.19
268.681	227.19
268.913	249.19
269.145	274.19
269.377	292.19
269.609	285.19
269.841	266.19
270.073	279.19
270.306	293.19
270.538	341.19
270.77	314.19
271.002	310.19
271.234	289.19
271.466	307.19
271.698	319.19
271.93	301.19
272.162	337.19
272.394	333.19
272.626	323.19
272.858	285.19
273.09	286.19
273.322	287.19
273.553	283.19
273.785	275.19
274.017	271.19
274.249	257.19
274.481	261.19
274.713	246.19
274.945	279.19
275.176	257.19
275.408	265.19
275.64	266.19
275.872	274.19
276.104	274.19
276.335	278.19
276.567	278.19
276.799	280.19
277.031	322.19
277.262	327.19
277.494	307.19
277.726	291.19
277.957	297.19
278.189	262.19
278.421	277.19
278.652	273.19
278.884	284.19
279.115	277.19
279.347	260.19
279.579	266.19
279.81	244.19
280.042	263.19
280.273	267.19
280.505	257.19
280.736	267.19
280.968	245.19
281.199	236.19
281.431	255.19
281.662	262.19
281.894	259.19
282.125	255.19
282.356	277.19
282.588	296.19
282.819	307.19
283.051	272.19
283.282	260.19
283.513	252.19
283.745	249.19
283.976	266.19
284.207	276.19
284.439	253.19
284.67	258.19
284.901	265.19
285.132	272.19
285.364	253.19
285.595	268.19
285.826	271.19
286.057	286.19
286.288	277.19
286.52	270.19
286.751	268.19
286.982	261.19
287.213	262.19
287.444	281.19
287.675	263.19
287.906	299.19
288.138	280.19
288.369	293.19
288.6	290.19
288.831	264.19
289.062	262.19
289.293	286.19
289.524	258.19
289.755	247.19
289.986	278.19
290.217	261.19
290.448	260.19
290.679	279.19
290.91	274.19
291.141	266.19
291.371	283.19
291.602	270.19
291.833	263.19
292.064	268.19
292.295	269.19
292.526	271.19
292.757	269.19
292.987	265.19
293.218	260.19
293.449	274.19
293.68	277.19
293.91	281.19
294.141	259.19
294.372	268.19
294.603	277.19
294.833	261.19
295.064	277.19
295.295	281.19
295.525	283.19
295.756	290.19
295.987	285.19
296.217	319.19
296.448	319.19
296.679	296.19
296.909	268.19
297.14	268.19
297.37	276.19
297.601	265.19
297.831	278.19
298.062	286.19
298.292	281.19
298.523	272.19
298.753	284.19
298.984	283.19
299.214	277.19
299.445	286.19
299.675	301.19
299.905	305.19
300.136	278.19
300.366	284.19
300.597	306.19
300.827	287.19
301.057	289.19
301.288	315.19
301.518	299.19
301.748	310.19
301.979	311.19
302.209	302.19
302.439	313.19
302.669	321.19
302.9	312.19
303.13	300.19
303.36	300.19
303.59	302.19
303.82	297.19
304.051	322.19
304.281	321.19
304.511	305.19
304.741	297.19
304.971	300.19
305.201	284.19
305.431	294.19
305.661	305.19
305.891	304.19
306.121	310.19
306.352	318.19
306.582	332.19
306.812	325.19
307.042	303.19
307.272	302.19
307.502	298.19
307.731	301.19
307.961	327.19
308.191	315.19
308.421	310.19
308.651	309.19
308.881	334.19
309.111	316.19
309.341	328.19
309.571	314.19
309.8	334.19
310.03	349.19
310.26	390.19
310.49	364.19
310.72	366.19
310.949	402.19
311.179	412.19
311.409	363.19
311.639	377.19
311.868	356.19
312.098	362.19
312.328	382.19
312.557	397.19
312.787	407.19
313.017	411.19
313.246	383.19
313.476	359.19
313.706	346.19
313.935	363.19
314.165	383.19
314.394	405.19
314.624	403.19
314.853	375.19
315.083	375.19
315.312	333.19
315.542	337.19
315.771	361.19
316.001	336.19
316.23	346.19
316.46	364.19
316.689	375.19
316.919	369.19
317.148	373.19
317.377	383.19
317.607	380.19
317.836	358.19
318.065	364.19
318.295	365.19
318.524	367.19
318.753	341.19
318.983	348.19
319.212	341.19
319.441	371.19
319.67	381.19
319.9	375.19
320.129	376.19
320.358	366.19
320.587	364.19
320.816	389.19
321.046	372.19
321.275	387.19
321.504	395.19
321.733	375.19
321.962	415.19
322.191	399.19
322.42	423.19
322.649	446.19
322.878	451.19
323.108	474.19
323.337	510.19
323.566	539.19
323.795	587.19
324.024	624.19
324.253	811.19
324.482	1162.19
324.71	1836.19
324.939	2735.19
325.168	2371.19
325.397	1171.19
325.626	755.19
325.855	618.19
326.084	555.19
326.313	523.19
326.542	553.19
326.77	598.19
326.999	713.19
327.228	1033.19
327.457	1596.19
327.686	2029.19
327.914	1365.19
328.143	867.19
328.372	714.19
328.6	663.19
328.829	618.19
329.058	637.19
329.287	652.19
329.515	599.19
329.744	531.19
329.972	553.19
330.201	564.19
330.43	617.19
330.658	656.19
330.887	691.19
331.115	680.19
331.344	535.19
331.572	504.19
331.801	509.19
332.03	489.19
332.258	487.19
332.486	450.19
332.715	425.19
332.943	430.19
333.172	446.19
333.4	429.19
333.629	436.19
333.857	441.19
334.085	466.19
334.314	499.19
334.542	559.19
334.771	581.19
334.999	530.19
335.227	442.19
335.455	460.19
335.684	428.19
335.912	411.19
336.14	418.19
336.369	407.19
336.597	435.19
336.825	442.19
337.053	418.19
337.281	409.19
337.51	399.19
337.738	399.19
337.966	391.19
338.194	420.19
338.422	386.19
338.65	399.19
338.878	405.19
339.106	394.19
339.334	371.19
339.562	394.19
339.79	395.19
340.018	389.19
340.246	397.19
340.474	403.19
340.702	413.19
340.93	389.19
341.158	396.19
341.386	399.19
341.614	393.19
341.842	414.19
342.07	402.19
342.298	392.19
342.526	409.19
342.754	386.19
342.981	383.19
343.209	379.19
343.437	382.19
343.665	382.19
343.893	382.19
344.12	390.19
344.348	402.19
344.576	385.19
344.804	375.19
345.031	415.19
345.259	403.19
345.487	431.19
345.714	412.19
345.942	413.19
346.17	408.19
346.397	406.19
346.625	387.19
346.853	374.19
347.08	386.19
347.308	376.19
347.535	391.19
347.763	405.19
347.99	413.19
348.218	405.19
348.445	415.19
348.673	412.19
348.9	403.19
349.128	383.19
349.355	373.19
349.583	383.19
349.81	369.19
350.037	380.19
350.265	388.19
350.492	370.19
350.72	376.19
350.947	378.19
351.174	381.19
351.402	402.19
351.629	387.19
351.856	396.19
352.083	405.19
352.311	417.19
352.538	417.19
352.765	410.19
352.992	416.19
353.22	399.19
353.447	395.19
353.674	403.19
353.901	378.19
354.128	361.19
354.355	360.19
354.583	372.19
354.81	363.19
355.037	373.19
355.264	359.19
355.491	337.19
355.718	362.19
355.945	348.19
356.172	335.19
356.399	328.19
356.626	341.19
356.853	332.19
357.08	351.19
357.307	356.19
357.534	345.19
357.761	333.19
357.988	342.19
358.215	350.19
358.441	364.19
358.668	380.19
358.895	366.19
359.122	365.19
359.349	393.19
359.576	399.19
359.802	402.19
360.029	463.19
360.256	473.19
360.483	436.19
360.709	397.19
360.936	409.19
361.163	381.19
361.39	396.19
361.616	386.19
361.843	395.19
362.07	389.19
362.296	386.19
362.523	404.19
362.749	400.19
362.976	391.19
363.203	364.19
363.429	355.19
363.656	361.19
363.882	363.19
364.109	382.19
364.335	355.19
364.562	364.19
364.788	363.19
365.015	345.19
365.241	350.19
365.468	381.19
365.694	377.19
365.92	347.19
366.147	366.19
366.373	356.19
366.599	354.19
366.826	365.19
367.052	348.19
367.278	333.19
367.505	354.19
367.731	369.19
367.957	358.19
368.184	363.19
368.41	360.19
368.636	369.19
368.862	385.19
369.089	370.19
369.315	354.19
369.541	357.19
369.767	354.19
369.993	373.19
370.219	353.19
370.445	372.19
370.672	362.19
370.898	351.19
371.124	350.19
371.35	361.19
371.576	362.19
371.802	354.19
372.028	348.19
372.254	337.19
372.48	333.19
372.706	352.19
372.932	345.19
373.158	356.19
373.384	356.19
373.61	346.19
373.835	344.19
374.061	338.19
374.287	367.19
374.513	365.19
374.739	355.19
374.965	349.19
375.191	343.19
375.416	351.19
375.642	339.19
375.868	350.19
376.094	349.19
376.319	343.19
376.545	349.19
376.771	353.19
376.997	351.19
377.222	350.19
377.448	332.19
377.674	347.19
377.899	330.19
378.125	339.19
378.35	341.19
378.576	327.19
378.802	355.19
379.027	335.19
379.253	342.19
379.478	326.19
379.704	332.19
379.929	350.19
380.155	350.19
380.38	347.19
380.606	329.19
380.831	355.19
381.057	345.19
381.282	348.19
381.507	350.19
381.733	331.19
381.958	335.19
382.184	352.19
382.409	341.19
382.634	354.19
382.86	330.19
383.085	345.19
383.31	351.19
383.535	336.19
383.761	358.19
383.986	361.19
384.211	346.19
384.436	358.19
384.662	355.19
384.887	355.19
385.112	347.19
385.337	357.19
385.562	356.19
385.787	365.19
386.013	385.19
386.238	378.19
386.463	383.19
386.688	370.19
386.913	362.19
387.138	349.19
387.363	361.19
387.588	360.19
387.813	371.19
388.038	372.19
388.263	344.19
388.488	346.19
388.713	361.19
388.938	355.19
389.163	381.19
389.387	373.19
389.612	355.19
389.837	353.19
390.062	362.19
390.287	358.19
390.512	351.19
390.736	357.19
390.961	366.19
391.186	357.19
391.411	366.19
391.636	346.19
391.86	366.19
392.085	363.19
392.31	378.19
392.534	375.19
392.759	372.19
392.984	382.19
393.208	367.19
393.433	373.19
393.658	358.19
393.882	375.19
394.107	358.19
394.331	356.19
394.556	361.19
394.78	361.19
395.005	374.19
395.229	372.19
395.454	354.19
395.678	374.19
395.903	377.19
396.127	423.19
396.352	408.19
396.576	381.19
396.801	362.19
397.025	369.19
397.249	411.19
397.474	382.19
397.698	389.19
397.922	397.19
398.147	399.19
398.371	414.19
398.595	409.19
398.82	397.19
399.044	410.19
399.268	408.19
399.492	435.19
399.717	450.19
399.941	478.19
400.165	518.19
400.389	517.19
400.613	462.19
400.837	436.19
401.062	401.19
401.286	423.19
401.51	420.19
401.734	400.19
401.958	418.19
402.182	422.19
402.406	437.19
402.63	413.19
402.854	408.19
403.078	425.19
403.302	417.19
403.526	417.19
403.75	439.19
403.974	407.19
404.198	408.19
404.422	444.19
404.645	465.19
404.869	461.19
405.093	487.19
405.317	526.19
405.541	567.19
405.765	515.19
405.988	479.19
406.212	493.19
406.436	501.19
406.66	520.19
406.883	455.19
407.107	493.19
407.331	516.19
407.555	579.19
407.778	589.19
408.002	543.19
408.226	490.19
408.449	477.19
408.673	486.19
408.896	519.19
409.12	580.19
409.344	518.19
409.567	452.19
409.791	440.19
410.014	446.19
410.238	452.19
410.461	446.19
410.685	439.19
410.908	468.19
411.132	479.19
411.355	533.19
411.578	505.19
411.802	454.19
412.025	428.19
412.249	429.19
412.472	458.19
412.695	505.19
412.919	493.19
413.142	437.19
413.365	429.19
413.589	443.19
413.812	423.19
414.035	421.19
414.258	411.19
414.482	420.19
414.705	427.19
414.928	403.19
415.151	407.19
415.374	404.19
415.597	403.19
415.821	382.19
416.044	403.19
416.267	397.19
416.49	405.19
416.713	404.19
416.936	389.19
417.159	409.19
417.382	426.19
417.605	438.19
417.828	435.19
418.051	438.19
418.274	427.19
418.497	402.19
418.72	416.19
418.943	415.19
419.166	429.19
419.389	457.19
419.611	426.19
419.834	435.19
420.057	442.19
420.28	446.19
420.503	436.19
420.726	427.19
420.948	461.19
421.171	501.19
421.394	535.19
421.617	471.19
421.839	443.19
422.062	438.19
422.285	460.19
422.507	521.19
422.73	593.19
422.953	555.19
423.175	499.19
423.398	454.19
423.621	459.19
423.843	481.19
424.066	509.19
424.288	488.19
424.511	483.19
424.733	561.19
424.956	636.19
425.178	609.19
425.401	598.19
425.623	643.19
425.846	519.19
426.068	497.19
426.291	483.19
426.513	469.19
426.735	480.19
426.958	551.19
427.18	625.19
427.402	747.19
427.625	847.19
427.847	783.19
428.069	650.19
428.292	565.19
428.514	505.19
428.736	484.19
428.958	473.19
429.181	421.19
429.403	429.19
429.625	468.19
429.847	512.19
430.069	568.19
430.292	572.19
430.514	489.19
430.736	457.19
430.958	436.19
431.18	436.19
431.402	404.19
431.624	384.19
431.846	392.19
432.068	409.19
432.29	423.19
432.512	413.19
432.734	424.19
432.956	436.19
433.178	441.19
433.4	423.19
433.622	414.19
433.844	389.19
434.066	411.19
434.287	398.19
434.509	408.19
434.731	437.19
434.953	437.19
435.175	454.19
435.397	469.19
435.618	481.19
435.84	533.19
436.062	626.19
436.284	679.19
436.505	583.19
436.727	545.19
436.949	466.19
437.17	451.19
437.392	477.19
437.614	488.19
437.835	514.19
438.057	618.19
438.278	689.19
438.5	698.19
438.721	755.19
438.943	740.19
439.165	598.19
439.386	501.19
439.608	500.19
439.829	508.19
440.05	559.19
440.272	601.19
440.493	565.19
440.715	507.19
440.936	473.19
441.158	481.19
441.379	464.19
441.6	460.19
441.822	492.19
442.043	554.19
442.264	614.19
442.486	657.19
442.707	569.19
442.928	528.19
443.149	535.19
443.371	544.19
443.592	586.19
443.813	682.19
444.034	732.19
444.255	607.19
444.476	516.19
444.698	483.19
444.919	482.19
445.14	573.19
445.361	527.19
445.582	537.19
445.803	625.19
446.024	733.19
446.245	753.19
446.466	682.19
446.687	550.19
446.908	517.19
447.129	461.19
447.35	448.19
447.571	486.19
447.792	460.19
448.013	456.19
448.234	495.19
448.455	545.19
448.675	643.19
448.896	796.19
449.117	640.19
449.338	603.19
449.559	722.19
449.779	786.19
450	648.19
450.221	533.19
450.442	493.19
450.662	471.19
450.883	469.19
451.104	501.19
451.324	477.19
451.545	453.19
451.766	423.19
451.986	413.19
452.207	405.19
452.428	408.19
452.648	414.19
452.869	411.19
453.089	414.19
453.31	450.19
453.53	378.19
453.751	404.19
453.971	425.19
454.192	453.19
454.412	429.19
454.633	417.19
454.853	410.19
455.073	405.19
455.294	441.19
455.514	503.19
455.734	501.19
455.955	410.19
456.175	377.19
456.395	387.19
456.616	391.19
456.836	378.19
457.056	367.19
457.276	366.19
457.497	414.19
457.717	386.19
457.937	393.19
458.157	402.19
458.377	401.19
458.598	405.19
458.818	498.19
459.038	573.19
459.258	605.19
459.478	489.19
459.698	426.19
459.918	404.19
460.138	403.19
460.358	409.19
460.578	408.19
460.798	394.19
461.018	413.19
461.238	397.19
461.458	401.19
461.678	387.19
461.898	404.19
462.118	407.19
462.338	396.19
462.558	421.19
462.777	434.19
462.997	415.19
463.217	407.19
463.437	417.19
463.657	427.19
463.876	422.19
464.096	441.19
464.316	419.19
464.536	453.19
464.755	444.19
464.975	443.19
465.195	523.19
465.414	635.19
465.634	523.19
465.854	461.19
466.073	426.19
466.293	440.19
466.512	407.19
466.732	394.19
466.951	438.19
467.171	406.19
467.391	415.19
467.61	427.19
467.829	446.19
468.049	428.19
468.268	419.19
468.488	415.19
468.707	390.19
468.927	400.19
469.146	391.19
469.365	396.19
469.585	398.19
469.804	404.19
470.023	437.19
470.243	441.19
470.462	412.19
470.681	451.19
470.901	451.19
471.12	437.19
471.339	390.19
471.558	399.19
471.777	419.19
471.997	418.19
472.216	408.19
472.435	492.19
472.654	457.19
472.873	416.19
473.092	434.19
473.311	419.19
473.53	423.19
473.749	450.19
473.968	469.19
474.187	587.19
474.406	616.19
474.625	477.19
474.844	447.19
475.063	439.19
475.282	437.19
475.501	406.19
475.72	438.19
475.939	425.19
476.158	443.19
476.377	418.19
476.596	438.19
476.814	426.19
477.033	428.19
477.252	443.19
477.471	419.19
477.69	436.19
477.908	453.19
478.127	423.19
478.346	442.19
478.564	461.19
478.783	446.19
479.002	455.19
479.22	453.19
479.439	482.19
479.658	516.19
479.876	515.19
480.095	512.19
480.313	536.19
480.532	510.19
480.751	511.19
480.969	501.19
481.188	594.19
481.406	663.19
481.624	600.19
481.843	541.19
482.061	494.19
482.28	513.19
482.498	487.19
482.717	517.19
482.935	497.19
483.153	495.19
483.372	485.19
483.59	479.19
483.808	510.19
484.027	480.19
484.245	473.19
484.463	491.19
484.681	490.19
484.9	496.19
485.118	489.19
485.336	492.19
485.554	498.19
485.772	501.19
485.99	534.19
486.209	491.19
486.427	502.19
486.645	525.19
486.863	551.19
487.081	554.19
487.299	515.19
487.517	526.19
487.735	530.19
487.953	525.19
488.171	531.19
488.389	541.19
488.607	521.19
488.825	522.19
489.043	525.19
489.261	546.19
489.479	554.19
489.696	534.19
489.914	521.19
490.132	539.19
490.35	538.19
490.568	539.19
490.786	571.19
491.003	567.19
491.221	571.19
491.439	595.19
491.657	610.19
491.874	611.19
492.092	623.19
492.31	603.19
492.527	579.19
492.745	629.19
492.963	633.19
493.18	618.19
493.398	662.19
493.615	626.19
493.833	606.19
494.05	626.19
494.268	620.19
494.485	630.19
494.703	613.19
494.92	622.19
495.138	606.19
495.355	637.19
495.573	628.19
495.79	614.19
496.008	622.19
496.225	638.19
496.442	616.19
496.66	658.19
496.877	595.19
497.094	626.19
497.312	647.19
497.529	648.19
497.746	657.19
497.963	646.19
498.181	686.19
498.398	656.19
498.615	652.19
498.832	643.19
499.049	677.19
499.267	686.19
499.484	663.19
499.701	721.19
499.918	713.19
500.135	736.19
500.352	727.19
500.569	766.19
500.786	749.19
501.003	755.19
501.22	747.19
501.437	748.19
501.654	747.19
501.871	747.19
502.088	742.19
502.305	693.19
502.522	710.19
502.739	681.19
502.956	651.19
503.172	632.19
503.389	617.19
503.606	652.19
503.823	650.19
504.04	635.19
504.256	643.19
504.473	643.19
504.69	607.19
504.907	620.19
505.123	610.19
505.34	601.19
505.557	615.19
505.773	631.19
505.99	623.19
506.207	609.19
506.423	621.19
506.64	602.19
506.856	600.19
507.073	621.19
507.289	602.19
507.506	620.19
507.722	607.19
507.939	647.19
508.155	621.19
508.372	604.19
508.588	612.19
508.805	604.19
509.021	588.19
509.238	610.19
509.454	601.19
509.67	587.19
509.887	596.19
510.103	611.19
510.319	627.19
510.536	731.19
510.752	1305.19
510.968	1074.19
511.184	655.19
511.401	598.19
511.617	555.19
511.833	572.19
512.049	557.19
512.265	567.19
512.481	549.19
512.698	569.19
512.914	548.19
513.13	553.19
513.346	585.19
513.562	567.19
513.778	552.19
513.994	603.19
514.21	603.19
514.426	656.19
514.642	700.19
514.858	727.19
515.074	771.19
515.29	963.19
515.506	1495.19
515.721	1191.19
515.937	755.19
516.153	649.19
516.369	636.19
516.585	610.19
516.801	599.19
517.016	555.19
517.232	553.19
517.448	577.19
517.664	565.19
517.879	582.19
518.095	575.19
518.311	557.19
518.527	551.19
518.742	570.19
518.958	575.19
519.173	552.19
519.389	572.19
519.605	576.19
519.82	566.19
520.036	590.19
520.251	614.19
520.467	652.19
520.682	651.19
520.898	696.19
521.113	693.19
521.329	766.19
521.544	876.19
521.76	1196.19
521.975	1986.19
522.19	1929.19
522.406	1011.19
522.621	740.19
522.836	646.19
523.052	616.19
523.267	567.19
523.482	529.19
523.698	521.19
523.913	540.19
524.128	523.19
524.343	505.19
524.559	505.19
524.774	506.19
524.989	509.19
525.204	497.19
525.419	511.19
525.634	498.19
525.849	486.19
526.064	455.19
526.28	467.19
526.495	463.19
526.71	455.19
526.925	466.19
527.14	449.19
527.355	428.19
527.57	465.19
527.785	463.19
527.999	454.19
528.214	455.19
528.429	448.19
528.644	459.19
528.859	446.19
529.074	435.19
529.289	506.19
529.503	597.19
529.718	572.19
529.933	521.19
530.148	471.19
530.363	467.19
530.577	456.19
530.792	439.19
531.007	417.19
531.221	455.19
531.436	426.19
531.651	436.19
531.865	441.19
532.08	427.19
532.295	425.19
532.509	429.19
532.724	424.19
532.938	426.19
533.153	460.19
533.367	441.19
533.582	433.19
533.796	421.19
534.011	408.19
534.225	409.19
534.44	401.19
534.654	407.19
534.868	419.19
535.083	413.19
535.297	429.19
535.511	436.19
535.726	438.19
535.94	422.19
536.154	416.19
536.369	416.19
536.583	399.19
536.797	418.19
537.011	397.19
537.225	384.19
537.44	392.19
537.654	393.19
537.868	398.19
538.082	409.19
538.296	422.19
538.51	416.19
538.724	419.19
538.938	413.19
539.153	412.19
539.367	427.19
539.581	426.19
539.795	405.19
540.009	413.19
540.222	391.19
540.436	419.19
540.65	423.19
540.864	414.19
541.078	425.19
541.292	437.19
541.506	417.19
541.72	447.19
541.934	425.19
542.147	413.19
542.361	416.19
542.575	399.19
542.789	399.19
543.002	434.19
543.216	403.19
543.43	416.19
543.644	412.19
543.857	386.19
544.071	405.19
544.285	385.19
544.498	406.19
544.712	403.19
544.925	399.19
545.139	417.19
545.352	384.19
545.566	372.19
545.779	389.19
545.993	389.19
546.206	377.19
546.42	397.19
546.633	377.19
546.847	386.19
547.06	381.19
547.274	384.19
547.487	377.19
547.7	378.19
547.914	400.19
548.127	375.19
548.34	363.19
548.554	381.19
548.767	365.19
548.98	375.19
549.193	371.19
549.407	375.19
549.62	367.19
549.833	379.19
550.046	353.19
550.259	387.19
550.473	386.19
550.686	341.19
550.899	361.19
551.112	376.19
551.325	372.19
551.538	365.19
551.751	369.19
551.964	361.19
552.177	353.19
552.39	384.19
552.603	383.19
552.816	365.19
553.029	374.19
553.242	370.19
553.455	394.19
553.667	393.19
553.88	408.19
554.093	398.19
554.306	376.19
554.519	387.19
554.732	385.19
554.944	367.19
555.157	362.19
555.37	374.19
555.583	354.19
555.795	361.19
556.008	362.19
556.221	353.19
556.433	347.19
556.646	338.19
556.859	346.19
557.071	338.19
557.284	364.19
557.496	347.19
557.709	348.19
557.921	337.19
558.134	331.19
558.346	353.19
558.559	337.19
558.771	342.19
558.984	342.19
559.196	339.19
559.409	341.19
559.621	351.19
559.833	344.19
560.046	330.19
560.258	340.19
560.47	343.19
560.683	333.19
560.895	333.19
561.107	326.19
561.32	310.19
561.532	342.19
561.744	340.19
561.956	356.19
562.168	325.19
562.381	339.19
562.593	324.19
562.805	338.19
563.017	340.19
563.229	342.19
563.441	343.19
563.653	323.19
563.865	342.19
564.077	333.19
564.289	337.19
564.501	341.19
564.713	344.19
564.925	343.19
565.137	352.19
565.349	347.19
565.561	350.19
565.773	373.19
565.985	369.19
566.197	360.19
566.408	361.19
566.62	347.19
566.832	369.19
567.044	365.19
567.255	377.19
567.467	363.19
567.679	388.19
567.891	383.19
568.102	377.19
568.314	346.19
568.526	356.19
568.737	364.19
568.949	338.19
569.161	341.19
569.372	353.19
569.584	331.19
569.795	338.19
570.007	356.19
570.218	414.19
570.43	381.19
570.641	326.19
570.853	326.19
571.064	310.19
571.276	313.19
571.487	323.19
571.698	314.19
571.91	323.19
572.121	315.19
572.333	291.19
572.544	297.19
572.755	301.19
572.966	313.19
573.178	299.19
573.389	306.19
573.6	308.19
573.811	313.19
574.023	311.19
574.234	291.19
574.445	305.19
574.656	278.19
574.867	283.19
575.078	275.19
575.289	293.19
575.501	293.19
575.712	285.19
575.923	288.19
576.134	299.19
576.345	294.19
576.556	312.19
576.767	323.19
576.978	301.19
577.188	294.19
577.399	277.19
577.61	286.19
577.821	289.19
578.032	281.19
578.243	346.19
578.454	630.19
578.665	433.19
578.875	318.19
579.086	313.19
579.297	277.19
579.508	281.19
579.718	284.19
579.929	261.19
580.14	267.19
580.35	271.19
580.561	266.19
580.772	283.19
580.982	262.19
581.193	252.19
581.403	262.19
581.614	266.19
581.825	267.19
582.035	271.19
582.246	269.19
582.456	263.19
582.667	263.19
582.877	253.19
583.087	272.19
583.298	242.19
583.508	259.19
583.719	263.19
583.929	261.19
584.139	263.19
584.35	260.19
584.56	258.19
584.77	279.19
584.981	261.19
585.191	269.19
585.401	271.19
585.611	271.19
585.821	251.19
586.032	262.19
586.242	247.19
586.452	262.19
586.662	246.19
586.872	264.19
587.082	265.19
587.292	263.19
587.502	239.19
587.713	260.19
587.923	262.19
588.133	252.19
588.343	257.19
588.553	260.19
588.762	278.19
588.972	264.19
589.182	260.19
589.392	253.19
589.602	268.19
589.812	268.19
590.022	266.19
590.232	266.19
590.441	243.19
590.651	255.19
590.861	243.19
591.071	253.19
591.281	254.19
591.49	263.19
591.7	259.19
591.91	257.19
592.119	251.19
592.329	252.19
592.539	257.19
592.748	266.19
592.958	252.19
593.167	267.19
593.377	246.19
593.587	278.19
593.796	239.19
594.006	268.19
594.215	243.19
594.424	247.19
594.634	239.19
594.843	274.19
595.053	250.19
595.262	261.19
595.472	245.19
595.681	249.19
595.89	246.19
596.1	246.19
596.309	243.19
596.518	227.19
596.727	254.19
596.937	252.19
597.146	237.19
597.355	243.19
597.564	252.19
597.774	232.19
597.983	229.19
598.192	216.19
598.401	245.19
598.61	220.19
598.819	221.19
599.028	226.19
599.237	243.19
599.446	246.19
599.655	233.19
599.864	241.19
600.073	245.19
600.282	219.19
600.491	219.19
600.7	248.19
600.909	218.19
601.118	238.19
601.327	240.19
601.536	234.19
601.745	243.19
601.953	235.19
602.162	228.19
602.371	237.19
602.58	216.19
602.789	212.19
602.997	216.19
603.206	213.19
603.415	221.19
603.623	221.19
603.832	221.19
604.041	233.19
604.249	235.19
604.458	227.19
604.666	227.19
604.875	225.19
605.084	235.19
605.292	233.19
605.501	221.19
605.709	220.19
605.918	223.19
606.126	221.19
606.334	215.19
606.543	201.19
606.751	205.19
606.96	225.19
607.168	214.19
607.376	217.19
607.585	213.19
607.793	197.19
608.001	215.19
608.21	230.19
608.418	220.19
608.626	206.19
608.834	211.19
609.043	221.19
609.251	224.19
609.459	221.19
609.667	215.19
609.875	201.19
610.083	226.19
610.291	200.19
610.499	207.19
610.707	221.19
610.916	201.19
611.124	200.19
611.332	223.19
611.54	232.19
611.748	221.19
611.955	213.19
612.163	194.19
612.371	216.19
612.579	222.19
612.787	209.19
612.995	222.19
613.203	219.19
613.411	212.19
613.618	191.19
613.826	201.19
614.034	197.19
614.242	208.19
614.449	204.19
614.657	213.19
614.865	205.19
615.072	211.19
615.28	215.19
615.488	208.19
615.695	216.19
615.903	216.19
616.111	199.19
616.318	213.19
616.526	218.19
616.733	212.19
616.941	215.19
617.148	212.19
617.356	204.19
617.563	185.19
617.771	188.19
617.978	213.19
618.185	197.19
618.393	200.19
618.6	210.19
618.807	206.19
619.015	210.19
619.222	209.19
619.429	190.19
619.637	181.19
619.844	209.19
620.051	201.19
620.258	189.19
620.466	198.19
620.673	198.19
620.88	211.19
621.087	197.19
621.294	193.19
621.501	205.19
621.708	208.19
621.915	189.19
622.122	199.19
622.329	212.19
622.536	201.19
622.743	181.19
622.95	177.19
623.157	187.19
623.364	202.19
623.571	188.19
623.778	201.19
623.985	215.19
624.192	182.19
624.399	198.19
624.606	203.19
624.812	185.19
625.019	204.19
625.226	186.19
625.433	183.19
625.639	191.19
625.846	198.19
626.053	178.19
626.259	196.19
626.466	171.19
626.673	197.19
626.879	170.19
627.086	181.19
627.293	191.19
627.499	191.19
627.706	191.19
627.912	194.19
628.119	204.19
628.325	203.19
628.532	194.19
628.738	176.19
628.945	182.19
629.151	181.19
629.357	174.19
629.564	161.19
629.77	190.19
629.976	185.19
630.183	179.19
630.389	184.19
630.595	187.19
630.802	165.19
631.008	177.19
631.214	170.19
631.42	190.19
631.627	176.19
631.833	178.19
632.039	177.19
632.245	203.19
632.451	170.19
632.657	174.19
632.863	179.19
633.069	173.19
633.275	179.19
633.481	161.19
633.688	171.19
633.893	185.19
634.099	179.19
634.305	171.19
634.511	173.19
634.717	153.19
634.923	171.19
635.129	172.19
635.335	173.19
635.541	168.19
635.747	161.19
635.952	154.19
636.158	166.19
636.364	179.19
636.57	183.19
636.775	166.19
636.981	160.19
637.187	152.19
637.392	165.19
637.598	160.19
637.804	168.19
638.009	167.19
638.215	170.19
638.421	161.19
638.626	171.19
638.832	151.19
639.037	165.19
639.243	153.19
639.448	157.19
639.654	153.19
639.859	161.19
640.065	166.19
640.27	166.19
640.475	161.19
640.681	156.19
640.886	160.19
641.091	155.19
641.297	163.19
641.502	167.19
641.707	165.19
641.913	168.19
642.118	167.19
642.323	163.19
642.528	167.19
642.733	153.19
642.939	153.19
643.144	129.19
643.349	153.19
643.554	148.19
643.759	168.19
643.964	155.19
644.169	150.19
644.374	163.19
644.579	159.19
644.784	149.19
644.989	156.19
645.194	152.19
645.399	144.19
645.604	156.19
645.809	148.19
646.014	143.19
646.219	172.19
646.423	167.19
646.628	149.19
646.833	140.19
647.038	166.19
647.243	164.19
647.447	164.19
647.652	154.19
647.857	145.19
648.062	146.19
648.266	149.19
648.471	143.19
648.676	161.19
648.88	130.19
649.085	147.19
649.289	167.19
649.494	173.19
649.698	178.19
649.903	183.19
650.107	157.19
650.312	155.19
650.516	153.19
650.721	151.19
650.925	144.19
651.13	139.19
651.334	139.19
651.539	132.19
651.743	151.19
651.947	150.19
652.152	144.19
652.356	131.19
652.56	148.19
652.764	142.19
652.969	128.19
653.173	126.19
653.377	133.19
653.581	128.19
653.785	127.19
653.99	126.19
654.194	130.19
654.398	132.19
654.602	138.19
654.806	133.19
655.01	155.19
655.214	129.19
655.418	126.19
655.622	117.19
655.826	118.19
656.03	122.19
656.234	115.19
656.438	121.19
656.642	125.19
656.846	120.19
657.049	94.19
657.253	104.19
657.457	117.19
657.661	89.19
657.865	104.19
658.068	104.19
658.272	97.19
658.476	95.19
658.68	98.19
658.883	104.19
659.087	116.19
659.291	85.19
659.494	98.19
659.698	99.19
659.901	108.19
660.105	99.19
660.309	99.19
660.512	101.19
660.716	84.19
660.919	91.19
661.123	102.19
661.326	87.19
661.53	90.19
661.733	89.19
661.936	103.19
662.14	70.19
662.343	85.19
662.546	95.19
662.75	88.19
662.953	79.19
663.156	89.19
663.36	83.19
663.563	94.19
663.766	75.19
663.969	87.19
664.173	89.19
664.376	102.19
664.579	83.19
664.782	85.19
664.985	92.19
665.188	94.19
665.391	76.19
665.594	72.19
665.797	80.19
666	77.19
666.203	89.19
666.406	77.19
666.609	79.19
666.812	83.19
667.015	81.19
667.218	72.19
667.421	69.19
667.624	81.19
667.827	86.19
668.03	87.19
668.232	74.19
668.435	93.19
668.638	78.19
668.841	84.19
669.043	88.19
669.246	88.19
669.449	97.19
669.651	89.19
669.854	89.19
670.057	85.19
670.259	84.19
670.462	73.19
670.665	79.19
670.867	80.19
671.07	80.19
671.272	76.19
671.475	85.19
671.677	84.19
671.88	80.19
672.082	84.19
672.284	103.19
672.487	76.19
672.689	90.19
672.892	91.19
