Data from 1972.PennyLincolnUp.Lamp.En5.5.200Scan.071719.P1._HRD10591_15-29-39-845.txt Node
Date: Thu Jul 18 15:29:39 EDT 2019
User: cochatt
Spectrometer: HR+D1059
Trigger mode: 1
Integration Time (sec): 1.000000E-1
Scans to average: 1
Electric dark correction enabled: true
Nonlinearity correction enabled: false
Boxcar width: 0
XAxis mode: Wavelengths
Number of Pixels in Spectrum: 2048
>>>>>Begin Spectral Data<<<<<
223.165	-8.06
223.4	-8.06
223.635	-8.06
223.869	-19.06
224.104	-9.06
224.338	-15.06
224.573	-8.06
224.808	-13.06
225.042	-17.06
225.277	-8.06
225.511	6.94
225.746	2.94
225.98	9.94
226.215	9.94
226.449	18.94
226.683	18.94
226.918	10.94
227.152	18.94
227.387	35.94
227.621	28.94
227.856	48.94
228.09	33.94
228.324	50.94
228.559	57.94
228.793	66.94
229.027	99.94
229.262	120.94
229.496	137.94
229.73	163.94
229.964	172.94
230.199	133.94
230.433	115.94
230.667	107.94
230.901	117.94
231.136	117.94
231.37	116.94
231.604	127.94
231.838	115.94
232.072	114.94
232.306	107.94
232.541	110.94
232.775	107.94
233.009	126.94
233.243	116.94
233.477	114.94
233.711	111.94
233.945	119.94
234.179	116.94
234.413	129.94
234.647	115.94
234.881	121.94
235.115	134.94
235.349	120.94
235.583	117.94
235.817	129.94
236.051	123.94
236.285	132.94
236.519	116.94
236.753	137.94
236.987	146.94
237.221	200.94
237.455	273.94
237.689	210.94
237.922	156.94
238.156	150.94
238.39	129.94
238.624	135.94
238.858	137.94
239.091	124.94
239.325	114.94
239.559	118.94
239.793	146.94
240.027	140.94
240.26	152.94
240.494	170.94
240.728	172.94
240.961	158.94
241.195	163.94
241.429	163.94
241.662	128.94
241.896	138.94
242.13	134.94
242.363	139.94
242.597	148.94
242.83	136.94
243.064	136.94
243.298	151.94
243.531	159.94
243.765	146.94
243.998	134.94
244.232	150.94
244.465	139.94
244.699	141.94
244.932	153.94
245.166	142.94
245.399	149.94
245.633	152.94
245.866	138.94
246.099	161.94
246.333	166.94
246.566	153.94
246.8	158.94
247.033	175.94
247.266	162.94
247.5	177.94
247.733	165.94
247.966	185.94
248.2	189.94
248.433	173.94
248.666	174.94
248.899	208.94
249.133	215.94
249.366	224.94
249.599	228.94
249.832	199.94
250.066	195.94
250.299	180.94
250.532	191.94
250.765	233.94
250.998	241.94
251.231	260.94
251.465	259.94
251.698	228.94
251.931	214.94
252.164	182.94
252.397	200.94
252.63	202.94
252.863	214.94
253.096	228.94
253.329	253.94
253.562	244.94
253.795	249.94
254.028	231.94
254.261	229.94
254.494	224.94
254.727	290.94
254.96	324.94
255.193	315.94
255.426	273.94
255.659	260.94
255.892	269.94
256.124	256.94
256.357	273.94
256.59	242.94
256.823	227.94
257.056	233.94
257.289	215.94
257.521	235.94
257.754	230.94
257.987	229.94
258.22	237.94
258.452	232.94
258.685	216.94
258.918	225.94
259.151	224.94
259.383	239.94
259.616	262.94
259.849	245.94
260.081	266.94
260.314	271.94
260.547	288.94
260.779	274.94
261.012	258.94
261.244	246.94
261.477	236.94
261.71	246.94
261.942	232.94
262.175	257.94
262.407	247.94
262.64	245.94
262.872	219.94
263.105	212.94
263.337	218.94
263.57	221.94
263.802	222.94
264.035	241.94
264.267	224.94
264.499	237.94
264.732	224.94
264.964	226.94
265.197	240.94
265.429	229.94
265.661	222.94
265.894	229.94
266.126	221.94
266.358	243.94
266.591	217.94
266.823	231.94
267.055	232.94
267.287	246.94
267.52	246.94
267.752	225.94
267.984	248.94
268.216	247.94
268.448	259.94
268.681	237.94
268.913	269.94
269.145	298.94
269.377	312.94
269.609	307.94
269.841	297.94
270.073	305.94
270.306	328.94
270.538	365.94
270.77	337.94
271.002	340.94
271.234	328.94
271.466	329.94
271.698	350.94
271.93	341.94
272.162	342.94
272.394	335.94
272.626	330.94
272.858	313.94
273.09	307.94
273.322	293.94
273.553	285.94
273.785	275.94
274.017	299.94
274.249	290.94
274.481	285.94
274.713	283.94
274.945	309.94
275.176	293.94
275.408	288.94
275.64	289.94
275.872	261.94
276.104	278.94
276.335	295.94
276.567	290.94
276.799	326.94
277.031	349.94
277.262	349.94
277.494	334.94
277.726	339.94
277.957	314.94
278.189	299.94
278.421	309.94
278.652	295.94
278.884	318.94
279.115	293.94
279.347	278.94
279.579	268.94
279.81	301.94
280.042	293.94
280.273	283.94
280.505	273.94
280.736	269.94
280.968	269.94
281.199	273.94
281.431	281.94
281.662	287.94
281.894	267.94
282.125	300.94
282.356	306.94
282.588	345.94
282.819	344.94
283.051	288.94
283.282	262.94
283.513	270.94
283.745	308.94
283.976	297.94
284.207	279.94
284.439	291.94
284.67	293.94
284.901	283.94
285.132	280.94
285.364	277.94
285.595	291.94
285.826	271.94
286.057	293.94
286.288	290.94
286.52	297.94
286.751	277.94
286.982	285.94
287.213	280.94
287.444	301.94
287.675	300.94
287.906	310.94
288.138	313.94
288.369	313.94
288.6	307.94
288.831	297.94
289.062	296.94
289.293	293.94
289.524	301.94
289.755	300.94
289.986	293.94
290.217	287.94
290.448	291.94
290.679	283.94
290.91	281.94
291.141	297.94
291.371	289.94
291.602	285.94
291.833	286.94
292.064	305.94
292.295	285.94
292.526	299.94
292.757	300.94
292.987	304.94
293.218	294.94
293.449	300.94
293.68	312.94
293.91	316.94
294.141	282.94
294.372	299.94
294.603	295.94
294.833	296.94
295.064	301.94
295.295	307.94
295.525	314.94
295.756	316.94
295.987	315.94
296.217	351.94
296.448	347.94
296.679	308.94
296.909	288.94
297.14	313.94
297.37	307.94
297.601	307.94
297.831	296.94
298.062	288.94
298.292	304.94
298.523	302.94
298.753	296.94
298.984	330.94
299.214	311.94
299.445	317.94
299.675	319.94
299.905	320.94
300.136	328.94
300.366	316.94
300.597	311.94
300.827	332.94
301.057	339.94
301.288	342.94
301.518	347.94
301.748	334.94
301.979	323.94
302.209	346.94
302.439	348.94
302.669	320.94
302.9	353.94
303.13	331.94
303.36	335.94
303.59	333.94
303.82	336.94
304.051	338.94
304.281	326.94
304.511	321.94
304.741	325.94
304.971	332.94
305.201	353.94
305.431	325.94
305.661	326.94
305.891	332.94
306.121	326.94
306.352	351.94
306.582	339.94
306.812	352.94
307.042	342.94
307.272	339.94
307.502	331.94
307.731	325.94
307.961	325.94
308.191	335.94
308.421	344.94
308.651	348.94
308.881	346.94
309.111	336.94
309.341	361.94
309.571	376.94
309.8	370.94
310.03	401.94
310.26	392.94
310.49	391.94
310.72	420.94
310.949	434.94
311.179	436.94
311.409	393.94
311.639	397.94
311.868	400.94
312.098	406.94
312.328	406.94
312.557	427.94
312.787	440.94
313.017	446.94
313.246	409.94
313.476	401.94
313.706	391.94
313.935	397.94
314.165	428.94
314.394	437.94
314.624	427.94
314.853	410.94
315.083	414.94
315.312	394.94
315.542	391.94
315.771	383.94
316.001	376.94
316.23	381.94
316.46	388.94
316.689	391.94
316.919	406.94
317.148	427.94
317.377	433.94
317.607	394.94
317.836	393.94
318.065	401.94
318.295	386.94
318.524	393.94
318.753	363.94
318.983	378.94
319.212	365.94
319.441	396.94
319.67	400.94
319.9	381.94
320.129	407.94
320.358	418.94
320.587	394.94
320.816	411.94
321.046	427.94
321.275	407.94
321.504	411.94
321.733	422.94
321.962	424.94
322.191	448.94
322.42	486.94
322.649	486.94
322.878	500.94
323.108	501.94
323.337	566.94
323.566	580.94
323.795	625.94
324.024	685.94
324.253	865.94
324.482	1298.94
324.71	2054.94
324.939	3013.94
325.168	2621.94
325.397	1323.94
325.626	855.94
325.855	651.94
326.084	595.94
326.313	596.94
326.542	590.94
326.77	655.94
326.999	813.94
327.228	1160.94
327.457	1788.94
327.686	2269.94
327.914	1485.94
328.143	925.94
328.372	794.94
328.6	721.94
328.829	664.94
329.058	700.94
329.287	714.94
329.515	654.94
329.744	603.94
329.972	598.94
330.201	622.94
330.43	693.94
330.658	708.94
330.887	716.94
331.115	713.94
331.344	608.94
331.572	566.94
331.801	553.94
332.03	537.94
332.258	494.94
332.486	482.94
332.715	472.94
332.943	461.94
333.172	448.94
333.4	478.94
333.629	492.94
333.857	515.94
334.085	521.94
334.314	560.94
334.542	587.94
334.771	637.94
334.999	542.94
335.227	506.94
335.455	490.94
335.684	472.94
335.912	461.94
336.14	459.94
336.369	482.94
336.597	462.94
336.825	470.94
337.053	458.94
337.281	429.94
337.51	442.94
337.738	473.94
337.966	449.94
338.194	457.94
338.422	445.94
338.65	446.94
338.878	449.94
339.106	436.94
339.334	438.94
339.562	445.94
339.79	430.94
340.018	421.94
340.246	437.94
340.474	457.94
340.702	435.94
340.93	429.94
341.158	427.94
341.386	467.94
341.614	409.94
341.842	428.94
342.07	440.94
342.298	433.94
342.526	415.94
342.754	420.94
342.981	421.94
343.209	402.94
343.437	416.94
343.665	387.94
343.893	413.94
344.12	428.94
344.348	447.94
344.576	420.94
344.804	454.94
345.031	463.94
345.259	474.94
345.487	441.94
345.714	450.94
345.942	446.94
346.17	437.94
346.397	411.94
346.625	416.94
346.853	419.94
347.08	416.94
347.308	436.94
347.535	450.94
347.763	438.94
347.99	435.94
348.218	440.94
348.445	452.94
348.673	421.94
348.9	442.94
349.128	416.94
349.355	423.94
349.583	406.94
349.81	410.94
350.037	410.94
350.265	428.94
350.492	421.94
350.72	413.94
350.947	455.94
351.174	429.94
351.402	446.94
351.629	426.94
351.856	440.94
352.083	444.94
352.311	447.94
352.538	468.94
352.765	440.94
352.992	434.94
353.22	426.94
353.447	429.94
353.674	414.94
353.901	404.94
354.128	391.94
354.355	384.94
354.583	396.94
354.81	394.94
355.037	381.94
355.264	357.94
355.491	375.94
355.718	378.94
355.945	379.94
356.172	379.94
356.399	379.94
356.626	376.94
356.853	363.94
357.08	384.94
357.307	372.94
357.534	369.94
357.761	368.94
357.988	368.94
358.215	389.94
358.441	390.94
358.668	375.94
358.895	392.94
359.122	412.94
359.349	392.94
359.576	405.94
359.802	456.94
360.029	492.94
360.256	495.94
360.483	484.94
360.709	440.94
360.936	431.94
361.163	441.94
361.39	426.94
361.616	435.94
361.843	440.94
362.07	404.94
362.296	418.94
362.523	428.94
362.749	424.94
362.976	416.94
363.203	413.94
363.429	404.94
363.656	424.94
363.882	403.94
364.109	380.94
364.335	409.94
364.562	414.94
364.788	408.94
365.015	393.94
365.241	398.94
365.468	410.94
365.694	404.94
365.92	407.94
366.147	398.94
366.373	381.94
366.599	381.94
366.826	373.94
367.052	376.94
367.278	378.94
367.505	388.94
367.731	385.94
367.957	404.94
368.184	382.94
368.41	386.94
368.636	393.94
368.862	403.94
369.089	374.94
369.315	380.94
369.541	367.94
369.767	400.94
369.993	387.94
370.219	398.94
370.445	383.94
370.672	399.94
370.898	397.94
371.124	371.94
371.35	379.94
371.576	386.94
371.802	384.94
372.028	374.94
372.254	397.94
372.48	371.94
372.706	344.94
372.932	364.94
373.158	379.94
373.384	376.94
373.61	381.94
373.835	381.94
374.061	379.94
374.287	388.94
374.513	374.94
374.739	397.94
374.965	393.94
375.191	380.94
375.416	389.94
375.642	379.94
375.868	378.94
376.094	369.94
376.319	355.94
376.545	388.94
376.771	382.94
376.997	370.94
377.222	375.94
377.448	379.94
377.674	361.94
377.899	375.94
378.125	347.94
378.35	356.94
378.576	359.94
378.802	373.94
379.027	359.94
379.253	365.94
379.478	376.94
379.704	369.94
379.929	373.94
380.155	362.94
380.38	357.94
380.606	386.94
380.831	365.94
381.057	390.94
381.282	377.94
381.507	376.94
381.733	380.94
381.958	373.94
382.184	386.94
382.409	387.94
382.634	388.94
382.86	374.94
383.085	376.94
383.31	386.94
383.535	369.94
383.761	364.94
383.986	390.94
384.211	384.94
384.436	397.94
384.662	384.94
384.887	380.94
385.112	380.94
385.337	389.94
385.562	409.94
385.787	398.94
386.013	432.94
386.238	416.94
386.463	407.94
386.688	402.94
386.913	421.94
387.138	404.94
387.363	399.94
387.588	407.94
387.813	408.94
388.038	381.94
388.263	378.94
388.488	394.94
388.713	392.94
388.938	393.94
389.163	391.94
389.387	398.94
389.612	401.94
389.837	392.94
390.062	390.94
390.287	388.94
390.512	391.94
390.736	389.94
390.961	378.94
391.186	395.94
391.411	382.94
391.636	385.94
391.86	403.94
392.085	398.94
392.31	406.94
392.534	387.94
392.759	396.94
392.984	416.94
393.208	382.94
393.433	398.94
393.658	399.94
393.882	386.94
394.107	406.94
394.331	411.94
394.556	400.94
394.78	422.94
395.005	397.94
395.229	380.94
395.454	401.94
395.678	421.94
395.903	436.94
396.127	439.94
396.352	459.94
396.576	425.94
396.801	413.94
397.025	415.94
397.249	411.94
397.474	423.94
397.698	429.94
397.922	439.94
398.147	423.94
398.371	452.94
398.595	459.94
398.82	433.94
399.044	464.94
399.268	443.94
399.492	456.94
399.717	485.94
399.941	508.94
400.165	562.94
400.389	570.94
400.613	505.94
400.837	493.94
401.062	452.94
401.286	470.94
401.51	459.94
401.734	437.94
401.958	455.94
402.182	451.94
402.406	462.94
402.63	457.94
402.854	461.94
403.078	489.94
403.302	485.94
403.526	466.94
403.75	482.94
403.974	477.94
404.198	472.94
404.422	468.94
404.645	504.94
404.869	498.94
405.093	513.94
405.317	579.94
405.541	621.94
405.765	555.94
405.988	517.94
406.212	537.94
406.436	547.94
406.66	555.94
406.883	522.94
407.107	551.94
407.331	586.94
407.555	666.94
407.778	673.94
408.002	582.94
408.226	542.94
408.449	521.94
408.673	516.94
408.896	573.94
409.12	606.94
409.344	584.94
409.567	526.94
409.791	503.94
410.014	472.94
410.238	472.94
410.461	461.94
410.685	482.94
410.908	481.94
411.132	544.94
411.355	566.94
411.578	524.94
411.802	479.94
412.025	472.94
412.249	477.94
412.472	519.94
412.695	562.94
412.919	558.94
413.142	487.94
413.365	470.94
413.589	487.94
413.812	466.94
414.035	446.94
414.258	461.94
414.482	449.94
414.705	450.94
414.928	459.94
415.151	438.94
415.374	434.94
415.597	435.94
415.821	442.94
416.044	443.94
416.267	460.94
416.49	451.94
416.713	417.94
416.936	431.94
417.159	446.94
417.382	459.94
417.605	454.94
417.828	467.94
418.051	503.94
418.274	477.94
418.497	465.94
418.72	455.94
418.943	458.94
419.166	478.94
419.389	491.94
419.611	461.94
419.834	475.94
420.057	485.94
420.28	511.94
420.503	466.94
420.726	478.94
420.948	489.94
421.171	522.94
421.394	569.94
421.617	512.94
421.839	477.94
422.062	475.94
422.285	491.94
422.507	561.94
422.73	642.94
422.953	629.94
423.175	545.94
423.398	508.94
423.621	528.94
423.843	528.94
424.066	525.94
424.288	530.94
424.511	540.94
424.733	626.94
424.956	714.94
425.178	677.94
425.401	666.94
425.623	698.94
425.846	583.94
426.068	523.94
426.291	539.94
426.513	542.94
426.735	529.94
426.958	590.94
427.18	696.94
427.402	846.94
427.625	910.94
427.847	852.94
428.069	696.94
428.292	617.94
428.514	558.94
428.736	525.94
428.958	521.94
429.181	498.94
429.403	487.94
429.625	512.94
429.847	536.94
430.069	626.94
430.292	624.94
430.514	514.94
430.736	490.94
430.958	486.94
431.18	485.94
431.402	459.94
431.624	439.94
431.846	450.94
432.068	442.94
432.29	458.94
432.512	473.94
432.734	471.94
432.956	465.94
433.178	486.94
433.4	472.94
433.622	460.94
433.844	467.94
434.066	441.94
434.287	440.94
434.509	474.94
434.731	455.94
434.953	485.94
435.175	497.94
435.397	497.94
435.618	551.94
435.84	588.94
436.062	704.94
436.284	780.94
436.505	640.94
436.727	567.94
436.949	531.94
437.17	504.94
437.392	481.94
437.614	527.94
437.835	584.94
438.057	680.94
438.278	772.94
438.5	823.94
438.721	861.94
438.943	812.94
439.165	634.94
439.386	560.94
439.608	572.94
439.829	561.94
440.05	592.94
440.272	681.94
440.493	632.94
440.715	536.94
440.936	519.94
441.158	521.94
441.379	483.94
441.6	536.94
441.822	539.94
442.043	566.94
442.264	691.94
442.486	713.94
442.707	604.94
442.928	581.94
443.149	576.94
443.371	604.94
443.592	614.94
443.813	776.94
444.034	828.94
444.255	653.94
444.476	561.94
444.698	530.94
444.919	539.94
445.14	627.94
445.361	615.94
445.582	603.94
445.803	667.94
446.024	837.94
446.245	825.94
446.466	756.94
446.687	626.94
446.908	550.94
447.129	524.94
447.35	518.94
447.571	496.94
447.792	491.94
448.013	494.94
448.234	535.94
448.455	594.94
448.675	709.94
448.896	845.94
449.117	729.94
449.338	683.94
449.559	794.94
449.779	906.94
450	721.94
450.221	571.94
450.442	516.94
450.662	492.94
450.883	529.94
451.104	523.94
451.324	517.94
451.545	502.94
451.766	484.94
451.986	467.94
452.207	465.94
452.428	432.94
452.648	441.94
452.869	460.94
453.089	452.94
453.31	473.94
453.53	462.94
453.751	482.94
453.971	458.94
454.192	465.94
454.412	462.94
454.633	459.94
454.853	471.94
455.073	454.94
455.294	478.94
455.514	585.94
455.734	556.94
455.955	471.94
456.175	437.94
456.395	420.94
456.616	416.94
456.836	425.94
457.056	411.94
457.276	422.94
457.497	408.94
457.717	416.94
457.937	431.94
458.157	422.94
458.377	440.94
458.598	440.94
458.818	523.94
459.038	638.94
459.258	663.94
459.478	531.94
459.698	444.94
459.918	473.94
460.138	457.94
460.358	456.94
460.578	444.94
460.798	444.94
461.018	453.94
461.238	450.94
461.458	457.94
461.678	432.94
461.898	466.94
462.118	444.94
462.338	432.94
462.558	467.94
462.777	465.94
462.997	456.94
463.217	451.94
463.437	453.94
463.657	454.94
463.876	484.94
464.096	485.94
464.316	497.94
464.536	498.94
464.755	497.94
464.975	510.94
465.195	556.94
465.414	680.94
465.634	557.94
465.854	515.94
466.073	485.94
466.293	454.94
466.512	456.94
466.732	436.94
466.951	451.94
467.171	435.94
467.391	449.94
467.61	483.94
467.829	476.94
468.049	462.94
468.268	462.94
468.488	451.94
468.707	433.94
468.927	440.94
469.146	445.94
469.365	424.94
469.585	427.94
469.804	467.94
470.023	444.94
470.243	446.94
470.462	462.94
470.681	494.94
470.901	483.94
471.12	458.94
471.339	448.94
471.558	457.94
471.777	465.94
471.997	435.94
472.216	464.94
472.435	519.94
472.654	499.94
472.873	473.94
473.092	468.94
473.311	449.94
473.53	462.94
473.749	474.94
473.968	512.94
474.187	646.94
474.406	694.94
474.625	539.94
474.844	480.94
475.063	472.94
475.282	451.94
475.501	452.94
475.72	476.94
475.939	479.94
476.158	476.94
476.377	468.94
476.596	458.94
476.814	488.94
477.033	483.94
477.252	498.94
477.471	461.94
477.69	483.94
477.908	492.94
478.127	492.94
478.346	482.94
478.564	503.94
478.783	501.94
479.002	521.94
479.22	503.94
479.439	513.94
479.658	537.94
479.876	546.94
480.095	561.94
480.313	594.94
480.532	582.94
480.751	553.94
480.969	569.94
481.188	664.94
481.406	732.94
481.624	616.94
481.843	577.94
482.061	556.94
482.28	561.94
482.498	541.94
482.717	537.94
482.935	532.94
483.153	544.94
483.372	533.94
483.59	550.94
483.808	525.94
484.027	546.94
484.245	540.94
484.463	554.94
484.681	529.94
484.9	516.94
485.118	562.94
485.336	544.94
485.554	543.94
485.772	554.94
485.99	553.94
486.209	573.94
486.427	577.94
486.645	579.94
486.863	614.94
487.081	582.94
487.299	576.94
487.517	578.94
487.735	567.94
487.953	555.94
488.171	588.94
488.389	587.94
488.607	578.94
488.825	597.94
489.043	583.94
489.261	571.94
489.479	592.94
489.696	576.94
489.914	572.94
490.132	606.94
490.35	589.94
490.568	596.94
490.786	632.94
491.003	614.94
491.221	621.94
491.439	657.94
491.657	667.94
491.874	645.94
492.092	654.94
492.31	677.94
492.527	670.94
492.745	664.94
492.963	676.94
493.18	689.94
493.398	685.94
493.615	699.94
493.833	711.94
494.05	707.94
494.268	660.94
494.485	694.94
494.703	674.94
494.92	683.94
495.138	675.94
495.355	676.94
495.573	711.94
495.79	718.94
496.008	694.94
496.225	715.94
496.442	690.94
496.66	688.94
496.877	678.94
497.094	682.94
497.312	706.94
497.529	686.94
497.746	716.94
497.963	710.94
498.181	742.94
498.398	723.94
498.615	725.94
498.832	743.94
499.049	745.94
499.267	770.94
499.484	773.94
499.701	776.94
499.918	793.94
500.135	834.94
500.352	862.94
500.569	882.94
500.786	863.94
501.003	844.94
501.22	815.94
501.437	849.94
501.654	840.94
501.871	855.94
502.088	822.94
502.305	788.94
502.522	752.94
502.739	747.94
502.956	742.94
503.172	724.94
503.389	685.94
503.606	706.94
503.823	696.94
504.04	696.94
504.256	723.94
504.473	697.94
504.69	679.94
504.907	657.94
505.123	661.94
505.34	646.94
505.557	661.94
505.773	656.94
505.99	663.94
506.207	673.94
506.423	672.94
506.64	653.94
506.856	664.94
507.073	650.94
507.289	670.94
507.506	646.94
507.722	660.94
507.939	727.94
508.155	669.94
508.372	661.94
508.588	641.94
508.805	621.94
509.021	638.94
509.238	661.94
509.454	679.94
509.67	669.94
509.887	655.94
510.103	664.94
510.319	655.94
510.536	794.94
510.752	1456.94
510.968	1146.94
511.184	707.94
511.401	654.94
511.617	641.94
511.833	618.94
512.049	603.94
512.265	608.94
512.481	627.94
512.698	604.94
512.914	629.94
513.13	628.94
513.346	611.94
513.562	629.94
513.778	628.94
513.994	632.94
514.21	662.94
514.426	665.94
514.642	735.94
514.858	776.94
515.074	844.94
515.29	1037.94
515.506	1597.94
515.721	1277.94
515.937	819.94
516.153	704.94
516.369	686.94
516.585	663.94
516.801	636.94
517.016	607.94
517.232	632.94
517.448	627.94
517.664	637.94
517.879	612.94
518.095	616.94
518.311	616.94
518.527	631.94
518.742	611.94
518.958	632.94
519.173	630.94
519.389	628.94
519.605	614.94
519.82	635.94
520.036	638.94
520.251	656.94
520.467	709.94
520.682	703.94
520.898	728.94
521.113	768.94
521.329	864.94
521.544	954.94
521.76	1282.94
521.975	2198.94
522.19	2123.94
522.406	1083.94
522.621	788.94
522.836	676.94
523.052	645.94
523.267	629.94
523.482	595.94
523.698	592.94
523.913	591.94
524.128	570.94
524.343	561.94
524.559	543.94
524.774	553.94
524.989	549.94
525.204	542.94
525.419	569.94
525.634	544.94
525.849	534.94
526.064	521.94
526.28	512.94
526.495	500.94
526.71	489.94
526.925	490.94
527.14	508.94
527.355	496.94
527.57	477.94
527.785	512.94
527.999	472.94
528.214	479.94
528.429	488.94
528.644	486.94
528.859	509.94
529.074	475.94
529.289	525.94
529.503	650.94
529.718	625.94
529.933	549.94
530.148	530.94
530.363	516.94
530.577	487.94
530.792	480.94
531.007	466.94
531.221	495.94
531.436	483.94
531.651	479.94
531.865	472.94
532.08	446.94
532.295	473.94
532.509	453.94
532.724	462.94
532.938	461.94
533.153	462.94
533.367	464.94
533.582	468.94
533.796	446.94
534.011	457.94
534.225	447.94
534.44	449.94
534.654	454.94
534.868	457.94
535.083	444.94
535.297	462.94
535.511	451.94
535.726	472.94
535.94	470.94
536.154	461.94
536.369	459.94
536.583	451.94
536.797	452.94
537.011	430.94
537.225	443.94
537.44	434.94
537.654	450.94
537.868	446.94
538.082	445.94
538.296	447.94
538.51	464.94
538.724	454.94
538.938	449.94
539.153	440.94
539.367	473.94
539.581	458.94
539.795	442.94
540.009	445.94
540.222	455.94
540.436	458.94
540.65	455.94
540.864	434.94
541.078	450.94
541.292	433.94
541.506	462.94
541.72	437.94
541.934	424.94
542.147	454.94
542.361	428.94
542.575	416.94
542.789	434.94
543.002	432.94
543.216	448.94
543.43	446.94
543.644	434.94
543.857	461.94
544.071	421.94
544.285	453.94
544.498	441.94
544.712	434.94
544.925	417.94
545.139	422.94
545.352	422.94
545.566	413.94
545.779	424.94
545.993	427.94
546.206	422.94
546.42	426.94
546.633	419.94
546.847	411.94
547.06	426.94
547.274	419.94
547.487	409.94
547.7	401.94
547.914	416.94
548.127	418.94
548.34	416.94
548.554	426.94
548.767	415.94
548.98	405.94
549.193	409.94
549.407	391.94
549.62	399.94
549.833	403.94
550.046	425.94
550.259	404.94
550.473	399.94
550.686	406.94
550.899	413.94
551.112	407.94
551.325	396.94
551.538	394.94
551.751	412.94
551.964	418.94
552.177	396.94
552.39	397.94
552.603	404.94
552.816	419.94
553.029	387.94
553.242	395.94
553.455	409.94
553.667	427.94
553.88	428.94
554.093	409.94
554.306	428.94
554.519	416.94
554.732	400.94
554.944	396.94
555.157	392.94
555.37	402.94
555.583	391.94
555.795	406.94
556.008	394.94
556.221	373.94
556.433	408.94
556.646	394.94
556.859	378.94
557.071	371.94
557.284	378.94
557.496	378.94
557.709	364.94
557.921	354.94
558.134	380.94
558.346	374.94
558.559	369.94
558.771	370.94
558.984	346.94
559.196	378.94
559.409	353.94
559.621	375.94
559.833	366.94
560.046	342.94
560.258	358.94
560.47	358.94
560.683	354.94
560.895	369.94
561.107	364.94
561.32	380.94
561.532	351.94
561.744	370.94
561.956	375.94
562.168	373.94
562.381	359.94
562.593	353.94
562.805	354.94
563.017	362.94
563.229	355.94
563.441	370.94
563.653	336.94
563.865	361.94
564.077	381.94
564.289	378.94
564.501	388.94
564.713	386.94
564.925	385.94
565.137	401.94
565.349	405.94
565.561	381.94
565.773	381.94
565.985	387.94
566.197	387.94
566.408	382.94
566.62	403.94
566.832	405.94
567.044	413.94
567.255	397.94
567.467	406.94
567.679	408.94
567.891	429.94
568.102	422.94
568.314	412.94
568.526	379.94
568.737	396.94
568.949	377.94
569.161	377.94
569.372	380.94
569.584	369.94
569.795	364.94
570.007	373.94
570.218	428.94
570.43	412.94
570.641	380.94
570.853	357.94
571.064	364.94
571.276	353.94
571.487	338.94
571.698	330.94
571.91	331.94
572.121	334.94
572.333	336.94
572.544	349.94
572.755	342.94
572.966	325.94
573.178	325.94
573.389	332.94
573.6	327.94
573.811	336.94
574.023	319.94
574.234	308.94
574.445	316.94
574.656	297.94
574.867	314.94
575.078	316.94
575.289	308.94
575.501	333.94
575.712	324.94
575.923	314.94
576.134	308.94
576.345	315.94
576.556	314.94
576.767	325.94
576.978	323.94
577.188	317.94
577.399	296.94
577.61	304.94
577.821	313.94
578.032	306.94
578.243	363.94
578.454	654.94
578.665	472.94
578.875	337.94
579.086	306.94
579.297	310.94
579.508	313.94
579.718	300.94
579.929	294.94
580.14	287.94
580.35	285.94
580.561	308.94
580.772	292.94
580.982	302.94
581.193	283.94
581.403	306.94
581.614	308.94
581.825	294.94
582.035	298.94
582.246	289.94
582.456	287.94
582.667	292.94
582.877	296.94
583.087	272.94
583.298	289.94
583.508	280.94
583.719	296.94
583.929	310.94
584.139	289.94
584.35	282.94
584.56	270.94
584.77	286.94
584.981	284.94
585.191	285.94
585.401	270.94
585.611	279.94
585.821	276.94
586.032	282.94
586.242	291.94
586.452	273.94
586.662	286.94
586.872	284.94
587.082	282.94
587.292	258.94
587.502	264.94
587.713	283.94
587.923	283.94
588.133	282.94
588.343	269.94
588.553	270.94
588.762	269.94
588.972	266.94
589.182	292.94
589.392	279.94
589.602	278.94
589.812	272.94
590.022	285.94
590.232	285.94
590.441	279.94
590.651	279.94
590.861	265.94
591.071	279.94
591.281	284.94
591.49	275.94
591.7	267.94
591.91	285.94
592.119	274.94
592.329	287.94
592.539	280.94
592.748	278.94
592.958	301.94
593.167	301.94
593.377	280.94
593.587	280.94
593.796	267.94
594.006	266.94
594.215	263.94
594.424	277.94
594.634	274.94
594.843	282.94
595.053	266.94
595.262	268.94
595.472	257.94
595.681	264.94
595.89	274.94
596.1	243.94
596.309	262.94
596.518	260.94
596.727	268.94
596.937	250.94
597.146	272.94
597.355	253.94
597.564	223.94
597.774	267.94
597.983	262.94
598.192	257.94
598.401	260.94
598.61	233.94
598.819	272.94
599.028	254.94
599.237	245.94
599.446	250.94
599.655	253.94
599.864	249.94
600.073	252.94
600.282	250.94
600.491	249.94
600.7	246.94
600.909	234.94
601.118	247.94
601.327	262.94
601.536	250.94
601.745	251.94
601.953	259.94
602.162	228.94
602.371	240.94
602.58	233.94
602.789	236.94
602.997	248.94
603.206	246.94
603.415	218.94
603.623	220.94
603.832	232.94
604.041	235.94
604.249	243.94
604.458	248.94
604.666	235.94
604.875	222.94
605.084	229.94
605.292	229.94
605.501	238.94
605.709	231.94
605.918	226.94
606.126	235.94
606.334	234.94
606.543	258.94
606.751	237.94
606.96	224.94
607.168	229.94
607.376	228.94
607.585	238.94
607.793	206.94
608.001	236.94
608.21	250.94
608.418	244.94
608.626	226.94
608.834	244.94
609.043	225.94
609.251	234.94
609.459	221.94
609.667	246.94
609.875	245.94
610.083	216.94
610.291	244.94
610.499	234.94
610.707	219.94
610.916	226.94
611.124	234.94
611.332	215.94
611.54	252.94
611.748	240.94
611.955	229.94
612.163	230.94
612.371	227.94
612.579	224.94
612.787	224.94
612.995	226.94
613.203	218.94
613.411	243.94
613.618	225.94
613.826	237.94
614.034	220.94
614.242	218.94
614.449	224.94
614.657	216.94
614.865	229.94
615.072	230.94
615.28	214.94
615.488	228.94
615.695	223.94
615.903	239.94
616.111	223.94
616.318	216.94
616.526	213.94
616.733	224.94
616.941	209.94
617.148	246.94
617.356	230.94
617.563	215.94
617.771	221.94
617.978	229.94
618.185	203.94
618.393	214.94
618.6	227.94
618.807	214.94
619.015	203.94
619.222	234.94
619.429	212.94
619.637	224.94
619.844	212.94
620.051	210.94
620.258	219.94
620.466	216.94
620.673	205.94
620.88	211.94
621.087	223.94
621.294	205.94
621.501	200.94
621.708	194.94
621.915	229.94
622.122	199.94
622.329	219.94
622.536	220.94
622.743	210.94
622.95	213.94
623.157	195.94
623.364	213.94
623.571	207.94
623.778	201.94
623.985	227.94
624.192	229.94
624.399	212.94
624.606	199.94
624.812	205.94
625.019	193.94
625.226	206.94
625.433	205.94
625.639	205.94
625.846	205.94
626.053	193.94
626.259	204.94
626.466	191.94
626.673	197.94
626.879	197.94
627.086	204.94
627.293	212.94
627.499	208.94
627.706	203.94
627.912	186.94
628.119	190.94
628.325	191.94
628.532	196.94
628.738	196.94
628.945	198.94
629.151	196.94
629.357	184.94
629.564	201.94
629.77	189.94
629.976	180.94
630.183	178.94
630.389	176.94
630.595	188.94
630.802	161.94
631.008	188.94
631.214	190.94
631.42	180.94
631.627	177.94
631.833	184.94
632.039	190.94
632.245	192.94
632.451	192.94
632.657	197.94
632.863	184.94
633.069	187.94
633.275	186.94
633.481	191.94
633.688	189.94
633.893	181.94
634.099	178.94
634.305	172.94
634.511	165.94
634.717	159.94
634.923	184.94
635.129	173.94
635.335	167.94
635.541	187.94
635.747	176.94
635.952	189.94
636.158	192.94
636.364	195.94
636.57	189.94
636.775	189.94
636.981	180.94
637.187	162.94
637.392	183.94
637.598	176.94
637.804	182.94
638.009	163.94
638.215	172.94
638.421	172.94
638.626	178.94
638.832	173.94
639.037	165.94
639.243	164.94
639.448	169.94
639.654	168.94
639.859	174.94
640.065	180.94
640.27	165.94
640.475	166.94
640.681	167.94
640.886	168.94
641.091	162.94
641.297	170.94
641.502	170.94
641.707	170.94
641.913	155.94
642.118	173.94
642.323	173.94
642.528	155.94
642.733	170.94
642.939	179.94
643.144	165.94
643.349	158.94
643.554	156.94
643.759	154.94
643.964	150.94
644.169	160.94
644.374	156.94
644.579	162.94
644.784	157.94
644.989	140.94
645.194	155.94
645.399	154.94
645.604	167.94
645.809	163.94
646.014	153.94
646.219	157.94
646.423	161.94
646.628	146.94
646.833	166.94
647.038	158.94
647.243	164.94
647.447	154.94
647.652	155.94
647.857	145.94
648.062	155.94
648.266	164.94
648.471	180.94
648.676	171.94
648.88	171.94
649.085	167.94
649.289	167.94
649.494	177.94
649.698	194.94
649.903	168.94
650.107	175.94
650.312	155.94
650.516	153.94
650.721	156.94
650.925	150.94
651.13	148.94
651.334	140.94
651.539	139.94
651.743	140.94
651.947	145.94
652.152	139.94
652.356	146.94
652.56	146.94
652.764	148.94
652.969	147.94
653.173	125.94
653.377	132.94
653.581	149.94
653.785	132.94
653.99	125.94
654.194	150.94
654.398	144.94
654.602	142.94
654.806	146.94
655.01	161.94
655.214	152.94
655.418	137.94
655.622	132.94
655.826	138.94
656.03	128.94
656.234	133.94
656.438	124.94
656.642	135.94
656.846	113.94
657.049	122.94
657.253	111.94
657.457	126.94
657.661	103.94
657.865	123.94
658.068	112.94
658.272	121.94
658.476	100.94
658.68	112.94
658.883	109.94
659.087	88.94
659.291	106.94
659.494	105.94
659.698	93.94
659.901	96.94
660.105	95.94
660.309	95.94
660.512	98.94
660.716	95.94
660.919	84.94
661.123	98.94
661.326	85.94
661.53	86.94
661.733	86.94
661.936	91.94
662.14	88.94
662.343	90.94
662.546	88.94
662.75	105.94
662.953	85.94
663.156	77.94
663.36	94.94
663.563	83.94
663.766	93.94
663.969	81.94
664.173	92.94
664.376	82.94
664.579	74.94
664.782	84.94
664.985	69.94
665.188	84.94
665.391	73.94
665.594	75.94
665.797	84.94
666	93.94
666.203	76.94
666.406	83.94
666.609	75.94
666.812	77.94
667.015	86.94
667.218	70.94
667.421	81.94
667.624	84.94
667.827	85.94
668.03	84.94
668.232	87.94
668.435	97.94
668.638	87.94
668.841	100.94
669.043	82.94
669.246	82.94
669.449	78.94
669.651	73.94
669.854	77.94
670.057	89.94
670.259	102.94
670.462	96.94
670.665	79.94
670.867	81.94
671.07	74.94
671.272	92.94
671.475	101.94
671.677	89.94
671.88	70.94
672.082	93.94
672.284	82.94
672.487	93.94
672.689	81.94
672.892	90.94
