Data from 1972.PennyLincolnUp.Lamp.En5.5.200Scan.071719.P1._HRD10591_15-28-32-843.txt Node
Date: Thu Jul 18 15:28:32 EDT 2019
User: cochatt
Spectrometer: HR+D1059
Trigger mode: 1
Integration Time (sec): 1.000000E-1
Scans to average: 1
Electric dark correction enabled: true
Nonlinearity correction enabled: false
Boxcar width: 0
XAxis mode: Wavelengths
Number of Pixels in Spectrum: 2048
>>>>>Begin Spectral Data<<<<<
223.165	-12.75
223.4	-12.75
223.635	-12.75
223.869	-0.75
224.104	-23.75
224.338	-19.75
224.573	-19.75
224.808	-7.75
225.042	-12.75
225.277	-5.75
225.511	3.25
225.746	5.25
225.98	-0.75
226.215	22.25
226.449	3.25
226.683	19.25
226.918	13.25
227.152	37.25
227.387	25.25
227.621	37.25
227.856	40.25
228.09	40.25
228.324	38.25
228.559	61.25
228.793	73.25
229.027	102.25
229.262	107.25
229.496	115.25
229.73	135.25
229.964	162.25
230.199	141.25
230.433	117.25
230.667	118.25
230.901	123.25
231.136	113.25
231.37	118.25
231.604	116.25
231.838	110.25
232.072	114.25
232.306	110.25
232.541	104.25
232.775	105.25
233.009	90.25
233.243	125.25
233.477	117.25
233.711	116.25
233.945	123.25
234.179	112.25
234.413	130.25
234.647	104.25
234.881	124.25
235.115	115.25
235.349	114.25
235.583	134.25
235.817	124.25
236.051	121.25
236.285	114.25
236.519	125.25
236.753	126.25
236.987	162.25
237.221	197.25
237.455	251.25
237.689	203.25
237.922	163.25
238.156	134.25
238.39	127.25
238.624	129.25
238.858	135.25
239.091	139.25
239.325	128.25
239.559	129.25
239.793	128.25
240.027	136.25
240.26	132.25
240.494	161.25
240.728	157.25
240.961	151.25
241.195	152.25
241.429	139.25
241.662	134.25
241.896	123.25
242.13	137.25
242.363	140.25
242.597	152.25
242.83	143.25
243.064	140.25
243.298	124.25
243.531	134.25
243.765	142.25
243.998	134.25
244.232	134.25
244.465	139.25
244.699	140.25
244.932	147.25
245.166	155.25
245.399	141.25
245.633	141.25
245.866	129.25
246.099	139.25
246.333	143.25
246.566	150.25
246.8	129.25
247.033	152.25
247.266	155.25
247.5	165.25
247.733	171.25
247.966	159.25
248.2	160.25
248.433	169.25
248.666	168.25
248.899	169.25
249.133	200.25
249.366	214.25
249.599	216.25
249.832	179.25
250.066	190.25
250.299	180.25
250.532	174.25
250.765	200.25
250.998	226.25
251.231	243.25
251.465	211.25
251.698	209.25
251.931	201.25
252.164	192.25
252.397	199.25
252.63	201.25
252.863	198.25
253.096	234.25
253.329	231.25
253.562	224.25
253.795	218.25
254.028	226.25
254.261	221.25
254.494	225.25
254.727	277.25
254.96	290.25
255.193	280.25
255.426	265.25
255.659	242.25
255.892	254.25
256.124	249.25
256.357	237.25
256.59	241.25
256.823	232.25
257.056	214.25
257.289	216.25
257.521	220.25
257.754	235.25
257.987	213.25
258.22	222.25
258.452	219.25
258.685	200.25
258.918	214.25
259.151	213.25
259.383	231.25
259.616	209.25
259.849	232.25
260.081	250.25
260.314	260.25
260.547	250.25
260.779	275.25
261.012	244.25
261.244	228.25
261.477	211.25
261.71	225.25
261.942	226.25
262.175	219.25
262.407	222.25
262.64	223.25
262.872	223.25
263.105	219.25
263.337	201.25
263.57	205.25
263.802	216.25
264.035	217.25
264.267	202.25
264.499	221.25
264.732	216.25
264.964	206.25
265.197	226.25
265.429	229.25
265.661	222.25
265.894	215.25
266.126	208.25
266.358	217.25
266.591	226.25
266.823	212.25
267.055	226.25
267.287	233.25
267.52	227.25
267.752	251.25
267.984	214.25
268.216	220.25
268.448	234.25
268.681	235.25
268.913	252.25
269.145	266.25
269.377	277.25
269.609	275.25
269.841	267.25
270.073	281.25
270.306	295.25
270.538	323.25
270.77	335.25
271.002	311.25
271.234	307.25
271.466	323.25
271.698	308.25
271.93	328.25
272.162	323.25
272.394	314.25
272.626	305.25
272.858	287.25
273.09	284.25
273.322	272.25
273.553	266.25
273.785	273.25
274.017	283.25
274.249	273.25
274.481	265.25
274.713	266.25
274.945	282.25
275.176	268.25
275.408	265.25
275.64	253.25
275.872	264.25
276.104	281.25
276.335	278.25
276.567	283.25
276.799	284.25
277.031	308.25
277.262	303.25
277.494	327.25
277.726	316.25
277.957	301.25
278.189	272.25
278.421	263.25
278.652	275.25
278.884	282.25
279.115	282.25
279.347	259.25
279.579	273.25
279.81	258.25
280.042	251.25
280.273	274.25
280.505	262.25
280.736	259.25
280.968	269.25
281.199	273.25
281.431	277.25
281.662	279.25
281.894	275.25
282.125	268.25
282.356	280.25
282.588	308.25
282.819	310.25
283.051	271.25
283.282	272.25
283.513	262.25
283.745	270.25
283.976	271.25
284.207	276.25
284.439	263.25
284.67	281.25
284.901	264.25
285.132	267.25
285.364	270.25
285.595	263.25
285.826	277.25
286.057	251.25
286.288	260.25
286.52	249.25
286.751	280.25
286.982	270.25
287.213	275.25
287.444	281.25
287.675	284.25
287.906	289.25
288.138	275.25
288.369	275.25
288.6	296.25
288.831	299.25
289.062	286.25
289.293	292.25
289.524	281.25
289.755	277.25
289.986	282.25
290.217	251.25
290.448	284.25
290.679	265.25
290.91	265.25
291.141	271.25
291.371	269.25
291.602	283.25
291.833	291.25
292.064	279.25
292.295	291.25
292.526	272.25
292.757	296.25
292.987	270.25
293.218	246.25
293.449	275.25
293.68	290.25
293.91	275.25
294.141	269.25
294.372	270.25
294.603	284.25
294.833	294.25
295.064	281.25
295.295	265.25
295.525	280.25
295.756	279.25
295.987	295.25
296.217	324.25
296.448	317.25
296.679	302.25
296.909	277.25
297.14	290.25
297.37	275.25
297.601	283.25
297.831	267.25
298.062	305.25
298.292	309.25
298.523	296.25
298.753	278.25
298.984	297.25
299.214	296.25
299.445	289.25
299.675	308.25
299.905	288.25
300.136	288.25
300.366	289.25
300.597	296.25
300.827	320.25
301.057	300.25
301.288	307.25
301.518	313.25
301.748	308.25
301.979	299.25
302.209	313.25
302.439	327.25
302.669	325.25
302.9	302.25
303.13	312.25
303.36	321.25
303.59	304.25
303.82	323.25
304.051	338.25
304.281	325.25
304.511	309.25
304.741	299.25
304.971	306.25
305.201	286.25
305.431	301.25
305.661	314.25
305.891	314.25
306.121	323.25
306.352	314.25
306.582	329.25
306.812	336.25
307.042	302.25
307.272	309.25
307.502	324.25
307.731	313.25
307.961	298.25
308.191	323.25
308.421	313.25
308.651	322.25
308.881	330.25
309.111	321.25
309.341	343.25
309.571	336.25
309.8	358.25
310.03	376.25
310.26	389.25
310.49	361.25
310.72	369.25
310.949	385.25
311.179	422.25
311.409	389.25
311.639	395.25
311.868	379.25
312.098	385.25
312.328	379.25
312.557	414.25
312.787	426.25
313.017	434.25
313.246	405.25
313.476	361.25
313.706	373.25
313.935	375.25
314.165	402.25
314.394	405.25
314.624	388.25
314.853	400.25
315.083	395.25
315.312	384.25
315.542	373.25
315.771	373.25
316.001	353.25
316.23	350.25
316.46	379.25
316.689	361.25
316.919	377.25
317.148	376.25
317.377	402.25
317.607	394.25
317.836	372.25
318.065	362.25
318.295	370.25
318.524	371.25
318.753	367.25
318.983	359.25
319.212	388.25
319.441	361.25
319.67	389.25
319.9	373.25
320.129	377.25
320.358	360.25
320.587	369.25
320.816	379.25
321.046	398.25
321.275	396.25
321.504	403.25
321.733	389.25
321.962	428.25
322.191	426.25
322.42	422.25
322.649	462.25
322.878	463.25
323.108	484.25
323.337	532.25
323.566	561.25
323.795	595.25
324.024	635.25
324.253	798.25
324.482	1150.25
324.71	1863.25
324.939	2658.25
325.168	2364.25
325.397	1180.25
325.626	774.25
325.855	617.25
326.084	565.25
326.313	562.25
326.542	569.25
326.77	591.25
326.999	708.25
327.228	985.25
327.457	1596.25
327.686	1975.25
327.914	1344.25
328.143	829.25
328.372	741.25
328.6	671.25
328.829	623.25
329.058	659.25
329.287	646.25
329.515	570.25
329.744	539.25
329.972	551.25
330.201	585.25
330.43	633.25
330.658	657.25
330.887	680.25
331.115	653.25
331.344	551.25
331.572	508.25
331.801	526.25
332.03	522.25
332.258	477.25
332.486	461.25
332.715	481.25
332.943	436.25
333.172	451.25
333.4	454.25
333.629	434.25
333.857	459.25
334.085	482.25
334.314	507.25
334.542	549.25
334.771	547.25
334.999	531.25
335.227	471.25
335.455	438.25
335.684	410.25
335.912	430.25
336.14	412.25
336.369	438.25
336.597	433.25
336.825	451.25
337.053	425.25
337.281	426.25
337.51	417.25
337.738	420.25
337.966	431.25
338.194	425.25
338.422	423.25
338.65	409.25
338.878	415.25
339.106	414.25
339.334	416.25
339.562	397.25
339.79	401.25
340.018	418.25
340.246	415.25
340.474	418.25
340.702	435.25
340.93	425.25
341.158	398.25
341.386	409.25
341.614	416.25
341.842	404.25
342.07	404.25
342.298	403.25
342.526	386.25
342.754	410.25
342.981	386.25
343.209	383.25
343.437	382.25
343.665	394.25
343.893	392.25
344.12	398.25
344.348	410.25
344.576	392.25
344.804	401.25
345.031	431.25
345.259	446.25
345.487	429.25
345.714	422.25
345.942	418.25
346.17	395.25
346.397	399.25
346.625	406.25
346.853	387.25
347.08	414.25
347.308	387.25
347.535	435.25
347.763	425.25
347.99	405.25
348.218	410.25
348.445	441.25
348.673	417.25
348.9	394.25
349.128	411.25
349.355	403.25
349.583	392.25
349.81	387.25
350.037	387.25
350.265	385.25
350.492	378.25
350.72	398.25
350.947	380.25
351.174	407.25
351.402	423.25
351.629	407.25
351.856	424.25
352.083	426.25
352.311	414.25
352.538	426.25
352.765	407.25
352.992	412.25
353.22	403.25
353.447	414.25
353.674	388.25
353.901	390.25
354.128	392.25
354.355	382.25
354.583	383.25
354.81	369.25
355.037	353.25
355.264	354.25
355.491	359.25
355.718	369.25
355.945	359.25
356.172	347.25
356.399	372.25
356.626	360.25
356.853	371.25
357.08	365.25
357.307	366.25
357.534	375.25
357.761	366.25
357.988	359.25
358.215	368.25
358.441	347.25
358.668	382.25
358.895	369.25
359.122	361.25
359.349	373.25
359.576	403.25
359.802	411.25
360.029	453.25
360.256	462.25
360.483	436.25
360.709	415.25
360.936	397.25
361.163	399.25
361.39	407.25
361.616	402.25
361.843	406.25
362.07	402.25
362.296	413.25
362.523	406.25
362.749	400.25
362.976	393.25
363.203	376.25
363.429	378.25
363.656	371.25
363.882	383.25
364.109	367.25
364.335	364.25
364.562	381.25
364.788	372.25
365.015	380.25
365.241	375.25
365.468	392.25
365.694	395.25
365.92	388.25
366.147	383.25
366.373	370.25
366.599	382.25
366.826	346.25
367.052	369.25
367.278	345.25
367.505	373.25
367.731	369.25
367.957	375.25
368.184	351.25
368.41	381.25
368.636	361.25
368.862	381.25
369.089	379.25
369.315	379.25
369.541	366.25
369.767	339.25
369.993	379.25
370.219	367.25
370.445	377.25
370.672	356.25
370.898	369.25
371.124	365.25
371.35	371.25
371.576	373.25
371.802	372.25
372.028	354.25
372.254	356.25
372.48	364.25
372.706	352.25
372.932	355.25
373.158	370.25
373.384	365.25
373.61	351.25
373.835	362.25
374.061	367.25
374.287	371.25
374.513	357.25
374.739	365.25
374.965	371.25
375.191	375.25
375.416	359.25
375.642	361.25
375.868	386.25
376.094	376.25
376.319	370.25
376.545	351.25
376.771	333.25
376.997	355.25
377.222	366.25
377.448	350.25
377.674	353.25
377.899	348.25
378.125	338.25
378.35	339.25
378.576	360.25
378.802	379.25
379.027	354.25
379.253	350.25
379.478	347.25
379.704	350.25
379.929	370.25
380.155	352.25
380.38	355.25
380.606	348.25
380.831	343.25
381.057	349.25
381.282	346.25
381.507	373.25
381.733	361.25
381.958	346.25
382.184	362.25
382.409	363.25
382.634	365.25
382.86	332.25
383.085	374.25
383.31	349.25
383.535	361.25
383.761	366.25
383.986	360.25
384.211	358.25
384.436	357.25
384.662	354.25
384.887	345.25
385.112	358.25
385.337	366.25
385.562	363.25
385.787	361.25
386.013	397.25
386.238	387.25
386.463	381.25
386.688	387.25
386.913	388.25
387.138	388.25
387.363	373.25
387.588	375.25
387.813	379.25
388.038	378.25
388.263	390.25
388.488	377.25
388.713	375.25
388.938	390.25
389.163	392.25
389.387	367.25
389.612	387.25
389.837	403.25
390.062	362.25
390.287	384.25
390.512	385.25
390.736	374.25
390.961	351.25
391.186	379.25
391.411	363.25
391.636	371.25
391.86	371.25
392.085	387.25
392.31	388.25
392.534	385.25
392.759	395.25
392.984	405.25
393.208	391.25
393.433	377.25
393.658	389.25
393.882	386.25
394.107	378.25
394.331	389.25
394.556	382.25
394.78	385.25
395.005	378.25
395.229	365.25
395.454	372.25
395.678	396.25
395.903	409.25
396.127	405.25
396.352	420.25
396.576	393.25
396.801	394.25
397.025	405.25
397.249	415.25
397.474	403.25
397.698	393.25
397.922	404.25
398.147	436.25
398.371	415.25
398.595	417.25
398.82	421.25
399.044	417.25
399.268	439.25
399.492	463.25
399.717	467.25
399.941	469.25
400.165	505.25
400.389	503.25
400.613	501.25
400.837	446.25
401.062	453.25
401.286	437.25
401.51	442.25
401.734	434.25
401.958	409.25
402.182	423.25
402.406	447.25
402.63	473.25
402.854	447.25
403.078	433.25
403.302	453.25
403.526	428.25
403.75	450.25
403.974	441.25
404.198	438.25
404.422	458.25
404.645	465.25
404.869	460.25
405.093	505.25
405.317	539.25
405.541	580.25
405.765	491.25
405.988	490.25
406.212	487.25
406.436	520.25
406.66	523.25
406.883	517.25
407.107	514.25
407.331	533.25
407.555	616.25
407.778	619.25
408.002	555.25
408.226	524.25
408.449	500.25
408.673	489.25
408.896	538.25
409.12	557.25
409.344	549.25
409.567	482.25
409.791	446.25
410.014	451.25
410.238	436.25
410.461	433.25
410.685	431.25
410.908	466.25
411.132	519.25
411.355	567.25
411.578	509.25
411.802	481.25
412.025	449.25
412.249	454.25
412.472	491.25
412.695	532.25
412.919	537.25
413.142	459.25
413.365	444.25
413.589	453.25
413.812	441.25
414.035	426.25
414.258	436.25
414.482	433.25
414.705	436.25
414.928	419.25
415.151	413.25
415.374	422.25
415.597	423.25
415.821	417.25
416.044	422.25
416.267	426.25
416.49	427.25
416.713	415.25
416.936	417.25
417.159	436.25
417.382	424.25
417.605	434.25
417.828	439.25
418.051	446.25
418.274	452.25
418.497	427.25
418.72	442.25
418.943	433.25
419.166	431.25
419.389	440.25
419.611	449.25
419.834	439.25
420.057	415.25
420.28	441.25
420.503	464.25
420.726	461.25
420.948	470.25
421.171	503.25
421.394	535.25
421.617	479.25
421.839	450.25
422.062	460.25
422.285	456.25
422.507	521.25
422.73	616.25
422.953	586.25
423.175	519.25
423.398	465.25
423.621	454.25
423.843	485.25
424.066	495.25
424.288	508.25
424.511	531.25
424.733	576.25
424.956	657.25
425.178	641.25
425.401	636.25
425.623	658.25
425.846	538.25
426.068	495.25
426.291	476.25
426.513	500.25
426.735	505.25
426.958	538.25
427.18	620.25
427.402	771.25
427.625	877.25
427.847	768.25
428.069	662.25
428.292	548.25
428.514	507.25
428.736	475.25
428.958	479.25
429.181	470.25
429.403	449.25
429.625	483.25
429.847	494.25
430.069	571.25
430.292	601.25
430.514	522.25
430.736	459.25
430.958	460.25
431.18	441.25
431.402	430.25
431.624	445.25
431.846	425.25
432.068	425.25
432.29	435.25
432.512	406.25
432.734	457.25
432.956	434.25
433.178	465.25
433.4	432.25
433.622	444.25
433.844	417.25
434.066	422.25
434.287	407.25
434.509	429.25
434.731	441.25
434.953	438.25
435.175	460.25
435.397	478.25
435.618	502.25
435.84	582.25
436.062	656.25
436.284	709.25
436.505	591.25
436.727	529.25
436.949	493.25
437.17	475.25
437.392	465.25
437.614	481.25
437.835	518.25
438.057	645.25
438.278	734.25
438.5	724.25
438.721	796.25
438.943	757.25
439.165	580.25
439.386	549.25
439.608	548.25
439.829	548.25
440.05	551.25
440.272	630.25
440.493	569.25
440.715	531.25
440.936	503.25
441.158	496.25
441.379	458.25
441.6	489.25
441.822	516.25
442.043	559.25
442.264	635.25
442.486	675.25
442.707	579.25
442.928	533.25
443.149	515.25
443.371	554.25
443.592	587.25
443.813	681.25
444.034	746.25
444.255	606.25
444.476	561.25
444.698	525.25
444.919	499.25
445.14	584.25
445.361	568.25
445.582	580.25
445.803	638.25
446.024	713.25
446.245	753.25
446.466	696.25
446.687	568.25
446.908	516.25
447.129	514.25
447.35	501.25
447.571	446.25
447.792	481.25
448.013	480.25
448.234	517.25
448.455	551.25
448.675	668.25
448.896	777.25
449.117	658.25
449.338	605.25
449.559	710.25
449.779	811.25
450	651.25
450.221	545.25
450.442	524.25
450.662	452.25
450.883	483.25
451.104	500.25
451.324	480.25
451.545	449.25
451.766	448.25
451.986	423.25
452.207	441.25
452.428	417.25
452.648	411.25
452.869	435.25
453.089	442.25
453.31	448.25
453.53	459.25
453.751	428.25
453.971	422.25
454.192	447.25
454.412	455.25
454.633	419.25
454.853	422.25
455.073	418.25
455.294	437.25
455.514	526.25
455.734	503.25
455.955	405.25
456.175	395.25
456.395	379.25
456.616	380.25
456.836	406.25
457.056	380.25
457.276	381.25
457.497	388.25
457.717	385.25
457.937	390.25
458.157	413.25
458.377	415.25
458.598	437.25
458.818	525.25
459.038	595.25
459.258	606.25
459.478	517.25
459.698	451.25
459.918	437.25
460.138	412.25
460.358	442.25
460.578	451.25
460.798	442.25
461.018	441.25
461.238	405.25
461.458	409.25
461.678	410.25
461.898	436.25
462.118	413.25
462.338	407.25
462.558	430.25
462.777	445.25
462.997	467.25
463.217	450.25
463.437	453.25
463.657	447.25
463.876	426.25
464.096	445.25
464.316	450.25
464.536	467.25
464.755	451.25
464.975	473.25
465.195	527.25
465.414	600.25
465.634	542.25
465.854	463.25
466.073	467.25
466.293	452.25
466.512	423.25
466.732	401.25
466.951	409.25
467.171	425.25
467.391	410.25
467.61	436.25
467.829	439.25
468.049	444.25
468.268	441.25
468.488	439.25
468.707	415.25
468.927	423.25
469.146	400.25
469.365	438.25
469.585	415.25
469.804	413.25
470.023	418.25
470.243	422.25
470.462	436.25
470.681	458.25
470.901	430.25
471.12	406.25
471.339	412.25
471.558	437.25
471.777	444.25
471.997	434.25
472.216	431.25
472.435	513.25
472.654	475.25
472.873	458.25
473.092	427.25
473.311	442.25
473.53	415.25
473.749	444.25
473.968	495.25
474.187	607.25
474.406	636.25
474.625	484.25
474.844	454.25
475.063	433.25
475.282	443.25
475.501	422.25
475.72	438.25
475.939	436.25
476.158	422.25
476.377	426.25
476.596	445.25
476.814	462.25
477.033	434.25
477.252	434.25
477.471	474.25
477.69	454.25
477.908	472.25
478.127	454.25
478.346	445.25
478.564	472.25
478.783	475.25
479.002	449.25
479.22	477.25
479.439	491.25
479.658	504.25
479.876	515.25
480.095	525.25
480.313	557.25
480.532	520.25
480.751	503.25
480.969	539.25
481.188	630.25
481.406	690.25
481.624	580.25
481.843	525.25
482.061	517.25
482.28	516.25
482.498	487.25
482.717	506.25
482.935	512.25
483.153	488.25
483.372	513.25
483.59	502.25
483.808	483.25
484.027	489.25
484.245	483.25
484.463	501.25
484.681	492.25
484.9	511.25
485.118	533.25
485.336	515.25
485.554	510.25
485.772	497.25
485.99	499.25
486.209	523.25
486.427	526.25
486.645	528.25
486.863	559.25
487.081	554.25
487.299	566.25
487.517	542.25
487.735	551.25
487.953	532.25
488.171	545.25
488.389	523.25
488.607	534.25
488.825	539.25
489.043	539.25
489.261	551.25
489.479	526.25
489.696	524.25
489.914	565.25
490.132	553.25
490.35	580.25
490.568	570.25
490.786	563.25
491.003	594.25
491.221	589.25
491.439	620.25
491.657	590.25
491.874	630.25
492.092	607.25
492.31	621.25
492.527	641.25
492.745	619.25
492.963	625.25
493.18	621.25
493.398	627.25
493.615	639.25
493.833	651.25
494.05	627.25
494.268	634.25
494.485	654.25
494.703	639.25
494.92	635.25
495.138	661.25
495.355	637.25
495.573	636.25
495.79	637.25
496.008	641.25
496.225	637.25
496.442	663.25
496.66	617.25
496.877	637.25
497.094	647.25
497.312	639.25
497.529	675.25
497.746	655.25
497.963	670.25
498.181	724.25
498.398	713.25
498.615	713.25
498.832	696.25
499.049	687.25
499.267	686.25
499.484	725.25
499.701	741.25
499.918	749.25
500.135	769.25
500.352	769.25
500.569	761.25
500.786	773.25
501.003	793.25
501.22	793.25
501.437	790.25
501.654	776.25
501.871	774.25
502.088	771.25
502.305	734.25
502.522	696.25
502.739	691.25
502.956	652.25
503.172	675.25
503.389	676.25
503.606	682.25
503.823	665.25
504.04	655.25
504.256	642.25
504.473	635.25
504.69	643.25
504.907	649.25
505.123	634.25
505.34	636.25
505.557	620.25
505.773	635.25
505.99	644.25
506.207	637.25
506.423	613.25
506.64	642.25
506.856	620.25
507.073	611.25
507.289	616.25
507.506	630.25
507.722	637.25
507.939	644.25
508.155	604.25
508.372	589.25
508.588	597.25
508.805	598.25
509.021	605.25
509.238	617.25
509.454	636.25
509.67	645.25
509.887	613.25
510.103	615.25
510.319	639.25
510.536	749.25
510.752	1323.25
510.968	1054.25
511.184	641.25
511.401	613.25
511.617	591.25
511.833	588.25
512.049	606.25
512.265	579.25
512.481	561.25
512.698	567.25
512.914	564.25
513.13	590.25
513.346	581.25
513.562	607.25
513.778	586.25
513.994	592.25
514.21	592.25
514.426	642.25
514.642	700.25
514.858	723.25
515.074	777.25
515.29	965.25
515.506	1515.25
515.721	1178.25
515.937	761.25
516.153	667.25
516.369	642.25
516.585	619.25
516.801	606.25
517.016	582.25
517.232	570.25
517.448	602.25
517.664	573.25
517.879	584.25
518.095	595.25
518.311	574.25
518.527	564.25
518.742	573.25
518.958	591.25
519.173	558.25
519.389	600.25
519.605	585.25
519.82	573.25
520.036	615.25
520.251	626.25
520.467	669.25
520.682	661.25
520.898	664.25
521.113	719.25
521.329	754.25
521.544	870.25
521.76	1172.25
521.975	2005.25
522.19	1950.25
522.406	991.25
522.621	731.25
522.836	636.25
523.052	593.25
523.267	581.25
523.482	565.25
523.698	527.25
523.913	547.25
524.128	542.25
524.343	528.25
524.559	519.25
524.774	519.25
524.989	511.25
525.204	514.25
525.419	523.25
525.634	504.25
525.849	491.25
526.064	493.25
526.28	482.25
526.495	486.25
526.71	481.25
526.925	460.25
527.14	469.25
527.355	479.25
527.57	456.25
527.785	465.25
527.999	472.25
528.214	457.25
528.429	461.25
528.644	465.25
528.859	465.25
529.074	458.25
529.289	472.25
529.503	610.25
529.718	579.25
529.933	515.25
530.148	481.25
530.363	465.25
530.577	467.25
530.792	472.25
531.007	457.25
531.221	438.25
531.436	428.25
531.651	442.25
531.865	426.25
532.08	442.25
532.295	437.25
532.509	427.25
532.724	444.25
532.938	419.25
533.153	428.25
533.367	445.25
533.582	421.25
533.796	435.25
534.011	454.25
534.225	420.25
534.44	446.25
534.654	419.25
534.868	433.25
535.083	433.25
535.297	436.25
535.511	423.25
535.726	452.25
535.94	459.25
536.154	445.25
536.369	442.25
536.583	430.25
536.797	424.25
537.011	429.25
537.225	425.25
537.44	426.25
537.654	420.25
537.868	424.25
538.082	437.25
538.296	429.25
538.51	429.25
538.724	435.25
538.938	439.25
539.153	415.25
539.367	451.25
539.581	445.25
539.795	415.25
540.009	412.25
540.222	429.25
540.436	431.25
540.65	465.25
540.864	439.25
541.078	434.25
541.292	450.25
541.506	419.25
541.72	410.25
541.934	420.25
542.147	433.25
542.361	433.25
542.575	414.25
542.789	405.25
543.002	414.25
543.216	411.25
543.43	423.25
543.644	437.25
543.857	434.25
544.071	416.25
544.285	430.25
544.498	401.25
544.712	399.25
544.925	396.25
545.139	403.25
545.352	409.25
545.566	396.25
545.779	419.25
545.993	406.25
546.206	403.25
546.42	415.25
546.633	400.25
546.847	399.25
547.06	390.25
547.274	406.25
547.487	389.25
547.7	394.25
547.914	400.25
548.127	392.25
548.34	397.25
548.554	397.25
548.767	396.25
548.98	396.25
549.193	374.25
549.407	403.25
549.62	391.25
549.833	383.25
550.046	382.25
550.259	383.25
550.473	398.25
550.686	381.25
550.899	407.25
551.112	391.25
551.325	386.25
551.538	381.25
551.751	369.25
551.964	388.25
552.177	375.25
552.39	363.25
552.603	369.25
552.816	401.25
553.029	392.25
553.242	392.25
553.455	412.25
553.667	393.25
553.88	402.25
554.093	409.25
554.306	409.25
554.519	388.25
554.732	369.25
554.944	371.25
555.157	389.25
555.37	373.25
555.583	371.25
555.795	364.25
556.008	365.25
556.221	377.25
556.433	377.25
556.646	356.25
556.859	354.25
557.071	351.25
557.284	361.25
557.496	368.25
557.709	362.25
557.921	358.25
558.134	372.25
558.346	359.25
558.559	346.25
558.771	353.25
558.984	371.25
559.196	358.25
559.409	334.25
559.621	345.25
559.833	348.25
560.046	357.25
560.258	344.25
560.47	349.25
560.683	345.25
560.895	350.25
561.107	359.25
561.32	339.25
561.532	329.25
561.744	369.25
561.956	349.25
562.168	351.25
562.381	366.25
562.593	357.25
562.805	359.25
563.017	329.25
563.229	338.25
563.441	346.25
563.653	349.25
563.865	363.25
564.077	355.25
564.289	376.25
564.501	353.25
564.713	352.25
564.925	378.25
565.137	374.25
565.349	370.25
565.561	361.25
565.773	375.25
565.985	373.25
566.197	372.25
566.408	380.25
566.62	374.25
566.832	390.25
567.044	370.25
567.255	398.25
567.467	376.25
567.679	381.25
567.891	400.25
568.102	394.25
568.314	397.25
568.526	389.25
568.737	361.25
568.949	385.25
569.161	329.25
569.372	379.25
569.584	336.25
569.795	357.25
570.007	351.25
570.218	409.25
570.43	415.25
570.641	341.25
570.853	338.25
571.064	342.25
571.276	333.25
571.487	325.25
571.698	320.25
571.91	333.25
572.121	335.25
572.333	337.25
572.544	325.25
572.755	319.25
572.966	333.25
573.178	320.25
573.389	320.25
573.6	322.25
573.811	298.25
574.023	311.25
574.234	311.25
574.445	300.25
574.656	289.25
574.867	306.25
575.078	316.25
575.289	288.25
575.501	287.25
575.712	310.25
575.923	296.25
576.134	294.25
576.345	300.25
576.556	292.25
576.767	288.25
576.978	295.25
577.188	303.25
577.399	286.25
577.61	292.25
577.821	312.25
578.032	313.25
578.243	330.25
578.454	626.25
578.665	446.25
578.875	309.25
579.086	283.25
579.297	296.25
579.508	286.25
579.718	299.25
579.929	267.25
580.14	268.25
580.35	276.25
580.561	282.25
580.772	293.25
580.982	288.25
581.193	291.25
581.403	277.25
581.614	283.25
581.825	274.25
582.035	302.25
582.246	297.25
582.456	270.25
582.667	267.25
582.877	279.25
583.087	283.25
583.298	279.25
583.508	293.25
583.719	277.25
583.929	293.25
584.139	278.25
584.35	278.25
584.56	277.25
584.77	278.25
584.981	262.25
585.191	277.25
585.401	276.25
585.611	271.25
585.821	282.25
586.032	268.25
586.242	262.25
586.452	274.25
586.662	281.25
586.872	263.25
587.082	265.25
587.292	265.25
587.502	252.25
587.713	278.25
587.923	272.25
588.133	269.25
588.343	276.25
588.553	257.25
588.762	251.25
588.972	257.25
589.182	280.25
589.392	271.25
589.602	277.25
589.812	285.25
590.022	262.25
590.232	266.25
590.441	271.25
590.651	270.25
590.861	253.25
591.071	265.25
591.281	279.25
591.49	265.25
591.7	263.25
591.91	263.25
592.119	269.25
592.329	271.25
592.539	281.25
592.748	272.25
592.958	257.25
593.167	264.25
593.377	268.25
593.587	279.25
593.796	260.25
594.006	263.25
594.215	266.25
594.424	263.25
594.634	254.25
594.843	236.25
595.053	252.25
595.262	258.25
595.472	246.25
595.681	247.25
595.89	249.25
596.1	275.25
596.309	266.25
596.518	249.25
596.727	239.25
596.937	245.25
597.146	255.25
597.355	252.25
597.564	249.25
597.774	243.25
597.983	238.25
598.192	242.25
598.401	247.25
598.61	254.25
598.819	234.25
599.028	247.25
599.237	253.25
599.446	246.25
599.655	232.25
599.864	241.25
600.073	237.25
600.282	226.25
600.491	234.25
600.7	235.25
600.909	230.25
601.118	221.25
601.327	234.25
601.536	234.25
601.745	245.25
601.953	229.25
602.162	239.25
602.371	227.25
602.58	246.25
602.789	243.25
602.997	236.25
603.206	226.25
603.415	247.25
603.623	247.25
603.832	232.25
604.041	209.25
604.249	228.25
604.458	217.25
604.666	218.25
604.875	216.25
605.084	214.25
605.292	234.25
605.501	233.25
605.709	238.25
605.918	212.25
606.126	214.25
606.334	226.25
606.543	206.25
606.751	221.25
606.96	222.25
607.168	216.25
607.376	233.25
607.585	201.25
607.793	228.25
608.001	231.25
608.21	215.25
608.418	226.25
608.626	212.25
608.834	226.25
609.043	205.25
609.251	207.25
609.459	221.25
609.667	233.25
609.875	249.25
610.083	224.25
610.291	224.25
610.499	222.25
610.707	214.25
610.916	229.25
611.124	218.25
611.332	227.25
611.54	229.25
611.748	229.25
611.955	225.25
612.163	212.25
612.371	223.25
612.579	220.25
612.787	227.25
612.995	220.25
613.203	219.25
613.411	232.25
613.618	218.25
613.826	207.25
614.034	221.25
614.242	223.25
614.449	220.25
614.657	219.25
614.865	210.25
615.072	202.25
615.28	222.25
615.488	215.25
615.695	214.25
615.903	206.25
616.111	227.25
616.318	212.25
616.526	210.25
616.733	227.25
616.941	208.25
617.148	226.25
617.356	208.25
617.563	213.25
617.771	214.25
617.978	200.25
618.185	219.25
618.393	207.25
618.6	189.25
618.807	219.25
619.015	216.25
619.222	213.25
619.429	198.25
619.637	225.25
619.844	217.25
620.051	216.25
620.258	209.25
620.466	206.25
620.673	215.25
620.88	204.25
621.087	195.25
621.294	210.25
621.501	211.25
621.708	214.25
621.915	217.25
622.122	215.25
622.329	208.25
622.536	202.25
622.743	198.25
622.95	218.25
623.157	171.25
623.364	205.25
623.571	203.25
623.778	220.25
623.985	206.25
624.192	197.25
624.399	193.25
624.606	210.25
624.812	189.25
625.019	198.25
625.226	196.25
625.433	194.25
625.639	189.25
625.846	190.25
626.053	205.25
626.259	195.25
626.466	188.25
626.673	203.25
626.879	193.25
627.086	203.25
627.293	179.25
627.499	201.25
627.706	193.25
627.912	202.25
628.119	192.25
628.325	186.25
628.532	205.25
628.738	188.25
628.945	185.25
629.151	195.25
629.357	183.25
629.564	200.25
629.77	193.25
629.976	184.25
630.183	185.25
630.389	195.25
630.595	169.25
630.802	195.25
631.008	182.25
631.214	169.25
631.42	173.25
631.627	188.25
631.833	178.25
632.039	185.25
632.245	177.25
632.451	185.25
632.657	164.25
632.863	177.25
633.069	188.25
633.275	173.25
633.481	171.25
633.688	171.25
633.893	170.25
634.099	174.25
634.305	174.25
634.511	161.25
634.717	156.25
634.923	198.25
635.129	147.25
635.335	167.25
635.541	190.25
635.747	171.25
635.952	179.25
636.158	170.25
636.364	189.25
636.57	189.25
636.775	194.25
636.981	162.25
637.187	190.25
637.392	171.25
637.598	168.25
637.804	172.25
638.009	182.25
638.215	170.25
638.421	158.25
638.626	180.25
638.832	173.25
639.037	172.25
639.243	166.25
639.448	160.25
639.654	172.25
639.859	159.25
640.065	161.25
640.27	155.25
640.475	159.25
640.681	178.25
640.886	163.25
641.091	169.25
641.297	179.25
641.502	166.25
641.707	138.25
641.913	153.25
642.118	153.25
642.323	143.25
642.528	157.25
642.733	165.25
642.939	149.25
643.144	158.25
643.349	162.25
643.554	163.25
643.759	152.25
643.964	146.25
644.169	162.25
644.374	152.25
644.579	152.25
644.784	146.25
644.989	165.25
645.194	152.25
645.399	159.25
645.604	162.25
645.809	163.25
646.014	157.25
646.219	161.25
646.423	148.25
646.628	153.25
646.833	143.25
647.038	164.25
647.243	157.25
647.447	150.25
647.652	152.25
647.857	149.25
648.062	146.25
648.266	149.25
648.471	166.25
648.676	157.25
648.88	152.25
649.085	164.25
649.289	157.25
649.494	162.25
649.698	181.25
649.903	181.25
650.107	164.25
650.312	174.25
650.516	152.25
650.721	149.25
650.925	136.25
651.13	139.25
651.334	140.25
651.539	139.25
651.743	149.25
651.947	135.25
652.152	140.25
652.356	124.25
652.56	154.25
652.764	146.25
652.969	145.25
653.173	141.25
653.377	139.25
653.581	120.25
653.785	135.25
653.99	122.25
654.194	124.25
654.398	140.25
654.602	122.25
654.806	139.25
655.01	142.25
655.214	134.25
655.418	127.25
655.622	138.25
655.826	140.25
656.03	135.25
656.234	122.25
656.438	122.25
656.642	115.25
656.846	135.25
657.049	126.25
657.253	117.25
657.457	113.25
657.661	108.25
657.865	117.25
658.068	103.25
658.272	115.25
658.476	87.25
658.68	107.25
658.883	113.25
659.087	106.25
659.291	103.25
659.494	98.25
659.698	94.25
659.901	89.25
660.105	98.25
660.309	95.25
660.512	106.25
660.716	99.25
660.919	91.25
661.123	86.25
661.326	83.25
661.53	78.25
661.733	89.25
661.936	98.25
662.14	85.25
662.343	78.25
662.546	87.25
662.75	91.25
662.953	93.25
663.156	77.25
663.36	105.25
663.563	85.25
663.766	80.25
663.969	71.25
664.173	89.25
664.376	91.25
664.579	77.25
664.782	97.25
664.985	85.25
665.188	81.25
665.391	94.25
665.594	90.25
665.797	89.25
666	75.25
666.203	87.25
666.406	85.25
666.609	106.25
666.812	82.25
667.015	57.25
667.218	86.25
667.421	89.25
667.624	71.25
667.827	89.25
668.03	78.25
668.232	90.25
668.435	93.25
668.638	71.25
668.841	91.25
669.043	87.25
669.246	82.25
669.449	89.25
669.651	78.25
669.854	82.25
670.057	84.25
670.259	82.25
670.462	87.25
670.665	94.25
670.867	93.25
671.07	90.25
671.272	70.25
671.475	85.25
671.677	88.25
671.88	89.25
672.082	95.25
672.284	90.25
672.487	90.25
672.689	78.25
672.892	76.25
