Data from 1972.PennyLincolnUp.Lamp.En5.5.200Scan.071719.P1._HRD10591_15-29-57-845.txt Node
Date: Thu Jul 18 15:29:57 EDT 2019
User: cochatt
Spectrometer: HR+D1059
Trigger mode: 1
Integration Time (sec): 1.000000E-1
Scans to average: 1
Electric dark correction enabled: true
Nonlinearity correction enabled: false
Boxcar width: 0
XAxis mode: Wavelengths
Number of Pixels in Spectrum: 2048
>>>>>Begin Spectral Data<<<<<
223.165	-12.69
223.4	-12.69
223.635	-12.69
223.869	-23.69
224.104	-13.69
224.338	-16.69
224.573	-7.69
224.808	-17.69
225.042	-7.69
225.277	8.31
225.511	-1.69
225.746	12.31
225.98	9.31
226.215	10.31
226.449	8.31
226.683	8.31
226.918	17.31
227.152	27.31
227.387	37.31
227.621	32.31
227.856	28.31
228.09	51.31
228.324	56.31
228.559	42.31
228.793	85.31
229.027	105.31
229.262	122.31
229.496	115.31
229.73	145.31
229.964	174.31
230.199	152.31
230.433	130.31
230.667	110.31
230.901	124.31
231.136	101.31
231.37	125.31
231.604	112.31
231.838	118.31
232.072	117.31
232.306	120.31
232.541	112.31
232.775	124.31
233.009	106.31
233.243	122.31
233.477	104.31
233.711	128.31
233.945	131.31
234.179	129.31
234.413	122.31
234.647	128.31
234.881	112.31
235.115	126.31
235.349	122.31
235.583	122.31
235.817	125.31
236.051	128.31
236.285	145.31
236.519	135.31
236.753	132.31
236.987	153.31
237.221	189.31
237.455	276.31
237.689	212.31
237.922	159.31
238.156	144.31
238.39	147.31
238.624	118.31
238.858	112.31
239.091	139.31
239.325	114.31
239.559	120.31
239.793	151.31
240.027	134.31
240.26	154.31
240.494	161.31
240.728	180.31
240.961	159.31
241.195	140.31
241.429	140.31
241.662	146.31
241.896	148.31
242.13	123.31
242.363	133.31
242.597	130.31
242.83	142.31
243.064	138.31
243.298	139.31
243.531	138.31
243.765	146.31
243.998	133.31
244.232	154.31
244.465	140.31
244.699	157.31
244.932	146.31
245.166	142.31
245.399	142.31
245.633	156.31
245.866	142.31
246.099	158.31
246.333	145.31
246.566	164.31
246.8	159.31
247.033	155.31
247.266	152.31
247.5	163.31
247.733	160.31
247.966	184.31
248.2	186.31
248.433	173.31
248.666	184.31
248.899	201.31
249.133	204.31
249.366	215.31
249.599	230.31
249.832	221.31
250.066	189.31
250.299	187.31
250.532	191.31
250.765	219.31
250.998	244.31
251.231	247.31
251.465	231.31
251.698	212.31
251.931	212.31
252.164	203.31
252.397	211.31
252.63	210.31
252.863	210.31
253.096	232.31
253.329	235.31
253.562	249.31
253.795	214.31
254.028	220.31
254.261	248.31
254.494	227.31
254.727	274.31
254.96	308.31
255.193	294.31
255.426	265.31
255.659	244.31
255.892	260.31
256.124	261.31
256.357	266.31
256.59	264.31
256.823	221.31
257.056	230.31
257.289	233.31
257.521	215.31
257.754	205.31
257.987	219.31
258.22	214.31
258.452	192.31
258.685	220.31
258.918	221.31
259.151	230.31
259.383	223.31
259.616	242.31
259.849	233.31
260.081	248.31
260.314	283.31
260.547	284.31
260.779	285.31
261.012	267.31
261.244	240.31
261.477	240.31
261.71	245.31
261.942	245.31
262.175	255.31
262.407	250.31
262.64	231.31
262.872	223.31
263.105	227.31
263.337	217.31
263.57	226.31
263.802	218.31
264.035	225.31
264.267	208.31
264.499	219.31
264.732	238.31
264.964	237.31
265.197	229.31
265.429	218.31
265.661	217.31
265.894	224.31
266.126	224.31
266.358	236.31
266.591	219.31
266.823	248.31
267.055	225.31
267.287	245.31
267.52	246.31
267.752	252.31
267.984	235.31
268.216	229.31
268.448	233.31
268.681	235.31
268.913	249.31
269.145	298.31
269.377	286.31
269.609	285.31
269.841	299.31
270.073	284.31
270.306	315.31
270.538	362.31
270.77	331.31
271.002	330.31
271.234	318.31
271.466	322.31
271.698	341.31
271.93	369.31
272.162	344.31
272.394	351.31
272.626	336.31
272.858	324.31
273.09	310.31
273.322	300.31
273.553	307.31
273.785	283.31
274.017	284.31
274.249	294.31
274.481	299.31
274.713	284.31
274.945	291.31
275.176	293.31
275.408	308.31
275.64	277.31
275.872	269.31
276.104	286.31
276.335	289.31
276.567	297.31
276.799	345.31
277.031	329.31
277.262	331.31
277.494	349.31
277.726	328.31
277.957	304.31
278.189	293.31
278.421	278.31
278.652	283.31
278.884	290.31
279.115	286.31
279.347	284.31
279.579	265.31
279.81	278.31
280.042	262.31
280.273	265.31
280.505	288.31
280.736	291.31
280.968	280.31
281.199	268.31
281.431	265.31
281.662	268.31
281.894	266.31
282.125	280.31
282.356	309.31
282.588	328.31
282.819	317.31
283.051	278.31
283.282	274.31
283.513	268.31
283.745	277.31
283.976	272.31
284.207	309.31
284.439	282.31
284.67	295.31
284.901	284.31
285.132	292.31
285.364	276.31
285.595	262.31
285.826	298.31
286.057	293.31
286.288	292.31
286.52	279.31
286.751	289.31
286.982	289.31
287.213	275.31
287.444	283.31
287.675	312.31
287.906	296.31
288.138	297.31
288.369	298.31
288.6	313.31
288.831	295.31
289.062	283.31
289.293	277.31
289.524	306.31
289.755	284.31
289.986	302.31
290.217	274.31
290.448	291.31
290.679	305.31
290.91	292.31
291.141	304.31
291.371	274.31
291.602	289.31
291.833	295.31
292.064	275.31
292.295	284.31
292.526	297.31
292.757	302.31
292.987	311.31
293.218	283.31
293.449	290.31
293.68	284.31
293.91	292.31
294.141	297.31
294.372	291.31
294.603	291.31
294.833	301.31
295.064	290.31
295.295	280.31
295.525	296.31
295.756	284.31
295.987	283.31
296.217	330.31
296.448	351.31
296.679	323.31
296.909	296.31
297.14	293.31
297.37	274.31
297.601	280.31
297.831	284.31
298.062	297.31
298.292	298.31
298.523	315.31
298.753	299.31
298.984	293.31
299.214	302.31
299.445	313.31
299.675	314.31
299.905	306.31
300.136	336.31
300.366	308.31
300.597	298.31
300.827	310.31
301.057	318.31
301.288	333.31
301.518	336.31
301.748	328.31
301.979	327.31
302.209	325.31
302.439	349.31
302.669	338.31
302.9	335.31
303.13	313.31
303.36	331.31
303.59	331.31
303.82	329.31
304.051	338.31
304.281	334.31
304.511	330.31
304.741	312.31
304.971	320.31
305.201	323.31
305.431	340.31
305.661	333.31
305.891	312.31
306.121	334.31
306.352	332.31
306.582	355.31
306.812	332.31
307.042	330.31
307.272	338.31
307.502	336.31
307.731	348.31
307.961	333.31
308.191	336.31
308.421	349.31
308.651	340.31
308.881	343.31
309.111	337.31
309.341	341.31
309.571	384.31
309.8	381.31
310.03	406.31
310.26	404.31
310.49	361.31
310.72	395.31
310.949	420.31
311.179	433.31
311.409	397.31
311.639	404.31
311.868	429.31
312.098	412.31
312.328	414.31
312.557	428.31
312.787	481.31
313.017	436.31
313.246	412.31
313.476	381.31
313.706	389.31
313.935	400.31
314.165	416.31
314.394	441.31
314.624	440.31
314.853	412.31
315.083	398.31
315.312	389.31
315.542	401.31
315.771	390.31
316.001	362.31
316.23	380.31
316.46	389.31
316.689	392.31
316.919	397.31
317.148	419.31
317.377	426.31
317.607	394.31
317.836	390.31
318.065	392.31
318.295	396.31
318.524	398.31
318.753	374.31
318.983	395.31
319.212	384.31
319.441	404.31
319.67	411.31
319.9	377.31
320.129	412.31
320.358	378.31
320.587	417.31
320.816	394.31
321.046	422.31
321.275	423.31
321.504	419.31
321.733	423.31
321.962	449.31
322.191	459.31
322.42	467.31
322.649	487.31
322.878	516.31
323.108	502.31
323.337	554.31
323.566	596.31
323.795	626.31
324.024	702.31
324.253	865.31
324.482	1274.31
324.71	2048.31
324.939	2978.31
325.168	2592.31
325.397	1256.31
325.626	808.31
325.855	686.31
326.084	606.31
326.313	584.31
326.542	605.31
326.77	640.31
326.999	796.31
327.228	1144.31
327.457	1762.31
327.686	2224.31
327.914	1481.31
328.143	904.31
328.372	796.31
328.6	727.31
328.829	664.31
329.058	675.31
329.287	704.31
329.515	660.31
329.744	601.31
329.972	576.31
330.201	628.31
330.43	704.31
330.658	707.31
330.887	741.31
331.115	728.31
331.344	576.31
331.572	568.31
331.801	517.31
332.03	542.31
332.258	496.31
332.486	480.31
332.715	454.31
332.943	466.31
333.172	461.31
333.4	481.31
333.629	499.31
333.857	508.31
334.085	517.31
334.314	540.31
334.542	596.31
334.771	624.31
334.999	561.31
335.227	486.31
335.455	461.31
335.684	441.31
335.912	446.31
336.14	459.31
336.369	450.31
336.597	468.31
336.825	481.31
337.053	461.31
337.281	459.31
337.51	430.31
337.738	455.31
337.966	429.31
338.194	444.31
338.422	457.31
338.65	442.31
338.878	429.31
339.106	421.31
339.334	436.31
339.562	446.31
339.79	438.31
340.018	445.31
340.246	443.31
340.474	439.31
340.702	447.31
340.93	460.31
341.158	425.31
341.386	451.31
341.614	446.31
341.842	439.31
342.07	436.31
342.298	432.31
342.526	408.31
342.754	410.31
342.981	429.31
343.209	396.31
343.437	398.31
343.665	403.31
343.893	428.31
344.12	432.31
344.348	412.31
344.576	424.31
344.804	436.31
345.031	467.31
345.259	480.31
345.487	447.31
345.714	446.31
345.942	429.31
346.17	453.31
346.397	422.31
346.625	425.31
346.853	443.31
347.08	409.31
347.308	414.31
347.535	444.31
347.763	428.31
347.99	426.31
348.218	428.31
348.445	455.31
348.673	450.31
348.9	422.31
349.128	421.31
349.355	391.31
349.583	385.31
349.81	414.31
350.037	406.31
350.265	413.31
350.492	402.31
350.72	399.31
350.947	396.31
351.174	450.31
351.402	432.31
351.629	429.31
351.856	428.31
352.083	426.31
352.311	440.31
352.538	451.31
352.765	449.31
352.992	427.31
353.22	424.31
353.447	417.31
353.674	425.31
353.901	388.31
354.128	395.31
354.355	380.31
354.583	399.31
354.81	370.31
355.037	384.31
355.264	359.31
355.491	370.31
355.718	388.31
355.945	388.31
356.172	364.31
356.399	352.31
356.626	368.31
356.853	363.31
357.08	392.31
357.307	382.31
357.534	362.31
357.761	358.31
357.988	376.31
358.215	372.31
358.441	376.31
358.668	386.31
358.895	402.31
359.122	385.31
359.349	379.31
359.576	426.31
359.802	445.31
360.029	481.31
360.256	481.31
360.483	474.31
360.709	427.31
360.936	415.31
361.163	432.31
361.39	432.31
361.616	409.31
361.843	409.31
362.07	385.31
362.296	410.31
362.523	420.31
362.749	420.31
362.976	425.31
363.203	398.31
363.429	393.31
363.656	390.31
363.882	396.31
364.109	383.31
364.335	394.31
364.562	395.31
364.788	377.31
365.015	387.31
365.241	381.31
365.468	404.31
365.694	389.31
365.92	398.31
366.147	374.31
366.373	394.31
366.599	379.31
366.826	360.31
367.052	386.31
367.278	396.31
367.505	383.31
367.731	398.31
367.957	391.31
368.184	393.31
368.41	390.31
368.636	401.31
368.862	404.31
369.089	391.31
369.315	372.31
369.541	382.31
369.767	385.31
369.993	404.31
370.219	382.31
370.445	391.31
370.672	379.31
370.898	365.31
371.124	380.31
371.35	388.31
371.576	380.31
371.802	399.31
372.028	376.31
372.254	386.31
372.48	369.31
372.706	372.31
372.932	354.31
373.158	359.31
373.384	380.31
373.61	372.31
373.835	392.31
374.061	371.31
374.287	386.31
374.513	388.31
374.739	376.31
374.965	371.31
375.191	381.31
375.416	383.31
375.642	368.31
375.868	361.31
376.094	372.31
376.319	370.31
376.545	369.31
376.771	354.31
376.997	350.31
377.222	359.31
377.448	372.31
377.674	382.31
377.899	357.31
378.125	365.31
378.35	368.31
378.576	370.31
378.802	339.31
379.027	350.31
379.253	359.31
379.478	358.31
379.704	369.31
379.929	372.31
380.155	372.31
380.38	364.31
380.606	390.31
380.831	380.31
381.057	380.31
381.282	359.31
381.507	379.31
381.733	390.31
381.958	384.31
382.184	378.31
382.409	359.31
382.634	382.31
382.86	385.31
383.085	373.31
383.31	372.31
383.535	380.31
383.761	360.31
383.986	370.31
384.211	384.31
384.436	374.31
384.662	374.31
384.887	378.31
385.112	389.31
385.337	387.31
385.562	390.31
385.787	373.31
386.013	412.31
386.238	418.31
386.463	398.31
386.688	396.31
386.913	377.31
387.138	385.31
387.363	398.31
387.588	379.31
387.813	388.31
388.038	396.31
388.263	382.31
388.488	388.31
388.713	394.31
388.938	414.31
389.163	407.31
389.387	401.31
389.612	385.31
389.837	387.31
390.062	399.31
390.287	370.31
390.512	385.31
390.736	372.31
390.961	406.31
391.186	392.31
391.411	389.31
391.636	404.31
391.86	380.31
392.085	409.31
392.31	392.31
392.534	393.31
392.759	410.31
392.984	402.31
393.208	415.31
393.433	409.31
393.658	385.31
393.882	396.31
394.107	401.31
394.331	406.31
394.556	389.31
394.78	417.31
395.005	402.31
395.229	386.31
395.454	414.31
395.678	419.31
395.903	415.31
396.127	430.31
396.352	425.31
396.576	426.31
396.801	419.31
397.025	406.31
397.249	430.31
397.474	427.31
397.698	397.31
397.922	425.31
398.147	457.31
398.371	458.31
398.595	451.31
398.82	454.31
399.044	453.31
399.268	425.31
399.492	461.31
399.717	496.31
399.941	508.31
400.165	553.31
400.389	551.31
400.613	501.31
400.837	468.31
401.062	468.31
401.286	450.31
401.51	454.31
401.734	446.31
401.958	478.31
402.182	465.31
402.406	470.31
402.63	446.31
402.854	450.31
403.078	461.31
403.302	468.31
403.526	483.31
403.75	460.31
403.974	442.31
404.198	449.31
404.422	454.31
404.645	490.31
404.869	484.31
405.093	523.31
405.317	578.31
405.541	594.31
405.765	526.31
405.988	532.31
406.212	533.31
406.436	516.31
406.66	556.31
406.883	520.31
407.107	540.31
407.331	582.31
407.555	656.31
407.778	636.31
408.002	561.31
408.226	529.31
408.449	506.31
408.673	528.31
408.896	579.31
409.12	627.31
409.344	592.31
409.567	523.31
409.791	468.31
410.014	466.31
410.238	460.31
410.461	474.31
410.685	477.31
410.908	476.31
411.132	562.31
411.355	578.31
411.578	553.31
411.802	492.31
412.025	461.31
412.249	478.31
412.472	516.31
412.695	560.31
412.919	558.31
413.142	507.31
413.365	461.31
413.589	464.31
413.812	447.31
414.035	429.31
414.258	453.31
414.482	432.31
414.705	443.31
414.928	450.31
415.151	438.31
415.374	442.31
415.597	442.31
415.821	440.31
416.044	451.31
416.267	438.31
416.49	453.31
416.713	446.31
416.936	434.31
417.159	445.31
417.382	477.31
417.605	475.31
417.828	438.31
418.051	483.31
418.274	467.31
418.497	455.31
418.72	440.31
418.943	456.31
419.166	468.31
419.389	463.31
419.611	483.31
419.834	465.31
420.057	490.31
420.28	479.31
420.503	468.31
420.726	457.31
420.948	500.31
421.171	552.31
421.394	574.31
421.617	500.31
421.839	475.31
422.062	489.31
422.285	499.31
422.507	582.31
422.73	657.31
422.953	597.31
423.175	552.31
423.398	512.31
423.621	520.31
423.843	542.31
424.066	530.31
424.288	523.31
424.511	528.31
424.733	604.31
424.956	694.31
425.178	660.31
425.401	663.31
425.623	706.31
425.846	586.31
426.068	534.31
426.291	536.31
426.513	533.31
426.735	545.31
426.958	601.31
427.18	690.31
427.402	829.31
427.625	920.31
427.847	830.31
428.069	712.31
428.292	602.31
428.514	562.31
428.736	528.31
428.958	529.31
429.181	488.31
429.403	496.31
429.625	485.31
429.847	543.31
430.069	629.31
430.292	600.31
430.514	522.31
430.736	486.31
430.958	484.31
431.18	450.31
431.402	459.31
431.624	451.31
431.846	447.31
432.068	426.31
432.29	431.31
432.512	463.31
432.734	466.31
432.956	450.31
433.178	485.31
433.4	481.31
433.622	457.31
433.844	433.31
434.066	434.31
434.287	433.31
434.509	440.31
434.731	476.31
434.953	469.31
435.175	481.31
435.397	508.31
435.618	522.31
435.84	581.31
436.062	681.31
436.284	773.31
436.505	625.31
436.727	562.31
436.949	503.31
437.17	494.31
437.392	502.31
437.614	508.31
437.835	560.31
438.057	669.31
438.278	782.31
438.5	773.31
438.721	853.31
438.943	804.31
439.165	621.31
439.386	570.31
439.608	580.31
439.829	549.31
440.05	588.31
440.272	662.31
440.493	609.31
440.715	547.31
440.936	511.31
441.158	501.31
441.379	501.31
441.6	490.31
441.822	548.31
442.043	574.31
442.264	676.31
442.486	740.31
442.707	610.31
442.928	580.31
443.149	568.31
443.371	585.31
443.592	638.31
443.813	724.31
444.034	825.31
444.255	644.31
444.476	550.31
444.698	558.31
444.919	546.31
445.14	621.31
445.361	594.31
445.582	607.31
445.803	663.31
446.024	797.31
446.245	802.31
446.466	748.31
446.687	612.31
446.908	536.31
447.129	531.31
447.35	504.31
447.571	505.31
447.792	480.31
448.013	507.31
448.234	534.31
448.455	573.31
448.675	697.31
448.896	840.31
449.117	708.31
449.338	661.31
449.559	789.31
449.779	885.31
450	690.31
450.221	582.31
450.442	532.31
450.662	504.31
450.883	507.31
451.104	517.31
451.324	512.31
451.545	510.31
451.766	458.31
451.986	452.31
452.207	443.31
452.428	425.31
452.648	432.31
452.869	450.31
453.089	464.31
453.31	468.31
453.53	467.31
453.751	439.31
453.971	463.31
454.192	466.31
454.412	487.31
454.633	441.31
454.853	435.31
455.073	427.31
455.294	473.31
455.514	546.31
455.734	538.31
455.955	436.31
456.175	440.31
456.395	399.31
456.616	412.31
456.836	403.31
457.056	403.31
457.276	397.31
457.497	417.31
457.717	392.31
457.937	422.31
458.157	446.31
458.377	426.31
458.598	458.31
458.818	532.31
459.038	644.31
459.258	667.31
459.478	524.31
459.698	460.31
459.918	447.31
460.138	445.31
460.358	449.31
460.578	433.31
460.798	452.31
461.018	456.31
461.238	437.31
461.458	422.31
461.678	421.31
461.898	441.31
462.118	438.31
462.338	445.31
462.558	438.31
462.777	448.31
462.997	441.31
463.217	457.31
463.437	453.31
463.657	449.31
463.876	467.31
464.096	438.31
464.316	492.31
464.536	490.31
464.755	484.31
464.975	492.31
465.195	565.31
465.414	660.31
465.634	577.31
465.854	489.31
466.073	476.31
466.293	458.31
466.512	438.31
466.732	443.31
466.951	449.31
467.171	433.31
467.391	424.31
467.61	467.31
467.829	478.31
468.049	468.31
468.268	468.31
468.488	435.31
468.707	428.31
468.927	437.31
469.146	406.31
469.365	432.31
469.585	426.31
469.804	453.31
470.023	456.31
470.243	450.31
470.462	450.31
470.681	473.31
470.901	466.31
471.12	444.31
471.339	464.31
471.558	445.31
471.777	463.31
471.997	438.31
472.216	464.31
472.435	511.31
472.654	504.31
472.873	452.31
473.092	446.31
473.311	424.31
473.53	449.31
473.749	464.31
473.968	508.31
474.187	628.31
474.406	679.31
474.625	536.31
474.844	479.31
475.063	468.31
475.282	440.31
475.501	452.31
475.72	461.31
475.939	457.31
476.158	448.31
476.377	443.31
476.596	463.31
476.814	465.31
477.033	485.31
477.252	488.31
477.471	478.31
477.69	465.31
477.908	492.31
478.127	494.31
478.346	498.31
478.564	492.31
478.783	501.31
479.002	490.31
479.22	482.31
479.439	520.31
479.658	535.31
479.876	542.31
480.095	553.31
480.313	588.31
480.532	548.31
480.751	557.31
480.969	582.31
481.188	642.31
481.406	704.31
481.624	592.31
481.843	545.31
482.061	553.31
482.28	536.31
482.498	527.31
482.717	539.31
482.935	526.31
483.153	522.31
483.372	530.31
483.59	513.31
483.808	544.31
484.027	535.31
484.245	516.31
484.463	522.31
484.681	518.31
484.9	537.31
485.118	551.31
485.336	558.31
485.554	536.31
485.772	565.31
485.99	539.31
486.209	563.31
486.427	560.31
486.645	564.31
486.863	597.31
487.081	586.31
487.299	575.31
487.517	582.31
487.735	563.31
487.953	552.31
488.171	552.31
488.389	564.31
488.607	564.31
488.825	558.31
489.043	574.31
489.261	569.31
489.479	584.31
489.696	593.31
489.914	594.31
490.132	587.31
490.35	590.31
490.568	586.31
490.786	610.31
491.003	628.31
491.221	640.31
491.439	635.31
491.657	644.31
491.874	660.31
492.092	652.31
492.31	665.31
492.527	680.31
492.745	650.31
492.963	673.31
493.18	677.31
493.398	663.31
493.615	694.31
493.833	698.31
494.05	684.31
494.268	688.31
494.485	670.31
494.703	670.31
494.92	659.31
495.138	693.31
495.355	676.31
495.573	692.31
495.79	683.31
496.008	688.31
496.225	653.31
496.442	666.31
496.66	660.31
496.877	689.31
497.094	676.31
497.312	700.31
497.529	703.31
497.746	685.31
497.963	699.31
498.181	716.31
498.398	739.31
498.615	758.31
498.832	724.31
499.049	733.31
499.267	773.31
499.484	749.31
499.701	761.31
499.918	756.31
500.135	794.31
500.352	842.31
500.569	828.31
500.786	843.31
501.003	821.31
501.22	806.31
501.437	826.31
501.654	797.31
501.871	830.31
502.088	807.31
502.305	768.31
502.522	767.31
502.739	741.31
502.956	702.31
503.172	705.31
503.389	703.31
503.606	691.31
503.823	719.31
504.04	704.31
504.256	700.31
504.473	679.31
504.69	652.31
504.907	677.31
505.123	662.31
505.34	670.31
505.557	668.31
505.773	651.31
505.99	676.31
506.207	661.31
506.423	646.31
506.64	662.31
506.856	657.31
507.073	640.31
507.289	626.31
507.506	636.31
507.722	669.31
507.939	691.31
508.155	684.31
508.372	663.31
508.588	654.31
508.805	649.31
509.021	654.31
509.238	639.31
509.454	660.31
509.67	667.31
509.887	626.31
510.103	621.31
510.319	648.31
510.536	772.31
510.752	1410.31
510.968	1125.31
511.184	666.31
511.401	632.31
511.617	646.31
511.833	635.31
512.049	625.31
512.265	610.31
512.481	626.31
512.698	597.31
512.914	635.31
513.13	611.31
513.346	629.31
513.562	597.31
513.778	636.31
513.994	624.31
514.21	647.31
514.426	675.31
514.642	739.31
514.858	765.31
515.074	809.31
515.29	1017.31
515.506	1596.31
515.721	1251.31
515.937	820.31
516.153	716.31
516.369	673.31
516.585	632.31
516.801	649.31
517.016	618.31
517.232	614.31
517.448	617.31
517.664	627.31
517.879	604.31
518.095	613.31
518.311	619.31
518.527	604.31
518.742	604.31
518.958	583.31
519.173	614.31
519.389	608.31
519.605	624.31
519.82	589.31
520.036	630.31
520.251	669.31
520.467	707.31
520.682	698.31
520.898	718.31
521.113	761.31
521.329	791.31
521.544	947.31
521.76	1245.31
521.975	2124.31
522.19	2091.31
522.406	1099.31
522.621	770.31
522.836	705.31
523.052	642.31
523.267	607.31
523.482	606.31
523.698	585.31
523.913	564.31
524.128	576.31
524.343	583.31
524.559	538.31
524.774	527.31
524.989	547.31
525.204	540.31
525.419	550.31
525.634	529.31
525.849	497.31
526.064	505.31
526.28	505.31
526.495	491.31
526.71	508.31
526.925	486.31
527.14	481.31
527.355	488.31
527.57	492.31
527.785	489.31
527.999	482.31
528.214	472.31
528.429	474.31
528.644	482.31
528.859	497.31
529.074	495.31
529.289	523.31
529.503	617.31
529.718	635.31
529.933	534.31
530.148	520.31
530.363	491.31
530.577	504.31
530.792	482.31
531.007	485.31
531.221	471.31
531.436	460.31
531.651	449.31
531.865	473.31
532.08	453.31
532.295	477.31
532.509	442.31
532.724	444.31
532.938	435.31
533.153	452.31
533.367	464.31
533.582	467.31
533.796	427.31
534.011	449.31
534.225	447.31
534.44	435.31
534.654	436.31
534.868	461.31
535.083	452.31
535.297	449.31
535.511	467.31
535.726	470.31
535.94	473.31
536.154	455.31
536.369	477.31
536.583	450.31
536.797	451.31
537.011	428.31
537.225	438.31
537.44	434.31
537.654	457.31
537.868	437.31
538.082	444.31
538.296	450.31
538.51	434.31
538.724	445.31
538.938	426.31
539.153	446.31
539.367	463.31
539.581	469.31
539.795	445.31
540.009	436.31
540.222	434.31
540.436	426.31
540.65	446.31
540.864	440.31
541.078	451.31
541.292	451.31
541.506	433.31
541.72	433.31
541.934	445.31
542.147	445.31
542.361	439.31
542.575	455.31
542.789	424.31
543.002	440.31
543.216	442.31
543.43	455.31
543.644	442.31
543.857	432.31
544.071	428.31
544.285	434.31
544.498	432.31
544.712	416.31
544.925	421.31
545.139	436.31
545.352	436.31
545.566	424.31
545.779	415.31
545.993	410.31
546.206	412.31
546.42	416.31
546.633	425.31
546.847	419.31
547.06	424.31
547.274	392.31
547.487	406.31
547.7	423.31
547.914	403.31
548.127	415.31
548.34	404.31
548.554	394.31
548.767	412.31
548.98	408.31
549.193	388.31
549.407	398.31
549.62	378.31
549.833	397.31
550.046	401.31
550.259	417.31
550.473	413.31
550.686	415.31
550.899	404.31
551.112	394.31
551.325	412.31
551.538	397.31
551.751	394.31
551.964	379.31
552.177	386.31
552.39	410.31
552.603	389.31
552.816	416.31
553.029	392.31
553.242	396.31
553.455	413.31
553.667	425.31
553.88	418.31
554.093	410.31
554.306	410.31
554.519	397.31
554.732	404.31
554.944	395.31
555.157	402.31
555.37	392.31
555.583	404.31
555.795	395.31
556.008	390.31
556.221	389.31
556.433	375.31
556.646	389.31
556.859	368.31
557.071	391.31
557.284	369.31
557.496	371.31
557.709	365.31
557.921	376.31
558.134	359.31
558.346	347.31
558.559	378.31
558.771	342.31
558.984	370.31
559.196	350.31
559.409	381.31
559.621	377.31
559.833	363.31
560.046	341.31
560.258	357.31
560.47	346.31
560.683	340.31
560.895	344.31
561.107	342.31
561.32	355.31
561.532	356.31
561.744	357.31
561.956	362.31
562.168	363.31
562.381	365.31
562.593	362.31
562.805	370.31
563.017	374.31
563.229	358.31
563.441	368.31
563.653	362.31
563.865	366.31
564.077	371.31
564.289	380.31
564.501	373.31
564.713	390.31
564.925	378.31
565.137	379.31
565.349	371.31
565.561	369.31
565.773	386.31
565.985	364.31
566.197	388.31
566.408	374.31
566.62	409.31
566.832	396.31
567.044	387.31
567.255	394.31
567.467	380.31
567.679	411.31
567.891	403.31
568.102	400.31
568.314	410.31
568.526	408.31
568.737	382.31
568.949	383.31
569.161	380.31
569.372	358.31
569.584	372.31
569.795	345.31
570.007	358.31
570.218	428.31
570.43	420.31
570.641	344.31
570.853	361.31
571.064	347.31
571.276	352.31
571.487	362.31
571.698	325.31
571.91	345.31
572.121	345.31
572.333	343.31
572.544	344.31
572.755	333.31
572.966	314.31
573.178	328.31
573.389	321.31
573.6	323.31
573.811	301.31
574.023	308.31
574.234	324.31
574.445	339.31
574.656	314.31
574.867	301.31
575.078	326.31
575.289	317.31
575.501	324.31
575.712	314.31
575.923	310.31
576.134	306.31
576.345	301.31
576.556	297.31
576.767	311.31
576.978	308.31
577.188	313.31
577.399	311.31
577.61	294.31
577.821	298.31
578.032	325.31
578.243	368.31
578.454	651.31
578.665	443.31
578.875	324.31
579.086	283.31
579.297	316.31
579.508	306.31
579.718	311.31
579.929	299.31
580.14	298.31
580.35	297.31
580.561	306.31
580.772	294.31
580.982	284.31
581.193	293.31
581.403	265.31
581.614	290.31
581.825	285.31
582.035	296.31
582.246	292.31
582.456	285.31
582.667	288.31
582.877	302.31
583.087	294.31
583.298	290.31
583.508	280.31
583.719	311.31
583.929	281.31
584.139	276.31
584.35	270.31
584.56	274.31
584.77	280.31
584.981	286.31
585.191	287.31
585.401	285.31
585.611	294.31
585.821	284.31
586.032	269.31
586.242	274.31
586.452	285.31
586.662	295.31
586.872	283.31
587.082	293.31
587.292	284.31
587.502	297.31
587.713	264.31
587.923	279.31
588.133	273.31
588.343	261.31
588.553	266.31
588.762	270.31
588.972	280.31
589.182	263.31
589.392	282.31
589.602	264.31
589.812	262.31
590.022	259.31
590.232	277.31
590.441	277.31
590.651	267.31
590.861	278.31
591.071	259.31
591.281	275.31
591.49	281.31
591.7	278.31
591.91	284.31
592.119	270.31
592.329	278.31
592.539	259.31
592.748	290.31
592.958	294.31
593.167	279.31
593.377	281.31
593.587	278.31
593.796	270.31
594.006	273.31
594.215	270.31
594.424	276.31
594.634	251.31
594.843	264.31
595.053	274.31
595.262	279.31
595.472	256.31
595.681	267.31
595.89	274.31
596.1	249.31
596.309	274.31
596.518	280.31
596.727	257.31
596.937	268.31
597.146	252.31
597.355	258.31
597.564	265.31
597.774	259.31
597.983	238.31
598.192	258.31
598.401	256.31
598.61	255.31
598.819	236.31
599.028	254.31
599.237	251.31
599.446	267.31
599.655	243.31
599.864	252.31
600.073	249.31
600.282	256.31
600.491	246.31
600.7	245.31
600.909	251.31
601.118	243.31
601.327	238.31
601.536	235.31
601.745	241.31
601.953	242.31
602.162	223.31
602.371	263.31
602.58	233.31
602.789	248.31
602.997	235.31
603.206	248.31
603.415	224.31
603.623	234.31
603.832	235.31
604.041	243.31
604.249	237.31
604.458	224.31
604.666	234.31
604.875	240.31
605.084	236.31
605.292	224.31
605.501	232.31
605.709	227.31
605.918	242.31
606.126	245.31
606.334	244.31
606.543	207.31
606.751	229.31
606.96	216.31
607.168	244.31
607.376	225.31
607.585	221.31
607.793	228.31
608.001	237.31
608.21	220.31
608.418	200.31
608.626	226.31
608.834	233.31
609.043	226.31
609.251	232.31
609.459	222.31
609.667	208.31
609.875	224.31
610.083	240.31
610.291	232.31
610.499	214.31
610.707	217.31
610.916	219.31
611.124	221.31
611.332	233.31
611.54	246.31
611.748	231.31
611.955	224.31
612.163	222.31
612.371	233.31
612.579	211.31
612.787	215.31
612.995	222.31
613.203	228.31
613.411	231.31
613.618	230.31
613.826	218.31
614.034	222.31
614.242	217.31
614.449	213.31
614.657	217.31
614.865	209.31
615.072	221.31
615.28	216.31
615.488	221.31
615.695	219.31
615.903	232.31
616.111	229.31
616.318	219.31
616.526	230.31
616.733	217.31
616.941	214.31
617.148	223.31
617.356	222.31
617.563	219.31
617.771	229.31
617.978	209.31
618.185	209.31
618.393	212.31
618.6	218.31
618.807	205.31
619.015	206.31
619.222	227.31
619.429	213.31
619.637	203.31
619.844	217.31
620.051	213.31
620.258	225.31
620.466	218.31
620.673	220.31
620.88	191.31
621.087	209.31
621.294	192.31
621.501	215.31
621.708	211.31
621.915	214.31
622.122	216.31
622.329	212.31
622.536	216.31
622.743	206.31
622.95	216.31
623.157	213.31
623.364	220.31
623.571	201.31
623.778	212.31
623.985	209.31
624.192	210.31
624.399	212.31
624.606	205.31
624.812	188.31
625.019	212.31
625.226	195.31
625.433	204.31
625.639	195.31
625.846	192.31
626.053	209.31
626.259	193.31
626.466	194.31
626.673	199.31
626.879	176.31
627.086	201.31
627.293	212.31
627.499	198.31
627.706	216.31
627.912	200.31
628.119	206.31
628.325	205.31
628.532	201.31
628.738	203.31
628.945	201.31
629.151	185.31
629.357	183.31
629.564	199.31
629.77	185.31
629.976	199.31
630.183	206.31
630.389	196.31
630.595	182.31
630.802	204.31
631.008	189.31
631.214	198.31
631.42	180.31
631.627	189.31
631.833	192.31
632.039	191.31
632.245	191.31
632.451	186.31
632.657	189.31
632.863	186.31
633.069	185.31
633.275	172.31
633.481	184.31
633.688	178.31
633.893	182.31
634.099	180.31
634.305	189.31
634.511	180.31
634.717	178.31
634.923	173.31
635.129	166.31
635.335	176.31
635.541	188.31
635.747	169.31
635.952	174.31
636.158	182.31
636.364	166.31
636.57	194.31
636.775	187.31
636.981	172.31
637.187	176.31
637.392	176.31
637.598	173.31
637.804	203.31
638.009	165.31
638.215	178.31
638.421	162.31
638.626	152.31
638.832	174.31
639.037	159.31
639.243	161.31
639.448	155.31
639.654	164.31
639.859	160.31
640.065	157.31
640.27	172.31
640.475	168.31
640.681	188.31
640.886	150.31
641.091	164.31
641.297	168.31
641.502	152.31
641.707	161.31
641.913	163.31
642.118	161.31
642.323	159.31
642.528	157.31
642.733	173.31
642.939	164.31
643.144	163.31
643.349	167.31
643.554	145.31
643.759	166.31
643.964	160.31
644.169	148.31
644.374	154.31
644.579	166.31
644.784	152.31
644.989	165.31
645.194	138.31
645.399	168.31
645.604	149.31
645.809	154.31
646.014	162.31
646.219	161.31
646.423	156.31
646.628	166.31
646.833	165.31
647.038	134.31
647.243	152.31
647.447	162.31
647.652	161.31
647.857	157.31
648.062	173.31
648.266	164.31
648.471	168.31
648.676	172.31
648.88	149.31
649.085	153.31
649.289	139.31
649.494	179.31
649.698	178.31
649.903	170.31
650.107	164.31
650.312	163.31
650.516	150.31
650.721	150.31
650.925	132.31
651.13	145.31
651.334	147.31
651.539	157.31
651.743	133.31
651.947	141.31
652.152	142.31
652.356	137.31
652.56	129.31
652.764	136.31
652.969	145.31
653.173	121.31
653.377	128.31
653.581	131.31
653.785	140.31
653.99	146.31
654.194	132.31
654.398	134.31
654.602	130.31
654.806	132.31
655.01	137.31
655.214	146.31
655.418	125.31
655.622	130.31
655.826	130.31
656.03	121.31
656.234	134.31
656.438	122.31
656.642	117.31
656.846	116.31
657.049	132.31
657.253	120.31
657.457	117.31
657.661	116.31
657.865	124.31
658.068	107.31
658.272	98.31
658.476	115.31
658.68	109.31
658.883	113.31
659.087	101.31
659.291	101.31
659.494	88.31
659.698	106.31
659.901	96.31
660.105	90.31
660.309	107.31
660.512	105.31
660.716	99.31
660.919	89.31
661.123	90.31
661.326	81.31
661.53	99.31
661.733	96.31
661.936	92.31
662.14	82.31
662.343	81.31
662.546	78.31
662.75	90.31
662.953	91.31
663.156	69.31
663.36	84.31
663.563	92.31
663.766	88.31
663.969	94.31
664.173	86.31
664.376	69.31
664.579	66.31
664.782	81.31
664.985	93.31
665.188	96.31
665.391	74.31
665.594	70.31
665.797	85.31
666	66.31
666.203	81.31
666.406	88.31
666.609	78.31
666.812	86.31
667.015	75.31
667.218	82.31
667.421	87.31
667.624	81.31
667.827	84.31
668.03	77.31
668.232	81.31
668.435	77.31
668.638	77.31
668.841	83.31
669.043	81.31
669.246	68.31
669.449	81.31
669.651	80.31
669.854	85.31
670.057	91.31
670.259	89.31
670.462	88.31
670.665	77.31
670.867	68.31
671.07	86.31
671.272	82.31
671.475	69.31
671.677	90.31
671.88	78.31
672.082	82.31
672.284	84.31
672.487	91.31
672.689	90.31
672.892	85.31
