Data from 1972.PennyLincolnUp.Lamp.En5.5.200Scan.071719.P1._HRD10591_15-28-45-844.txt Node
Date: Thu Jul 18 15:28:45 EDT 2019
User: cochatt
Spectrometer: HR+D1059
Trigger mode: 1
Integration Time (sec): 1.000000E-1
Scans to average: 1
Electric dark correction enabled: true
Nonlinearity correction enabled: false
Boxcar width: 0
XAxis mode: Wavelengths
Number of Pixels in Spectrum: 2048
>>>>>Begin Spectral Data<<<<<
223.165	-13.19
223.4	-13.19
223.635	-13.19
223.869	-16.19
224.104	-17.19
224.338	-16.19
224.573	-22.19
224.808	-20.19
225.042	-12.19
225.277	-15.19
225.511	5.81
225.746	-1.19
225.98	1.81
226.215	19.81
226.449	14.81
226.683	22.81
226.918	24.81
227.152	43.81
227.387	27.81
227.621	27.81
227.856	46.81
228.09	21.81
228.324	50.81
228.559	43.81
228.793	57.81
229.027	96.81
229.262	101.81
229.496	138.81
229.73	148.81
229.964	180.81
230.199	133.81
230.433	131.81
230.667	123.81
230.901	113.81
231.136	112.81
231.37	117.81
231.604	118.81
231.838	120.81
232.072	104.81
232.306	117.81
232.541	102.81
232.775	95.81
233.009	117.81
233.243	106.81
233.477	106.81
233.711	112.81
233.945	117.81
234.179	115.81
234.413	122.81
234.647	112.81
234.881	110.81
235.115	112.81
235.349	115.81
235.583	106.81
235.817	121.81
236.051	114.81
236.285	132.81
236.519	131.81
236.753	132.81
236.987	145.81
237.221	192.81
237.455	257.81
237.689	202.81
237.922	137.81
238.156	127.81
238.39	130.81
238.624	111.81
238.858	115.81
239.091	113.81
239.325	143.81
239.559	119.81
239.793	139.81
240.027	140.81
240.26	127.81
240.494	148.81
240.728	154.81
240.961	150.81
241.195	136.81
241.429	133.81
241.662	135.81
241.896	150.81
242.13	127.81
242.363	134.81
242.597	135.81
242.83	144.81
243.064	135.81
243.298	133.81
243.531	150.81
243.765	146.81
243.998	138.81
244.232	138.81
244.465	135.81
244.699	143.81
244.932	139.81
245.166	138.81
245.399	142.81
245.633	148.81
245.866	145.81
246.099	153.81
246.333	145.81
246.566	151.81
246.8	146.81
247.033	164.81
247.266	162.81
247.5	164.81
247.733	167.81
247.966	181.81
248.2	162.81
248.433	179.81
248.666	170.81
248.899	197.81
249.133	211.81
249.366	213.81
249.599	208.81
249.832	188.81
250.066	178.81
250.299	211.81
250.532	194.81
250.765	211.81
250.998	199.81
251.231	239.81
251.465	217.81
251.698	225.81
251.931	197.81
252.164	204.81
252.397	198.81
252.63	206.81
252.863	218.81
253.096	220.81
253.329	213.81
253.562	223.81
253.795	224.81
254.028	213.81
254.261	228.81
254.494	247.81
254.727	271.81
254.96	306.81
255.193	283.81
255.426	245.81
255.659	227.81
255.892	241.81
256.124	240.81
256.357	266.81
256.59	264.81
256.823	248.81
257.056	236.81
257.289	237.81
257.521	211.81
257.754	212.81
257.987	207.81
258.22	199.81
258.452	209.81
258.685	223.81
258.918	221.81
259.151	216.81
259.383	230.81
259.616	230.81
259.849	239.81
260.081	241.81
260.314	257.81
260.547	253.81
260.779	259.81
261.012	258.81
261.244	230.81
261.477	235.81
261.71	232.81
261.942	240.81
262.175	239.81
262.407	227.81
262.64	237.81
262.872	234.81
263.105	234.81
263.337	218.81
263.57	210.81
263.802	213.81
264.035	213.81
264.267	217.81
264.499	216.81
264.732	223.81
264.964	213.81
265.197	209.81
265.429	217.81
265.661	213.81
265.894	205.81
266.126	216.81
266.358	243.81
266.591	214.81
266.823	239.81
267.055	207.81
267.287	243.81
267.52	220.81
267.752	231.81
267.984	222.81
268.216	234.81
268.448	236.81
268.681	225.81
268.913	263.81
269.145	265.81
269.377	272.81
269.609	278.81
269.841	295.81
270.073	267.81
270.306	278.81
270.538	333.81
270.77	328.81
271.002	310.81
271.234	305.81
271.466	301.81
271.698	318.81
271.93	325.81
272.162	345.81
272.394	312.81
272.626	302.81
272.858	292.81
273.09	292.81
273.322	278.81
273.553	269.81
273.785	272.81
274.017	273.81
274.249	267.81
274.481	289.81
274.713	288.81
274.945	277.81
275.176	268.81
275.408	251.81
275.64	263.81
275.872	269.81
276.104	249.81
276.335	265.81
276.567	278.81
276.799	291.81
277.031	338.81
277.262	330.81
277.494	340.81
277.726	310.81
277.957	293.81
278.189	301.81
278.421	275.81
278.652	283.81
278.884	285.81
279.115	274.81
279.347	260.81
279.579	283.81
279.81	266.81
280.042	283.81
280.273	280.81
280.505	260.81
280.736	257.81
280.968	243.81
281.199	253.81
281.431	252.81
281.662	268.81
281.894	275.81
282.125	261.81
282.356	305.81
282.588	313.81
282.819	331.81
283.051	278.81
283.282	272.81
283.513	264.81
283.745	280.81
283.976	280.81
284.207	261.81
284.439	248.81
284.67	278.81
284.901	297.81
285.132	274.81
285.364	267.81
285.595	269.81
285.826	253.81
286.057	264.81
286.288	263.81
286.52	265.81
286.751	281.81
286.982	258.81
287.213	281.81
287.444	265.81
287.675	281.81
287.906	260.81
288.138	287.81
288.369	296.81
288.6	307.81
288.831	309.81
289.062	284.81
289.293	289.81
289.524	280.81
289.755	285.81
289.986	281.81
290.217	281.81
290.448	270.81
290.679	271.81
290.91	271.81
291.141	282.81
291.371	270.81
291.602	284.81
291.833	283.81
292.064	275.81
292.295	282.81
292.526	286.81
292.757	291.81
292.987	271.81
293.218	281.81
293.449	281.81
293.68	273.81
293.91	313.81
294.141	276.81
294.372	261.81
294.603	279.81
294.833	273.81
295.064	266.81
295.295	286.81
295.525	277.81
295.756	296.81
295.987	304.81
296.217	335.81
296.448	322.81
296.679	289.81
296.909	285.81
297.14	295.81
297.37	288.81
297.601	288.81
297.831	283.81
298.062	289.81
298.292	295.81
298.523	307.81
298.753	285.81
298.984	292.81
299.214	289.81
299.445	289.81
299.675	308.81
299.905	304.81
300.136	303.81
300.366	306.81
300.597	307.81
300.827	293.81
301.057	322.81
301.288	309.81
301.518	313.81
301.748	299.81
301.979	303.81
302.209	312.81
302.439	317.81
302.669	301.81
302.9	334.81
303.13	322.81
303.36	331.81
303.59	329.81
303.82	330.81
304.051	331.81
304.281	313.81
304.511	320.81
304.741	310.81
304.971	299.81
305.201	325.81
305.431	317.81
305.661	336.81
305.891	332.81
306.121	310.81
306.352	319.81
306.582	313.81
306.812	326.81
307.042	327.81
307.272	314.81
307.502	330.81
307.731	337.81
307.961	325.81
308.191	324.81
308.421	320.81
308.651	325.81
308.881	318.81
309.111	321.81
309.341	352.81
309.571	342.81
309.8	368.81
310.03	367.81
310.26	377.81
310.49	381.81
310.72	380.81
310.949	383.81
311.179	399.81
311.409	375.81
311.639	394.81
311.868	374.81
312.098	375.81
312.328	413.81
312.557	397.81
312.787	395.81
313.017	421.81
313.246	406.81
313.476	385.81
313.706	383.81
313.935	400.81
314.165	388.81
314.394	409.81
314.624	413.81
314.853	395.81
315.083	361.81
315.312	376.81
315.542	382.81
315.771	379.81
316.001	354.81
316.23	365.81
316.46	373.81
316.689	379.81
316.919	369.81
317.148	382.81
317.377	421.81
317.607	397.81
317.836	393.81
318.065	392.81
318.295	362.81
318.524	343.81
318.753	377.81
318.983	369.81
319.212	367.81
319.441	369.81
319.67	380.81
319.9	365.81
320.129	381.81
320.358	366.81
320.587	404.81
320.816	395.81
321.046	413.81
321.275	394.81
321.504	411.81
321.733	419.81
321.962	440.81
322.191	425.81
322.42	452.81
322.649	443.81
322.878	470.81
323.108	493.81
323.337	500.81
323.566	539.81
323.795	601.81
324.024	637.81
324.253	798.81
324.482	1172.81
324.71	1845.81
324.939	2682.81
325.168	2373.81
325.397	1192.81
325.626	776.81
325.855	637.81
326.084	543.81
326.313	569.81
326.542	541.81
326.77	593.81
326.999	715.81
327.228	1034.81
327.457	1624.81
327.686	2007.81
327.914	1350.81
328.143	858.81
328.372	715.81
328.6	684.81
328.829	611.81
329.058	622.81
329.287	653.81
329.515	623.81
329.744	563.81
329.972	539.81
330.201	582.81
330.43	615.81
330.658	654.81
330.887	675.81
331.115	671.81
331.344	554.81
331.572	513.81
331.801	531.81
332.03	504.81
332.258	458.81
332.486	455.81
332.715	446.81
332.943	450.81
333.172	459.81
333.4	435.81
333.629	467.81
333.857	508.81
334.085	514.81
334.314	512.81
334.542	578.81
334.771	614.81
334.999	522.81
335.227	471.81
335.455	454.81
335.684	448.81
335.912	394.81
336.14	435.81
336.369	430.81
336.597	439.81
336.825	455.81
337.053	438.81
337.281	425.81
337.51	415.81
337.738	416.81
337.966	416.81
338.194	414.81
338.422	453.81
338.65	423.81
338.878	422.81
339.106	403.81
339.334	422.81
339.562	417.81
339.79	420.81
340.018	421.81
340.246	401.81
340.474	407.81
340.702	433.81
340.93	418.81
341.158	410.81
341.386	417.81
341.614	411.81
341.842	403.81
342.07	409.81
342.298	416.81
342.526	419.81
342.754	379.81
342.981	407.81
343.209	400.81
343.437	401.81
343.665	417.81
343.893	417.81
344.12	410.81
344.348	439.81
344.576	418.81
344.804	418.81
345.031	427.81
345.259	441.81
345.487	420.81
345.714	411.81
345.942	418.81
346.17	409.81
346.397	407.81
346.625	391.81
346.853	386.81
347.08	404.81
347.308	433.81
347.535	413.81
347.763	440.81
347.99	418.81
348.218	439.81
348.445	413.81
348.673	436.81
348.9	415.81
349.128	410.81
349.355	419.81
349.583	389.81
349.81	385.81
350.037	393.81
350.265	384.81
350.492	375.81
350.72	403.81
350.947	394.81
351.174	421.81
351.402	426.81
351.629	424.81
351.856	413.81
352.083	429.81
352.311	413.81
352.538	424.81
352.765	419.81
352.992	431.81
353.22	406.81
353.447	402.81
353.674	394.81
353.901	391.81
354.128	369.81
354.355	379.81
354.583	373.81
354.81	360.81
355.037	367.81
355.264	361.81
355.491	369.81
355.718	368.81
355.945	357.81
356.172	369.81
356.399	360.81
356.626	346.81
356.853	368.81
357.08	362.81
357.307	355.81
357.534	347.81
357.761	363.81
357.988	348.81
358.215	367.81
358.441	371.81
358.668	367.81
358.895	368.81
359.122	384.81
359.349	384.81
359.576	405.81
359.802	423.81
360.029	472.81
360.256	477.81
360.483	444.81
360.709	415.81
360.936	393.81
361.163	385.81
361.39	396.81
361.616	414.81
361.843	399.81
362.07	408.81
362.296	414.81
362.523	405.81
362.749	394.81
362.976	394.81
363.203	394.81
363.429	388.81
363.656	386.81
363.882	398.81
364.109	386.81
364.335	372.81
364.562	385.81
364.788	379.81
365.015	378.81
365.241	360.81
365.468	369.81
365.694	385.81
365.92	383.81
366.147	387.81
366.373	375.81
366.599	373.81
366.826	377.81
367.052	384.81
367.278	385.81
367.505	382.81
367.731	384.81
367.957	402.81
368.184	377.81
368.41	394.81
368.636	375.81
368.862	392.81
369.089	394.81
369.315	377.81
369.541	375.81
369.767	382.81
369.993	352.81
370.219	376.81
370.445	361.81
370.672	375.81
370.898	381.81
371.124	362.81
371.35	358.81
371.576	356.81
371.802	367.81
372.028	371.81
372.254	361.81
372.48	359.81
372.706	356.81
372.932	377.81
373.158	359.81
373.384	366.81
373.61	357.81
373.835	369.81
374.061	372.81
374.287	369.81
374.513	386.81
374.739	373.81
374.965	373.81
375.191	367.81
375.416	381.81
375.642	343.81
375.868	367.81
376.094	371.81
376.319	344.81
376.545	371.81
376.771	358.81
376.997	365.81
377.222	355.81
377.448	361.81
377.674	368.81
377.899	351.81
378.125	337.81
378.35	365.81
378.576	337.81
378.802	357.81
379.027	363.81
379.253	363.81
379.478	355.81
379.704	354.81
379.929	329.81
380.155	379.81
380.38	383.81
380.606	373.81
380.831	359.81
381.057	355.81
381.282	354.81
381.507	355.81
381.733	367.81
381.958	373.81
382.184	363.81
382.409	371.81
382.634	385.81
382.86	367.81
383.085	384.81
383.31	384.81
383.535	369.81
383.761	368.81
383.986	377.81
384.211	383.81
384.436	378.81
384.662	371.81
384.887	362.81
385.112	366.81
385.337	381.81
385.562	386.81
385.787	382.81
386.013	374.81
386.238	387.81
386.463	407.81
386.688	399.81
386.913	367.81
387.138	379.81
387.363	404.81
387.588	378.81
387.813	372.81
388.038	382.81
388.263	382.81
388.488	383.81
388.713	369.81
388.938	387.81
389.163	396.81
389.387	393.81
389.612	375.81
389.837	407.81
390.062	393.81
390.287	377.81
390.512	392.81
390.736	411.81
390.961	383.81
391.186	411.81
391.411	396.81
391.636	393.81
391.86	395.81
392.085	381.81
392.31	375.81
392.534	381.81
392.759	405.81
392.984	383.81
393.208	396.81
393.433	397.81
393.658	395.81
393.882	380.81
394.107	396.81
394.331	371.81
394.556	373.81
394.78	376.81
395.005	391.81
395.229	384.81
395.454	378.81
395.678	395.81
395.903	418.81
396.127	437.81
396.352	441.81
396.576	401.81
396.801	413.81
397.025	403.81
397.249	409.81
397.474	400.81
397.698	410.81
397.922	412.81
398.147	445.81
398.371	457.81
398.595	415.81
398.82	422.81
399.044	447.81
399.268	447.81
399.492	463.81
399.717	487.81
399.941	508.81
400.165	536.81
400.389	534.81
400.613	496.81
400.837	464.81
401.062	458.81
401.286	445.81
401.51	435.81
401.734	418.81
401.958	450.81
402.182	439.81
402.406	445.81
402.63	449.81
402.854	462.81
403.078	440.81
403.302	458.81
403.526	472.81
403.75	457.81
403.974	452.81
404.198	443.81
404.422	456.81
404.645	467.81
404.869	491.81
405.093	488.81
405.317	540.81
405.541	599.81
405.765	528.81
405.988	502.81
406.212	494.81
406.436	530.81
406.66	545.81
406.883	528.81
407.107	531.81
407.331	554.81
407.555	637.81
407.778	635.81
408.002	577.81
408.226	531.81
408.449	521.81
408.673	505.81
408.896	540.81
409.12	590.81
409.344	539.81
409.567	479.81
409.791	467.81
410.014	454.81
410.238	432.81
410.461	443.81
410.685	461.81
410.908	459.81
411.132	507.81
411.355	535.81
411.578	541.81
411.802	471.81
412.025	458.81
412.249	475.81
412.472	505.81
412.695	555.81
412.919	555.81
413.142	486.81
413.365	480.81
413.589	451.81
413.812	435.81
414.035	458.81
414.258	441.81
414.482	424.81
414.705	443.81
414.928	446.81
415.151	437.81
415.374	412.81
415.597	419.81
415.821	428.81
416.044	415.81
416.267	432.81
416.49	429.81
416.713	417.81
416.936	422.81
417.159	431.81
417.382	453.81
417.605	434.81
417.828	453.81
418.051	473.81
418.274	462.81
418.497	435.81
418.72	454.81
418.943	436.81
419.166	445.81
419.389	460.81
419.611	467.81
419.834	475.81
420.057	458.81
420.28	470.81
420.503	468.81
420.726	458.81
420.948	466.81
421.171	519.81
421.394	551.81
421.617	490.81
421.839	467.81
422.062	467.81
422.285	470.81
422.507	545.81
422.73	613.81
422.953	612.81
423.175	543.81
423.398	508.81
423.621	486.81
423.843	488.81
424.066	516.81
424.288	514.81
424.511	525.81
424.733	602.81
424.956	683.81
425.178	637.81
425.401	632.81
425.623	661.81
425.846	579.81
426.068	520.81
426.291	504.81
426.513	518.81
426.735	515.81
426.958	567.81
427.18	673.81
427.402	805.81
427.625	874.81
427.847	779.81
428.069	699.81
428.292	610.81
428.514	529.81
428.736	525.81
428.958	481.81
429.181	459.81
429.403	463.81
429.625	470.81
429.847	521.81
430.069	594.81
430.292	589.81
430.514	503.81
430.736	490.81
430.958	467.81
431.18	458.81
431.402	443.81
431.624	426.81
431.846	422.81
432.068	431.81
432.29	439.81
432.512	425.81
432.734	450.81
432.956	455.81
433.178	472.81
433.4	457.81
433.622	455.81
433.844	430.81
434.066	447.81
434.287	451.81
434.509	450.81
434.731	436.81
434.953	443.81
435.175	456.81
435.397	474.81
435.618	521.81
435.84	575.81
436.062	678.81
436.284	753.81
436.505	625.81
436.727	544.81
436.949	489.81
437.17	493.81
437.392	481.81
437.614	507.81
437.835	549.81
438.057	649.81
438.278	733.81
438.5	751.81
438.721	809.81
438.943	785.81
439.165	634.81
439.386	554.81
439.608	545.81
439.829	559.81
440.05	608.81
440.272	629.81
440.493	598.81
440.715	521.81
440.936	484.81
441.158	489.81
441.379	474.81
441.6	507.81
441.822	514.81
442.043	561.81
442.264	662.81
442.486	712.81
442.707	587.81
442.928	566.81
443.149	544.81
443.371	566.81
443.592	615.81
443.813	708.81
444.034	772.81
444.255	636.81
444.476	549.81
444.698	537.81
444.919	504.81
445.14	605.81
445.361	547.81
445.582	571.81
445.803	644.81
446.024	753.81
446.245	760.81
446.466	688.81
446.687	563.81
446.908	544.81
447.129	501.81
447.35	498.81
447.571	486.81
447.792	490.81
448.013	480.81
448.234	520.81
448.455	587.81
448.675	684.81
448.896	798.81
449.117	694.81
449.338	645.81
449.559	759.81
449.779	842.81
450	676.81
450.221	557.81
450.442	537.81
450.662	498.81
450.883	511.81
451.104	506.81
451.324	482.81
451.545	474.81
451.766	436.81
451.986	435.81
452.207	450.81
452.428	439.81
452.648	433.81
452.869	410.81
453.089	441.81
453.31	446.81
453.53	456.81
453.751	420.81
453.971	439.81
454.192	462.81
454.412	425.81
454.633	443.81
454.853	421.81
455.073	423.81
455.294	468.81
455.514	542.81
455.734	527.81
455.955	449.81
456.175	407.81
456.395	390.81
456.616	407.81
456.836	415.81
457.056	390.81
457.276	385.81
457.497	390.81
457.717	394.81
457.937	391.81
458.157	398.81
458.377	417.81
458.598	448.81
458.818	517.81
459.038	597.81
459.258	645.81
459.478	518.81
459.698	455.81
459.918	451.81
460.138	447.81
460.358	415.81
460.578	417.81
460.798	437.81
461.018	437.81
461.238	434.81
461.458	424.81
461.678	421.81
461.898	423.81
462.118	431.81
462.338	424.81
462.558	441.81
462.777	443.81
462.997	446.81
463.217	437.81
463.437	448.81
463.657	439.81
463.876	445.81
464.096	438.81
464.316	445.81
464.536	459.81
464.755	472.81
464.975	465.81
465.195	524.81
465.414	625.81
465.634	521.81
465.854	475.81
466.073	457.81
466.293	442.81
466.512	436.81
466.732	441.81
466.951	444.81
467.171	433.81
467.391	414.81
467.61	444.81
467.829	456.81
468.049	422.81
468.268	463.81
468.488	444.81
468.707	422.81
468.927	429.81
469.146	415.81
469.365	410.81
469.585	413.81
469.804	440.81
470.023	439.81
470.243	435.81
470.462	459.81
470.681	446.81
470.901	465.81
471.12	431.81
471.339	431.81
471.558	458.81
471.777	439.81
471.997	419.81
472.216	453.81
472.435	502.81
472.654	478.81
472.873	441.81
473.092	426.81
473.311	444.81
473.53	440.81
473.749	453.81
473.968	505.81
474.187	610.81
474.406	635.81
474.625	529.81
474.844	469.81
475.063	438.81
475.282	434.81
475.501	443.81
475.72	464.81
475.939	453.81
476.158	445.81
476.377	446.81
476.596	451.81
476.814	442.81
477.033	477.81
477.252	464.81
477.471	452.81
477.69	461.81
477.908	467.81
478.127	490.81
478.346	472.81
478.564	484.81
478.783	458.81
479.002	478.81
479.22	486.81
479.439	509.81
479.658	513.81
479.876	526.81
480.095	547.81
480.313	561.81
480.532	535.81
480.751	535.81
480.969	551.81
481.188	637.81
481.406	715.81
481.624	631.81
481.843	535.81
482.061	528.81
482.28	518.81
482.498	518.81
482.717	497.81
482.935	517.81
483.153	520.81
483.372	498.81
483.59	496.81
483.808	485.81
484.027	490.81
484.245	494.81
484.463	511.81
484.681	539.81
484.9	535.81
485.118	499.81
485.336	534.81
485.554	547.81
485.772	530.81
485.99	522.81
486.209	521.81
486.427	530.81
486.645	546.81
486.863	566.81
487.081	585.81
487.299	545.81
487.517	560.81
487.735	551.81
487.953	540.81
488.171	569.81
488.389	565.81
488.607	571.81
488.825	563.81
489.043	568.81
489.261	559.81
489.479	554.81
489.696	585.81
489.914	573.81
490.132	585.81
490.35	590.81
490.568	578.81
490.786	579.81
491.003	607.81
491.221	586.81
491.439	637.81
491.657	633.81
491.874	637.81
492.092	616.81
492.31	631.81
492.527	634.81
492.745	639.81
492.963	644.81
493.18	662.81
493.398	664.81
493.615	657.81
493.833	672.81
494.05	685.81
494.268	645.81
494.485	652.81
494.703	673.81
494.92	645.81
495.138	662.81
495.355	650.81
495.573	639.81
495.79	651.81
496.008	651.81
496.225	669.81
496.442	670.81
496.66	670.81
496.877	662.81
497.094	680.81
497.312	672.81
497.529	680.81
497.746	693.81
497.963	691.81
498.181	703.81
498.398	739.81
498.615	749.81
498.832	707.81
499.049	714.81
499.267	736.81
499.484	722.81
499.701	742.81
499.918	772.81
500.135	780.81
500.352	817.81
500.569	831.81
500.786	817.81
501.003	795.81
501.22	810.81
501.437	806.81
501.654	804.81
501.871	813.81
502.088	771.81
502.305	735.81
502.522	717.81
502.739	707.81
502.956	697.81
503.172	697.81
503.389	679.81
503.606	680.81
503.823	705.81
504.04	680.81
504.256	653.81
504.473	656.81
504.69	641.81
504.907	656.81
505.123	652.81
505.34	636.81
505.557	631.81
505.773	683.81
505.99	645.81
506.207	670.81
506.423	649.81
506.64	629.81
506.856	640.81
507.073	619.81
507.289	652.81
507.506	650.81
507.722	641.81
507.939	661.81
508.155	640.81
508.372	627.81
508.588	603.81
508.805	617.81
509.021	628.81
509.238	607.81
509.454	642.81
509.67	637.81
509.887	614.81
510.103	629.81
510.319	647.81
510.536	743.81
510.752	1298.81
510.968	1056.81
511.184	697.81
511.401	637.81
511.617	593.81
511.833	601.81
512.049	572.81
512.265	589.81
512.481	600.81
512.698	579.81
512.914	598.81
513.13	575.81
513.346	606.81
513.562	573.81
513.778	583.81
513.994	626.81
514.21	631.81
514.426	635.81
514.642	704.81
514.858	769.81
515.074	770.81
515.29	963.81
515.506	1501.81
515.721	1177.81
515.937	780.81
516.153	684.81
516.369	632.81
516.585	622.81
516.801	601.81
517.016	590.81
517.232	565.81
517.448	605.81
517.664	587.81
517.879	584.81
518.095	596.81
518.311	604.81
518.527	579.81
518.742	579.81
518.958	584.81
519.173	591.81
519.389	634.81
519.605	597.81
519.82	625.81
520.036	633.81
520.251	631.81
520.467	669.81
520.682	687.81
520.898	693.81
521.113	730.81
521.329	770.81
521.544	889.81
521.76	1162.81
521.975	1945.81
522.19	1949.81
522.406	998.81
522.621	739.81
522.836	667.81
523.052	609.81
523.267	589.81
523.482	589.81
523.698	558.81
523.913	555.81
524.128	570.81
524.343	535.81
524.559	546.81
524.774	514.81
524.989	502.81
525.204	513.81
525.419	521.81
525.634	493.81
525.849	519.81
526.064	513.81
526.28	489.81
526.495	501.81
526.71	485.81
526.925	481.81
527.14	488.81
527.355	472.81
527.57	479.81
527.785	477.81
527.999	465.81
528.214	462.81
528.429	459.81
528.644	498.81
528.859	468.81
529.074	466.81
529.289	509.81
529.503	603.81
529.718	599.81
529.933	488.81
530.148	478.81
530.363	487.81
530.577	459.81
530.792	471.81
531.007	470.81
531.221	459.81
531.436	453.81
531.651	450.81
531.865	455.81
532.08	446.81
532.295	455.81
532.509	439.81
532.724	433.81
532.938	440.81
533.153	447.81
533.367	445.81
533.582	442.81
533.796	435.81
534.011	441.81
534.225	431.81
534.44	433.81
534.654	426.81
534.868	431.81
535.083	425.81
535.297	467.81
535.511	453.81
535.726	450.81
535.94	473.81
536.154	458.81
536.369	433.81
536.583	432.81
536.797	443.81
537.011	411.81
537.225	441.81
537.44	426.81
537.654	421.81
537.868	417.81
538.082	429.81
538.296	432.81
538.51	430.81
538.724	441.81
538.938	439.81
539.153	462.81
539.367	465.81
539.581	464.81
539.795	432.81
540.009	439.81
540.222	426.81
540.436	423.81
540.65	433.81
540.864	420.81
541.078	454.81
541.292	436.81
541.506	455.81
541.72	424.81
541.934	438.81
542.147	429.81
542.361	423.81
542.575	419.81
542.789	419.81
543.002	414.81
543.216	431.81
543.43	433.81
543.644	436.81
543.857	433.81
544.071	434.81
544.285	426.81
544.498	404.81
544.712	422.81
544.925	431.81
545.139	425.81
545.352	391.81
545.566	407.81
545.779	409.81
545.993	399.81
546.206	406.81
546.42	409.81
546.633	399.81
546.847	430.81
547.06	391.81
547.274	398.81
547.487	399.81
547.7	403.81
547.914	405.81
548.127	387.81
548.34	393.81
548.554	369.81
548.767	383.81
548.98	386.81
549.193	381.81
549.407	393.81
549.62	405.81
549.833	405.81
550.046	376.81
550.259	389.81
550.473	402.81
550.686	397.81
550.899	414.81
551.112	407.81
551.325	406.81
551.538	373.81
551.751	375.81
551.964	387.81
552.177	385.81
552.39	381.81
552.603	410.81
552.816	405.81
553.029	378.81
553.242	392.81
553.455	394.81
553.667	411.81
553.88	418.81
554.093	429.81
554.306	375.81
554.519	403.81
554.732	412.81
554.944	416.81
555.157	389.81
555.37	381.81
555.583	374.81
555.795	392.81
556.008	370.81
556.221	374.81
556.433	365.81
556.646	371.81
556.859	362.81
557.071	362.81
557.284	355.81
557.496	357.81
557.709	360.81
557.921	367.81
558.134	363.81
558.346	366.81
558.559	356.81
558.771	370.81
558.984	346.81
559.196	351.81
559.409	359.81
559.621	359.81
559.833	354.81
560.046	353.81
560.258	342.81
560.47	374.81
560.683	352.81
560.895	347.81
561.107	342.81
561.32	364.81
561.532	361.81
561.744	367.81
561.956	351.81
562.168	355.81
562.381	348.81
562.593	359.81
562.805	359.81
563.017	355.81
563.229	344.81
563.441	355.81
563.653	377.81
563.865	367.81
564.077	358.81
564.289	368.81
564.501	375.81
564.713	361.81
564.925	353.81
565.137	377.81
565.349	361.81
565.561	395.81
565.773	380.81
565.985	371.81
566.197	377.81
566.408	387.81
566.62	398.81
566.832	399.81
567.044	406.81
567.255	415.81
567.467	408.81
567.679	409.81
567.891	404.81
568.102	400.81
568.314	394.81
568.526	382.81
568.737	376.81
568.949	378.81
569.161	369.81
569.372	381.81
569.584	360.81
569.795	352.81
570.007	366.81
570.218	430.81
570.43	393.81
570.641	351.81
570.853	337.81
571.064	340.81
571.276	338.81
571.487	334.81
571.698	344.81
571.91	336.81
572.121	349.81
572.333	346.81
572.544	334.81
572.755	315.81
572.966	322.81
573.178	320.81
573.389	314.81
573.6	324.81
573.811	311.81
574.023	323.81
574.234	319.81
574.445	320.81
574.656	306.81
574.867	305.81
575.078	301.81
575.289	306.81
575.501	309.81
575.712	313.81
575.923	290.81
576.134	295.81
576.345	311.81
576.556	295.81
576.767	291.81
576.978	309.81
577.188	297.81
577.399	309.81
577.61	306.81
577.821	286.81
578.032	304.81
578.243	350.81
578.454	609.81
578.665	450.81
578.875	318.81
579.086	302.81
579.297	279.81
579.508	315.81
579.718	305.81
579.929	288.81
580.14	283.81
580.35	298.81
580.561	296.81
580.772	295.81
580.982	288.81
581.193	291.81
581.403	294.81
581.614	276.81
581.825	287.81
582.035	293.81
582.246	292.81
582.456	288.81
582.667	307.81
582.877	287.81
583.087	261.81
583.298	288.81
583.508	291.81
583.719	283.81
583.929	282.81
584.139	270.81
584.35	277.81
584.56	287.81
584.77	280.81
584.981	292.81
585.191	285.81
585.401	284.81
585.611	285.81
585.821	288.81
586.032	287.81
586.242	270.81
586.452	272.81
586.662	261.81
586.872	267.81
587.082	262.81
587.292	263.81
587.502	271.81
587.713	264.81
587.923	265.81
588.133	270.81
588.343	274.81
588.553	277.81
588.762	273.81
588.972	276.81
589.182	257.81
589.392	258.81
589.602	274.81
589.812	269.81
590.022	280.81
590.232	257.81
590.441	273.81
590.651	266.81
590.861	281.81
591.071	282.81
591.281	264.81
591.49	272.81
591.7	273.81
591.91	280.81
592.119	268.81
592.329	278.81
592.539	271.81
592.748	272.81
592.958	265.81
593.167	267.81
593.377	266.81
593.587	269.81
593.796	277.81
594.006	261.81
594.215	273.81
594.424	274.81
594.634	269.81
594.843	277.81
595.053	263.81
595.262	257.81
595.472	253.81
595.681	258.81
595.89	249.81
596.1	262.81
596.309	263.81
596.518	248.81
596.727	271.81
596.937	261.81
597.146	269.81
597.355	260.81
597.564	240.81
597.774	234.81
597.983	249.81
598.192	241.81
598.401	247.81
598.61	253.81
598.819	231.81
599.028	244.81
599.237	235.81
599.446	256.81
599.655	243.81
599.864	245.81
600.073	241.81
600.282	246.81
600.491	237.81
600.7	245.81
600.909	229.81
601.118	235.81
601.327	224.81
601.536	238.81
601.745	245.81
601.953	224.81
602.162	246.81
602.371	257.81
602.58	243.81
602.789	237.81
602.997	230.81
603.206	232.81
603.415	238.81
603.623	230.81
603.832	247.81
604.041	221.81
604.249	213.81
604.458	219.81
604.666	225.81
604.875	249.81
605.084	221.81
605.292	240.81
605.501	233.81
605.709	226.81
605.918	222.81
606.126	237.81
606.334	218.81
606.543	221.81
606.751	214.81
606.96	211.81
607.168	219.81
607.376	231.81
607.585	227.81
607.793	217.81
608.001	230.81
608.21	222.81
608.418	218.81
608.626	235.81
608.834	232.81
609.043	222.81
609.251	220.81
609.459	219.81
609.667	237.81
609.875	217.81
610.083	237.81
610.291	216.81
610.499	223.81
610.707	227.81
610.916	210.81
611.124	209.81
611.332	230.81
611.54	225.81
611.748	197.81
611.955	217.81
612.163	215.81
612.371	227.81
612.579	225.81
612.787	223.81
612.995	223.81
613.203	219.81
613.411	229.81
613.618	214.81
613.826	217.81
614.034	212.81
614.242	219.81
614.449	221.81
614.657	229.81
614.865	215.81
615.072	240.81
615.28	183.81
615.488	215.81
615.695	210.81
615.903	224.81
616.111	219.81
616.318	229.81
616.526	225.81
616.733	215.81
616.941	201.81
617.148	219.81
617.356	217.81
617.563	224.81
617.771	216.81
617.978	202.81
618.185	209.81
618.393	202.81
618.6	201.81
618.807	209.81
619.015	200.81
619.222	187.81
619.429	200.81
619.637	206.81
619.844	199.81
620.051	216.81
620.258	224.81
620.466	208.81
620.673	208.81
620.88	196.81
621.087	208.81
621.294	206.81
621.501	216.81
621.708	206.81
621.915	221.81
622.122	228.81
622.329	217.81
622.536	217.81
622.743	215.81
622.95	203.81
623.157	193.81
623.364	198.81
623.571	203.81
623.778	197.81
623.985	202.81
624.192	209.81
624.399	200.81
624.606	198.81
624.812	200.81
625.019	203.81
625.226	201.81
625.433	184.81
625.639	203.81
625.846	191.81
626.053	206.81
626.259	180.81
626.466	201.81
626.673	199.81
626.879	193.81
627.086	197.81
627.293	203.81
627.499	191.81
627.706	187.81
627.912	189.81
628.119	190.81
628.325	184.81
628.532	200.81
628.738	194.81
628.945	198.81
629.151	193.81
629.357	187.81
629.564	171.81
629.77	183.81
629.976	164.81
630.183	173.81
630.389	197.81
630.595	176.81
630.802	159.81
631.008	175.81
631.214	193.81
631.42	194.81
631.627	175.81
631.833	177.81
632.039	176.81
632.245	184.81
632.451	184.81
632.657	185.81
632.863	174.81
633.069	178.81
633.275	194.81
633.481	166.81
633.688	173.81
633.893	178.81
634.099	178.81
634.305	184.81
634.511	184.81
634.717	177.81
634.923	157.81
635.129	180.81
635.335	175.81
635.541	166.81
635.747	162.81
635.952	176.81
636.158	166.81
636.364	175.81
636.57	199.81
636.775	178.81
636.981	181.81
637.187	191.81
637.392	158.81
637.598	157.81
637.804	165.81
638.009	171.81
638.215	170.81
638.421	170.81
638.626	175.81
638.832	177.81
639.037	153.81
639.243	178.81
639.448	157.81
639.654	194.81
639.859	158.81
640.065	154.81
640.27	160.81
640.475	162.81
640.681	169.81
640.886	164.81
641.091	165.81
641.297	161.81
641.502	167.81
641.707	155.81
641.913	160.81
642.118	161.81
642.323	166.81
642.528	173.81
642.733	185.81
642.939	166.81
643.144	159.81
643.349	139.81
643.554	151.81
643.759	163.81
643.964	158.81
644.169	163.81
644.374	159.81
644.579	175.81
644.784	161.81
644.989	157.81
645.194	142.81
645.399	163.81
645.604	154.81
645.809	145.81
646.014	165.81
646.219	145.81
646.423	161.81
646.628	157.81
646.833	136.81
647.038	157.81
647.243	166.81
647.447	151.81
647.652	148.81
647.857	167.81
648.062	174.81
648.266	159.81
648.471	149.81
648.676	149.81
648.88	155.81
649.085	150.81
649.289	143.81
649.494	151.81
649.698	195.81
649.903	181.81
650.107	161.81
650.312	154.81
650.516	155.81
650.721	148.81
650.925	151.81
651.13	146.81
651.334	147.81
651.539	145.81
651.743	127.81
651.947	150.81
652.152	141.81
652.356	131.81
652.56	135.81
652.764	124.81
652.969	138.81
653.173	135.81
653.377	115.81
653.581	147.81
653.785	127.81
653.99	130.81
654.194	120.81
654.398	128.81
654.602	131.81
654.806	123.81
655.01	124.81
655.214	145.81
655.418	147.81
655.622	137.81
655.826	117.81
656.03	125.81
656.234	127.81
656.438	119.81
656.642	126.81
656.846	133.81
657.049	115.81
657.253	117.81
657.457	100.81
657.661	110.81
657.865	114.81
658.068	102.81
658.272	111.81
658.476	112.81
658.68	118.81
658.883	94.81
659.087	83.81
659.291	93.81
659.494	103.81
659.698	97.81
659.901	85.81
660.105	100.81
660.309	89.81
660.512	82.81
660.716	82.81
660.919	92.81
661.123	93.81
661.326	97.81
661.53	94.81
661.733	88.81
661.936	91.81
662.14	70.81
662.343	78.81
662.546	93.81
662.75	82.81
662.953	88.81
663.156	95.81
663.36	65.81
663.563	85.81
663.766	83.81
663.969	72.81
664.173	76.81
664.376	81.81
664.579	72.81
664.782	89.81
664.985	80.81
665.188	80.81
665.391	79.81
665.594	77.81
665.797	90.81
666	86.81
666.203	77.81
666.406	82.81
666.609	80.81
666.812	74.81
667.015	77.81
667.218	75.81
667.421	81.81
667.624	82.81
667.827	84.81
668.03	79.81
668.232	77.81
668.435	91.81
668.638	76.81
668.841	67.81
669.043	67.81
669.246	64.81
669.449	75.81
669.651	84.81
669.854	72.81
670.057	81.81
670.259	77.81
670.462	59.81
670.665	79.81
670.867	70.81
671.07	79.81
671.272	72.81
671.475	73.81
671.677	71.81
671.88	88.81
672.082	83.81
672.284	87.81
672.487	75.81
672.689	70.81
672.892	77.81
