Data from 1972.PennyLincolnUp.Lamp.En5.5.200Scan.071719.P1._HRD10591_15-27-38-844.txt Node
Date: Thu Jul 18 15:27:38 EDT 2019
User: cochatt
Spectrometer: HR+D1059
Trigger mode: 1
Integration Time (sec): 1.000000E-1
Scans to average: 1
Electric dark correction enabled: true
Nonlinearity correction enabled: false
Boxcar width: 0
XAxis mode: Wavelengths
Number of Pixels in Spectrum: 2048
>>>>>Begin Spectral Data<<<<<
223.165	-15.06
223.4	-15.06
223.635	-15.06
223.869	-16.06
224.104	3.94
224.338	-3.06
224.573	-11.06
224.808	-6.06
225.042	-7.06
225.277	-13.06
225.511	-12.06
225.746	-2.06
225.98	4.94
226.215	-1.06
226.449	3.94
226.683	30.94
226.918	8.94
227.152	33.94
227.387	39.94
227.621	33.94
227.856	35.94
228.09	47.94
228.324	61.94
228.559	53.94
228.793	65.94
229.027	102.94
229.262	105.94
229.496	113.94
229.73	132.94
229.964	157.94
230.199	133.94
230.433	117.94
230.667	115.94
230.901	105.94
231.136	116.94
231.37	110.94
231.604	120.94
231.838	118.94
232.072	102.94
232.306	107.94
232.541	127.94
232.775	104.94
233.009	113.94
233.243	126.94
233.477	109.94
233.711	119.94
233.945	117.94
234.179	122.94
234.413	110.94
234.647	112.94
234.881	121.94
235.115	121.94
235.349	121.94
235.583	117.94
235.817	110.94
236.051	126.94
236.285	135.94
236.519	130.94
236.753	129.94
236.987	139.94
237.221	174.94
237.455	231.94
237.689	183.94
237.922	143.94
238.156	134.94
238.39	142.94
238.624	125.94
238.858	119.94
239.091	126.94
239.325	123.94
239.559	129.94
239.793	118.94
240.027	136.94
240.26	142.94
240.494	166.94
240.728	162.94
240.961	159.94
241.195	151.94
241.429	155.94
241.662	133.94
241.896	114.94
242.13	129.94
242.363	141.94
242.597	140.94
242.83	137.94
243.064	125.94
243.298	151.94
243.531	135.94
243.765	118.94
243.998	132.94
244.232	132.94
244.465	141.94
244.699	137.94
244.932	150.94
245.166	148.94
245.399	150.94
245.633	142.94
245.866	143.94
246.099	136.94
246.333	145.94
246.566	144.94
246.8	147.94
247.033	163.94
247.266	168.94
247.5	159.94
247.733	161.94
247.966	166.94
248.2	168.94
248.433	178.94
248.666	156.94
248.899	169.94
249.133	194.94
249.366	200.94
249.599	222.94
249.832	190.94
250.066	186.94
250.299	178.94
250.532	180.94
250.765	219.94
250.998	217.94
251.231	225.94
251.465	214.94
251.698	212.94
251.931	210.94
252.164	215.94
252.397	203.94
252.63	194.94
252.863	208.94
253.096	219.94
253.329	238.94
253.562	215.94
253.795	221.94
254.028	223.94
254.261	208.94
254.494	226.94
254.727	246.94
254.96	275.94
255.193	302.94
255.426	261.94
255.659	227.94
255.892	249.94
256.124	249.94
256.357	232.94
256.59	227.94
256.823	214.94
257.056	221.94
257.289	217.94
257.521	223.94
257.754	201.94
257.987	205.94
258.22	208.94
258.452	218.94
258.685	213.94
258.918	215.94
259.151	211.94
259.383	222.94
259.616	210.94
259.849	203.94
260.081	226.94
260.314	251.94
260.547	264.94
260.779	256.94
261.012	255.94
261.244	231.94
261.477	234.94
261.71	225.94
261.942	236.94
262.175	240.94
262.407	229.94
262.64	224.94
262.872	228.94
263.105	229.94
263.337	221.94
263.57	232.94
263.802	219.94
264.035	215.94
264.267	205.94
264.499	208.94
264.732	217.94
264.964	217.94
265.197	210.94
265.429	208.94
265.661	195.94
265.894	229.94
266.126	217.94
266.358	199.94
266.591	216.94
266.823	239.94
267.055	226.94
267.287	214.94
267.52	207.94
267.752	224.94
267.984	221.94
268.216	212.94
268.448	218.94
268.681	234.94
268.913	243.94
269.145	234.94
269.377	279.94
269.609	255.94
269.841	263.94
270.073	269.94
270.306	274.94
270.538	319.94
270.77	327.94
271.002	295.94
271.234	283.94
271.466	302.94
271.698	306.94
271.93	298.94
272.162	320.94
272.394	330.94
272.626	306.94
272.858	305.94
273.09	273.94
273.322	284.94
273.553	265.94
273.785	267.94
274.017	273.94
274.249	257.94
274.481	257.94
274.713	275.94
274.945	265.94
275.176	272.94
275.408	270.94
275.64	263.94
275.872	259.94
276.104	255.94
276.335	246.94
276.567	268.94
276.799	277.94
277.031	306.94
277.262	331.94
277.494	326.94
277.726	307.94
277.957	301.94
278.189	273.94
278.421	265.94
278.652	281.94
278.884	275.94
279.115	257.94
279.347	267.94
279.579	271.94
279.81	264.94
280.042	262.94
280.273	274.94
280.505	267.94
280.736	270.94
280.968	263.94
281.199	259.94
281.431	263.94
281.662	257.94
281.894	261.94
282.125	275.94
282.356	273.94
282.588	301.94
282.819	297.94
283.051	287.94
283.282	266.94
283.513	253.94
283.745	252.94
283.976	254.94
284.207	285.94
284.439	274.94
284.67	272.94
284.901	271.94
285.132	258.94
285.364	265.94
285.595	256.94
285.826	281.94
286.057	270.94
286.288	259.94
286.52	267.94
286.751	263.94
286.982	259.94
287.213	273.94
287.444	272.94
287.675	280.94
287.906	270.94
288.138	296.94
288.369	294.94
288.6	304.94
288.831	283.94
289.062	299.94
289.293	275.94
289.524	283.94
289.755	269.94
289.986	277.94
290.217	281.94
290.448	288.94
290.679	264.94
290.91	281.94
291.141	287.94
291.371	267.94
291.602	284.94
291.833	261.94
292.064	262.94
292.295	266.94
292.526	284.94
292.757	274.94
292.987	280.94
293.218	269.94
293.449	289.94
293.68	275.94
293.91	289.94
294.141	282.94
294.372	246.94
294.603	270.94
294.833	271.94
295.064	275.94
295.295	280.94
295.525	264.94
295.756	285.94
295.987	289.94
296.217	328.94
296.448	335.94
296.679	300.94
296.909	273.94
297.14	265.94
297.37	300.94
297.601	291.94
297.831	289.94
298.062	296.94
298.292	284.94
298.523	300.94
298.753	275.94
298.984	291.94
299.214	296.94
299.445	288.94
299.675	297.94
299.905	293.94
300.136	301.94
300.366	295.94
300.597	290.94
300.827	284.94
301.057	294.94
301.288	318.94
301.518	301.94
301.748	298.94
301.979	299.94
302.209	291.94
302.439	315.94
302.669	306.94
302.9	309.94
303.13	305.94
303.36	307.94
303.59	303.94
303.82	315.94
304.051	321.94
304.281	305.94
304.511	299.94
304.741	304.94
304.971	290.94
305.201	293.94
305.431	312.94
305.661	279.94
305.891	311.94
306.121	324.94
306.352	321.94
306.582	313.94
306.812	314.94
307.042	325.94
307.272	315.94
307.502	323.94
307.731	311.94
307.961	332.94
308.191	323.94
308.421	321.94
308.651	322.94
308.881	325.94
309.111	321.94
309.341	316.94
309.571	343.94
309.8	339.94
310.03	350.94
310.26	356.94
310.49	351.94
310.72	372.94
310.949	365.94
311.179	397.94
311.409	385.94
311.639	363.94
311.868	362.94
312.098	371.94
312.328	376.94
312.557	377.94
312.787	403.94
313.017	378.94
313.246	377.94
313.476	353.94
313.706	356.94
313.935	379.94
314.165	371.94
314.394	385.94
314.624	391.94
314.853	370.94
315.083	361.94
315.312	333.94
315.542	342.94
315.771	363.94
316.001	354.94
316.23	358.94
316.46	356.94
316.689	358.94
316.919	345.94
317.148	360.94
317.377	365.94
317.607	368.94
317.836	372.94
318.065	350.94
318.295	369.94
318.524	363.94
318.753	362.94
318.983	376.94
319.212	341.94
319.441	376.94
319.67	387.94
319.9	375.94
320.129	363.94
320.358	352.94
320.587	362.94
320.816	373.94
321.046	396.94
321.275	383.94
321.504	387.94
321.733	401.94
321.962	405.94
322.191	400.94
322.42	435.94
322.649	438.94
322.878	437.94
323.108	470.94
323.337	493.94
323.566	514.94
323.795	551.94
324.024	607.94
324.253	754.94
324.482	1067.94
324.71	1669.94
324.939	2489.94
325.168	2154.94
325.397	1080.94
325.626	712.94
325.855	607.94
326.084	544.94
326.313	526.94
326.542	508.94
326.77	573.94
326.999	661.94
327.228	963.94
327.457	1472.94
327.686	1855.94
327.914	1241.94
328.143	769.94
328.372	667.94
328.6	621.94
328.829	607.94
329.058	579.94
329.287	604.94
329.515	567.94
329.744	510.94
329.972	527.94
330.201	531.94
330.43	589.94
330.658	609.94
330.887	639.94
331.115	605.94
331.344	525.94
331.572	488.94
331.801	477.94
332.03	465.94
332.258	476.94
332.486	423.94
332.715	431.94
332.943	426.94
333.172	434.94
333.4	448.94
333.629	448.94
333.857	450.94
334.085	465.94
334.314	487.94
334.542	514.94
334.771	533.94
334.999	482.94
335.227	431.94
335.455	449.94
335.684	444.94
335.912	403.94
336.14	391.94
336.369	414.94
336.597	450.94
336.825	431.94
337.053	425.94
337.281	413.94
337.51	393.94
337.738	436.94
337.966	418.94
338.194	405.94
338.422	420.94
338.65	405.94
338.878	407.94
339.106	406.94
339.334	389.94
339.562	398.94
339.79	424.94
340.018	407.94
340.246	419.94
340.474	413.94
340.702	413.94
340.93	381.94
341.158	388.94
341.386	405.94
341.614	404.94
341.842	406.94
342.07	395.94
342.298	402.94
342.526	374.94
342.754	383.94
342.981	353.94
343.209	367.94
343.437	382.94
343.665	378.94
343.893	379.94
344.12	407.94
344.348	393.94
344.576	386.94
344.804	399.94
345.031	424.94
345.259	434.94
345.487	411.94
345.714	391.94
345.942	394.94
346.17	376.94
346.397	383.94
346.625	392.94
346.853	385.94
347.08	406.94
347.308	390.94
347.535	415.94
347.763	422.94
347.99	415.94
348.218	407.94
348.445	407.94
348.673	392.94
348.9	407.94
349.128	378.94
349.355	371.94
349.583	360.94
349.81	369.94
350.037	374.94
350.265	361.94
350.492	389.94
350.72	345.94
350.947	387.94
351.174	392.94
351.402	399.94
351.629	399.94
351.856	390.94
352.083	403.94
352.311	400.94
352.538	425.94
352.765	411.94
352.992	412.94
353.22	388.94
353.447	382.94
353.674	397.94
353.901	376.94
354.128	381.94
354.355	367.94
354.583	346.94
354.81	362.94
355.037	354.94
355.264	350.94
355.491	357.94
355.718	350.94
355.945	354.94
356.172	371.94
356.399	369.94
356.626	352.94
356.853	355.94
357.08	345.94
357.307	345.94
357.534	363.94
357.761	352.94
357.988	345.94
358.215	343.94
358.441	376.94
358.668	359.94
358.895	362.94
359.122	353.94
359.349	386.94
359.576	401.94
359.802	422.94
360.029	420.94
360.256	450.94
360.483	421.94
360.709	391.94
360.936	399.94
361.163	378.94
361.39	403.94
361.616	408.94
361.843	386.94
362.07	374.94
362.296	394.94
362.523	398.94
362.749	362.94
362.976	389.94
363.203	367.94
363.429	370.94
363.656	377.94
363.882	377.94
364.109	376.94
364.335	371.94
364.562	377.94
364.788	364.94
365.015	377.94
365.241	365.94
365.468	389.94
365.694	401.94
365.92	386.94
366.147	386.94
366.373	380.94
366.599	363.94
366.826	358.94
367.052	374.94
367.278	365.94
367.505	360.94
367.731	382.94
367.957	354.94
368.184	368.94
368.41	374.94
368.636	363.94
368.862	393.94
369.089	363.94
369.315	367.94
369.541	365.94
369.767	376.94
369.993	365.94
370.219	357.94
370.445	365.94
370.672	348.94
370.898	366.94
371.124	353.94
371.35	359.94
371.576	368.94
371.802	377.94
372.028	349.94
372.254	377.94
372.48	336.94
372.706	351.94
372.932	369.94
373.158	346.94
373.384	391.94
373.61	358.94
373.835	354.94
374.061	346.94
374.287	343.94
374.513	373.94
374.739	348.94
374.965	349.94
375.191	367.94
375.416	356.94
375.642	364.94
375.868	346.94
376.094	339.94
376.319	342.94
376.545	361.94
376.771	339.94
376.997	343.94
377.222	358.94
377.448	343.94
377.674	355.94
377.899	354.94
378.125	322.94
378.35	339.94
378.576	332.94
378.802	327.94
379.027	355.94
379.253	332.94
379.478	343.94
379.704	358.94
379.929	365.94
380.155	350.94
380.38	332.94
380.606	365.94
380.831	353.94
381.057	371.94
381.282	341.94
381.507	356.94
381.733	358.94
381.958	345.94
382.184	357.94
382.409	326.94
382.634	353.94
382.86	363.94
383.085	365.94
383.31	349.94
383.535	362.94
383.761	375.94
383.986	380.94
384.211	365.94
384.436	373.94
384.662	345.94
384.887	360.94
385.112	366.94
385.337	391.94
385.562	367.94
385.787	385.94
386.013	391.94
386.238	383.94
386.463	368.94
386.688	367.94
386.913	388.94
387.138	369.94
387.363	380.94
387.588	368.94
387.813	399.94
388.038	381.94
388.263	375.94
388.488	368.94
388.713	377.94
388.938	401.94
389.163	366.94
389.387	371.94
389.612	393.94
389.837	380.94
390.062	360.94
390.287	379.94
390.512	378.94
390.736	378.94
390.961	377.94
391.186	365.94
391.411	373.94
391.636	381.94
391.86	398.94
392.085	370.94
392.31	383.94
392.534	387.94
392.759	386.94
392.984	373.94
393.208	369.94
393.433	392.94
393.658	379.94
393.882	381.94
394.107	361.94
394.331	376.94
394.556	385.94
394.78	385.94
395.005	383.94
395.229	390.94
395.454	403.94
395.678	383.94
395.903	403.94
396.127	430.94
396.352	421.94
396.576	393.94
396.801	393.94
397.025	415.94
397.249	407.94
397.474	381.94
397.698	391.94
397.922	414.94
398.147	435.94
398.371	427.94
398.595	407.94
398.82	388.94
399.044	402.94
399.268	437.94
399.492	437.94
399.717	476.94
399.941	505.94
400.165	522.94
400.389	550.94
400.613	499.94
400.837	458.94
401.062	431.94
401.286	437.94
401.51	430.94
401.734	439.94
401.958	441.94
402.182	416.94
402.406	442.94
402.63	454.94
402.854	454.94
403.078	436.94
403.302	437.94
403.526	441.94
403.75	453.94
403.974	442.94
404.198	412.94
404.422	444.94
404.645	454.94
404.869	454.94
405.093	494.94
405.317	541.94
405.541	576.94
405.765	493.94
405.988	475.94
406.212	486.94
406.436	517.94
406.66	543.94
406.883	485.94
407.107	517.94
407.331	541.94
407.555	593.94
407.778	621.94
408.002	549.94
408.226	492.94
408.449	508.94
408.673	505.94
408.896	529.94
409.12	565.94
409.344	537.94
409.567	465.94
409.791	461.94
410.014	450.94
410.238	446.94
410.461	457.94
410.685	476.94
410.908	471.94
411.132	498.94
411.355	536.94
411.578	501.94
411.802	471.94
412.025	460.94
412.249	475.94
412.472	489.94
412.695	540.94
412.919	524.94
413.142	471.94
413.365	421.94
413.589	431.94
413.812	426.94
414.035	429.94
414.258	420.94
414.482	414.94
414.705	418.94
414.928	411.94
415.151	437.94
415.374	413.94
415.597	399.94
415.821	405.94
416.044	411.94
416.267	425.94
416.49	418.94
416.713	421.94
416.936	409.94
417.159	408.94
417.382	422.94
417.605	417.94
417.828	430.94
418.051	453.94
418.274	429.94
418.497	421.94
418.72	413.94
418.943	434.94
419.166	434.94
419.389	441.94
419.611	459.94
419.834	449.94
420.057	450.94
420.28	459.94
420.503	448.94
420.726	459.94
420.948	481.94
421.171	505.94
421.394	544.94
421.617	490.94
421.839	434.94
422.062	459.94
422.285	466.94
422.507	509.94
422.73	594.94
422.953	563.94
423.175	488.94
423.398	470.94
423.621	466.94
423.843	459.94
424.066	480.94
424.288	502.94
424.511	496.94
424.733	555.94
424.956	651.94
425.178	601.94
425.401	606.94
425.623	620.94
425.846	523.94
426.068	515.94
426.291	509.94
426.513	503.94
426.735	496.94
426.958	551.94
427.18	643.94
427.402	745.94
427.625	841.94
427.847	763.94
428.069	660.94
428.292	561.94
428.514	483.94
428.736	472.94
428.958	479.94
429.181	470.94
429.403	438.94
429.625	475.94
429.847	505.94
430.069	557.94
430.292	561.94
430.514	489.94
430.736	444.94
430.958	449.94
431.18	455.94
431.402	426.94
431.624	419.94
431.846	410.94
432.068	402.94
432.29	446.94
432.512	433.94
432.734	437.94
432.956	415.94
433.178	458.94
433.4	442.94
433.622	467.94
433.844	426.94
434.066	398.94
434.287	418.94
434.509	436.94
434.731	442.94
434.953	455.94
435.175	463.94
435.397	482.94
435.618	495.94
435.84	531.94
436.062	601.94
436.284	710.94
436.505	587.94
436.727	550.94
436.949	492.94
437.17	447.94
437.392	458.94
437.614	479.94
437.835	503.94
438.057	619.94
438.278	727.94
438.5	693.94
438.721	758.94
438.943	746.94
439.165	584.94
439.386	552.94
439.608	539.94
439.829	510.94
440.05	546.94
440.272	587.94
440.493	567.94
440.715	501.94
440.936	477.94
441.158	446.94
441.379	438.94
441.6	468.94
441.822	510.94
442.043	552.94
442.264	623.94
442.486	655.94
442.707	563.94
442.928	519.94
443.149	503.94
443.371	546.94
443.592	571.94
443.813	667.94
444.034	750.94
444.255	582.94
444.476	521.94
444.698	498.94
444.919	486.94
445.14	606.94
445.361	569.94
445.582	561.94
445.803	611.94
446.024	720.94
446.245	759.94
446.466	665.94
446.687	568.94
446.908	495.94
447.129	480.94
447.35	458.94
447.571	461.94
447.792	455.94
448.013	467.94
448.234	489.94
448.455	532.94
448.675	663.94
448.896	744.94
449.117	629.94
449.338	617.94
449.559	730.94
449.779	805.94
450	621.94
450.221	516.94
450.442	501.94
450.662	469.94
450.883	468.94
451.104	495.94
451.324	483.94
451.545	440.94
451.766	456.94
451.986	419.94
452.207	426.94
452.428	406.94
452.648	439.94
452.869	413.94
453.089	409.94
453.31	427.94
453.53	423.94
453.751	409.94
453.971	439.94
454.192	458.94
454.412	427.94
454.633	426.94
454.853	400.94
455.073	389.94
455.294	445.94
455.514	499.94
455.734	498.94
455.955	411.94
456.175	399.94
456.395	378.94
456.616	379.94
456.836	370.94
457.056	371.94
457.276	361.94
457.497	380.94
457.717	381.94
457.937	397.94
458.157	412.94
458.377	407.94
458.598	425.94
458.818	492.94
459.038	591.94
459.258	569.94
459.478	498.94
459.698	434.94
459.918	424.94
460.138	411.94
460.358	438.94
460.578	449.94
460.798	434.94
461.018	437.94
461.238	391.94
461.458	391.94
461.678	421.94
461.898	409.94
462.118	432.94
462.338	434.94
462.558	440.94
462.777	422.94
462.997	447.94
463.217	439.94
463.437	446.94
463.657	452.94
463.876	443.94
464.096	452.94
464.316	435.94
464.536	447.94
464.755	458.94
464.975	478.94
465.195	501.94
465.414	607.94
465.634	513.94
465.854	494.94
466.073	474.94
466.293	435.94
466.512	412.94
466.732	425.94
466.951	427.94
467.171	401.94
467.391	415.94
467.61	425.94
467.829	456.94
468.049	432.94
468.268	451.94
468.488	435.94
468.707	417.94
468.927	425.94
469.146	401.94
469.365	406.94
469.585	407.94
469.804	412.94
470.023	455.94
470.243	426.94
470.462	431.94
470.681	428.94
470.901	457.94
471.12	411.94
471.339	411.94
471.558	438.94
471.777	419.94
471.997	422.94
472.216	451.94
472.435	481.94
472.654	449.94
472.873	437.94
473.092	411.94
473.311	430.94
473.53	419.94
473.749	435.94
473.968	479.94
474.187	559.94
474.406	614.94
474.625	481.94
474.844	437.94
475.063	451.94
475.282	424.94
475.501	439.94
475.72	429.94
475.939	439.94
476.158	435.94
476.377	437.94
476.596	439.94
476.814	423.94
477.033	442.94
477.252	441.94
477.471	455.94
477.69	444.94
477.908	477.94
478.127	481.94
478.346	459.94
478.564	466.94
478.783	461.94
479.002	464.94
479.22	443.94
479.439	494.94
479.658	536.94
479.876	528.94
480.095	525.94
480.313	541.94
480.532	519.94
480.751	522.94
480.969	541.94
481.188	597.94
481.406	663.94
481.624	543.94
481.843	502.94
482.061	505.94
482.28	499.94
482.498	502.94
482.717	471.94
482.935	497.94
483.153	497.94
483.372	501.94
483.59	511.94
483.808	472.94
484.027	505.94
484.245	495.94
484.463	491.94
484.681	515.94
484.9	522.94
485.118	502.94
485.336	506.94
485.554	516.94
485.772	525.94
485.99	507.94
486.209	524.94
486.427	521.94
486.645	526.94
486.863	557.94
487.081	532.94
487.299	519.94
487.517	541.94
487.735	531.94
487.953	537.94
488.171	542.94
488.389	537.94
488.607	546.94
488.825	539.94
489.043	534.94
489.261	541.94
489.479	565.94
489.696	552.94
489.914	565.94
490.132	560.94
490.35	580.94
490.568	573.94
490.786	578.94
491.003	587.94
491.221	588.94
491.439	609.94
491.657	582.94
491.874	607.94
492.092	621.94
492.31	615.94
492.527	613.94
492.745	614.94
492.963	634.94
493.18	595.94
493.398	622.94
493.615	622.94
493.833	625.94
494.05	622.94
494.268	635.94
494.485	637.94
494.703	643.94
494.92	632.94
495.138	639.94
495.355	633.94
495.573	645.94
495.79	640.94
496.008	647.94
496.225	622.94
496.442	619.94
496.66	650.94
496.877	633.94
497.094	639.94
497.312	627.94
497.529	665.94
497.746	642.94
497.963	658.94
498.181	697.94
498.398	673.94
498.615	663.94
498.832	697.94
499.049	701.94
499.267	685.94
499.484	740.94
499.701	735.94
499.918	775.94
500.135	758.94
500.352	792.94
500.569	810.94
500.786	772.94
501.003	789.94
501.22	797.94
501.437	781.94
501.654	747.94
501.871	769.94
502.088	745.94
502.305	748.94
502.522	714.94
502.739	683.94
502.956	687.94
503.172	672.94
503.389	662.94
503.606	650.94
503.823	655.94
504.04	634.94
504.256	648.94
504.473	644.94
504.69	629.94
504.907	631.94
505.123	615.94
505.34	603.94
505.557	625.94
505.773	601.94
505.99	607.94
506.207	622.94
506.423	617.94
506.64	615.94
506.856	606.94
507.073	596.94
507.289	609.94
507.506	615.94
507.722	618.94
507.939	632.94
508.155	609.94
508.372	595.94
508.588	583.94
508.805	576.94
509.021	585.94
509.238	614.94
509.454	593.94
509.67	595.94
509.887	586.94
510.103	584.94
510.319	599.94
510.536	701.94
510.752	1238.94
510.968	989.94
511.184	645.94
511.401	592.94
511.617	594.94
511.833	569.94
512.049	579.94
512.265	549.94
512.481	567.94
512.698	567.94
512.914	554.94
513.13	569.94
513.346	540.94
513.562	578.94
513.778	573.94
513.994	599.94
514.21	583.94
514.426	627.94
514.642	667.94
514.858	663.94
515.074	735.94
515.29	910.94
515.506	1385.94
515.721	1129.94
515.937	721.94
516.153	638.94
516.369	613.94
516.585	610.94
516.801	588.94
517.016	576.94
517.232	559.94
517.448	566.94
517.664	581.94
517.879	573.94
518.095	555.94
518.311	556.94
518.527	544.94
518.742	554.94
518.958	559.94
519.173	569.94
519.389	575.94
519.605	560.94
519.82	577.94
520.036	557.94
520.251	613.94
520.467	657.94
520.682	637.94
520.898	641.94
521.113	687.94
521.329	741.94
521.544	829.94
521.76	1092.94
521.975	1890.94
522.19	1833.94
522.406	937.94
522.621	697.94
522.836	617.94
523.052	575.94
523.267	561.94
523.482	573.94
523.698	552.94
523.913	539.94
524.128	549.94
524.343	516.94
524.559	494.94
524.774	493.94
524.989	484.94
525.204	503.94
525.419	517.94
525.634	490.94
525.849	475.94
526.064	515.94
526.28	459.94
526.495	475.94
526.71	461.94
526.925	462.94
527.14	461.94
527.355	456.94
527.57	449.94
527.785	446.94
527.999	464.94
528.214	474.94
528.429	462.94
528.644	473.94
528.859	457.94
529.074	468.94
529.289	511.94
529.503	588.94
529.718	562.94
529.933	505.94
530.148	468.94
530.363	449.94
530.577	440.94
530.792	461.94
531.007	469.94
531.221	456.94
531.436	437.94
531.651	437.94
531.865	451.94
532.08	445.94
532.295	443.94
532.509	452.94
532.724	436.94
532.938	425.94
533.153	449.94
533.367	452.94
533.582	446.94
533.796	426.94
534.011	430.94
534.225	424.94
534.44	425.94
534.654	429.94
534.868	396.94
535.083	432.94
535.297	423.94
535.511	426.94
535.726	452.94
535.94	421.94
536.154	424.94
536.369	429.94
536.583	432.94
536.797	413.94
537.011	433.94
537.225	414.94
537.44	416.94
537.654	427.94
537.868	422.94
538.082	429.94
538.296	406.94
538.51	418.94
538.724	421.94
538.938	439.94
539.153	430.94
539.367	454.94
539.581	422.94
539.795	393.94
540.009	407.94
540.222	423.94
540.436	393.94
540.65	422.94
540.864	433.94
541.078	429.94
541.292	431.94
541.506	442.94
541.72	429.94
541.934	419.94
542.147	417.94
542.361	403.94
542.575	412.94
542.789	411.94
543.002	409.94
543.216	409.94
543.43	398.94
543.644	405.94
543.857	397.94
544.071	410.94
544.285	431.94
544.498	418.94
544.712	416.94
544.925	409.94
545.139	404.94
545.352	426.94
545.566	407.94
545.779	393.94
545.993	391.94
546.206	412.94
546.42	396.94
546.633	401.94
546.847	389.94
547.06	407.94
547.274	378.94
547.487	381.94
547.7	389.94
547.914	387.94
548.127	385.94
548.34	403.94
548.554	410.94
548.767	401.94
548.98	397.94
549.193	389.94
549.407	395.94
549.62	392.94
549.833	378.94
550.046	389.94
550.259	390.94
550.473	412.94
550.686	382.94
550.899	381.94
551.112	380.94
551.325	409.94
551.538	390.94
551.751	377.94
551.964	377.94
552.177	392.94
552.39	385.94
552.603	381.94
552.816	376.94
553.029	380.94
553.242	414.94
553.455	394.94
553.667	413.94
553.88	431.94
554.093	391.94
554.306	382.94
554.519	380.94
554.732	410.94
554.944	403.94
555.157	389.94
555.37	379.94
555.583	381.94
555.795	386.94
556.008	369.94
556.221	379.94
556.433	373.94
556.646	365.94
556.859	361.94
557.071	358.94
557.284	356.94
557.496	346.94
557.709	352.94
557.921	384.94
558.134	338.94
558.346	356.94
558.559	356.94
558.771	359.94
558.984	350.94
559.196	338.94
559.409	354.94
559.621	364.94
559.833	353.94
560.046	345.94
560.258	360.94
560.47	351.94
560.683	338.94
560.895	349.94
561.107	374.94
561.32	366.94
561.532	357.94
561.744	346.94
561.956	340.94
562.168	341.94
562.381	338.94
562.593	363.94
562.805	370.94
563.017	377.94
563.229	352.94
563.441	342.94
563.653	363.94
563.865	361.94
564.077	369.94
564.289	376.94
564.501	369.94
564.713	373.94
564.925	364.94
565.137	389.94
565.349	377.94
565.561	368.94
565.773	385.94
565.985	388.94
566.197	389.94
566.408	395.94
566.62	369.94
566.832	413.94
567.044	409.94
567.255	404.94
567.467	410.94
567.679	428.94
567.891	410.94
568.102	410.94
568.314	393.94
568.526	398.94
568.737	393.94
568.949	362.94
569.161	378.94
569.372	344.94
569.584	361.94
569.795	350.94
570.007	343.94
570.218	393.94
570.43	379.94
570.641	351.94
570.853	343.94
571.064	340.94
571.276	339.94
571.487	347.94
571.698	323.94
571.91	325.94
572.121	324.94
572.333	315.94
572.544	297.94
572.755	291.94
572.966	323.94
573.178	315.94
573.389	314.94
573.6	331.94
573.811	305.94
574.023	321.94
574.234	313.94
574.445	315.94
574.656	298.94
574.867	296.94
575.078	312.94
575.289	304.94
575.501	301.94
575.712	296.94
575.923	311.94
576.134	298.94
576.345	291.94
576.556	291.94
576.767	287.94
576.978	297.94
577.188	317.94
577.399	293.94
577.61	308.94
577.821	301.94
578.032	313.94
578.243	340.94
578.454	609.94
578.665	429.94
578.875	305.94
579.086	291.94
579.297	298.94
579.508	289.94
579.718	299.94
579.929	305.94
580.14	288.94
580.35	275.94
580.561	278.94
580.772	274.94
580.982	285.94
581.193	283.94
581.403	294.94
581.614	271.94
581.825	272.94
582.035	284.94
582.246	285.94
582.456	292.94
582.667	269.94
582.877	290.94
583.087	271.94
583.298	266.94
583.508	294.94
583.719	291.94
583.929	279.94
584.139	274.94
584.35	285.94
584.56	271.94
584.77	274.94
584.981	267.94
585.191	282.94
585.401	285.94
585.611	273.94
585.821	289.94
586.032	268.94
586.242	288.94
586.452	280.94
586.662	267.94
586.872	267.94
587.082	276.94
587.292	272.94
587.502	268.94
587.713	261.94
587.923	256.94
588.133	255.94
588.343	278.94
588.553	273.94
588.762	277.94
588.972	286.94
589.182	277.94
589.392	271.94
589.602	267.94
589.812	255.94
590.022	279.94
590.232	270.94
590.441	282.94
590.651	268.94
590.861	258.94
591.071	272.94
591.281	267.94
591.49	276.94
591.7	269.94
591.91	262.94
592.119	260.94
592.329	267.94
592.539	304.94
592.748	271.94
592.958	275.94
593.167	285.94
593.377	273.94
593.587	283.94
593.796	283.94
594.006	265.94
594.215	286.94
594.424	271.94
594.634	265.94
594.843	253.94
595.053	275.94
595.262	259.94
595.472	279.94
595.681	253.94
595.89	258.94
596.1	267.94
596.309	245.94
596.518	274.94
596.727	263.94
596.937	250.94
597.146	257.94
597.355	264.94
597.564	264.94
597.774	241.94
597.983	239.94
598.192	246.94
598.401	250.94
598.61	224.94
598.819	257.94
599.028	256.94
599.237	242.94
599.446	222.94
599.655	247.94
599.864	249.94
600.073	234.94
600.282	234.94
600.491	248.94
600.7	245.94
600.909	230.94
601.118	240.94
601.327	247.94
601.536	237.94
601.745	251.94
601.953	246.94
602.162	237.94
602.371	230.94
602.58	241.94
602.789	229.94
602.997	248.94
603.206	245.94
603.415	229.94
603.623	233.94
603.832	257.94
604.041	243.94
604.249	219.94
604.458	217.94
604.666	238.94
604.875	229.94
605.084	221.94
605.292	236.94
605.501	237.94
605.709	228.94
605.918	223.94
606.126	229.94
606.334	215.94
606.543	227.94
606.751	211.94
606.96	204.94
607.168	227.94
607.376	220.94
607.585	221.94
607.793	229.94
608.001	231.94
608.21	236.94
608.418	229.94
608.626	230.94
608.834	209.94
609.043	217.94
609.251	235.94
609.459	218.94
609.667	226.94
609.875	220.94
610.083	210.94
610.291	226.94
610.499	248.94
610.707	233.94
610.916	225.94
611.124	227.94
611.332	217.94
611.54	235.94
611.748	223.94
611.955	227.94
612.163	224.94
612.371	209.94
612.579	232.94
612.787	222.94
612.995	232.94
613.203	231.94
613.411	227.94
613.618	227.94
613.826	227.94
614.034	201.94
614.242	226.94
614.449	211.94
614.657	222.94
614.865	215.94
615.072	235.94
615.28	221.94
615.488	227.94
615.695	217.94
615.903	213.94
616.111	205.94
616.318	218.94
616.526	223.94
616.733	227.94
616.941	221.94
617.148	220.94
617.356	224.94
617.563	229.94
617.771	215.94
617.978	226.94
618.185	199.94
618.393	222.94
618.6	218.94
618.807	217.94
619.015	210.94
619.222	208.94
619.429	214.94
619.637	217.94
619.844	221.94
620.051	207.94
620.258	207.94
620.466	210.94
620.673	202.94
620.88	211.94
621.087	213.94
621.294	187.94
621.501	190.94
621.708	194.94
621.915	213.94
622.122	215.94
622.329	228.94
622.536	205.94
622.743	202.94
622.95	208.94
623.157	195.94
623.364	222.94
623.571	197.94
623.778	217.94
623.985	226.94
624.192	204.94
624.399	211.94
624.606	206.94
624.812	187.94
625.019	205.94
625.226	185.94
625.433	216.94
625.639	216.94
625.846	206.94
626.053	197.94
626.259	183.94
626.466	198.94
626.673	187.94
626.879	191.94
627.086	191.94
627.293	188.94
627.499	196.94
627.706	201.94
627.912	186.94
628.119	196.94
628.325	189.94
628.532	197.94
628.738	188.94
628.945	194.94
629.151	207.94
629.357	188.94
629.564	178.94
629.77	184.94
629.976	186.94
630.183	184.94
630.389	179.94
630.595	202.94
630.802	174.94
631.008	191.94
631.214	197.94
631.42	197.94
631.627	176.94
631.833	199.94
632.039	190.94
632.245	173.94
632.451	185.94
632.657	173.94
632.863	177.94
633.069	163.94
633.275	176.94
633.481	164.94
633.688	175.94
633.893	171.94
634.099	194.94
634.305	166.94
634.511	188.94
634.717	196.94
634.923	174.94
635.129	179.94
635.335	162.94
635.541	181.94
635.747	184.94
635.952	175.94
636.158	186.94
636.364	196.94
636.57	186.94
636.775	197.94
636.981	186.94
637.187	191.94
637.392	173.94
637.598	181.94
637.804	169.94
638.009	176.94
638.215	171.94
638.421	159.94
638.626	157.94
638.832	171.94
639.037	169.94
639.243	175.94
639.448	176.94
639.654	162.94
639.859	172.94
640.065	169.94
640.27	161.94
640.475	179.94
640.681	172.94
640.886	167.94
641.091	151.94
641.297	174.94
641.502	148.94
641.707	162.94
641.913	183.94
642.118	170.94
642.323	159.94
642.528	169.94
642.733	140.94
642.939	150.94
643.144	152.94
643.349	169.94
643.554	176.94
643.759	160.94
643.964	159.94
644.169	170.94
644.374	146.94
644.579	167.94
644.784	161.94
644.989	169.94
645.194	165.94
645.399	156.94
645.604	162.94
645.809	181.94
646.014	165.94
646.219	177.94
646.423	162.94
646.628	161.94
646.833	160.94
647.038	162.94
647.243	159.94
647.447	145.94
647.652	159.94
647.857	163.94
648.062	152.94
648.266	158.94
648.471	168.94
648.676	176.94
648.88	160.94
649.085	169.94
649.289	168.94
649.494	172.94
649.698	177.94
649.903	187.94
650.107	176.94
650.312	166.94
650.516	160.94
650.721	160.94
650.925	155.94
651.13	146.94
651.334	145.94
651.539	157.94
651.743	151.94
651.947	155.94
652.152	154.94
652.356	144.94
652.56	131.94
652.764	143.94
652.969	145.94
653.173	128.94
653.377	128.94
653.581	130.94
653.785	125.94
653.99	130.94
654.194	124.94
654.398	130.94
654.602	144.94
654.806	131.94
655.01	143.94
655.214	130.94
655.418	135.94
655.622	133.94
655.826	133.94
656.03	140.94
656.234	140.94
656.438	131.94
656.642	126.94
656.846	122.94
657.049	138.94
657.253	129.94
657.457	111.94
657.661	119.94
657.865	118.94
658.068	117.94
658.272	122.94
658.476	110.94
658.68	121.94
658.883	107.94
659.087	102.94
659.291	112.94
659.494	104.94
659.698	104.94
659.901	109.94
660.105	101.94
660.309	98.94
660.512	123.94
660.716	92.94
660.919	86.94
661.123	97.94
661.326	82.94
661.53	98.94
661.733	98.94
661.936	103.94
662.14	94.94
662.343	89.94
662.546	88.94
662.75	92.94
662.953	98.94
663.156	92.94
663.36	82.94
663.563	94.94
663.766	92.94
663.969	91.94
664.173	89.94
664.376	94.94
664.579	90.94
664.782	98.94
664.985	80.94
665.188	93.94
665.391	94.94
665.594	96.94
665.797	86.94
666	82.94
666.203	85.94
666.406	87.94
666.609	80.94
666.812	87.94
667.015	98.94
667.218	87.94
667.421	88.94
667.624	86.94
667.827	80.94
668.03	114.94
668.232	89.94
668.435	96.94
668.638	95.94
668.841	101.94
669.043	87.94
669.246	94.94
669.449	87.94
669.651	90.94
669.854	86.94
670.057	80.94
670.259	83.94
670.462	93.94
670.665	85.94
670.867	91.94
671.07	80.94
671.272	77.94
671.475	96.94
671.677	83.94
671.88	87.94
672.082	96.94
672.284	73.94
672.487	83.94
672.689	96.94
672.892	83.94
