Data from 1972.PennyLincolnUp.Lamp.En5.5.200Scan.071719.P1._HRD10591_15-27-53-843.txt Node
Date: Thu Jul 18 15:27:53 EDT 2019
User: cochatt
Spectrometer: HR+D1059
Trigger mode: 1
Integration Time (sec): 1.000000E-1
Scans to average: 1
Electric dark correction enabled: true
Nonlinearity correction enabled: false
Boxcar width: 0
XAxis mode: Wavelengths
Number of Pixels in Spectrum: 2048
>>>>>Begin Spectral Data<<<<<
223.165	-5.81
223.4	-5.81
223.635	-5.81
223.869	-3.81
224.104	-5.81
224.338	-10.81
224.573	-27.81
224.808	-18.81
225.042	-6.81
225.277	4.19
225.511	2.19
225.746	-3.81
225.98	7.19
226.215	10.19
226.449	12.19
226.683	10.19
226.918	15.19
227.152	22.19
227.387	37.19
227.621	29.19
227.856	39.19
228.09	48.19
228.324	44.19
228.559	49.19
228.793	72.19
229.027	96.19
229.262	117.19
229.496	110.19
229.73	134.19
229.964	159.19
230.199	150.19
230.433	134.19
230.667	126.19
230.901	122.19
231.136	105.19
231.37	118.19
231.604	104.19
231.838	116.19
232.072	99.19
232.306	119.19
232.541	116.19
232.775	114.19
233.009	124.19
233.243	113.19
233.477	131.19
233.711	116.19
233.945	105.19
234.179	115.19
234.413	129.19
234.647	108.19
234.881	124.19
235.115	109.19
235.349	116.19
235.583	140.19
235.817	123.19
236.051	136.19
236.285	119.19
236.519	129.19
236.753	141.19
236.987	161.19
237.221	181.19
237.455	260.19
237.689	201.19
237.922	151.19
238.156	150.19
238.39	127.19
238.624	129.19
238.858	125.19
239.091	136.19
239.325	134.19
239.559	134.19
239.793	118.19
240.027	131.19
240.26	148.19
240.494	153.19
240.728	152.19
240.961	152.19
241.195	161.19
241.429	139.19
241.662	138.19
241.896	144.19
242.13	127.19
242.363	138.19
242.597	125.19
242.83	144.19
243.064	144.19
243.298	121.19
243.531	140.19
243.765	142.19
243.998	136.19
244.232	149.19
244.465	148.19
244.699	144.19
244.932	139.19
245.166	144.19
245.399	155.19
245.633	141.19
245.866	147.19
246.099	152.19
246.333	152.19
246.566	149.19
246.8	150.19
247.033	153.19
247.266	145.19
247.5	158.19
247.733	175.19
247.966	169.19
248.2	171.19
248.433	181.19
248.666	166.19
248.899	188.19
249.133	210.19
249.366	212.19
249.599	178.19
249.832	198.19
250.066	180.19
250.299	178.19
250.532	201.19
250.765	205.19
250.998	224.19
251.231	228.19
251.465	216.19
251.698	214.19
251.931	203.19
252.164	191.19
252.397	213.19
252.63	199.19
252.863	206.19
253.096	221.19
253.329	238.19
253.562	237.19
253.795	220.19
254.028	225.19
254.261	232.19
254.494	241.19
254.727	258.19
254.96	272.19
255.193	289.19
255.426	251.19
255.659	255.19
255.892	244.19
256.124	252.19
256.357	241.19
256.59	233.19
256.823	221.19
257.056	213.19
257.289	199.19
257.521	206.19
257.754	223.19
257.987	202.19
258.22	211.19
258.452	217.19
258.685	213.19
258.918	221.19
259.151	201.19
259.383	208.19
259.616	221.19
259.849	245.19
260.081	246.19
260.314	253.19
260.547	278.19
260.779	257.19
261.012	238.19
261.244	245.19
261.477	246.19
261.71	237.19
261.942	224.19
262.175	250.19
262.407	246.19
262.64	210.19
262.872	222.19
263.105	209.19
263.337	220.19
263.57	210.19
263.802	214.19
264.035	219.19
264.267	222.19
264.499	206.19
264.732	225.19
264.964	217.19
265.197	217.19
265.429	211.19
265.661	216.19
265.894	221.19
266.126	226.19
266.358	203.19
266.591	212.19
266.823	222.19
267.055	232.19
267.287	216.19
267.52	214.19
267.752	218.19
267.984	221.19
268.216	222.19
268.448	226.19
268.681	240.19
268.913	256.19
269.145	280.19
269.377	269.19
269.609	296.19
269.841	271.19
270.073	290.19
270.306	304.19
270.538	320.19
270.77	332.19
271.002	314.19
271.234	309.19
271.466	299.19
271.698	340.19
271.93	328.19
272.162	336.19
272.394	319.19
272.626	324.19
272.858	297.19
273.09	303.19
273.322	263.19
273.553	274.19
273.785	272.19
274.017	270.19
274.249	272.19
274.481	277.19
274.713	269.19
274.945	297.19
275.176	262.19
275.408	260.19
275.64	288.19
275.872	273.19
276.104	268.19
276.335	256.19
276.567	283.19
276.799	302.19
277.031	305.19
277.262	329.19
277.494	329.19
277.726	314.19
277.957	295.19
278.189	278.19
278.421	252.19
278.652	272.19
278.884	280.19
279.115	259.19
279.347	252.19
279.579	270.19
279.81	257.19
280.042	252.19
280.273	269.19
280.505	257.19
280.736	262.19
280.968	261.19
281.199	266.19
281.431	242.19
281.662	252.19
281.894	261.19
282.125	265.19
282.356	293.19
282.588	314.19
282.819	316.19
283.051	292.19
283.282	273.19
283.513	287.19
283.745	277.19
283.976	267.19
284.207	283.19
284.439	267.19
284.67	265.19
284.901	252.19
285.132	268.19
285.364	268.19
285.595	284.19
285.826	271.19
286.057	271.19
286.288	288.19
286.52	273.19
286.751	253.19
286.982	284.19
287.213	266.19
287.444	247.19
287.675	275.19
287.906	292.19
288.138	294.19
288.369	305.19
288.6	299.19
288.831	289.19
289.062	287.19
289.293	283.19
289.524	287.19
289.755	287.19
289.986	283.19
290.217	277.19
290.448	271.19
290.679	269.19
290.91	286.19
291.141	257.19
291.371	279.19
291.602	291.19
291.833	309.19
292.064	285.19
292.295	276.19
292.526	279.19
292.757	274.19
292.987	265.19
293.218	277.19
293.449	279.19
293.68	289.19
293.91	280.19
294.141	272.19
294.372	293.19
294.603	275.19
294.833	293.19
295.064	286.19
295.295	285.19
295.525	268.19
295.756	285.19
295.987	304.19
296.217	315.19
296.448	331.19
296.679	286.19
296.909	283.19
297.14	295.19
297.37	290.19
297.601	292.19
297.831	301.19
298.062	285.19
298.292	296.19
298.523	303.19
298.753	298.19
298.984	303.19
299.214	301.19
299.445	274.19
299.675	308.19
299.905	300.19
300.136	303.19
300.366	285.19
300.597	296.19
300.827	284.19
301.057	325.19
301.288	312.19
301.518	306.19
301.748	304.19
301.979	311.19
302.209	328.19
302.439	313.19
302.669	328.19
302.9	315.19
303.13	320.19
303.36	329.19
303.59	314.19
303.82	320.19
304.051	325.19
304.281	314.19
304.511	302.19
304.741	328.19
304.971	330.19
305.201	305.19
305.431	295.19
305.661	301.19
305.891	313.19
306.121	318.19
306.352	315.19
306.582	338.19
306.812	340.19
307.042	312.19
307.272	300.19
307.502	312.19
307.731	325.19
307.961	326.19
308.191	316.19
308.421	317.19
308.651	332.19
308.881	311.19
309.111	339.19
309.341	327.19
309.571	339.19
309.8	352.19
310.03	366.19
310.26	380.19
310.49	367.19
310.72	365.19
310.949	388.19
311.179	400.19
311.409	392.19
311.639	382.19
311.868	380.19
312.098	368.19
312.328	384.19
312.557	394.19
312.787	403.19
313.017	421.19
313.246	391.19
313.476	372.19
313.706	360.19
313.935	388.19
314.165	385.19
314.394	391.19
314.624	383.19
314.853	399.19
315.083	383.19
315.312	363.19
315.542	365.19
315.771	361.19
316.001	359.19
316.23	373.19
316.46	355.19
316.689	374.19
316.919	364.19
317.148	369.19
317.377	377.19
317.607	380.19
317.836	388.19
318.065	364.19
318.295	360.19
318.524	365.19
318.753	362.19
318.983	362.19
319.212	353.19
319.441	375.19
319.67	382.19
319.9	383.19
320.129	381.19
320.358	357.19
320.587	379.19
320.816	386.19
321.046	384.19
321.275	388.19
321.504	394.19
321.733	399.19
321.962	402.19
322.191	401.19
322.42	443.19
322.649	456.19
322.878	468.19
323.108	470.19
323.337	501.19
323.566	527.19
323.795	552.19
324.024	629.19
324.253	759.19
324.482	1120.19
324.71	1743.19
324.939	2602.19
325.168	2286.19
325.397	1143.19
325.626	716.19
325.855	612.19
326.084	525.19
326.313	530.19
326.542	560.19
326.77	570.19
326.999	694.19
327.228	975.19
327.457	1546.19
327.686	1936.19
327.914	1307.19
328.143	785.19
328.372	694.19
328.6	650.19
328.829	610.19
329.058	624.19
329.287	641.19
329.515	553.19
329.744	534.19
329.972	542.19
330.201	566.19
330.43	581.19
330.658	654.19
330.887	659.19
331.115	623.19
331.344	559.19
331.572	502.19
331.801	486.19
332.03	471.19
332.258	469.19
332.486	451.19
332.715	449.19
332.943	469.19
333.172	438.19
333.4	443.19
333.629	452.19
333.857	464.19
334.085	477.19
334.314	495.19
334.542	542.19
334.771	525.19
334.999	488.19
335.227	470.19
335.455	445.19
335.684	425.19
335.912	436.19
336.14	402.19
336.369	429.19
336.597	414.19
336.825	444.19
337.053	426.19
337.281	410.19
337.51	399.19
337.738	419.19
337.966	420.19
338.194	423.19
338.422	420.19
338.65	419.19
338.878	429.19
339.106	404.19
339.334	425.19
339.562	414.19
339.79	400.19
340.018	413.19
340.246	408.19
340.474	435.19
340.702	408.19
340.93	412.19
341.158	401.19
341.386	398.19
341.614	412.19
341.842	408.19
342.07	416.19
342.298	395.19
342.526	390.19
342.754	385.19
342.981	402.19
343.209	388.19
343.437	407.19
343.665	387.19
343.893	395.19
344.12	395.19
344.348	399.19
344.576	411.19
344.804	420.19
345.031	433.19
345.259	434.19
345.487	417.19
345.714	415.19
345.942	423.19
346.17	418.19
346.397	388.19
346.625	412.19
346.853	398.19
347.08	393.19
347.308	399.19
347.535	413.19
347.763	436.19
347.99	424.19
348.218	401.19
348.445	431.19
348.673	403.19
348.9	424.19
349.128	400.19
349.355	385.19
349.583	384.19
349.81	378.19
350.037	390.19
350.265	394.19
350.492	369.19
350.72	377.19
350.947	377.19
351.174	405.19
351.402	408.19
351.629	390.19
351.856	400.19
352.083	412.19
352.311	424.19
352.538	409.19
352.765	445.19
352.992	416.19
353.22	407.19
353.447	414.19
353.674	405.19
353.901	383.19
354.128	380.19
354.355	358.19
354.583	360.19
354.81	380.19
355.037	358.19
355.264	367.19
355.491	375.19
355.718	376.19
355.945	382.19
356.172	360.19
356.399	365.19
356.626	359.19
356.853	378.19
357.08	342.19
357.307	350.19
357.534	348.19
357.761	369.19
357.988	364.19
358.215	353.19
358.441	371.19
358.668	344.19
358.895	358.19
359.122	367.19
359.349	378.19
359.576	394.19
359.802	430.19
360.029	457.19
360.256	446.19
360.483	444.19
360.709	414.19
360.936	381.19
361.163	396.19
361.39	409.19
361.616	400.19
361.843	398.19
362.07	409.19
362.296	413.19
362.523	403.19
362.749	381.19
362.976	392.19
363.203	390.19
363.429	387.19
363.656	391.19
363.882	385.19
364.109	377.19
364.335	368.19
364.562	362.19
364.788	368.19
365.015	390.19
365.241	383.19
365.468	384.19
365.694	384.19
365.92	376.19
366.147	363.19
366.373	367.19
366.599	373.19
366.826	369.19
367.052	366.19
367.278	364.19
367.505	366.19
367.731	353.19
367.957	373.19
368.184	378.19
368.41	389.19
368.636	390.19
368.862	383.19
369.089	373.19
369.315	370.19
369.541	362.19
369.767	382.19
369.993	366.19
370.219	354.19
370.445	360.19
370.672	349.19
370.898	346.19
371.124	358.19
371.35	376.19
371.576	380.19
371.802	346.19
372.028	360.19
372.254	360.19
372.48	343.19
372.706	345.19
372.932	358.19
373.158	353.19
373.384	358.19
373.61	353.19
373.835	355.19
374.061	364.19
374.287	364.19
374.513	375.19
374.739	378.19
374.965	376.19
375.191	349.19
375.416	362.19
375.642	383.19
375.868	378.19
376.094	334.19
376.319	348.19
376.545	349.19
376.771	358.19
376.997	356.19
377.222	360.19
377.448	381.19
377.674	356.19
377.899	360.19
378.125	324.19
378.35	339.19
378.576	341.19
378.802	369.19
379.027	355.19
379.253	364.19
379.478	345.19
379.704	367.19
379.929	359.19
380.155	368.19
380.38	360.19
380.606	357.19
380.831	352.19
381.057	360.19
381.282	339.19
381.507	353.19
381.733	368.19
381.958	359.19
382.184	356.19
382.409	377.19
382.634	365.19
382.86	362.19
383.085	365.19
383.31	374.19
383.535	381.19
383.761	373.19
383.986	357.19
384.211	372.19
384.436	358.19
384.662	386.19
384.887	365.19
385.112	361.19
385.337	368.19
385.562	380.19
385.787	364.19
386.013	384.19
386.238	382.19
386.463	392.19
386.688	384.19
386.913	377.19
387.138	374.19
387.363	364.19
387.588	380.19
387.813	384.19
388.038	378.19
388.263	362.19
388.488	370.19
388.713	386.19
388.938	385.19
389.163	380.19
389.387	380.19
389.612	358.19
389.837	379.19
390.062	385.19
390.287	375.19
390.512	377.19
390.736	376.19
390.961	390.19
391.186	368.19
391.411	379.19
391.636	384.19
391.86	362.19
392.085	379.19
392.31	386.19
392.534	396.19
392.759	380.19
392.984	398.19
393.208	378.19
393.433	382.19
393.658	380.19
393.882	375.19
394.107	373.19
394.331	386.19
394.556	396.19
394.78	380.19
395.005	378.19
395.229	395.19
395.454	414.19
395.678	400.19
395.903	390.19
396.127	422.19
396.352	425.19
396.576	393.19
396.801	391.19
397.025	400.19
397.249	384.19
397.474	394.19
397.698	398.19
397.922	408.19
398.147	443.19
398.371	430.19
398.595	420.19
398.82	444.19
399.044	420.19
399.268	434.19
399.492	444.19
399.717	456.19
399.941	469.19
400.165	515.19
400.389	528.19
400.613	480.19
400.837	458.19
401.062	437.19
401.286	444.19
401.51	440.19
401.734	418.19
401.958	417.19
402.182	436.19
402.406	444.19
402.63	447.19
402.854	445.19
403.078	425.19
403.302	449.19
403.526	432.19
403.75	447.19
403.974	447.19
404.198	439.19
404.422	462.19
404.645	484.19
404.869	457.19
405.093	492.19
405.317	530.19
405.541	566.19
405.765	531.19
405.988	495.19
406.212	512.19
406.436	536.19
406.66	515.19
406.883	484.19
407.107	514.19
407.331	557.19
407.555	609.19
407.778	630.19
408.002	538.19
408.226	494.19
408.449	495.19
408.673	525.19
408.896	526.19
409.12	571.19
409.344	514.19
409.567	476.19
409.791	466.19
410.014	453.19
410.238	447.19
410.461	437.19
410.685	470.19
410.908	460.19
411.132	478.19
411.355	538.19
411.578	525.19
411.802	480.19
412.025	476.19
412.249	461.19
412.472	522.19
412.695	518.19
412.919	523.19
413.142	484.19
413.365	454.19
413.589	441.19
413.812	419.19
414.035	425.19
414.258	436.19
414.482	418.19
414.705	416.19
414.928	423.19
415.151	412.19
415.374	430.19
415.597	405.19
415.821	401.19
416.044	428.19
416.267	423.19
416.49	433.19
416.713	439.19
416.936	425.19
417.159	404.19
417.382	428.19
417.605	416.19
417.828	439.19
418.051	467.19
418.274	442.19
418.497	420.19
418.72	424.19
418.943	426.19
419.166	460.19
419.389	451.19
419.611	434.19
419.834	432.19
420.057	448.19
420.28	446.19
420.503	459.19
420.726	467.19
420.948	463.19
421.171	519.19
421.394	548.19
421.617	474.19
421.839	448.19
422.062	458.19
422.285	467.19
422.507	517.19
422.73	590.19
422.953	586.19
423.175	510.19
423.398	470.19
423.621	465.19
423.843	500.19
424.066	503.19
424.288	489.19
424.511	532.19
424.733	576.19
424.956	640.19
425.178	620.19
425.401	630.19
425.623	656.19
425.846	550.19
426.068	497.19
426.291	506.19
426.513	489.19
426.735	522.19
426.958	546.19
427.18	640.19
427.402	749.19
427.625	850.19
427.847	762.19
428.069	655.19
428.292	578.19
428.514	508.19
428.736	492.19
428.958	488.19
429.181	465.19
429.403	450.19
429.625	463.19
429.847	524.19
430.069	572.19
430.292	592.19
430.514	478.19
430.736	470.19
430.958	452.19
431.18	439.19
431.402	438.19
431.624	437.19
431.846	413.19
432.068	428.19
432.29	441.19
432.512	431.19
432.734	428.19
432.956	421.19
433.178	442.19
433.4	458.19
433.622	424.19
433.844	445.19
434.066	410.19
434.287	430.19
434.509	431.19
434.731	444.19
434.953	421.19
435.175	472.19
435.397	484.19
435.618	489.19
435.84	551.19
436.062	654.19
436.284	719.19
436.505	606.19
436.727	540.19
436.949	474.19
437.17	464.19
437.392	470.19
437.614	480.19
437.835	542.19
438.057	639.19
438.278	739.19
438.5	735.19
438.721	792.19
438.943	749.19
439.165	616.19
439.386	530.19
439.608	526.19
439.829	540.19
440.05	555.19
440.272	635.19
440.493	584.19
440.715	516.19
440.936	491.19
441.158	465.19
441.379	456.19
441.6	495.19
441.822	500.19
442.043	539.19
442.264	654.19
442.486	687.19
442.707	577.19
442.928	528.19
443.149	531.19
443.371	571.19
443.592	590.19
443.813	697.19
444.034	762.19
444.255	630.19
444.476	534.19
444.698	492.19
444.919	494.19
445.14	590.19
445.361	562.19
445.582	551.19
445.803	640.19
446.024	726.19
446.245	749.19
446.466	679.19
446.687	584.19
446.908	519.19
447.129	470.19
447.35	479.19
447.571	488.19
447.792	467.19
448.013	479.19
448.234	520.19
448.455	548.19
448.675	671.19
448.896	799.19
449.117	668.19
449.338	597.19
449.559	714.19
449.779	831.19
450	640.19
450.221	513.19
450.442	489.19
450.662	462.19
450.883	472.19
451.104	511.19
451.324	482.19
451.545	457.19
451.766	440.19
451.986	406.19
452.207	413.19
452.428	422.19
452.648	425.19
452.869	399.19
453.089	415.19
453.31	443.19
453.53	426.19
453.751	440.19
453.971	410.19
454.192	441.19
454.412	456.19
454.633	423.19
454.853	415.19
455.073	414.19
455.294	449.19
455.514	502.19
455.734	522.19
455.955	441.19
456.175	410.19
456.395	414.19
456.616	382.19
456.836	390.19
457.056	370.19
457.276	407.19
457.497	388.19
457.717	405.19
457.937	400.19
458.157	416.19
458.377	398.19
458.598	433.19
458.818	520.19
459.038	589.19
459.258	593.19
459.478	511.19
459.698	462.19
459.918	427.19
460.138	436.19
460.358	406.19
460.578	419.19
460.798	436.19
461.018	415.19
461.238	414.19
461.458	435.19
461.678	428.19
461.898	404.19
462.118	422.19
462.338	427.19
462.558	412.19
462.777	422.19
462.997	446.19
463.217	440.19
463.437	445.19
463.657	427.19
463.876	443.19
464.096	444.19
464.316	432.19
464.536	457.19
464.755	454.19
464.975	495.19
465.195	500.19
465.414	617.19
465.634	530.19
465.854	477.19
466.073	452.19
466.293	440.19
466.512	417.19
466.732	407.19
466.951	402.19
467.171	427.19
467.391	417.19
467.61	450.19
467.829	452.19
468.049	428.19
468.268	428.19
468.488	432.19
468.707	409.19
468.927	401.19
469.146	412.19
469.365	402.19
469.585	431.19
469.804	398.19
470.023	448.19
470.243	420.19
470.462	426.19
470.681	443.19
470.901	421.19
471.12	409.19
471.339	434.19
471.558	416.19
471.777	434.19
471.997	426.19
472.216	456.19
472.435	482.19
472.654	460.19
472.873	414.19
473.092	412.19
473.311	431.19
473.53	417.19
473.749	444.19
473.968	476.19
474.187	602.19
474.406	646.19
474.625	501.19
474.844	458.19
475.063	423.19
475.282	426.19
475.501	428.19
475.72	452.19
475.939	431.19
476.158	433.19
476.377	435.19
476.596	430.19
476.814	457.19
477.033	460.19
477.252	448.19
477.471	432.19
477.69	454.19
477.908	451.19
478.127	455.19
478.346	454.19
478.564	465.19
478.783	465.19
479.002	491.19
479.22	497.19
479.439	512.19
479.658	526.19
479.876	502.19
480.095	540.19
480.313	541.19
480.532	542.19
480.751	512.19
480.969	526.19
481.188	600.19
481.406	676.19
481.624	568.19
481.843	538.19
482.061	525.19
482.28	501.19
482.498	479.19
482.717	513.19
482.935	520.19
483.153	498.19
483.372	498.19
483.59	503.19
483.808	520.19
484.027	494.19
484.245	492.19
484.463	509.19
484.681	520.19
484.9	498.19
485.118	493.19
485.336	490.19
485.554	521.19
485.772	522.19
485.99	545.19
486.209	523.19
486.427	526.19
486.645	550.19
486.863	550.19
487.081	569.19
487.299	536.19
487.517	553.19
487.735	529.19
487.953	545.19
488.171	536.19
488.389	518.19
488.607	525.19
488.825	551.19
489.043	554.19
489.261	552.19
489.479	545.19
489.696	543.19
489.914	566.19
490.132	558.19
490.35	559.19
490.568	536.19
490.786	573.19
491.003	582.19
491.221	602.19
491.439	600.19
491.657	591.19
491.874	621.19
492.092	660.19
492.31	621.19
492.527	596.19
492.745	636.19
492.963	641.19
493.18	642.19
493.398	639.19
493.615	638.19
493.833	625.19
494.05	629.19
494.268	635.19
494.485	654.19
494.703	649.19
494.92	636.19
495.138	608.19
495.355	644.19
495.573	659.19
495.79	642.19
496.008	616.19
496.225	630.19
496.442	649.19
496.66	658.19
496.877	622.19
497.094	654.19
497.312	655.19
497.529	656.19
497.746	667.19
497.963	671.19
498.181	696.19
498.398	700.19
498.615	705.19
498.832	668.19
499.049	715.19
499.267	688.19
499.484	738.19
499.701	744.19
499.918	738.19
500.135	763.19
500.352	777.19
500.569	796.19
500.786	815.19
501.003	807.19
501.22	781.19
501.437	783.19
501.654	773.19
501.871	773.19
502.088	795.19
502.305	724.19
502.522	722.19
502.739	680.19
502.956	688.19
503.172	664.19
503.389	666.19
503.606	674.19
503.823	668.19
504.04	670.19
504.256	622.19
504.473	647.19
504.69	620.19
504.907	621.19
505.123	650.19
505.34	630.19
505.557	629.19
505.773	624.19
505.99	624.19
506.207	637.19
506.423	622.19
506.64	622.19
506.856	611.19
507.073	610.19
507.289	620.19
507.506	614.19
507.722	621.19
507.939	673.19
508.155	646.19
508.372	621.19
508.588	574.19
508.805	591.19
509.021	625.19
509.238	630.19
509.454	628.19
509.67	620.19
509.887	610.19
510.103	621.19
510.319	639.19
510.536	721.19
510.752	1284.19
510.968	1006.19
511.184	646.19
511.401	623.19
511.617	588.19
511.833	609.19
512.049	600.19
512.265	590.19
512.481	570.19
512.698	564.19
512.914	594.19
513.13	576.19
513.346	583.19
513.562	564.19
513.778	567.19
513.994	591.19
514.21	609.19
514.426	626.19
514.642	680.19
514.858	700.19
515.074	774.19
515.29	926.19
515.506	1454.19
515.721	1142.19
515.937	753.19
516.153	652.19
516.369	617.19
516.585	592.19
516.801	583.19
517.016	592.19
517.232	597.19
517.448	589.19
517.664	582.19
517.879	588.19
518.095	582.19
518.311	582.19
518.527	569.19
518.742	580.19
518.958	576.19
519.173	566.19
519.389	604.19
519.605	578.19
519.82	599.19
520.036	595.19
520.251	635.19
520.467	656.19
520.682	664.19
520.898	672.19
521.113	676.19
521.329	758.19
521.544	862.19
521.76	1129.19
521.975	1932.19
522.19	1900.19
522.406	1003.19
522.621	707.19
522.836	634.19
523.052	591.19
523.267	574.19
523.482	541.19
523.698	549.19
523.913	547.19
524.128	528.19
524.343	495.19
524.559	504.19
524.774	502.19
524.989	506.19
525.204	532.19
525.419	525.19
525.634	481.19
525.849	473.19
526.064	489.19
526.28	458.19
526.495	471.19
526.71	479.19
526.925	466.19
527.14	449.19
527.355	491.19
527.57	465.19
527.785	470.19
527.999	460.19
528.214	466.19
528.429	487.19
528.644	461.19
528.859	474.19
529.074	456.19
529.289	509.19
529.503	584.19
529.718	570.19
529.933	518.19
530.148	508.19
530.363	482.19
530.577	494.19
530.792	465.19
531.007	449.19
531.221	442.19
531.436	462.19
531.651	463.19
531.865	434.19
532.08	445.19
532.295	461.19
532.509	427.19
532.724	437.19
532.938	443.19
533.153	421.19
533.367	441.19
533.582	449.19
533.796	426.19
534.011	442.19
534.225	438.19
534.44	439.19
534.654	434.19
534.868	422.19
535.083	438.19
535.297	446.19
535.511	432.19
535.726	446.19
535.94	461.19
536.154	433.19
536.369	438.19
536.583	447.19
536.797	421.19
537.011	400.19
537.225	423.19
537.44	433.19
537.654	426.19
537.868	418.19
538.082	427.19
538.296	431.19
538.51	413.19
538.724	397.19
538.938	451.19
539.153	427.19
539.367	460.19
539.581	440.19
539.795	448.19
540.009	424.19
540.222	419.19
540.436	425.19
540.65	416.19
540.864	416.19
541.078	440.19
541.292	438.19
541.506	424.19
541.72	426.19
541.934	407.19
542.147	424.19
542.361	421.19
542.575	415.19
542.789	410.19
543.002	413.19
543.216	431.19
543.43	423.19
543.644	435.19
543.857	432.19
544.071	418.19
544.285	411.19
544.498	410.19
544.712	407.19
544.925	420.19
545.139	406.19
545.352	417.19
545.566	394.19
545.779	417.19
545.993	415.19
546.206	410.19
546.42	404.19
546.633	414.19
546.847	409.19
547.06	413.19
547.274	397.19
547.487	391.19
547.7	390.19
547.914	380.19
548.127	402.19
548.34	402.19
548.554	397.19
548.767	383.19
548.98	387.19
549.193	396.19
549.407	391.19
549.62	407.19
549.833	381.19
550.046	396.19
550.259	384.19
550.473	375.19
550.686	391.19
550.899	373.19
551.112	397.19
551.325	400.19
551.538	372.19
551.751	372.19
551.964	379.19
552.177	379.19
552.39	379.19
552.603	386.19
552.816	385.19
553.029	388.19
553.242	408.19
553.455	382.19
553.667	413.19
553.88	426.19
554.093	402.19
554.306	410.19
554.519	386.19
554.732	409.19
554.944	383.19
555.157	378.19
555.37	374.19
555.583	376.19
555.795	386.19
556.008	381.19
556.221	376.19
556.433	359.19
556.646	365.19
556.859	365.19
557.071	368.19
557.284	370.19
557.496	374.19
557.709	354.19
557.921	358.19
558.134	369.19
558.346	367.19
558.559	344.19
558.771	346.19
558.984	338.19
559.196	360.19
559.409	357.19
559.621	349.19
559.833	353.19
560.046	343.19
560.258	352.19
560.47	331.19
560.683	353.19
560.895	318.19
561.107	360.19
561.32	337.19
561.532	326.19
561.744	365.19
561.956	350.19
562.168	358.19
562.381	360.19
562.593	351.19
562.805	352.19
563.017	360.19
563.229	350.19
563.441	349.19
563.653	339.19
563.865	351.19
564.077	364.19
564.289	372.19
564.501	344.19
564.713	370.19
564.925	374.19
565.137	362.19
565.349	364.19
565.561	365.19
565.773	377.19
565.985	388.19
566.197	361.19
566.408	367.19
566.62	415.19
566.832	396.19
567.044	399.19
567.255	388.19
567.467	402.19
567.679	408.19
567.891	419.19
568.102	396.19
568.314	395.19
568.526	388.19
568.737	385.19
568.949	372.19
569.161	357.19
569.372	367.19
569.584	357.19
569.795	363.19
570.007	345.19
570.218	425.19
570.43	381.19
570.641	368.19
570.853	342.19
571.064	351.19
571.276	328.19
571.487	320.19
571.698	320.19
571.91	322.19
572.121	317.19
572.333	328.19
572.544	327.19
572.755	336.19
572.966	330.19
573.178	332.19
573.389	313.19
573.6	316.19
573.811	321.19
574.023	322.19
574.234	312.19
574.445	321.19
574.656	304.19
574.867	320.19
575.078	334.19
575.289	314.19
575.501	322.19
575.712	286.19
575.923	295.19
576.134	329.19
576.345	302.19
576.556	292.19
576.767	318.19
576.978	325.19
577.188	300.19
577.399	311.19
577.61	314.19
577.821	306.19
578.032	319.19
578.243	359.19
578.454	603.19
578.665	433.19
578.875	324.19
579.086	305.19
579.297	312.19
579.508	272.19
579.718	273.19
579.929	292.19
580.14	284.19
580.35	279.19
580.561	277.19
580.772	297.19
580.982	276.19
581.193	287.19
581.403	279.19
581.614	292.19
581.825	284.19
582.035	261.19
582.246	283.19
582.456	273.19
582.667	282.19
582.877	269.19
583.087	274.19
583.298	294.19
583.508	279.19
583.719	300.19
583.929	280.19
584.139	269.19
584.35	260.19
584.56	261.19
584.77	270.19
584.981	302.19
585.191	281.19
585.401	268.19
585.611	290.19
585.821	297.19
586.032	267.19
586.242	282.19
586.452	252.19
586.662	270.19
586.872	272.19
587.082	282.19
587.292	274.19
587.502	255.19
587.713	263.19
587.923	269.19
588.133	267.19
588.343	280.19
588.553	264.19
588.762	250.19
588.972	257.19
589.182	267.19
589.392	285.19
589.602	279.19
589.812	271.19
590.022	278.19
590.232	253.19
590.441	274.19
590.651	277.19
590.861	270.19
591.071	275.19
591.281	264.19
591.49	275.19
591.7	281.19
591.91	272.19
592.119	283.19
592.329	279.19
592.539	273.19
592.748	276.19
592.958	253.19
593.167	285.19
593.377	280.19
593.587	270.19
593.796	290.19
594.006	269.19
594.215	290.19
594.424	277.19
594.634	276.19
594.843	269.19
595.053	273.19
595.262	253.19
595.472	275.19
595.681	265.19
595.89	260.19
596.1	269.19
596.309	252.19
596.518	265.19
596.727	261.19
596.937	270.19
597.146	255.19
597.355	245.19
597.564	251.19
597.774	262.19
597.983	245.19
598.192	249.19
598.401	259.19
598.61	247.19
598.819	256.19
599.028	231.19
599.237	260.19
599.446	235.19
599.655	258.19
599.864	248.19
600.073	254.19
600.282	252.19
600.491	241.19
600.7	252.19
600.909	231.19
601.118	244.19
601.327	239.19
601.536	222.19
601.745	229.19
601.953	232.19
602.162	249.19
602.371	236.19
602.58	237.19
602.789	239.19
602.997	241.19
603.206	234.19
603.415	251.19
603.623	236.19
603.832	234.19
604.041	255.19
604.249	244.19
604.458	234.19
604.666	228.19
604.875	233.19
605.084	228.19
605.292	238.19
605.501	238.19
605.709	234.19
605.918	219.19
606.126	221.19
606.334	231.19
606.543	226.19
606.751	245.19
606.96	220.19
607.168	228.19
607.376	218.19
607.585	224.19
607.793	219.19
608.001	231.19
608.21	260.19
608.418	230.19
608.626	214.19
608.834	225.19
609.043	237.19
609.251	234.19
609.459	234.19
609.667	224.19
609.875	223.19
610.083	241.19
610.291	238.19
610.499	236.19
610.707	228.19
610.916	224.19
611.124	208.19
611.332	225.19
611.54	238.19
611.748	222.19
611.955	233.19
612.163	226.19
612.371	217.19
612.579	223.19
612.787	217.19
612.995	236.19
613.203	213.19
613.411	219.19
613.618	221.19
613.826	241.19
614.034	222.19
614.242	220.19
614.449	209.19
614.657	223.19
614.865	222.19
615.072	210.19
615.28	221.19
615.488	206.19
615.695	216.19
615.903	225.19
616.111	230.19
616.318	228.19
616.526	226.19
616.733	232.19
616.941	214.19
617.148	229.19
617.356	239.19
617.563	214.19
617.771	213.19
617.978	211.19
618.185	221.19
618.393	221.19
618.6	210.19
618.807	223.19
619.015	208.19
619.222	216.19
619.429	223.19
619.637	203.19
619.844	203.19
620.051	224.19
620.258	206.19
620.466	202.19
620.673	205.19
620.88	214.19
621.087	193.19
621.294	197.19
621.501	208.19
621.708	210.19
621.915	212.19
622.122	204.19
622.329	203.19
622.536	217.19
622.743	202.19
622.95	216.19
623.157	199.19
623.364	200.19
623.571	200.19
623.778	222.19
623.985	218.19
624.192	200.19
624.399	189.19
624.606	215.19
624.812	200.19
625.019	197.19
625.226	215.19
625.433	207.19
625.639	203.19
625.846	206.19
626.053	192.19
626.259	178.19
626.466	196.19
626.673	196.19
626.879	207.19
627.086	215.19
627.293	193.19
627.499	194.19
627.706	180.19
627.912	183.19
628.119	207.19
628.325	181.19
628.532	204.19
628.738	192.19
628.945	192.19
629.151	178.19
629.357	193.19
629.564	185.19
629.77	193.19
629.976	176.19
630.183	184.19
630.389	196.19
630.595	188.19
630.802	193.19
631.008	180.19
631.214	192.19
631.42	194.19
631.627	185.19
631.833	199.19
632.039	180.19
632.245	200.19
632.451	180.19
632.657	175.19
632.863	180.19
633.069	168.19
633.275	166.19
633.481	178.19
633.688	176.19
633.893	201.19
634.099	200.19
634.305	158.19
634.511	172.19
634.717	178.19
634.923	164.19
635.129	173.19
635.335	182.19
635.541	182.19
635.747	176.19
635.952	184.19
636.158	175.19
636.364	184.19
636.57	191.19
636.775	186.19
636.981	178.19
637.187	168.19
637.392	162.19
637.598	174.19
637.804	168.19
638.009	169.19
638.215	169.19
638.421	160.19
638.626	169.19
638.832	180.19
639.037	171.19
639.243	175.19
639.448	170.19
639.654	175.19
639.859	163.19
640.065	169.19
640.27	182.19
640.475	172.19
640.681	169.19
640.886	162.19
641.091	168.19
641.297	165.19
641.502	173.19
641.707	159.19
641.913	153.19
642.118	154.19
642.323	189.19
642.528	158.19
642.733	156.19
642.939	170.19
643.144	170.19
643.349	164.19
643.554	176.19
643.759	156.19
643.964	147.19
644.169	169.19
644.374	167.19
644.579	153.19
644.784	173.19
644.989	148.19
645.194	168.19
645.399	148.19
645.604	155.19
645.809	162.19
646.014	150.19
646.219	163.19
646.423	140.19
646.628	167.19
646.833	152.19
647.038	175.19
647.243	172.19
647.447	168.19
647.652	178.19
647.857	160.19
648.062	157.19
648.266	150.19
648.471	152.19
648.676	160.19
648.88	160.19
649.085	161.19
649.289	181.19
649.494	172.19
649.698	201.19
649.903	190.19
650.107	171.19
650.312	152.19
650.516	158.19
650.721	137.19
650.925	144.19
651.13	152.19
651.334	142.19
651.539	153.19
651.743	136.19
651.947	141.19
652.152	145.19
652.356	135.19
652.56	136.19
652.764	139.19
652.969	146.19
653.173	135.19
653.377	129.19
653.581	127.19
653.785	146.19
653.99	128.19
654.194	135.19
654.398	122.19
654.602	116.19
654.806	124.19
655.01	139.19
655.214	129.19
655.418	141.19
655.622	115.19
655.826	142.19
656.03	127.19
656.234	136.19
656.438	138.19
656.642	124.19
656.846	129.19
657.049	127.19
657.253	116.19
657.457	109.19
657.661	109.19
657.865	119.19
658.068	105.19
658.272	92.19
658.476	118.19
658.68	121.19
658.883	90.19
659.087	99.19
659.291	105.19
659.494	92.19
659.698	100.19
659.901	85.19
660.105	106.19
660.309	87.19
660.512	79.19
660.716	89.19
660.919	88.19
661.123	91.19
661.326	107.19
661.53	99.19
661.733	107.19
661.936	103.19
662.14	101.19
662.343	80.19
662.546	100.19
662.75	93.19
662.953	84.19
663.156	79.19
663.36	84.19
663.563	90.19
663.766	93.19
663.969	85.19
664.173	93.19
664.376	82.19
664.579	90.19
664.782	89.19
664.985	87.19
665.188	90.19
665.391	85.19
665.594	93.19
665.797	101.19
666	92.19
666.203	94.19
666.406	82.19
666.609	77.19
666.812	88.19
667.015	82.19
667.218	74.19
667.421	86.19
667.624	84.19
667.827	88.19
668.03	86.19
668.232	72.19
668.435	82.19
668.638	96.19
668.841	90.19
669.043	86.19
669.246	94.19
669.449	96.19
669.651	84.19
669.854	91.19
670.057	80.19
670.259	86.19
670.462	88.19
670.665	74.19
670.867	90.19
671.07	76.19
671.272	82.19
671.475	102.19
671.677	86.19
671.88	85.19
672.082	92.19
672.284	89.19
672.487	90.19
672.689	93.19
672.892	85.19
