Data from 1973.PennyLincolnUp.Lamp.En5.5.200Scan.071719.P1.Changed Mount._HRD10591_15-45-40-852.txt Node
Date: Thu Jul 18 15:45:40 EDT 2019
User: cochatt
Spectrometer: HR+D1059
Trigger mode: 1
Integration Time (sec): 1.000000E-1
Scans to average: 1
Electric dark correction enabled: true
Nonlinearity correction enabled: false
Boxcar width: 0
XAxis mode: Wavelengths
Number of Pixels in Spectrum: 2048
>>>>>Begin Spectral Data<<<<<
223.165	-17.88
223.4	-17.88
223.635	-17.88
223.869	-23.88
224.104	-7.88
224.338	-14.88
224.573	-0.88
224.808	-19.88
225.042	-12.88
225.277	-2.88
225.511	2.12
225.746	6.12
225.98	-7.88
226.215	16.12
226.449	10.12
226.683	26.12
226.918	26.12
227.152	22.12
227.387	40.12
227.621	28.12
227.856	42.12
228.09	49.12
228.324	57.12
228.559	53.12
228.793	77.12
229.027	119.12
229.262	101.12
229.496	105.12
229.73	118.12
229.964	127.12
230.199	137.12
230.433	112.12
230.667	129.12
230.901	115.12
231.136	99.12
231.37	124.12
231.604	104.12
231.838	124.12
232.072	110.12
232.306	105.12
232.541	123.12
232.775	125.12
233.009	125.12
233.243	126.12
233.477	133.12
233.711	128.12
233.945	121.12
234.179	119.12
234.413	120.12
234.647	121.12
234.881	115.12
235.115	122.12
235.349	129.12
235.583	123.12
235.817	129.12
236.051	127.12
236.285	124.12
236.519	119.12
236.753	121.12
236.987	145.12
237.221	177.12
237.455	200.12
237.689	167.12
237.922	133.12
238.156	153.12
238.39	131.12
238.624	141.12
238.858	128.12
239.091	128.12
239.325	121.12
239.559	129.12
239.793	118.12
240.027	138.12
240.26	144.12
240.494	169.12
240.728	165.12
240.961	159.12
241.195	150.12
241.429	150.12
241.662	138.12
241.896	133.12
242.13	149.12
242.363	142.12
242.597	143.12
242.83	143.12
243.064	153.12
243.298	150.12
243.531	156.12
243.765	148.12
243.998	142.12
244.232	151.12
244.465	139.12
244.699	141.12
244.932	133.12
245.166	148.12
245.399	151.12
245.633	144.12
245.866	154.12
246.099	145.12
246.333	163.12
246.566	142.12
246.8	163.12
247.033	171.12
247.266	171.12
247.5	159.12
247.733	171.12
247.966	170.12
248.2	180.12
248.433	190.12
248.666	187.12
248.899	191.12
249.133	189.12
249.366	192.12
249.599	209.12
249.832	190.12
250.066	179.12
250.299	181.12
250.532	199.12
250.765	202.12
250.998	216.12
251.231	206.12
251.465	214.12
251.698	203.12
251.931	216.12
252.164	201.12
252.397	218.12
252.63	199.12
252.863	211.12
253.096	231.12
253.329	220.12
253.562	224.12
253.795	217.12
254.028	212.12
254.261	221.12
254.494	221.12
254.727	240.12
254.96	271.12
255.193	277.12
255.426	272.12
255.659	229.12
255.892	239.12
256.124	230.12
256.357	217.12
256.59	218.12
256.823	228.12
257.056	210.12
257.289	199.12
257.521	218.12
257.754	227.12
257.987	206.12
258.22	218.12
258.452	209.12
258.685	222.12
258.918	206.12
259.151	214.12
259.383	219.12
259.616	229.12
259.849	244.12
260.081	223.12
260.314	245.12
260.547	261.12
260.779	271.12
261.012	245.12
261.244	249.12
261.477	237.12
261.71	211.12
261.942	229.12
262.175	235.12
262.407	245.12
262.64	215.12
262.872	221.12
263.105	222.12
263.337	217.12
263.57	220.12
263.802	239.12
264.035	215.12
264.267	204.12
264.499	231.12
264.732	238.12
264.964	234.12
265.197	216.12
265.429	219.12
265.661	226.12
265.894	227.12
266.126	228.12
266.358	234.12
266.591	230.12
266.823	240.12
267.055	249.12
267.287	231.12
267.52	248.12
267.752	247.12
267.984	237.12
268.216	259.12
268.448	236.12
268.681	252.12
268.913	269.12
269.145	260.12
269.377	296.12
269.609	297.12
269.841	277.12
270.073	292.12
270.306	293.12
270.538	312.12
270.77	310.12
271.002	314.12
271.234	297.12
271.466	313.12
271.698	304.12
271.93	333.12
272.162	325.12
272.394	324.12
272.626	301.12
272.858	297.12
273.09	297.12
273.322	289.12
273.553	281.12
273.785	262.12
274.017	283.12
274.249	295.12
274.481	283.12
274.713	290.12
274.945	270.12
275.176	296.12
275.408	281.12
275.64	299.12
275.872	300.12
276.104	291.12
276.335	281.12
276.567	297.12
276.799	295.12
277.031	316.12
277.262	313.12
277.494	332.12
277.726	299.12
277.957	309.12
278.189	310.12
278.421	283.12
278.652	304.12
278.884	297.12
279.115	288.12
279.347	297.12
279.579	299.12
279.81	302.12
280.042	305.12
280.273	284.12
280.505	304.12
280.736	273.12
280.968	302.12
281.199	287.12
281.431	273.12
281.662	289.12
281.894	299.12
282.125	307.12
282.356	321.12
282.588	324.12
282.819	318.12
283.051	295.12
283.282	311.12
283.513	308.12
283.745	293.12
283.976	315.12
284.207	311.12
284.439	310.12
284.67	333.12
284.901	311.12
285.132	295.12
285.364	295.12
285.595	303.12
285.826	314.12
286.057	329.12
286.288	315.12
286.52	312.12
286.751	318.12
286.982	307.12
287.213	318.12
287.444	311.12
287.675	315.12
287.906	337.12
288.138	345.12
288.369	350.12
288.6	321.12
288.831	326.12
289.062	346.12
289.293	334.12
289.524	329.12
289.755	318.12
289.986	326.12
290.217	341.12
290.448	321.12
290.679	337.12
290.91	346.12
291.141	315.12
291.371	326.12
291.602	332.12
291.833	321.12
292.064	320.12
292.295	332.12
292.526	323.12
292.757	339.12
292.987	324.12
293.218	332.12
293.449	348.12
293.68	352.12
293.91	321.12
294.141	347.12
294.372	332.12
294.603	317.12
294.833	342.12
295.064	339.12
295.295	335.12
295.525	344.12
295.756	333.12
295.987	338.12
296.217	344.12
296.448	354.12
296.679	346.12
296.909	334.12
297.14	329.12
297.37	347.12
297.601	331.12
297.831	331.12
298.062	329.12
298.292	321.12
298.523	351.12
298.753	332.12
298.984	359.12
299.214	323.12
299.445	348.12
299.675	352.12
299.905	354.12
300.136	371.12
300.366	352.12
300.597	366.12
300.827	377.12
301.057	347.12
301.288	362.12
301.518	378.12
301.748	373.12
301.979	376.12
302.209	373.12
302.439	389.12
302.669	352.12
302.9	349.12
303.13	371.12
303.36	355.12
303.59	371.12
303.82	384.12
304.051	381.12
304.281	372.12
304.511	365.12
304.741	373.12
304.971	380.12
305.201	376.12
305.431	372.12
305.661	368.12
305.891	374.12
306.121	371.12
306.352	365.12
306.582	367.12
306.812	362.12
307.042	381.12
307.272	358.12
307.502	360.12
307.731	375.12
307.961	365.12
308.191	352.12
308.421	371.12
308.651	388.12
308.881	359.12
309.111	362.12
309.341	391.12
309.571	387.12
309.8	393.12
310.03	395.12
310.26	393.12
310.49	395.12
310.72	410.12
310.949	408.12
311.179	408.12
311.409	418.12
311.639	408.12
311.868	394.12
312.098	419.12
312.328	379.12
312.557	396.12
312.787	423.12
313.017	416.12
313.246	392.12
313.476	412.12
313.706	391.12
313.935	409.12
314.165	435.12
314.394	415.12
314.624	411.12
314.853	421.12
315.083	419.12
315.312	421.12
315.542	419.12
315.771	405.12
316.001	383.12
316.23	388.12
316.46	397.12
316.689	426.12
316.919	419.12
317.148	397.12
317.377	418.12
317.607	388.12
317.836	422.12
318.065	423.12
318.295	414.12
318.524	407.12
318.753	399.12
318.983	405.12
319.212	403.12
319.441	402.12
319.67	409.12
319.9	434.12
320.129	401.12
320.358	401.12
320.587	413.12
320.816	407.12
321.046	423.12
321.275	420.12
321.504	408.12
321.733	428.12
321.962	411.12
322.191	420.12
322.42	428.12
322.649	454.12
322.878	457.12
323.108	459.12
323.337	459.12
323.566	459.12
323.795	488.12
324.024	525.12
324.253	603.12
324.482	778.12
324.71	1129.12
324.939	1571.12
325.168	1397.12
325.397	802.12
325.626	603.12
325.855	515.12
326.084	494.12
326.313	494.12
326.542	495.12
326.77	522.12
326.999	580.12
327.228	765.12
327.457	1043.12
327.686	1219.12
327.914	846.12
328.143	592.12
328.372	563.12
328.6	541.12
328.829	528.12
329.058	520.12
329.287	544.12
329.515	535.12
329.744	506.12
329.972	512.12
330.201	520.12
330.43	540.12
330.658	553.12
330.887	557.12
331.115	574.12
331.344	517.12
331.572	501.12
331.801	489.12
332.03	503.12
332.258	506.12
332.486	477.12
332.715	496.12
332.943	503.12
333.172	497.12
333.4	529.12
333.629	536.12
333.857	537.12
334.085	528.12
334.314	546.12
334.542	582.12
334.771	583.12
334.999	545.12
335.227	522.12
335.455	515.12
335.684	482.12
335.912	497.12
336.14	504.12
336.369	509.12
336.597	512.12
336.825	486.12
337.053	498.12
337.281	485.12
337.51	483.12
337.738	472.12
337.966	448.12
338.194	490.12
338.422	461.12
338.65	476.12
338.878	472.12
339.106	476.12
339.334	439.12
339.562	447.12
339.79	484.12
340.018	465.12
340.246	479.12
340.474	486.12
340.702	473.12
340.93	460.12
341.158	475.12
341.386	477.12
341.614	457.12
341.842	439.12
342.07	435.12
342.298	464.12
342.526	456.12
342.754	455.12
342.981	455.12
343.209	459.12
343.437	479.12
343.665	481.12
343.893	505.12
344.12	508.12
344.348	517.12
344.576	473.12
344.804	463.12
345.031	461.12
345.259	501.12
345.487	463.12
345.714	453.12
345.942	459.12
346.17	456.12
346.397	450.12
346.625	449.12
346.853	439.12
347.08	439.12
347.308	448.12
347.535	462.12
347.763	465.12
347.99	456.12
348.218	462.12
348.445	448.12
348.673	444.12
348.9	432.12
349.128	432.12
349.355	449.12
349.583	441.12
349.81	447.12
350.037	429.12
350.265	439.12
350.492	423.12
350.72	423.12
350.947	458.12
351.174	431.12
351.402	423.12
351.629	438.12
351.856	435.12
352.083	439.12
352.311	436.12
352.538	481.12
352.765	462.12
352.992	454.12
353.22	430.12
353.447	442.12
353.674	417.12
353.901	425.12
354.128	423.12
354.355	426.12
354.583	416.12
354.81	422.12
355.037	436.12
355.264	425.12
355.491	438.12
355.718	425.12
355.945	441.12
356.172	429.12
356.399	409.12
356.626	404.12
356.853	419.12
357.08	437.12
357.307	435.12
357.534	413.12
357.761	413.12
357.988	415.12
358.215	422.12
358.441	402.12
358.668	407.12
358.895	414.12
359.122	428.12
359.349	429.12
359.576	442.12
359.802	451.12
360.029	465.12
360.256	471.12
360.483	476.12
360.709	433.12
360.936	462.12
361.163	441.12
361.39	443.12
361.616	448.12
361.843	435.12
362.07	432.12
362.296	446.12
362.523	439.12
362.749	444.12
362.976	440.12
363.203	432.12
363.429	435.12
363.656	437.12
363.882	448.12
364.109	405.12
364.335	425.12
364.562	431.12
364.788	417.12
365.015	435.12
365.241	449.12
365.468	445.12
365.694	436.12
365.92	427.12
366.147	405.12
366.373	423.12
366.599	435.12
366.826	429.12
367.052	419.12
367.278	427.12
367.505	409.12
367.731	401.12
367.957	432.12
368.184	419.12
368.41	449.12
368.636	424.12
368.862	457.12
369.089	440.12
369.315	420.12
369.541	419.12
369.767	422.12
369.993	412.12
370.219	416.12
370.445	440.12
370.672	427.12
370.898	424.12
371.124	442.12
371.35	453.12
371.576	428.12
371.802	410.12
372.028	429.12
372.254	424.12
372.48	433.12
372.706	448.12
372.932	441.12
373.158	440.12
373.384	460.12
373.61	433.12
373.835	451.12
374.061	459.12
374.287	446.12
374.513	444.12
374.739	451.12
374.965	461.12
375.191	451.12
375.416	464.12
375.642	442.12
375.868	443.12
376.094	424.12
376.319	435.12
376.545	448.12
376.771	438.12
376.997	441.12
377.222	414.12
377.448	420.12
377.674	426.12
377.899	433.12
378.125	448.12
378.35	425.12
378.576	416.12
378.802	438.12
379.027	423.12
379.253	425.12
379.478	410.12
379.704	431.12
379.929	448.12
380.155	428.12
380.38	429.12
380.606	419.12
380.831	448.12
381.057	426.12
381.282	460.12
381.507	452.12
381.733	434.12
381.958	425.12
382.184	453.12
382.409	455.12
382.634	439.12
382.86	449.12
383.085	472.12
383.31	443.12
383.535	446.12
383.761	447.12
383.986	468.12
384.211	481.12
384.436	484.12
384.662	498.12
384.887	504.12
385.112	494.12
385.337	464.12
385.562	510.12
385.787	491.12
386.013	499.12
386.238	517.12
386.463	504.12
386.688	484.12
386.913	482.12
387.138	507.12
387.363	494.12
387.588	492.12
387.813	483.12
388.038	485.12
388.263	489.12
388.488	472.12
388.713	477.12
388.938	445.12
389.163	469.12
389.387	486.12
389.612	491.12
389.837	501.12
390.062	493.12
390.287	496.12
390.512	468.12
390.736	479.12
390.961	473.12
391.186	495.12
391.411	528.12
391.636	505.12
391.86	507.12
392.085	528.12
392.31	508.12
392.534	517.12
392.759	500.12
392.984	501.12
393.208	502.12
393.433	492.12
393.658	508.12
393.882	502.12
394.107	501.12
394.331	477.12
394.556	485.12
394.78	492.12
395.005	512.12
395.229	505.12
395.454	529.12
395.678	518.12
395.903	529.12
396.127	548.12
396.352	529.12
396.576	533.12
396.801	505.12
397.025	519.12
397.249	536.12
397.474	547.12
397.698	515.12
397.922	557.12
398.147	553.12
398.371	565.12
398.595	567.12
398.82	561.12
399.044	603.12
399.268	626.12
399.492	657.12
399.717	715.12
399.941	743.12
400.165	725.12
400.389	733.12
400.613	634.12
400.837	608.12
401.062	572.12
401.286	581.12
401.51	575.12
401.734	577.12
401.958	576.12
402.182	590.12
402.406	601.12
402.63	598.12
402.854	612.12
403.078	594.12
403.302	625.12
403.526	617.12
403.75	627.12
403.974	619.12
404.198	639.12
404.422	609.12
404.645	615.12
404.869	614.12
405.093	627.12
405.317	685.12
405.541	669.12
405.765	640.12
405.988	627.12
406.212	645.12
406.436	650.12
406.66	669.12
406.883	649.12
407.107	710.12
407.331	711.12
407.555	763.12
407.778	793.12
408.002	702.12
408.226	661.12
408.449	676.12
408.673	672.12
408.896	655.12
409.12	715.12
409.344	689.12
409.567	643.12
409.791	627.12
410.014	623.12
410.238	591.12
410.461	592.12
410.685	614.12
410.908	602.12
411.132	632.12
411.355	667.12
411.578	665.12
411.802	599.12
412.025	601.12
412.249	613.12
412.472	629.12
412.695	640.12
412.919	627.12
413.142	583.12
413.365	584.12
413.589	594.12
413.812	571.12
414.035	580.12
414.258	585.12
414.482	557.12
414.705	556.12
414.928	550.12
415.151	571.12
415.374	578.12
415.597	563.12
415.821	571.12
416.044	579.12
416.267	579.12
416.49	550.12
416.713	550.12
416.936	541.12
417.159	564.12
417.382	533.12
417.605	590.12
417.828	593.12
418.051	583.12
418.274	573.12
418.497	548.12
418.72	597.12
418.943	567.12
419.166	583.12
419.389	624.12
419.611	616.12
419.834	606.12
420.057	615.12
420.28	582.12
420.503	603.12
420.726	594.12
420.948	589.12
421.171	600.12
421.394	635.12
421.617	603.12
421.839	586.12
422.062	592.12
422.285	580.12
422.507	636.12
422.73	705.12
422.953	683.12
423.175	624.12
423.398	591.12
423.621	623.12
423.843	631.12
424.066	653.12
424.288	622.12
424.511	647.12
424.733	681.12
424.956	752.12
425.178	697.12
425.401	696.12
425.623	724.12
425.846	631.12
426.068	595.12
426.291	586.12
426.513	620.12
426.735	614.12
426.958	645.12
427.18	697.12
427.402	830.12
427.625	867.12
427.847	703.12
428.069	681.12
428.292	609.12
428.514	582.12
428.736	577.12
428.958	579.12
429.181	567.12
429.403	540.12
429.625	569.12
429.847	583.12
430.069	633.12
430.292	614.12
430.514	543.12
430.736	547.12
430.958	538.12
431.18	545.12
431.402	524.12
431.624	530.12
431.846	533.12
432.068	518.12
432.29	527.12
432.512	519.12
432.734	542.12
432.956	544.12
433.178	539.12
433.4	536.12
433.622	560.12
433.844	546.12
434.066	532.12
434.287	534.12
434.509	549.12
434.731	551.12
434.953	586.12
435.175	584.12
435.397	621.12
435.618	604.12
435.84	633.12
436.062	707.12
436.284	759.12
436.505	619.12
436.727	586.12
436.949	567.12
437.17	568.12
437.392	542.12
437.614	570.12
437.835	576.12
438.057	644.12
438.278	722.12
438.5	747.12
438.721	808.12
438.943	791.12
439.165	641.12
439.386	601.12
439.608	605.12
439.829	604.12
440.05	606.12
440.272	655.12
440.493	618.12
440.715	600.12
440.936	553.12
441.158	573.12
441.379	583.12
441.6	574.12
441.822	607.12
442.043	642.12
442.264	721.12
442.486	753.12
442.707	664.12
442.928	635.12
443.149	621.12
443.371	625.12
443.592	692.12
443.813	745.12
444.034	816.12
444.255	713.12
444.476	648.12
444.698	644.12
444.919	658.12
445.14	712.12
445.361	668.12
445.582	659.12
445.803	686.12
446.024	756.12
446.245	763.12
446.466	693.12
446.687	633.12
446.908	607.12
447.129	595.12
447.35	568.12
447.571	543.12
447.792	527.12
448.013	547.12
448.234	538.12
448.455	601.12
448.675	690.12
448.896	795.12
449.117	669.12
449.338	647.12
449.559	735.12
449.779	833.12
450	685.12
450.221	584.12
450.442	555.12
450.662	529.12
450.883	536.12
451.104	528.12
451.324	522.12
451.545	520.12
451.766	512.12
451.986	506.12
452.207	481.12
452.428	501.12
452.648	495.12
452.869	501.12
453.089	515.12
453.31	507.12
453.53	512.12
453.751	474.12
453.971	501.12
454.192	506.12
454.412	487.12
454.633	491.12
454.853	504.12
455.073	480.12
455.294	491.12
455.514	560.12
455.734	560.12
455.955	491.12
456.175	490.12
456.395	479.12
456.616	473.12
456.836	468.12
457.056	459.12
457.276	449.12
457.497	468.12
457.717	478.12
457.937	457.12
458.157	471.12
458.377	495.12
458.598	492.12
458.818	546.12
459.038	592.12
459.258	607.12
459.478	550.12
459.698	520.12
459.918	543.12
460.138	541.12
460.358	558.12
460.578	549.12
460.798	571.12
461.018	567.12
461.238	576.12
461.458	567.12
461.678	567.12
461.898	576.12
462.118	569.12
462.338	588.12
462.558	593.12
462.777	593.12
462.997	646.12
463.217	666.12
463.437	668.12
463.657	618.12
463.876	632.12
464.096	621.12
464.316	613.12
464.536	637.12
464.755	600.12
464.975	627.12
465.195	606.12
465.414	657.12
465.634	584.12
465.854	571.12
466.073	534.12
466.293	530.12
466.512	521.12
466.732	519.12
466.951	509.12
467.171	519.12
467.391	512.12
467.61	523.12
467.829	538.12
468.049	527.12
468.268	500.12
468.488	493.12
468.707	492.12
468.927	500.12
469.146	486.12
469.365	485.12
469.585	493.12
469.804	505.12
470.023	525.12
470.243	551.12
470.462	549.12
470.681	543.12
470.901	525.12
471.12	542.12
471.339	531.12
471.558	553.12
471.777	517.12
471.997	517.12
472.216	489.12
472.435	528.12
472.654	537.12
472.873	537.12
473.092	520.12
473.311	504.12
473.53	517.12
473.749	515.12
473.968	549.12
474.187	628.12
474.406	638.12
474.625	556.12
474.844	544.12
475.063	513.12
475.282	521.12
475.501	500.12
475.72	529.12
475.939	531.12
476.158	535.12
476.377	537.12
476.596	523.12
476.814	525.12
477.033	533.12
477.252	549.12
477.471	543.12
477.69	563.12
477.908	553.12
478.127	560.12
478.346	583.12
478.564	602.12
478.783	578.12
479.002	593.12
479.22	592.12
479.439	599.12
479.658	603.12
479.876	621.12
480.095	621.12
480.313	646.12
480.532	649.12
480.751	641.12
480.969	645.12
481.188	663.12
481.406	681.12
481.624	627.12
481.843	606.12
482.061	596.12
482.28	580.12
482.498	592.12
482.717	605.12
482.935	583.12
483.153	587.12
483.372	589.12
483.59	574.12
483.808	590.12
484.027	598.12
484.245	587.12
484.463	604.12
484.681	595.12
484.9	600.12
485.118	600.12
485.336	610.12
485.554	585.12
485.772	603.12
485.99	612.12
486.209	609.12
486.427	627.12
486.645	625.12
486.863	625.12
487.081	637.12
487.299	617.12
487.517	637.12
487.735	631.12
487.953	621.12
488.171	641.12
488.389	609.12
488.607	654.12
488.825	607.12
489.043	627.12
489.261	634.12
489.479	615.12
489.696	631.12
489.914	633.12
490.132	667.12
490.35	673.12
490.568	664.12
490.786	668.12
491.003	673.12
491.221	683.12
491.439	700.12
491.657	708.12
491.874	727.12
492.092	716.12
492.31	703.12
492.527	734.12
492.745	729.12
492.963	718.12
493.18	716.12
493.398	715.12
493.615	725.12
493.833	736.12
494.05	727.12
494.268	734.12
494.485	742.12
494.703	740.12
494.92	730.12
495.138	736.12
495.355	731.12
495.573	746.12
495.79	758.12
496.008	771.12
496.225	726.12
496.442	743.12
496.66	772.12
496.877	758.12
497.094	739.12
497.312	757.12
497.529	759.12
497.746	785.12
497.963	807.12
498.181	819.12
498.398	861.12
498.615	870.12
498.832	888.12
499.049	902.12
499.267	945.12
499.484	995.12
499.701	1032.12
499.918	1108.12
500.135	1200.12
500.352	1268.12
500.569	1313.12
500.786	1334.12
501.003	1326.12
501.22	1204.12
501.437	1135.12
501.654	1083.12
501.871	1045.12
502.088	1001.12
502.305	950.12
502.522	883.12
502.739	883.12
502.956	839.12
503.172	795.12
503.389	804.12
503.606	786.12
503.823	784.12
504.04	791.12
504.256	765.12
504.473	775.12
504.69	772.12
504.907	777.12
505.123	748.12
505.34	736.12
505.557	720.12
505.773	709.12
505.99	694.12
506.207	708.12
506.423	685.12
506.64	679.12
506.856	688.12
507.073	677.12
507.289	638.12
507.506	655.12
507.722	658.12
507.939	679.12
508.155	647.12
508.372	655.12
508.588	638.12
508.805	641.12
509.021	641.12
509.238	656.12
509.454	647.12
509.67	623.12
509.887	621.12
510.103	631.12
510.319	619.12
510.536	709.12
510.752	960.12
510.968	843.12
511.184	635.12
511.401	613.12
511.617	608.12
511.833	627.12
512.049	627.12
512.265	612.12
512.481	612.12
512.698	615.12
512.914	626.12
513.13	609.12
513.346	606.12
513.562	598.12
513.778	607.12
513.994	612.12
514.21	624.12
514.426	625.12
514.642	651.12
514.858	657.12
515.074	685.12
515.29	746.12
515.506	981.12
515.721	869.12
515.937	707.12
516.153	640.12
516.369	637.12
516.585	653.12
516.801	636.12
517.016	643.12
517.232	684.12
517.448	694.12
517.664	675.12
517.879	684.12
518.095	696.12
518.311	678.12
518.527	676.12
518.742	653.12
518.958	659.12
519.173	637.12
519.389	620.12
519.605	621.12
519.82	601.12
520.036	632.12
520.251	616.12
520.467	649.12
520.682	624.12
520.898	637.12
521.113	617.12
521.329	691.12
521.544	686.12
521.76	803.12
521.975	1167.12
522.19	1183.12
522.406	720.12
522.621	608.12
522.836	590.12
523.052	586.12
523.267	554.12
523.482	557.12
523.698	540.12
523.913	548.12
524.128	551.12
524.343	531.12
524.559	547.12
524.774	538.12
524.989	540.12
525.204	545.12
525.419	518.12
525.634	546.12
525.849	535.12
526.064	525.12
526.28	539.12
526.495	531.12
526.71	503.12
526.925	513.12
527.14	521.12
527.355	511.12
527.57	504.12
527.785	502.12
527.999	489.12
528.214	541.12
528.429	510.12
528.644	510.12
528.859	515.12
529.074	503.12
529.289	530.12
529.503	558.12
529.718	548.12
529.933	528.12
530.148	495.12
530.363	507.12
530.577	509.12
530.792	505.12
531.007	513.12
531.221	509.12
531.436	497.12
531.651	472.12
531.865	503.12
532.08	495.12
532.295	497.12
532.509	494.12
532.724	473.12
532.938	506.12
533.153	499.12
533.367	484.12
533.582	513.12
533.796	503.12
534.011	495.12
534.225	493.12
534.44	490.12
534.654	509.12
534.868	499.12
535.083	502.12
535.297	480.12
535.511	470.12
535.726	485.12
535.94	502.12
536.154	469.12
536.369	484.12
536.583	479.12
536.797	490.12
537.011	474.12
537.225	484.12
537.44	465.12
537.654	488.12
537.868	470.12
538.082	473.12
538.296	490.12
538.51	473.12
538.724	500.12
538.938	481.12
539.153	484.12
539.367	485.12
539.581	495.12
539.795	469.12
540.009	464.12
540.222	473.12
540.436	479.12
540.65	436.12
540.864	452.12
541.078	479.12
541.292	471.12
541.506	461.12
541.72	459.12
541.934	468.12
542.147	482.12
542.361	480.12
542.575	459.12
542.789	464.12
543.002	483.12
543.216	476.12
543.43	466.12
543.644	470.12
543.857	441.12
544.071	486.12
544.285	474.12
544.498	470.12
544.712	475.12
544.925	477.12
545.139	491.12
545.352	468.12
545.566	464.12
545.779	456.12
545.993	497.12
546.206	464.12
546.42	485.12
546.633	492.12
546.847	467.12
547.06	461.12
547.274	465.12
547.487	469.12
547.7	478.12
547.914	455.12
548.127	447.12
548.34	468.12
548.554	481.12
548.767	473.12
548.98	460.12
549.193	485.12
549.407	468.12
549.62	481.12
549.833	465.12
550.046	485.12
550.259	487.12
550.473	465.12
550.686	463.12
550.899	453.12
551.112	459.12
551.325	469.12
551.538	473.12
551.751	462.12
551.964	447.12
552.177	476.12
552.39	482.12
552.603	474.12
552.816	464.12
553.029	476.12
553.242	489.12
553.455	495.12
553.667	505.12
553.88	499.12
554.093	480.12
554.306	479.12
554.519	466.12
554.732	471.12
554.944	444.12
555.157	448.12
555.37	445.12
555.583	437.12
555.795	446.12
556.008	440.12
556.221	430.12
556.433	420.12
556.646	429.12
556.859	419.12
557.071	409.12
557.284	407.12
557.496	408.12
557.709	379.12
557.921	416.12
558.134	438.12
558.346	442.12
558.559	420.12
558.771	430.12
558.984	411.12
559.196	419.12
559.409	404.12
559.621	419.12
559.833	420.12
560.046	416.12
560.258	407.12
560.47	405.12
560.683	407.12
560.895	406.12
561.107	397.12
561.32	394.12
561.532	415.12
561.744	411.12
561.956	414.12
562.168	400.12
562.381	415.12
562.593	409.12
562.805	429.12
563.017	407.12
563.229	430.12
563.441	387.12
563.653	420.12
563.865	412.12
564.077	434.12
564.289	426.12
564.501	423.12
564.713	421.12
564.925	463.12
565.137	456.12
565.349	453.12
565.561	445.12
565.773	477.12
565.985	480.12
566.197	509.12
566.408	524.12
566.62	524.12
566.832	548.12
567.044	571.12
567.255	587.12
567.467	591.12
567.679	606.12
567.891	625.12
568.102	622.12
568.314	605.12
568.526	579.12
568.737	549.12
568.949	519.12
569.161	491.12
569.372	459.12
569.584	433.12
569.795	451.12
570.007	443.12
570.218	459.12
570.43	433.12
570.641	444.12
570.853	409.12
571.064	405.12
571.276	403.12
571.487	414.12
571.698	395.12
571.91	384.12
572.121	383.12
572.333	375.12
572.544	377.12
572.755	360.12
572.966	366.12
573.178	395.12
573.389	359.12
573.6	366.12
573.811	379.12
574.023	364.12
574.234	378.12
574.445	368.12
574.656	359.12
574.867	368.12
575.078	375.12
575.289	355.12
575.501	353.12
575.712	358.12
575.923	363.12
576.134	364.12
576.345	358.12
576.556	351.12
576.767	357.12
576.978	348.12
577.188	353.12
577.399	347.12
577.61	366.12
577.821	359.12
578.032	353.12
578.243	349.12
578.454	463.12
578.665	405.12
578.875	337.12
579.086	340.12
579.297	331.12
579.508	343.12
579.718	345.12
579.929	329.12
580.14	335.12
580.35	327.12
580.561	320.12
580.772	319.12
580.982	334.12
581.193	313.12
581.403	328.12
581.614	315.12
581.825	313.12
582.035	326.12
582.246	320.12
582.456	328.12
582.667	317.12
582.877	317.12
583.087	330.12
583.298	328.12
583.508	332.12
583.719	318.12
583.929	324.12
584.139	322.12
584.35	305.12
584.56	303.12
584.77	319.12
584.981	323.12
585.191	318.12
585.401	301.12
585.611	315.12
585.821	296.12
586.032	301.12
586.242	318.12
586.452	295.12
586.662	313.12
586.872	321.12
587.082	293.12
587.292	314.12
587.502	311.12
587.713	311.12
587.923	325.12
588.133	293.12
588.343	316.12
588.553	301.12
588.762	324.12
588.972	319.12
589.182	302.12
589.392	320.12
589.602	293.12
589.812	302.12
590.022	314.12
590.232	300.12
590.441	317.12
590.651	300.12
590.861	305.12
591.071	316.12
591.281	331.12
591.49	310.12
591.7	328.12
591.91	320.12
592.119	312.12
592.329	320.12
592.539	332.12
592.748	362.12
592.958	346.12
593.167	361.12
593.377	367.12
593.587	360.12
593.796	343.12
594.006	361.12
594.215	359.12
594.424	356.12
594.634	358.12
594.843	368.12
595.053	337.12
595.262	350.12
595.472	339.12
595.681	337.12
595.89	332.12
596.1	330.12
596.309	313.12
596.518	301.12
596.727	293.12
596.937	300.12
597.146	293.12
597.355	292.12
597.564	312.12
597.774	289.12
597.983	292.12
598.192	286.12
598.401	269.12
598.61	287.12
598.819	279.12
599.028	283.12
599.237	300.12
599.446	275.12
599.655	281.12
599.864	279.12
600.073	275.12
600.282	282.12
600.491	270.12
600.7	259.12
600.909	269.12
601.118	269.12
601.327	272.12
601.536	284.12
601.745	285.12
601.953	284.12
602.162	257.12
602.371	270.12
602.58	276.12
602.789	267.12
602.997	257.12
603.206	270.12
603.415	261.12
603.623	245.12
603.832	261.12
604.041	260.12
604.249	267.12
604.458	270.12
604.666	240.12
604.875	247.12
605.084	266.12
605.292	261.12
605.501	256.12
605.709	257.12
605.918	246.12
606.126	258.12
606.334	253.12
606.543	275.12
606.751	261.12
606.96	249.12
607.168	267.12
607.376	232.12
607.585	240.12
607.793	268.12
608.001	265.12
608.21	273.12
608.418	255.12
608.626	257.12
608.834	268.12
609.043	237.12
609.251	264.12
609.459	245.12
609.667	255.12
609.875	269.12
610.083	264.12
610.291	252.12
610.499	245.12
610.707	252.12
610.916	254.12
611.124	254.12
611.332	245.12
611.54	252.12
611.748	263.12
611.955	261.12
612.163	262.12
612.371	267.12
612.579	245.12
612.787	250.12
612.995	253.12
613.203	246.12
613.411	253.12
613.618	244.12
613.826	248.12
614.034	233.12
614.242	247.12
614.449	231.12
614.657	262.12
614.865	247.12
615.072	278.12
615.28	239.12
615.488	244.12
615.695	252.12
615.903	243.12
616.111	265.12
616.318	251.12
616.526	249.12
616.733	257.12
616.941	237.12
617.148	262.12
617.356	270.12
617.563	247.12
617.771	248.12
617.978	225.12
618.185	254.12
618.393	229.12
618.6	249.12
618.807	239.12
619.015	249.12
619.222	247.12
619.429	238.12
619.637	251.12
619.844	250.12
620.051	259.12
620.258	246.12
620.466	227.12
620.673	241.12
620.88	233.12
621.087	225.12
621.294	217.12
621.501	219.12
621.708	236.12
621.915	237.12
622.122	235.12
622.329	233.12
622.536	221.12
622.743	232.12
622.95	224.12
623.157	228.12
623.364	229.12
623.571	220.12
623.778	219.12
623.985	237.12
624.192	225.12
624.399	245.12
624.606	235.12
624.812	210.12
625.019	237.12
625.226	223.12
625.433	223.12
625.639	225.12
625.846	208.12
626.053	209.12
626.259	218.12
626.466	220.12
626.673	212.12
626.879	214.12
627.086	216.12
627.293	221.12
627.499	219.12
627.706	195.12
627.912	219.12
628.119	221.12
628.325	220.12
628.532	224.12
628.738	211.12
628.945	226.12
629.151	200.12
629.357	209.12
629.564	203.12
629.77	217.12
629.976	212.12
630.183	200.12
630.389	207.12
630.595	216.12
630.802	181.12
631.008	205.12
631.214	198.12
631.42	205.12
631.627	221.12
631.833	205.12
632.039	191.12
632.245	203.12
632.451	208.12
632.657	190.12
632.863	190.12
633.069	189.12
633.275	186.12
633.481	193.12
633.688	200.12
633.893	202.12
634.099	205.12
634.305	199.12
634.511	206.12
634.717	188.12
634.923	181.12
635.129	180.12
635.335	173.12
635.541	178.12
635.747	182.12
635.952	190.12
636.158	191.12
636.364	207.12
636.57	195.12
636.775	187.12
636.981	182.12
637.187	199.12
637.392	175.12
637.598	176.12
637.804	173.12
638.009	193.12
638.215	189.12
638.421	182.12
638.626	192.12
638.832	171.12
639.037	181.12
639.243	186.12
639.448	175.12
639.654	183.12
639.859	187.12
640.065	184.12
640.27	185.12
640.475	180.12
640.681	187.12
640.886	189.12
641.091	191.12
641.297	183.12
641.502	182.12
641.707	190.12
641.913	188.12
642.118	181.12
642.323	173.12
642.528	185.12
642.733	188.12
642.939	167.12
643.144	170.12
643.349	187.12
643.554	174.12
643.759	164.12
643.964	173.12
644.169	176.12
644.374	174.12
644.579	175.12
644.784	173.12
644.989	163.12
645.194	174.12
645.399	167.12
645.604	175.12
645.809	176.12
646.014	171.12
646.219	160.12
646.423	166.12
646.628	186.12
646.833	175.12
647.038	185.12
647.243	176.12
647.447	179.12
647.652	190.12
647.857	178.12
648.062	176.12
648.266	183.12
648.471	189.12
648.676	176.12
648.88	185.12
649.085	181.12
649.289	201.12
649.494	189.12
649.698	181.12
649.903	195.12
650.107	174.12
650.312	187.12
650.516	159.12
650.721	161.12
650.925	176.12
651.13	171.12
651.334	153.12
651.539	167.12
651.743	160.12
651.947	148.12
652.152	152.12
652.356	149.12
652.56	141.12
652.764	138.12
652.969	158.12
653.173	135.12
653.377	150.12
653.581	137.12
653.785	132.12
653.99	139.12
654.194	137.12
654.398	158.12
654.602	137.12
654.806	140.12
655.01	151.12
655.214	152.12
655.418	139.12
655.622	145.12
655.826	128.12
656.03	154.12
656.234	136.12
656.438	136.12
656.642	149.12
656.846	153.12
657.049	145.12
657.253	126.12
657.457	125.12
657.661	119.12
657.865	119.12
658.068	110.12
658.272	121.12
658.476	128.12
658.68	119.12
658.883	123.12
659.087	97.12
659.291	98.12
659.494	102.12
659.698	103.12
659.901	108.12
660.105	111.12
660.309	94.12
660.512	98.12
660.716	114.12
660.919	94.12
661.123	91.12
661.326	99.12
661.53	84.12
661.733	95.12
661.936	100.12
662.14	95.12
662.343	95.12
662.546	102.12
662.75	81.12
662.953	105.12
663.156	84.12
663.36	88.12
663.563	84.12
663.766	93.12
663.969	89.12
664.173	79.12
664.376	80.12
664.579	95.12
664.782	94.12
664.985	81.12
665.188	83.12
665.391	78.12
665.594	76.12
665.797	86.12
666	78.12
666.203	85.12
666.406	75.12
666.609	91.12
666.812	98.12
667.015	87.12
667.218	76.12
667.421	93.12
667.624	84.12
667.827	97.12
668.03	74.12
668.232	83.12
668.435	90.12
668.638	89.12
668.841	84.12
669.043	96.12
669.246	84.12
669.449	84.12
669.651	92.12
669.854	104.12
670.057	71.12
670.259	90.12
670.462	88.12
670.665	83.12
670.867	96.12
671.07	90.12
671.272	67.12
671.475	84.12
671.677	92.12
671.88	93.12
672.082	81.12
672.284	93.12
672.487	78.12
672.689	91.12
672.892	88.12
