Data from 1973.PennyLincolnUp.Lamp.En5.5.200Scan.071719.P1.Changed Mount._HRD10591_15-45-08-853.txt Node
Date: Thu Jul 18 15:45:08 EDT 2019
User: cochatt
Spectrometer: HR+D1059
Trigger mode: 1
Integration Time (sec): 1.000000E-1
Scans to average: 1
Electric dark correction enabled: true
Nonlinearity correction enabled: false
Boxcar width: 0
XAxis mode: Wavelengths
Number of Pixels in Spectrum: 2048
>>>>>Begin Spectral Data<<<<<
223.165	-7.38
223.4	-7.38
223.635	-7.38
223.869	-15.38
224.104	-18.38
224.338	-6.38
224.573	-8.38
224.808	-19.38
225.042	-13.38
225.277	-5.38
225.511	12.62
225.746	2.62
225.98	0.62
226.215	7.62
226.449	10.62
226.683	20.62
226.918	21.62
227.152	17.62
227.387	37.62
227.621	30.62
227.856	47.62
228.09	44.62
228.324	61.62
228.559	49.62
228.793	69.62
229.027	87.62
229.262	92.62
229.496	116.62
229.73	135.62
229.964	158.62
230.199	132.62
230.433	112.62
230.667	117.62
230.901	116.62
231.136	118.62
231.37	121.62
231.604	102.62
231.838	117.62
232.072	109.62
232.306	132.62
232.541	111.62
232.775	111.62
233.009	111.62
233.243	126.62
233.477	120.62
233.711	122.62
233.945	100.62
234.179	111.62
234.413	121.62
234.647	100.62
234.881	121.62
235.115	114.62
235.349	139.62
235.583	120.62
235.817	117.62
236.051	125.62
236.285	129.62
236.519	136.62
236.753	140.62
236.987	158.62
237.221	172.62
237.455	226.62
237.689	176.62
237.922	122.62
238.156	128.62
238.39	148.62
238.624	138.62
238.858	132.62
239.091	131.62
239.325	127.62
239.559	134.62
239.793	136.62
240.027	148.62
240.26	163.62
240.494	150.62
240.728	144.62
240.961	151.62
241.195	140.62
241.429	139.62
241.662	140.62
241.896	141.62
242.13	138.62
242.363	134.62
242.597	142.62
242.83	172.62
243.064	143.62
243.298	142.62
243.531	144.62
243.765	136.62
243.998	157.62
244.232	168.62
244.465	155.62
244.699	145.62
244.932	156.62
245.166	166.62
245.399	157.62
245.633	163.62
245.866	160.62
246.099	159.62
246.333	161.62
246.566	157.62
246.8	171.62
247.033	172.62
247.266	157.62
247.5	156.62
247.733	167.62
247.966	166.62
248.2	168.62
248.433	178.62
248.666	189.62
248.899	196.62
249.133	205.62
249.366	207.62
249.599	209.62
249.832	184.62
250.066	189.62
250.299	195.62
250.532	192.62
250.765	200.62
250.998	228.62
251.231	221.62
251.465	202.62
251.698	217.62
251.931	208.62
252.164	206.62
252.397	191.62
252.63	200.62
252.863	197.62
253.096	208.62
253.329	241.62
253.562	239.62
253.795	230.62
254.028	219.62
254.261	228.62
254.494	244.62
254.727	255.62
254.96	287.62
255.193	260.62
255.426	256.62
255.659	237.62
255.892	246.62
256.124	237.62
256.357	242.62
256.59	241.62
256.823	208.62
257.056	218.62
257.289	217.62
257.521	222.62
257.754	224.62
257.987	236.62
258.22	210.62
258.452	200.62
258.685	210.62
258.918	203.62
259.151	218.62
259.383	211.62
259.616	225.62
259.849	239.62
260.081	239.62
260.314	271.62
260.547	261.62
260.779	261.62
261.012	252.62
261.244	234.62
261.477	237.62
261.71	244.62
261.942	236.62
262.175	237.62
262.407	226.62
262.64	232.62
262.872	234.62
263.105	215.62
263.337	236.62
263.57	216.62
263.802	238.62
264.035	233.62
264.267	237.62
264.499	231.62
264.732	234.62
264.964	208.62
265.197	237.62
265.429	246.62
265.661	226.62
265.894	229.62
266.126	231.62
266.358	224.62
266.591	226.62
266.823	234.62
267.055	240.62
267.287	259.62
267.52	239.62
267.752	240.62
267.984	272.62
268.216	258.62
268.448	271.62
268.681	244.62
268.913	283.62
269.145	271.62
269.377	290.62
269.609	290.62
269.841	293.62
270.073	285.62
270.306	312.62
270.538	327.62
270.77	320.62
271.002	341.62
271.234	314.62
271.466	322.62
271.698	335.62
271.93	338.62
272.162	317.62
272.394	330.62
272.626	317.62
272.858	302.62
273.09	303.62
273.322	295.62
273.553	307.62
273.785	298.62
274.017	278.62
274.249	278.62
274.481	290.62
274.713	305.62
274.945	283.62
275.176	303.62
275.408	265.62
275.64	278.62
275.872	282.62
276.104	307.62
276.335	295.62
276.567	280.62
276.799	290.62
277.031	340.62
277.262	349.62
277.494	334.62
277.726	332.62
277.957	320.62
278.189	304.62
278.421	287.62
278.652	293.62
278.884	314.62
279.115	301.62
279.347	294.62
279.579	308.62
279.81	291.62
280.042	314.62
280.273	275.62
280.505	296.62
280.736	312.62
280.968	294.62
281.199	296.62
281.431	298.62
281.662	291.62
281.894	301.62
282.125	308.62
282.356	326.62
282.588	315.62
282.819	318.62
283.051	311.62
283.282	311.62
283.513	300.62
283.745	320.62
283.976	296.62
284.207	332.62
284.439	321.62
284.67	322.62
284.901	339.62
285.132	322.62
285.364	295.62
285.595	321.62
285.826	340.62
286.057	324.62
286.288	297.62
286.52	312.62
286.751	321.62
286.982	334.62
287.213	328.62
287.444	326.62
287.675	316.62
287.906	326.62
288.138	338.62
288.369	352.62
288.6	350.62
288.831	338.62
289.062	335.62
289.293	343.62
289.524	326.62
289.755	331.62
289.986	311.62
290.217	322.62
290.448	325.62
290.679	330.62
290.91	343.62
291.141	336.62
291.371	318.62
291.602	329.62
291.833	319.62
292.064	332.62
292.295	324.62
292.526	311.62
292.757	322.62
292.987	336.62
293.218	343.62
293.449	362.62
293.68	335.62
293.91	346.62
294.141	328.62
294.372	314.62
294.603	331.62
294.833	330.62
295.064	325.62
295.295	335.62
295.525	335.62
295.756	324.62
295.987	337.62
296.217	351.62
296.448	344.62
296.679	352.62
296.909	356.62
297.14	352.62
297.37	346.62
297.601	339.62
297.831	347.62
298.062	341.62
298.292	374.62
298.523	335.62
298.753	352.62
298.984	334.62
299.214	328.62
299.445	354.62
299.675	354.62
299.905	359.62
300.136	354.62
300.366	351.62
300.597	342.62
300.827	358.62
301.057	361.62
301.288	356.62
301.518	364.62
301.748	373.62
301.979	370.62
302.209	357.62
302.439	381.62
302.669	365.62
302.9	377.62
303.13	367.62
303.36	372.62
303.59	382.62
303.82	394.62
304.051	387.62
304.281	394.62
304.511	375.62
304.741	370.62
304.971	374.62
305.201	388.62
305.431	382.62
305.661	378.62
305.891	359.62
306.121	360.62
306.352	378.62
306.582	374.62
306.812	366.62
307.042	357.62
307.272	356.62
307.502	365.62
307.731	363.62
307.961	375.62
308.191	375.62
308.421	367.62
308.651	372.62
308.881	374.62
309.111	380.62
309.341	394.62
309.571	394.62
309.8	377.62
310.03	393.62
310.26	381.62
310.49	387.62
310.72	396.62
310.949	422.62
311.179	395.62
311.409	400.62
311.639	410.62
311.868	418.62
312.098	396.62
312.328	418.62
312.557	410.62
312.787	443.62
313.017	420.62
313.246	410.62
313.476	410.62
313.706	395.62
313.935	414.62
314.165	414.62
314.394	426.62
314.624	432.62
314.853	426.62
315.083	407.62
315.312	416.62
315.542	392.62
315.771	431.62
316.001	416.62
316.23	392.62
316.46	416.62
316.689	419.62
316.919	410.62
317.148	419.62
317.377	416.62
317.607	412.62
317.836	416.62
318.065	439.62
318.295	405.62
318.524	405.62
318.753	406.62
318.983	418.62
319.212	421.62
319.441	406.62
319.67	413.62
319.9	423.62
320.129	413.62
320.358	419.62
320.587	409.62
320.816	398.62
321.046	428.62
321.275	420.62
321.504	412.62
321.733	446.62
321.962	421.62
322.191	440.62
322.42	444.62
322.649	444.62
322.878	447.62
323.108	462.62
323.337	476.62
323.566	495.62
323.795	504.62
324.024	544.62
324.253	618.62
324.482	822.62
324.71	1142.62
324.939	1622.62
325.168	1436.62
325.397	821.62
325.626	601.62
325.855	522.62
326.084	482.62
326.313	474.62
326.542	523.62
326.77	529.62
326.999	597.62
327.228	773.62
327.457	1066.62
327.686	1279.62
327.914	891.62
328.143	622.62
328.372	569.62
328.6	538.62
328.829	524.62
329.058	542.62
329.287	542.62
329.515	528.62
329.744	487.62
329.972	510.62
330.201	542.62
330.43	547.62
330.658	558.62
330.887	578.62
331.115	580.62
331.344	504.62
331.572	493.62
331.801	511.62
332.03	511.62
332.258	478.62
332.486	509.62
332.715	508.62
332.943	504.62
333.172	490.62
333.4	530.62
333.629	540.62
333.857	542.62
334.085	568.62
334.314	575.62
334.542	592.62
334.771	577.62
334.999	548.62
335.227	527.62
335.455	532.62
335.684	513.62
335.912	506.62
336.14	518.62
336.369	470.62
336.597	495.62
336.825	496.62
337.053	500.62
337.281	479.62
337.51	481.62
337.738	486.62
337.966	493.62
338.194	499.62
338.422	476.62
338.65	482.62
338.878	479.62
339.106	454.62
339.334	468.62
339.562	454.62
339.79	468.62
340.018	458.62
340.246	449.62
340.474	479.62
340.702	469.62
340.93	476.62
341.158	436.62
341.386	464.62
341.614	467.62
341.842	468.62
342.07	469.62
342.298	477.62
342.526	457.62
342.754	450.62
342.981	436.62
343.209	447.62
343.437	470.62
343.665	476.62
343.893	490.62
344.12	478.62
344.348	526.62
344.576	499.62
344.804	500.62
345.031	470.62
345.259	475.62
345.487	456.62
345.714	474.62
345.942	451.62
346.17	449.62
346.397	453.62
346.625	440.62
346.853	463.62
347.08	456.62
347.308	444.62
347.535	459.62
347.763	459.62
347.99	444.62
348.218	457.62
348.445	446.62
348.673	437.62
348.9	454.62
349.128	446.62
349.355	410.62
349.583	425.62
349.81	441.62
350.037	434.62
350.265	432.62
350.492	425.62
350.72	442.62
350.947	427.62
351.174	436.62
351.402	454.62
351.629	439.62
351.856	437.62
352.083	438.62
352.311	421.62
352.538	445.62
352.765	444.62
352.992	436.62
353.22	438.62
353.447	451.62
353.674	428.62
353.901	431.62
354.128	422.62
354.355	410.62
354.583	433.62
354.81	425.62
355.037	431.62
355.264	424.62
355.491	435.62
355.718	409.62
355.945	399.62
356.172	420.62
356.399	435.62
356.626	423.62
356.853	423.62
357.08	391.62
357.307	426.62
357.534	418.62
357.761	414.62
357.988	411.62
358.215	414.62
358.441	430.62
358.668	429.62
358.895	422.62
359.122	420.62
359.349	442.62
359.576	414.62
359.802	437.62
360.029	452.62
360.256	484.62
360.483	460.62
360.709	443.62
360.936	427.62
361.163	448.62
361.39	438.62
361.616	446.62
361.843	432.62
362.07	422.62
362.296	442.62
362.523	459.62
362.749	436.62
362.976	427.62
363.203	444.62
363.429	433.62
363.656	440.62
363.882	422.62
364.109	408.62
364.335	418.62
364.562	415.62
364.788	424.62
365.015	421.62
365.241	419.62
365.468	428.62
365.694	425.62
365.92	429.62
366.147	426.62
366.373	412.62
366.599	425.62
366.826	420.62
367.052	440.62
367.278	449.62
367.505	427.62
367.731	420.62
367.957	423.62
368.184	436.62
368.41	426.62
368.636	445.62
368.862	452.62
369.089	431.62
369.315	436.62
369.541	435.62
369.767	427.62
369.993	427.62
370.219	438.62
370.445	424.62
370.672	427.62
370.898	434.62
371.124	439.62
371.35	434.62
371.576	447.62
371.802	432.62
372.028	439.62
372.254	439.62
372.48	434.62
372.706	436.62
372.932	467.62
373.158	457.62
373.384	440.62
373.61	447.62
373.835	447.62
374.061	455.62
374.287	444.62
374.513	452.62
374.739	440.62
374.965	431.62
375.191	458.62
375.416	456.62
375.642	435.62
375.868	422.62
376.094	423.62
376.319	449.62
376.545	430.62
376.771	414.62
376.997	428.62
377.222	423.62
377.448	441.62
377.674	442.62
377.899	422.62
378.125	434.62
378.35	414.62
378.576	444.62
378.802	416.62
379.027	422.62
379.253	470.62
379.478	414.62
379.704	422.62
379.929	446.62
380.155	459.62
380.38	446.62
380.606	431.62
380.831	420.62
381.057	454.62
381.282	445.62
381.507	451.62
381.733	436.62
381.958	436.62
382.184	440.62
382.409	445.62
382.634	450.62
382.86	446.62
383.085	446.62
383.31	470.62
383.535	461.62
383.761	459.62
383.986	455.62
384.211	471.62
384.436	469.62
384.662	477.62
384.887	494.62
385.112	493.62
385.337	498.62
385.562	474.62
385.787	481.62
386.013	512.62
386.238	482.62
386.463	519.62
386.688	495.62
386.913	495.62
387.138	489.62
387.363	498.62
387.588	488.62
387.813	502.62
388.038	486.62
388.263	488.62
388.488	498.62
388.713	488.62
388.938	481.62
389.163	512.62
389.387	494.62
389.612	468.62
389.837	490.62
390.062	492.62
390.287	506.62
390.512	463.62
390.736	470.62
390.961	486.62
391.186	495.62
391.411	482.62
391.636	500.62
391.86	502.62
392.085	524.62
392.31	503.62
392.534	489.62
392.759	496.62
392.984	499.62
393.208	495.62
393.433	503.62
393.658	485.62
393.882	508.62
394.107	491.62
394.331	498.62
394.556	486.62
394.78	486.62
395.005	514.62
395.229	491.62
395.454	515.62
395.678	504.62
395.903	524.62
396.127	561.62
396.352	546.62
396.576	503.62
396.801	532.62
397.025	520.62
397.249	512.62
397.474	535.62
397.698	517.62
397.922	539.62
398.147	551.62
398.371	574.62
398.595	555.62
398.82	575.62
399.044	580.62
399.268	628.62
399.492	657.62
399.717	719.62
399.941	746.62
400.165	738.62
400.389	714.62
400.613	644.62
400.837	607.62
401.062	582.62
401.286	594.62
401.51	580.62
401.734	557.62
401.958	586.62
402.182	582.62
402.406	572.62
402.63	598.62
402.854	587.62
403.078	604.62
403.302	592.62
403.526	614.62
403.75	605.62
403.974	595.62
404.198	632.62
404.422	602.62
404.645	629.62
404.869	609.62
405.093	660.62
405.317	674.62
405.541	703.62
405.765	658.62
405.988	621.62
406.212	642.62
406.436	661.62
406.66	656.62
406.883	639.62
407.107	671.62
407.331	726.62
407.555	768.62
407.778	778.62
408.002	714.62
408.226	670.62
408.449	681.62
408.673	656.62
408.896	685.62
409.12	698.62
409.344	690.62
409.567	611.62
409.791	600.62
410.014	603.62
410.238	594.62
410.461	603.62
410.685	620.62
410.908	600.62
411.132	636.62
411.355	675.62
411.578	621.62
411.802	599.62
412.025	621.62
412.249	604.62
412.472	636.62
412.695	650.62
412.919	638.62
413.142	608.62
413.365	584.62
413.589	568.62
413.812	562.62
414.035	570.62
414.258	590.62
414.482	557.62
414.705	575.62
414.928	573.62
415.151	571.62
415.374	571.62
415.597	572.62
415.821	542.62
416.044	567.62
416.267	572.62
416.49	547.62
416.713	559.62
416.936	564.62
417.159	563.62
417.382	565.62
417.605	559.62
417.828	557.62
418.051	567.62
418.274	579.62
418.497	589.62
418.72	589.62
418.943	533.62
419.166	586.62
419.389	609.62
419.611	626.62
419.834	610.62
420.057	596.62
420.28	619.62
420.503	588.62
420.726	566.62
420.948	614.62
421.171	621.62
421.394	651.62
421.617	603.62
421.839	578.62
422.062	573.62
422.285	613.62
422.507	657.62
422.73	692.62
422.953	687.62
423.175	616.62
423.398	619.62
423.621	616.62
423.843	644.62
424.066	632.62
424.288	621.62
424.511	640.62
424.733	648.62
424.956	766.62
425.178	723.62
425.401	699.62
425.623	730.62
425.846	644.62
426.068	620.62
426.291	584.62
426.513	603.62
426.735	615.62
426.958	644.62
427.18	714.62
427.402	825.62
427.625	889.62
427.847	776.62
428.069	666.62
428.292	611.62
428.514	584.62
428.736	546.62
428.958	558.62
429.181	537.62
429.403	546.62
429.625	548.62
429.847	575.62
430.069	646.62
430.292	662.62
430.514	562.62
430.736	554.62
430.958	531.62
431.18	529.62
431.402	528.62
431.624	534.62
431.846	527.62
432.068	505.62
432.29	506.62
432.512	535.62
432.734	549.62
432.956	567.62
433.178	529.62
433.4	554.62
433.622	529.62
433.844	544.62
434.066	529.62
434.287	537.62
434.509	557.62
434.731	569.62
434.953	566.62
435.175	583.62
435.397	597.62
435.618	598.62
435.84	634.62
436.062	703.62
436.284	767.62
436.505	649.62
436.727	587.62
436.949	569.62
437.17	540.62
437.392	535.62
437.614	572.62
437.835	576.62
438.057	660.62
438.278	730.62
438.5	725.62
438.721	802.62
438.943	782.62
439.165	651.62
439.386	589.62
439.608	607.62
439.829	590.62
440.05	606.62
440.272	631.62
440.493	605.62
440.715	578.62
440.936	580.62
441.158	578.62
441.379	550.62
441.6	583.62
441.822	591.62
442.043	654.62
442.264	694.62
442.486	711.62
442.707	657.62
442.928	620.62
443.149	598.62
443.371	630.62
443.592	652.62
443.813	757.62
444.034	808.62
444.255	666.62
444.476	656.62
444.698	629.62
444.919	656.62
445.14	753.62
445.361	714.62
445.582	666.62
445.803	704.62
446.024	761.62
446.245	771.62
446.466	691.62
446.687	612.62
446.908	582.62
447.129	579.62
447.35	538.62
447.571	542.62
447.792	538.62
448.013	568.62
448.234	551.62
448.455	570.62
448.675	672.62
448.896	799.62
449.117	698.62
449.338	657.62
449.559	736.62
449.779	808.62
450	695.62
450.221	586.62
450.442	528.62
450.662	518.62
450.883	534.62
451.104	540.62
451.324	537.62
451.545	503.62
451.766	501.62
451.986	473.62
452.207	469.62
452.428	501.62
452.648	460.62
452.869	484.62
453.089	485.62
453.31	500.62
453.53	476.62
453.751	452.62
453.971	461.62
454.192	488.62
454.412	483.62
454.633	489.62
454.853	512.62
455.073	490.62
455.294	502.62
455.514	584.62
455.734	529.62
455.955	481.62
456.175	477.62
456.395	458.62
456.616	438.62
456.836	447.62
457.056	447.62
457.276	455.62
457.497	458.62
457.717	453.62
457.937	444.62
458.157	496.62
458.377	502.62
458.598	520.62
458.818	521.62
459.038	596.62
459.258	623.62
459.478	572.62
459.698	528.62
459.918	536.62
460.138	537.62
460.358	551.62
460.578	559.62
460.798	553.62
461.018	587.62
461.238	566.62
461.458	570.62
461.678	552.62
461.898	554.62
462.118	578.62
462.338	602.62
462.558	604.62
462.777	630.62
462.997	632.62
463.217	635.62
463.437	619.62
463.657	609.62
463.876	620.62
464.096	623.62
464.316	611.62
464.536	630.62
464.755	615.62
464.975	616.62
465.195	594.62
465.414	633.62
465.634	610.62
465.854	550.62
466.073	536.62
466.293	517.62
466.512	534.62
466.732	503.62
466.951	517.62
467.171	527.62
467.391	516.62
467.61	529.62
467.829	525.62
468.049	518.62
468.268	508.62
468.488	505.62
468.707	516.62
468.927	480.62
469.146	490.62
469.365	483.62
469.585	510.62
469.804	497.62
470.023	506.62
470.243	512.62
470.462	530.62
470.681	542.62
470.901	528.62
471.12	514.62
471.339	523.62
471.558	519.62
471.777	488.62
471.997	504.62
472.216	514.62
472.435	535.62
472.654	502.62
472.873	511.62
473.092	504.62
473.311	495.62
473.53	528.62
473.749	517.62
473.968	540.62
474.187	608.62
474.406	630.62
474.625	544.62
474.844	504.62
475.063	500.62
475.282	510.62
475.501	520.62
475.72	525.62
475.939	504.62
476.158	519.62
476.377	540.62
476.596	514.62
476.814	517.62
477.033	530.62
477.252	530.62
477.471	539.62
477.69	582.62
477.908	550.62
478.127	560.62
478.346	580.62
478.564	561.62
478.783	584.62
479.002	596.62
479.22	611.62
479.439	600.62
479.658	589.62
479.876	627.62
480.095	617.62
480.313	660.62
480.532	648.62
480.751	643.62
480.969	618.62
481.188	683.62
481.406	680.62
481.624	656.62
481.843	596.62
482.061	612.62
482.28	587.62
482.498	592.62
482.717	570.62
482.935	608.62
483.153	581.62
483.372	573.62
483.59	590.62
483.808	572.62
484.027	590.62
484.245	608.62
484.463	587.62
484.681	601.62
484.9	596.62
485.118	606.62
485.336	585.62
485.554	606.62
485.772	578.62
485.99	614.62
486.209	576.62
486.427	608.62
486.645	599.62
486.863	648.62
487.081	625.62
487.299	600.62
487.517	627.62
487.735	624.62
487.953	639.62
488.171	625.62
488.389	624.62
488.607	605.62
488.825	619.62
489.043	621.62
489.261	643.62
489.479	636.62
489.696	622.62
489.914	626.62
490.132	635.62
490.35	671.62
490.568	646.62
490.786	682.62
491.003	666.62
491.221	691.62
491.439	690.62
491.657	687.62
491.874	706.62
492.092	697.62
492.31	712.62
492.527	717.62
492.745	714.62
492.963	723.62
493.18	756.62
493.398	730.62
493.615	727.62
493.833	730.62
494.05	708.62
494.268	710.62
494.485	722.62
494.703	720.62
494.92	734.62
495.138	732.62
495.355	752.62
495.573	728.62
495.79	731.62
496.008	754.62
496.225	724.62
496.442	737.62
496.66	758.62
496.877	712.62
497.094	744.62
497.312	758.62
497.529	776.62
497.746	789.62
497.963	793.62
498.181	826.62
498.398	842.62
498.615	856.62
498.832	893.62
499.049	953.62
499.267	943.62
499.484	1006.62
499.701	1057.62
499.918	1104.62
500.135	1214.62
500.352	1263.62
500.569	1308.62
500.786	1326.62
501.003	1264.62
501.22	1216.62
501.437	1137.62
501.654	1083.62
501.871	1006.62
502.088	986.62
502.305	931.62
502.522	922.62
502.739	878.62
502.956	838.62
503.172	850.62
503.389	781.62
503.606	796.62
503.823	791.62
504.04	742.62
504.256	777.62
504.473	772.62
504.69	769.62
504.907	760.62
505.123	732.62
505.34	710.62
505.557	716.62
505.773	718.62
505.99	698.62
506.207	714.62
506.423	685.62
506.64	678.62
506.856	693.62
507.073	658.62
507.289	646.62
507.506	669.62
507.722	679.62
507.939	645.62
508.155	652.62
508.372	643.62
508.588	634.62
508.805	622.62
509.021	639.62
509.238	644.62
509.454	640.62
509.67	668.62
509.887	657.62
510.103	657.62
510.319	644.62
510.536	701.62
510.752	982.62
510.968	810.62
511.184	653.62
511.401	626.62
511.617	612.62
511.833	611.62
512.049	599.62
512.265	591.62
512.481	619.62
512.698	614.62
512.914	599.62
513.13	596.62
513.346	608.62
513.562	599.62
513.778	620.62
513.994	635.62
514.21	609.62
514.426	602.62
514.642	635.62
514.858	652.62
515.074	686.62
515.29	739.62
515.506	987.62
515.721	870.62
515.937	682.62
516.153	651.62
516.369	652.62
516.585	649.62
516.801	649.62
517.016	660.62
517.232	661.62
517.448	675.62
517.664	707.62
517.879	687.62
518.095	703.62
518.311	696.62
518.527	675.62
518.742	675.62
518.958	647.62
519.173	631.62
519.389	633.62
519.605	598.62
519.82	604.62
520.036	618.62
520.251	616.62
520.467	642.62
520.682	623.62
520.898	636.62
521.113	642.62
521.329	666.62
521.544	698.62
521.76	815.62
521.975	1164.62
522.19	1169.62
522.406	774.62
522.621	619.62
522.836	595.62
523.052	599.62
523.267	566.62
523.482	583.62
523.698	580.62
523.913	533.62
524.128	565.62
524.343	543.62
524.559	528.62
524.774	519.62
524.989	533.62
525.204	558.62
525.419	533.62
525.634	500.62
525.849	525.62
526.064	512.62
526.28	513.62
526.495	493.62
526.71	514.62
526.925	507.62
527.14	511.62
527.355	506.62
527.57	511.62
527.785	509.62
527.999	512.62
528.214	514.62
528.429	518.62
528.644	516.62
528.859	514.62
529.074	498.62
529.289	524.62
529.503	570.62
529.718	544.62
529.933	539.62
530.148	519.62
530.363	538.62
530.577	507.62
530.792	474.62
531.007	512.62
531.221	493.62
531.436	499.62
531.651	502.62
531.865	505.62
532.08	482.62
532.295	502.62
532.509	483.62
532.724	522.62
532.938	493.62
533.153	477.62
533.367	487.62
533.582	493.62
533.796	496.62
534.011	473.62
534.225	488.62
534.44	489.62
534.654	507.62
534.868	497.62
535.083	508.62
535.297	508.62
535.511	494.62
535.726	499.62
535.94	504.62
536.154	500.62
536.369	479.62
536.583	491.62
536.797	479.62
537.011	463.62
537.225	466.62
537.44	471.62
537.654	490.62
537.868	485.62
538.082	478.62
538.296	485.62
538.51	490.62
538.724	472.62
538.938	486.62
539.153	482.62
539.367	486.62
539.581	466.62
539.795	470.62
540.009	463.62
540.222	470.62
540.436	436.62
540.65	452.62
540.864	472.62
541.078	471.62
541.292	478.62
541.506	483.62
541.72	486.62
541.934	443.62
542.147	493.62
542.361	477.62
542.575	476.62
542.789	469.62
543.002	459.62
543.216	478.62
543.43	474.62
543.644	438.62
543.857	483.62
544.071	476.62
544.285	480.62
544.498	485.62
544.712	473.62
544.925	477.62
545.139	467.62
545.352	458.62
545.566	471.62
545.779	446.62
545.993	473.62
546.206	490.62
546.42	491.62
546.633	473.62
546.847	464.62
547.06	472.62
547.274	456.62
547.487	463.62
547.7	461.62
547.914	453.62
548.127	465.62
548.34	460.62
548.554	462.62
548.767	463.62
548.98	461.62
549.193	471.62
549.407	450.62
549.62	465.62
549.833	478.62
550.046	471.62
550.259	496.62
550.473	471.62
550.686	466.62
550.899	479.62
551.112	468.62
551.325	436.62
551.538	451.62
551.751	455.62
551.964	460.62
552.177	441.62
552.39	452.62
552.603	443.62
552.816	496.62
553.029	480.62
553.242	486.62
553.455	494.62
553.667	503.62
553.88	484.62
554.093	487.62
554.306	476.62
554.519	472.62
554.732	461.62
554.944	452.62
555.157	444.62
555.37	438.62
555.583	436.62
555.795	431.62
556.008	431.62
556.221	446.62
556.433	422.62
556.646	409.62
556.859	414.62
557.071	408.62
557.284	412.62
557.496	418.62
557.709	414.62
557.921	425.62
558.134	406.62
558.346	394.62
558.559	420.62
558.771	400.62
558.984	423.62
559.196	399.62
559.409	400.62
559.621	398.62
559.833	409.62
560.046	406.62
560.258	419.62
560.47	421.62
560.683	431.62
560.895	422.62
561.107	403.62
561.32	413.62
561.532	409.62
561.744	415.62
561.956	406.62
562.168	408.62
562.381	416.62
562.593	413.62
562.805	398.62
563.017	406.62
563.229	429.62
563.441	423.62
563.653	421.62
563.865	429.62
564.077	428.62
564.289	433.62
564.501	408.62
564.713	429.62
564.925	437.62
565.137	447.62
565.349	467.62
565.561	470.62
565.773	461.62
565.985	467.62
566.197	510.62
566.408	510.62
566.62	528.62
566.832	557.62
567.044	552.62
567.255	582.62
567.467	582.62
567.679	610.62
567.891	630.62
568.102	618.62
568.314	616.62
568.526	568.62
568.737	552.62
568.949	534.62
569.161	483.62
569.372	489.62
569.584	443.62
569.795	416.62
570.007	444.62
570.218	447.62
570.43	440.62
570.641	422.62
570.853	407.62
571.064	422.62
571.276	419.62
571.487	429.62
571.698	403.62
571.91	398.62
572.121	392.62
572.333	374.62
572.544	383.62
572.755	376.62
572.966	370.62
573.178	367.62
573.389	366.62
573.6	349.62
573.811	366.62
574.023	367.62
574.234	373.62
574.445	365.62
574.656	349.62
574.867	355.62
575.078	342.62
575.289	348.62
575.501	357.62
575.712	339.62
575.923	344.62
576.134	335.62
576.345	354.62
576.556	343.62
576.767	366.62
576.978	347.62
577.188	343.62
577.399	346.62
577.61	355.62
577.821	341.62
578.032	352.62
578.243	383.62
578.454	476.62
578.665	382.62
578.875	341.62
579.086	339.62
579.297	330.62
579.508	329.62
579.718	338.62
579.929	317.62
580.14	315.62
580.35	320.62
580.561	330.62
580.772	322.62
580.982	323.62
581.193	301.62
581.403	319.62
581.614	313.62
581.825	306.62
582.035	342.62
582.246	323.62
582.456	318.62
582.667	343.62
582.877	321.62
583.087	330.62
583.298	303.62
583.508	329.62
583.719	324.62
583.929	334.62
584.139	318.62
584.35	309.62
584.56	325.62
584.77	334.62
584.981	311.62
585.191	332.62
585.401	303.62
585.611	308.62
585.821	334.62
586.032	318.62
586.242	316.62
586.452	331.62
586.662	322.62
586.872	338.62
587.082	322.62
587.292	319.62
587.502	308.62
587.713	319.62
587.923	303.62
588.133	307.62
588.343	311.62
588.553	299.62
588.762	311.62
588.972	318.62
589.182	315.62
589.392	326.62
589.602	309.62
589.812	304.62
590.022	309.62
590.232	310.62
590.441	332.62
590.651	314.62
590.861	320.62
591.071	325.62
591.281	323.62
591.49	323.62
591.7	329.62
591.91	318.62
592.119	318.62
592.329	331.62
592.539	335.62
592.748	326.62
592.958	333.62
593.167	360.62
593.377	347.62
593.587	353.62
593.796	359.62
594.006	363.62
594.215	360.62
594.424	373.62
594.634	341.62
594.843	355.62
595.053	343.62
595.262	332.62
595.472	306.62
595.681	334.62
595.89	320.62
596.1	329.62
596.309	308.62
596.518	285.62
596.727	299.62
596.937	300.62
597.146	298.62
597.355	286.62
597.564	276.62
597.774	285.62
597.983	298.62
598.192	272.62
598.401	304.62
598.61	295.62
598.819	283.62
599.028	294.62
599.237	266.62
599.446	275.62
599.655	288.62
599.864	278.62
600.073	274.62
600.282	269.62
600.491	270.62
600.7	286.62
600.909	266.62
601.118	281.62
601.327	270.62
601.536	278.62
601.745	259.62
601.953	266.62
602.162	280.62
602.371	262.62
602.58	283.62
602.789	270.62
602.997	280.62
603.206	272.62
603.415	276.62
603.623	255.62
603.832	261.62
604.041	277.62
604.249	269.62
604.458	262.62
604.666	265.62
604.875	252.62
605.084	270.62
605.292	263.62
605.501	264.62
605.709	265.62
605.918	264.62
606.126	260.62
606.334	262.62
606.543	244.62
606.751	252.62
606.96	265.62
607.168	270.62
607.376	260.62
607.585	261.62
607.793	243.62
608.001	273.62
608.21	269.62
608.418	250.62
608.626	254.62
608.834	260.62
609.043	244.62
609.251	244.62
609.459	251.62
609.667	254.62
609.875	245.62
610.083	264.62
610.291	267.62
610.499	256.62
610.707	276.62
610.916	239.62
611.124	243.62
611.332	262.62
611.54	260.62
611.748	256.62
611.955	248.62
612.163	264.62
612.371	266.62
612.579	260.62
612.787	246.62
612.995	258.62
613.203	240.62
613.411	258.62
613.618	274.62
613.826	253.62
614.034	234.62
614.242	276.62
614.449	235.62
614.657	268.62
614.865	243.62
615.072	234.62
615.28	252.62
615.488	258.62
615.695	254.62
615.903	242.62
616.111	238.62
616.318	250.62
616.526	255.62
616.733	260.62
616.941	260.62
617.148	270.62
617.356	268.62
617.563	239.62
617.771	254.62
617.978	251.62
618.185	244.62
618.393	236.62
618.6	274.62
618.807	242.62
619.015	237.62
619.222	254.62
619.429	239.62
619.637	228.62
619.844	227.62
620.051	219.62
620.258	229.62
620.466	245.62
620.673	243.62
620.88	246.62
621.087	241.62
621.294	226.62
621.501	219.62
621.708	223.62
621.915	241.62
622.122	230.62
622.329	247.62
622.536	235.62
622.743	230.62
622.95	228.62
623.157	243.62
623.364	218.62
623.571	220.62
623.778	245.62
623.985	244.62
624.192	215.62
624.399	237.62
624.606	205.62
624.812	236.62
625.019	235.62
625.226	231.62
625.433	229.62
625.639	208.62
625.846	219.62
626.053	220.62
626.259	215.62
626.466	224.62
626.673	216.62
626.879	222.62
627.086	218.62
627.293	235.62
627.499	231.62
627.706	224.62
627.912	235.62
628.119	203.62
628.325	214.62
628.532	232.62
628.738	196.62
628.945	218.62
629.151	221.62
629.357	212.62
629.564	198.62
629.77	194.62
629.976	206.62
630.183	220.62
630.389	214.62
630.595	204.62
630.802	208.62
631.008	208.62
631.214	213.62
631.42	213.62
631.627	206.62
631.833	202.62
632.039	194.62
632.245	188.62
632.451	190.62
632.657	200.62
632.863	200.62
633.069	179.62
633.275	201.62
633.481	196.62
633.688	206.62
633.893	202.62
634.099	215.62
634.305	182.62
634.511	170.62
634.717	187.62
634.923	193.62
635.129	181.62
635.335	190.62
635.541	188.62
635.747	185.62
635.952	205.62
636.158	202.62
636.364	205.62
636.57	186.62
636.775	198.62
636.981	190.62
637.187	194.62
637.392	206.62
637.598	191.62
637.804	203.62
638.009	194.62
638.215	194.62
638.421	187.62
638.626	181.62
638.832	178.62
639.037	182.62
639.243	197.62
639.448	187.62
639.654	174.62
639.859	166.62
640.065	183.62
640.27	195.62
640.475	174.62
640.681	194.62
640.886	182.62
641.091	181.62
641.297	195.62
641.502	193.62
641.707	175.62
641.913	162.62
642.118	186.62
642.323	172.62
642.528	191.62
642.733	180.62
642.939	180.62
643.144	167.62
643.349	162.62
643.554	179.62
643.759	174.62
643.964	167.62
644.169	169.62
644.374	184.62
644.579	181.62
644.784	171.62
644.989	176.62
645.194	171.62
645.399	181.62
645.604	174.62
645.809	166.62
646.014	184.62
646.219	172.62
646.423	162.62
646.628	177.62
646.833	170.62
647.038	175.62
647.243	175.62
647.447	187.62
647.652	176.62
647.857	187.62
648.062	180.62
648.266	166.62
648.471	187.62
648.676	184.62
648.88	190.62
649.085	175.62
649.289	194.62
649.494	182.62
649.698	180.62
649.903	174.62
650.107	192.62
650.312	179.62
650.516	165.62
650.721	178.62
650.925	169.62
651.13	167.62
651.334	159.62
651.539	150.62
651.743	161.62
651.947	140.62
652.152	148.62
652.356	149.62
652.56	154.62
652.764	148.62
652.969	146.62
653.173	147.62
653.377	143.62
653.581	144.62
653.785	149.62
653.99	142.62
654.194	144.62
654.398	144.62
654.602	147.62
654.806	139.62
655.01	153.62
655.214	135.62
655.418	134.62
655.622	151.62
655.826	130.62
656.03	148.62
656.234	132.62
656.438	153.62
656.642	160.62
656.846	143.62
657.049	150.62
657.253	126.62
657.457	126.62
657.661	125.62
657.865	127.62
658.068	108.62
658.272	109.62
658.476	123.62
658.68	97.62
658.883	110.62
659.087	115.62
659.291	113.62
659.494	105.62
659.698	99.62
659.901	105.62
660.105	105.62
660.309	96.62
660.512	90.62
660.716	93.62
660.919	108.62
661.123	100.62
661.326	93.62
661.53	88.62
661.733	89.62
661.936	81.62
662.14	83.62
662.343	76.62
662.546	81.62
662.75	93.62
662.953	94.62
663.156	93.62
663.36	85.62
663.563	87.62
663.766	73.62
663.969	78.62
664.173	100.62
664.376	87.62
664.579	94.62
664.782	102.62
664.985	85.62
665.188	76.62
665.391	86.62
665.594	85.62
665.797	86.62
666	96.62
666.203	85.62
666.406	84.62
666.609	92.62
666.812	91.62
667.015	86.62
667.218	92.62
667.421	75.62
667.624	83.62
667.827	81.62
668.03	88.62
668.232	80.62
668.435	78.62
668.638	89.62
668.841	85.62
669.043	90.62
669.246	92.62
669.449	83.62
669.651	81.62
669.854	78.62
670.057	84.62
670.259	72.62
670.462	96.62
670.665	87.62
670.867	76.62
671.07	90.62
671.272	82.62
671.475	83.62
671.677	96.62
671.88	88.62
672.082	82.62
672.284	88.62
672.487	89.62
672.689	84.62
672.892	99.62
