Data from 1973.PennyLincolnUp.Lamp.En5.5.200Scan.071719.P1.Changed Mount._HRD10591_15-44-25-853.txt Node
Date: Thu Jul 18 15:44:25 EDT 2019
User: cochatt
Spectrometer: HR+D1059
Trigger mode: 1
Integration Time (sec): 1.000000E-1
Scans to average: 1
Electric dark correction enabled: true
Nonlinearity correction enabled: false
Boxcar width: 0
XAxis mode: Wavelengths
Number of Pixels in Spectrum: 2048
>>>>>Begin Spectral Data<<<<<
223.165	-4.56
223.4	-4.56
223.635	-4.56
223.869	-7.56
224.104	-19.56
224.338	-14.56
224.573	-14.56
224.808	-13.56
225.042	1.44
225.277	-3.56
225.511	3.44
225.746	-14.56
225.98	0.44
226.215	9.44
226.449	10.44
226.683	16.44
226.918	13.44
227.152	37.44
227.387	32.44
227.621	40.44
227.856	34.44
228.09	28.44
228.324	39.44
228.559	60.44
228.793	51.44
229.027	92.44
229.262	95.44
229.496	100.44
229.73	115.44
229.964	127.44
230.199	112.44
230.433	107.44
230.667	115.44
230.901	92.44
231.136	107.44
231.37	102.44
231.604	104.44
231.838	105.44
232.072	106.44
232.306	103.44
232.541	110.44
232.775	116.44
233.009	118.44
233.243	121.44
233.477	104.44
233.711	119.44
233.945	105.44
234.179	121.44
234.413	103.44
234.647	117.44
234.881	98.44
235.115	113.44
235.349	113.44
235.583	118.44
235.817	116.44
236.051	131.44
236.285	123.44
236.519	133.44
236.753	139.44
236.987	137.44
237.221	168.44
237.455	199.44
237.689	171.44
237.922	132.44
238.156	141.44
238.39	125.44
238.624	126.44
238.858	136.44
239.091	125.44
239.325	119.44
239.559	121.44
239.793	111.44
240.027	133.44
240.26	125.44
240.494	145.44
240.728	137.44
240.961	137.44
241.195	146.44
241.429	130.44
241.662	137.44
241.896	136.44
242.13	128.44
242.363	124.44
242.597	133.44
242.83	142.44
243.064	129.44
243.298	138.44
243.531	128.44
243.765	150.44
243.998	141.44
244.232	151.44
244.465	131.44
244.699	143.44
244.932	140.44
245.166	145.44
245.399	148.44
245.633	138.44
245.866	131.44
246.099	162.44
246.333	139.44
246.566	151.44
246.8	143.44
247.033	155.44
247.266	159.44
247.5	164.44
247.733	177.44
247.966	180.44
248.2	181.44
248.433	165.44
248.666	155.44
248.899	178.44
249.133	189.44
249.366	193.44
249.599	168.44
249.832	185.44
250.066	186.44
250.299	182.44
250.532	176.44
250.765	193.44
250.998	204.44
251.231	217.44
251.465	214.44
251.698	211.44
251.931	215.44
252.164	186.44
252.397	187.44
252.63	197.44
252.863	207.44
253.096	196.44
253.329	204.44
253.562	199.44
253.795	217.44
254.028	199.44
254.261	211.44
254.494	199.44
254.727	231.44
254.96	263.44
255.193	255.44
255.426	232.44
255.659	214.44
255.892	215.44
256.124	225.44
256.357	208.44
256.59	219.44
256.823	215.44
257.056	204.44
257.289	210.44
257.521	223.44
257.754	211.44
257.987	194.44
258.22	207.44
258.452	206.44
258.685	191.44
258.918	201.44
259.151	219.44
259.383	219.44
259.616	213.44
259.849	232.44
260.081	212.44
260.314	249.44
260.547	248.44
260.779	232.44
261.012	228.44
261.244	210.44
261.477	228.44
261.71	221.44
261.942	226.44
262.175	215.44
262.407	229.44
262.64	230.44
262.872	201.44
263.105	218.44
263.337	223.44
263.57	212.44
263.802	208.44
264.035	226.44
264.267	214.44
264.499	191.44
264.732	204.44
264.964	201.44
265.197	226.44
265.429	205.44
265.661	201.44
265.894	224.44
266.126	226.44
266.358	212.44
266.591	219.44
266.823	223.44
267.055	228.44
267.287	248.44
267.52	233.44
267.752	237.44
267.984	243.44
268.216	249.44
268.448	232.44
268.681	235.44
268.913	259.44
269.145	272.44
269.377	269.44
269.609	265.44
269.841	274.44
270.073	275.44
270.306	282.44
270.538	297.44
270.77	311.44
271.002	275.44
271.234	291.44
271.466	292.44
271.698	311.44
271.93	321.44
272.162	286.44
272.394	307.44
272.626	298.44
272.858	277.44
273.09	276.44
273.322	287.44
273.553	285.44
273.785	281.44
274.017	288.44
274.249	259.44
274.481	264.44
274.713	263.44
274.945	266.44
275.176	283.44
275.408	269.44
275.64	284.44
275.872	256.44
276.104	264.44
276.335	271.44
276.567	282.44
276.799	281.44
277.031	302.44
277.262	312.44
277.494	316.44
277.726	297.44
277.957	305.44
278.189	293.44
278.421	283.44
278.652	259.44
278.884	262.44
279.115	262.44
279.347	278.44
279.579	282.44
279.81	267.44
280.042	269.44
280.273	263.44
280.505	301.44
280.736	274.44
280.968	280.44
281.199	281.44
281.431	268.44
281.662	273.44
281.894	288.44
282.125	303.44
282.356	307.44
282.588	313.44
282.819	309.44
283.051	289.44
283.282	280.44
283.513	294.44
283.745	303.44
283.976	284.44
284.207	309.44
284.439	303.44
284.67	301.44
284.901	291.44
285.132	291.44
285.364	282.44
285.595	290.44
285.826	285.44
286.057	291.44
286.288	311.44
286.52	292.44
286.751	303.44
286.982	314.44
287.213	301.44
287.444	311.44
287.675	297.44
287.906	313.44
288.138	309.44
288.369	306.44
288.6	317.44
288.831	315.44
289.062	309.44
289.293	318.44
289.524	307.44
289.755	317.44
289.986	312.44
290.217	313.44
290.448	326.44
290.679	333.44
290.91	308.44
291.141	306.44
291.371	322.44
291.602	295.44
291.833	305.44
292.064	309.44
292.295	306.44
292.526	304.44
292.757	298.44
292.987	313.44
293.218	307.44
293.449	298.44
293.68	323.44
293.91	304.44
294.141	321.44
294.372	310.44
294.603	303.44
294.833	311.44
295.064	313.44
295.295	317.44
295.525	334.44
295.756	327.44
295.987	323.44
296.217	335.44
296.448	337.44
296.679	336.44
296.909	298.44
297.14	322.44
297.37	314.44
297.601	315.44
297.831	307.44
298.062	320.44
298.292	307.44
298.523	328.44
298.753	338.44
298.984	324.44
299.214	331.44
299.445	336.44
299.675	331.44
299.905	337.44
300.136	343.44
300.366	336.44
300.597	356.44
300.827	349.44
301.057	338.44
301.288	359.44
301.518	332.44
301.748	344.44
301.979	355.44
302.209	358.44
302.439	353.44
302.669	351.44
302.9	329.44
303.13	360.44
303.36	355.44
303.59	349.44
303.82	352.44
304.051	352.44
304.281	345.44
304.511	356.44
304.741	345.44
304.971	347.44
305.201	350.44
305.431	348.44
305.661	363.44
305.891	351.44
306.121	349.44
306.352	346.44
306.582	356.44
306.812	350.44
307.042	347.44
307.272	361.44
307.502	333.44
307.731	362.44
307.961	343.44
308.191	365.44
308.421	357.44
308.651	348.44
308.881	353.44
309.111	363.44
309.341	351.44
309.571	374.44
309.8	375.44
310.03	369.44
310.26	361.44
310.49	375.44
310.72	364.44
310.949	386.44
311.179	387.44
311.409	373.44
311.639	383.44
311.868	375.44
312.098	364.44
312.328	357.44
312.557	406.44
312.787	393.44
313.017	399.44
313.246	401.44
313.476	402.44
313.706	383.44
313.935	381.44
314.165	406.44
314.394	393.44
314.624	391.44
314.853	388.44
315.083	375.44
315.312	376.44
315.542	384.44
315.771	379.44
316.001	381.44
316.23	376.44
316.46	391.44
316.689	391.44
316.919	394.44
317.148	386.44
317.377	373.44
317.607	379.44
317.836	371.44
318.065	375.44
318.295	389.44
318.524	380.44
318.753	397.44
318.983	394.44
319.212	385.44
319.441	398.44
319.67	394.44
319.9	377.44
320.129	387.44
320.358	393.44
320.587	382.44
320.816	403.44
321.046	411.44
321.275	387.44
321.504	393.44
321.733	382.44
321.962	380.44
322.191	409.44
322.42	411.44
322.649	426.44
322.878	431.44
323.108	427.44
323.337	440.44
323.566	437.44
323.795	481.44
324.024	501.44
324.253	572.44
324.482	755.44
324.71	1087.44
324.939	1523.44
325.168	1325.44
325.397	729.44
325.626	537.44
325.855	480.44
326.084	493.44
326.313	472.44
326.542	452.44
326.77	479.44
326.999	540.44
327.228	697.44
327.457	979.44
327.686	1189.44
327.914	807.44
328.143	602.44
328.372	527.44
328.6	526.44
328.829	509.44
329.058	513.44
329.287	497.44
329.515	486.44
329.744	471.44
329.972	452.44
330.201	497.44
330.43	514.44
330.658	525.44
330.887	548.44
331.115	525.44
331.344	488.44
331.572	463.44
331.801	455.44
332.03	465.44
332.258	473.44
332.486	456.44
332.715	481.44
332.943	466.44
333.172	467.44
333.4	480.44
333.629	496.44
333.857	520.44
334.085	521.44
334.314	507.44
334.542	529.44
334.771	533.44
334.999	504.44
335.227	482.44
335.455	492.44
335.684	485.44
335.912	469.44
336.14	467.44
336.369	466.44
336.597	458.44
336.825	478.44
337.053	464.44
337.281	456.44
337.51	452.44
337.738	447.44
337.966	449.44
338.194	455.44
338.422	444.44
338.65	436.44
338.878	437.44
339.106	436.44
339.334	433.44
339.562	413.44
339.79	450.44
340.018	422.44
340.246	448.44
340.474	449.44
340.702	470.44
340.93	430.44
341.158	440.44
341.386	437.44
341.614	440.44
341.842	437.44
342.07	424.44
342.298	443.44
342.526	446.44
342.754	427.44
342.981	421.44
343.209	425.44
343.437	430.44
343.665	459.44
343.893	468.44
344.12	475.44
344.348	473.44
344.576	483.44
344.804	458.44
345.031	444.44
345.259	438.44
345.487	459.44
345.714	424.44
345.942	439.44
346.17	417.44
346.397	414.44
346.625	426.44
346.853	422.44
347.08	415.44
347.308	438.44
347.535	405.44
347.763	429.44
347.99	420.44
348.218	433.44
348.445	417.44
348.673	418.44
348.9	395.44
349.128	411.44
349.355	396.44
349.583	419.44
349.81	407.44
350.037	380.44
350.265	415.44
350.492	401.44
350.72	417.44
350.947	419.44
351.174	402.44
351.402	408.44
351.629	415.44
351.856	416.44
352.083	435.44
352.311	419.44
352.538	436.44
352.765	435.44
352.992	419.44
353.22	431.44
353.447	424.44
353.674	397.44
353.901	391.44
354.128	390.44
354.355	380.44
354.583	409.44
354.81	398.44
355.037	404.44
355.264	410.44
355.491	394.44
355.718	394.44
355.945	408.44
356.172	405.44
356.399	410.44
356.626	410.44
356.853	398.44
357.08	400.44
357.307	396.44
357.534	399.44
357.761	376.44
357.988	402.44
358.215	400.44
358.441	397.44
358.668	400.44
358.895	399.44
359.122	392.44
359.349	419.44
359.576	415.44
359.802	415.44
360.029	420.44
360.256	445.44
360.483	422.44
360.709	413.44
360.936	408.44
361.163	393.44
361.39	409.44
361.616	421.44
361.843	407.44
362.07	415.44
362.296	418.44
362.523	413.44
362.749	403.44
362.976	407.44
363.203	403.44
363.429	401.44
363.656	393.44
363.882	407.44
364.109	391.44
364.335	387.44
364.562	391.44
364.788	413.44
365.015	404.44
365.241	423.44
365.468	422.44
365.694	405.44
365.92	420.44
366.147	414.44
366.373	405.44
366.599	400.44
366.826	399.44
367.052	371.44
367.278	379.44
367.505	386.44
367.731	403.44
367.957	387.44
368.184	395.44
368.41	386.44
368.636	406.44
368.862	417.44
369.089	408.44
369.315	417.44
369.541	393.44
369.767	397.44
369.993	420.44
370.219	406.44
370.445	409.44
370.672	404.44
370.898	391.44
371.124	401.44
371.35	406.44
371.576	423.44
371.802	411.44
372.028	429.44
372.254	387.44
372.48	427.44
372.706	434.44
372.932	407.44
373.158	418.44
373.384	419.44
373.61	404.44
373.835	418.44
374.061	406.44
374.287	431.44
374.513	422.44
374.739	430.44
374.965	442.44
375.191	456.44
375.416	420.44
375.642	417.44
375.868	415.44
376.094	422.44
376.319	394.44
376.545	420.44
376.771	432.44
376.997	410.44
377.222	422.44
377.448	405.44
377.674	410.44
377.899	389.44
378.125	410.44
378.35	407.44
378.576	405.44
378.802	409.44
379.027	397.44
379.253	429.44
379.478	426.44
379.704	402.44
379.929	391.44
380.155	436.44
380.38	425.44
380.606	395.44
380.831	411.44
381.057	403.44
381.282	415.44
381.507	404.44
381.733	413.44
381.958	421.44
382.184	423.44
382.409	447.44
382.634	426.44
382.86	428.44
383.085	424.44
383.31	436.44
383.535	417.44
383.761	416.44
383.986	425.44
384.211	439.44
384.436	449.44
384.662	418.44
384.887	431.44
385.112	429.44
385.337	447.44
385.562	443.44
385.787	448.44
386.013	449.44
386.238	472.44
386.463	463.44
386.688	472.44
386.913	475.44
387.138	469.44
387.363	481.44
387.588	460.44
387.813	452.44
388.038	450.44
388.263	437.44
388.488	465.44
388.713	466.44
388.938	460.44
389.163	461.44
389.387	453.44
389.612	443.44
389.837	459.44
390.062	466.44
390.287	453.44
390.512	467.44
390.736	454.44
390.961	465.44
391.186	466.44
391.411	470.44
391.636	473.44
391.86	465.44
392.085	487.44
392.31	486.44
392.534	480.44
392.759	478.44
392.984	459.44
393.208	468.44
393.433	482.44
393.658	459.44
393.882	463.44
394.107	475.44
394.331	474.44
394.556	473.44
394.78	467.44
395.005	496.44
395.229	479.44
395.454	477.44
395.678	482.44
395.903	491.44
396.127	508.44
396.352	486.44
396.576	486.44
396.801	483.44
397.025	490.44
397.249	489.44
397.474	480.44
397.698	499.44
397.922	511.44
398.147	512.44
398.371	511.44
398.595	504.44
398.82	539.44
399.044	562.44
399.268	579.44
399.492	633.44
399.717	647.44
399.941	712.44
400.165	691.44
400.389	693.44
400.613	623.44
400.837	581.44
401.062	569.44
401.286	549.44
401.51	541.44
401.734	548.44
401.958	536.44
402.182	573.44
402.406	556.44
402.63	557.44
402.854	566.44
403.078	561.44
403.302	573.44
403.526	555.44
403.75	577.44
403.974	583.44
404.198	585.44
404.422	583.44
404.645	569.44
404.869	581.44
405.093	621.44
405.317	625.44
405.541	662.44
405.765	610.44
405.988	581.44
406.212	590.44
406.436	609.44
406.66	616.44
406.883	593.44
407.107	649.44
407.331	671.44
407.555	732.44
407.778	738.44
408.002	671.44
408.226	640.44
408.449	625.44
408.673	602.44
408.896	623.44
409.12	672.44
409.344	650.44
409.567	588.44
409.791	570.44
410.014	545.44
410.238	575.44
410.461	579.44
410.685	584.44
410.908	564.44
411.132	593.44
411.355	640.44
411.578	597.44
411.802	555.44
412.025	557.44
412.249	568.44
412.472	567.44
412.695	620.44
412.919	587.44
413.142	568.44
413.365	553.44
413.589	543.44
413.812	524.44
414.035	521.44
414.258	546.44
414.482	544.44
414.705	534.44
414.928	557.44
415.151	527.44
415.374	519.44
415.597	504.44
415.821	524.44
416.044	518.44
416.267	536.44
416.49	543.44
416.713	515.44
416.936	529.44
417.159	533.44
417.382	556.44
417.605	542.44
417.828	523.44
418.051	545.44
418.274	538.44
418.497	523.44
418.72	520.44
418.943	526.44
419.166	554.44
419.389	595.44
419.611	555.44
419.834	536.44
420.057	572.44
420.28	575.44
420.503	575.44
420.726	561.44
420.948	557.44
421.171	600.44
421.394	615.44
421.617	545.44
421.839	548.44
422.062	529.44
422.285	540.44
422.507	624.44
422.73	679.44
422.953	632.44
423.175	593.44
423.398	565.44
423.621	576.44
423.843	582.44
424.066	593.44
424.288	591.44
424.511	580.44
424.733	636.44
424.956	710.44
425.178	658.44
425.401	673.44
425.623	684.44
425.846	604.44
426.068	583.44
426.291	537.44
426.513	562.44
426.735	571.44
426.958	597.44
427.18	667.44
427.402	791.44
427.625	845.44
427.847	736.44
428.069	639.44
428.292	593.44
428.514	539.44
428.736	528.44
428.958	513.44
429.181	520.44
429.403	505.44
429.625	542.44
429.847	556.44
430.069	596.44
430.292	598.44
430.514	533.44
430.736	521.44
430.958	522.44
431.18	498.44
431.402	479.44
431.624	508.44
431.846	485.44
432.068	508.44
432.29	513.44
432.512	522.44
432.734	500.44
432.956	505.44
433.178	509.44
433.4	523.44
433.622	475.44
433.844	503.44
434.066	501.44
434.287	521.44
434.509	524.44
434.731	521.44
434.953	531.44
435.175	553.44
435.397	589.44
435.618	570.44
435.84	605.44
436.062	664.44
436.284	706.44
436.505	652.44
436.727	573.44
436.949	518.44
437.17	517.44
437.392	535.44
437.614	493.44
437.835	557.44
438.057	607.44
438.278	678.44
438.5	721.44
438.721	765.44
438.943	751.44
439.165	586.44
439.386	535.44
439.608	566.44
439.829	549.44
440.05	559.44
440.272	584.44
440.493	561.44
440.715	557.44
440.936	538.44
441.158	559.44
441.379	545.44
441.6	543.44
441.822	562.44
442.043	601.44
442.264	669.44
442.486	692.44
442.707	599.44
442.928	569.44
443.149	595.44
443.371	600.44
443.592	614.44
443.813	716.44
444.034	762.44
444.255	656.44
444.476	604.44
444.698	620.44
444.919	612.44
445.14	697.44
445.361	669.44
445.582	616.44
445.803	663.44
446.024	717.44
446.245	709.44
446.466	674.44
446.687	573.44
446.908	537.44
447.129	513.44
447.35	513.44
447.571	520.44
447.792	513.44
448.013	527.44
448.234	535.44
448.455	555.44
448.675	637.44
448.896	727.44
449.117	623.44
449.338	633.44
449.559	705.44
449.779	783.44
450	636.44
450.221	556.44
450.442	500.44
450.662	502.44
450.883	504.44
451.104	491.44
451.324	504.44
451.545	474.44
451.766	469.44
451.986	468.44
452.207	451.44
452.428	470.44
452.648	458.44
452.869	454.44
453.089	468.44
453.31	476.44
453.53	458.44
453.751	460.44
453.971	460.44
454.192	479.44
454.412	460.44
454.633	465.44
454.853	466.44
455.073	451.44
455.294	472.44
455.514	511.44
455.734	508.44
455.955	471.44
456.175	444.44
456.395	417.44
456.616	443.44
456.836	447.44
457.056	448.44
457.276	427.44
457.497	440.44
457.717	451.44
457.937	413.44
458.157	449.44
458.377	452.44
458.598	476.44
458.818	515.44
459.038	559.44
459.258	585.44
459.478	529.44
459.698	500.44
459.918	503.44
460.138	519.44
460.358	522.44
460.578	547.44
460.798	534.44
461.018	547.44
461.238	507.44
461.458	523.44
461.678	533.44
461.898	520.44
462.118	532.44
462.338	533.44
462.558	564.44
462.777	591.44
462.997	593.44
463.217	620.44
463.437	614.44
463.657	590.44
463.876	597.44
464.096	590.44
464.316	578.44
464.536	573.44
464.755	558.44
464.975	581.44
465.195	583.44
465.414	605.44
465.634	545.44
465.854	543.44
466.073	511.44
466.293	515.44
466.512	479.44
466.732	465.44
466.951	462.44
467.171	476.44
467.391	487.44
467.61	473.44
467.829	487.44
468.049	471.44
468.268	499.44
468.488	476.44
468.707	458.44
468.927	451.44
469.146	447.44
469.365	449.44
469.585	450.44
469.804	480.44
470.023	498.44
470.243	505.44
470.462	507.44
470.681	509.44
470.901	504.44
471.12	472.44
471.339	484.44
471.558	490.44
471.777	485.44
471.997	478.44
472.216	465.44
472.435	486.44
472.654	491.44
472.873	459.44
473.092	459.44
473.311	467.44
473.53	475.44
473.749	489.44
473.968	507.44
474.187	569.44
474.406	600.44
474.625	505.44
474.844	484.44
475.063	487.44
475.282	469.44
475.501	476.44
475.72	494.44
475.939	505.44
476.158	502.44
476.377	496.44
476.596	487.44
476.814	493.44
477.033	512.44
477.252	489.44
477.471	508.44
477.69	552.44
477.908	531.44
478.127	527.44
478.346	546.44
478.564	539.44
478.783	570.44
479.002	584.44
479.22	566.44
479.439	568.44
479.658	576.44
479.876	574.44
480.095	561.44
480.313	612.44
480.532	609.44
480.751	596.44
480.969	602.44
481.188	618.44
481.406	642.44
481.624	591.44
481.843	561.44
482.061	566.44
482.28	563.44
482.498	549.44
482.717	542.44
482.935	543.44
483.153	546.44
483.372	533.44
483.59	563.44
483.808	545.44
484.027	538.44
484.245	552.44
484.463	557.44
484.681	560.44
484.9	561.44
485.118	597.44
485.336	574.44
485.554	584.44
485.772	543.44
485.99	568.44
486.209	580.44
486.427	583.44
486.645	577.44
486.863	567.44
487.081	595.44
487.299	582.44
487.517	585.44
487.735	583.44
487.953	583.44
488.171	589.44
488.389	556.44
488.607	597.44
488.825	608.44
489.043	596.44
489.261	609.44
489.479	591.44
489.696	613.44
489.914	586.44
490.132	620.44
490.35	611.44
490.568	603.44
490.786	611.44
491.003	639.44
491.221	636.44
491.439	647.44
491.657	662.44
491.874	671.44
492.092	676.44
492.31	667.44
492.527	676.44
492.745	673.44
492.963	675.44
493.18	677.44
493.398	691.44
493.615	704.44
493.833	704.44
494.05	703.44
494.268	673.44
494.485	711.44
494.703	707.44
494.92	713.44
495.138	677.44
495.355	704.44
495.573	711.44
495.79	667.44
496.008	720.44
496.225	705.44
496.442	703.44
496.66	709.44
496.877	660.44
497.094	720.44
497.312	709.44
497.529	719.44
497.746	719.44
497.963	746.44
498.181	773.44
498.398	771.44
498.615	790.44
498.832	843.44
499.049	844.44
499.267	886.44
499.484	931.44
499.701	984.44
499.918	1045.44
500.135	1124.44
500.352	1207.44
500.569	1215.44
500.786	1245.44
501.003	1158.44
501.22	1111.44
501.437	1033.44
501.654	997.44
501.871	974.44
502.088	949.44
502.305	866.44
502.522	839.44
502.739	826.44
502.956	759.44
503.172	757.44
503.389	770.44
503.606	733.44
503.823	730.44
504.04	734.44
504.256	716.44
504.473	730.44
504.69	725.44
504.907	734.44
505.123	692.44
505.34	666.44
505.557	661.44
505.773	661.44
505.99	654.44
506.207	657.44
506.423	645.44
506.64	636.44
506.856	623.44
507.073	640.44
507.289	627.44
507.506	647.44
507.722	633.44
507.939	646.44
508.155	613.44
508.372	633.44
508.588	573.44
508.805	616.44
509.021	606.44
509.238	607.44
509.454	608.44
509.67	631.44
509.887	593.44
510.103	585.44
510.319	594.44
510.536	657.44
510.752	909.44
510.968	767.44
511.184	598.44
511.401	583.44
511.617	585.44
511.833	561.44
512.049	588.44
512.265	559.44
512.481	587.44
512.698	572.44
512.914	564.44
513.13	592.44
513.346	569.44
513.562	560.44
513.778	573.44
513.994	554.44
514.21	577.44
514.426	588.44
514.642	614.44
514.858	632.44
515.074	644.44
515.29	717.44
515.506	952.44
515.721	825.44
515.937	620.44
516.153	595.44
516.369	613.44
516.585	619.44
516.801	597.44
517.016	612.44
517.232	636.44
517.448	657.44
517.664	647.44
517.879	672.44
518.095	680.44
518.311	602.44
518.527	613.44
518.742	616.44
518.958	599.44
519.173	602.44
519.389	592.44
519.605	582.44
519.82	576.44
520.036	577.44
520.251	580.44
520.467	594.44
520.682	575.44
520.898	584.44
521.113	595.44
521.329	627.44
521.544	662.44
521.76	782.44
521.975	1166.44
522.19	1131.44
522.406	692.44
522.621	588.44
522.836	570.44
523.052	535.44
523.267	510.44
523.482	517.44
523.698	515.44
523.913	531.44
524.128	500.44
524.343	508.44
524.559	516.44
524.774	514.44
524.989	481.44
525.204	487.44
525.419	513.44
525.634	502.44
525.849	467.44
526.064	503.44
526.28	501.44
526.495	491.44
526.71	477.44
526.925	470.44
527.14	472.44
527.355	486.44
527.57	470.44
527.785	459.44
527.999	469.44
528.214	481.44
528.429	483.44
528.644	485.44
528.859	469.44
529.074	469.44
529.289	505.44
529.503	548.44
529.718	521.44
529.933	490.44
530.148	493.44
530.363	483.44
530.577	456.44
530.792	447.44
531.007	460.44
531.221	475.44
531.436	457.44
531.651	469.44
531.865	452.44
532.08	468.44
532.295	474.44
532.509	465.44
532.724	462.44
532.938	471.44
533.153	458.44
533.367	456.44
533.582	440.44
533.796	461.44
534.011	469.44
534.225	450.44
534.44	463.44
534.654	467.44
534.868	464.44
535.083	472.44
535.297	449.44
535.511	455.44
535.726	461.44
535.94	460.44
536.154	477.44
536.369	456.44
536.583	468.44
536.797	466.44
537.011	443.44
537.225	443.44
537.44	432.44
537.654	456.44
537.868	459.44
538.082	455.44
538.296	443.44
538.51	452.44
538.724	452.44
538.938	441.44
539.153	459.44
539.367	457.44
539.581	435.44
539.795	423.44
540.009	445.44
540.222	445.44
540.436	449.44
540.65	449.44
540.864	420.44
541.078	457.44
541.292	467.44
541.506	451.44
541.72	442.44
541.934	450.44
542.147	470.44
542.361	450.44
542.575	461.44
542.789	435.44
543.002	431.44
543.216	428.44
543.43	438.44
543.644	434.44
543.857	436.44
544.071	476.44
544.285	448.44
544.498	437.44
544.712	440.44
544.925	438.44
545.139	441.44
545.352	416.44
545.566	435.44
545.779	458.44
545.993	449.44
546.206	472.44
546.42	444.44
546.633	441.44
546.847	449.44
547.06	450.44
547.274	455.44
547.487	433.44
547.7	447.44
547.914	439.44
548.127	450.44
548.34	451.44
548.554	462.44
548.767	431.44
548.98	443.44
549.193	436.44
549.407	460.44
549.62	441.44
549.833	449.44
550.046	443.44
550.259	451.44
550.473	429.44
550.686	437.44
550.899	427.44
551.112	437.44
551.325	433.44
551.538	457.44
551.751	431.44
551.964	424.44
552.177	436.44
552.39	404.44
552.603	426.44
552.816	439.44
553.029	438.44
553.242	451.44
553.455	456.44
553.667	452.44
553.88	450.44
554.093	451.44
554.306	455.44
554.519	426.44
554.732	426.44
554.944	425.44
555.157	413.44
555.37	418.44
555.583	414.44
555.795	421.44
556.008	392.44
556.221	403.44
556.433	423.44
556.646	414.44
556.859	409.44
557.071	396.44
557.284	402.44
557.496	396.44
557.709	403.44
557.921	375.44
558.134	392.44
558.346	396.44
558.559	390.44
558.771	386.44
558.984	373.44
559.196	374.44
559.409	415.44
559.621	378.44
559.833	375.44
560.046	380.44
560.258	381.44
560.47	391.44
560.683	391.44
560.895	389.44
561.107	393.44
561.32	375.44
561.532	377.44
561.744	364.44
561.956	395.44
562.168	387.44
562.381	381.44
562.593	380.44
562.805	382.44
563.017	397.44
563.229	395.44
563.441	387.44
563.653	393.44
563.865	407.44
564.077	401.44
564.289	410.44
564.501	389.44
564.713	399.44
564.925	417.44
565.137	434.44
565.349	432.44
565.561	412.44
565.773	462.44
565.985	452.44
566.197	444.44
566.408	482.44
566.62	486.44
566.832	528.44
567.044	551.44
567.255	529.44
567.467	532.44
567.679	551.44
567.891	579.44
568.102	594.44
568.314	544.44
568.526	549.44
568.737	532.44
568.949	487.44
569.161	470.44
569.372	431.44
569.584	425.44
569.795	418.44
570.007	429.44
570.218	434.44
570.43	423.44
570.641	387.44
570.853	394.44
571.064	400.44
571.276	392.44
571.487	371.44
571.698	373.44
571.91	392.44
572.121	373.44
572.333	369.44
572.544	349.44
572.755	365.44
572.966	347.44
573.178	355.44
573.389	369.44
573.6	344.44
573.811	343.44
574.023	328.44
574.234	332.44
574.445	322.44
574.656	334.44
574.867	341.44
575.078	342.44
575.289	346.44
575.501	320.44
575.712	351.44
575.923	332.44
576.134	333.44
576.345	339.44
576.556	315.44
576.767	340.44
576.978	341.44
577.188	324.44
577.399	312.44
577.61	343.44
577.821	329.44
578.032	321.44
578.243	356.44
578.454	468.44
578.665	372.44
578.875	327.44
579.086	305.44
579.297	318.44
579.508	317.44
579.718	300.44
579.929	316.44
580.14	299.44
580.35	303.44
580.561	297.44
580.772	295.44
580.982	305.44
581.193	320.44
581.403	310.44
581.614	306.44
581.825	304.44
582.035	316.44
582.246	311.44
582.456	318.44
582.667	279.44
582.877	290.44
583.087	308.44
583.298	307.44
583.508	300.44
583.719	303.44
583.929	310.44
584.139	308.44
584.35	299.44
584.56	297.44
584.77	292.44
584.981	285.44
585.191	306.44
585.401	300.44
585.611	293.44
585.821	293.44
586.032	314.44
586.242	295.44
586.452	289.44
586.662	298.44
586.872	277.44
587.082	299.44
587.292	286.44
587.502	281.44
587.713	303.44
587.923	287.44
588.133	295.44
588.343	295.44
588.553	278.44
588.762	296.44
588.972	300.44
589.182	323.44
589.392	306.44
589.602	307.44
589.812	305.44
590.022	279.44
590.232	289.44
590.441	299.44
590.651	296.44
590.861	304.44
591.071	301.44
591.281	311.44
591.49	309.44
591.7	315.44
591.91	307.44
592.119	303.44
592.329	301.44
592.539	329.44
592.748	320.44
592.958	339.44
593.167	323.44
593.377	323.44
593.587	351.44
593.796	339.44
594.006	344.44
594.215	338.44
594.424	330.44
594.634	335.44
594.843	326.44
595.053	317.44
595.262	336.44
595.472	309.44
595.681	289.44
595.89	288.44
596.1	298.44
596.309	290.44
596.518	282.44
596.727	281.44
596.937	295.44
597.146	277.44
597.355	290.44
597.564	262.44
597.774	291.44
597.983	265.44
598.192	269.44
598.401	267.44
598.61	281.44
598.819	264.44
599.028	261.44
599.237	255.44
599.446	271.44
599.655	269.44
599.864	284.44
600.073	245.44
600.282	264.44
600.491	258.44
600.7	279.44
600.909	260.44
601.118	263.44
601.327	274.44
601.536	257.44
601.745	268.44
601.953	249.44
602.162	264.44
602.371	244.44
602.58	243.44
602.789	257.44
602.997	261.44
603.206	242.44
603.415	255.44
603.623	255.44
603.832	265.44
604.041	253.44
604.249	257.44
604.458	226.44
604.666	243.44
604.875	232.44
605.084	249.44
605.292	233.44
605.501	244.44
605.709	241.44
605.918	253.44
606.126	256.44
606.334	238.44
606.543	241.44
606.751	253.44
606.96	239.44
607.168	259.44
607.376	230.44
607.585	240.44
607.793	251.44
608.001	253.44
608.21	231.44
608.418	247.44
608.626	234.44
608.834	247.44
609.043	255.44
609.251	255.44
609.459	240.44
609.667	247.44
609.875	244.44
610.083	236.44
610.291	243.44
610.499	229.44
610.707	229.44
610.916	244.44
611.124	244.44
611.332	252.44
611.54	244.44
611.748	236.44
611.955	240.44
612.163	239.44
612.371	242.44
612.579	254.44
612.787	220.44
612.995	236.44
613.203	243.44
613.411	240.44
613.618	233.44
613.826	223.44
614.034	247.44
614.242	232.44
614.449	239.44
614.657	214.44
614.865	230.44
615.072	230.44
615.28	240.44
615.488	233.44
615.695	226.44
615.903	257.44
616.111	248.44
616.318	220.44
616.526	255.44
616.733	240.44
616.941	233.44
617.148	243.44
617.356	239.44
617.563	227.44
617.771	225.44
617.978	244.44
618.185	244.44
618.393	236.44
618.6	232.44
618.807	229.44
619.015	246.44
619.222	221.44
619.429	233.44
619.637	235.44
619.844	219.44
620.051	225.44
620.258	218.44
620.466	206.44
620.673	214.44
620.88	229.44
621.087	215.44
621.294	218.44
621.501	218.44
621.708	228.44
621.915	208.44
622.122	226.44
622.329	227.44
622.536	217.44
622.743	234.44
622.95	221.44
623.157	217.44
623.364	230.44
623.571	220.44
623.778	223.44
623.985	217.44
624.192	218.44
624.399	209.44
624.606	215.44
624.812	211.44
625.019	209.44
625.226	209.44
625.433	228.44
625.639	219.44
625.846	205.44
626.053	203.44
626.259	198.44
626.466	205.44
626.673	209.44
626.879	216.44
627.086	204.44
627.293	202.44
627.499	213.44
627.706	225.44
627.912	192.44
628.119	209.44
628.325	196.44
628.532	221.44
628.738	199.44
628.945	199.44
629.151	213.44
629.357	200.44
629.564	204.44
629.77	200.44
629.976	209.44
630.183	208.44
630.389	184.44
630.595	194.44
630.802	205.44
631.008	189.44
631.214	189.44
631.42	195.44
631.627	210.44
631.833	187.44
632.039	201.44
632.245	201.44
632.451	200.44
632.657	215.44
632.863	188.44
633.069	188.44
633.275	181.44
633.481	186.44
633.688	194.44
633.893	183.44
634.099	191.44
634.305	198.44
634.511	184.44
634.717	203.44
634.923	198.44
635.129	184.44
635.335	183.44
635.541	188.44
635.747	185.44
635.952	179.44
636.158	169.44
636.364	182.44
636.57	181.44
636.775	196.44
636.981	165.44
637.187	173.44
637.392	183.44
637.598	185.44
637.804	160.44
638.009	172.44
638.215	181.44
638.421	167.44
638.626	183.44
638.832	179.44
639.037	171.44
639.243	182.44
639.448	172.44
639.654	182.44
639.859	170.44
640.065	170.44
640.27	191.44
640.475	174.44
640.681	167.44
640.886	182.44
641.091	186.44
641.297	173.44
641.502	168.44
641.707	170.44
641.913	169.44
642.118	190.44
642.323	159.44
642.528	174.44
642.733	165.44
642.939	175.44
643.144	166.44
643.349	187.44
643.554	155.44
643.759	161.44
643.964	170.44
644.169	167.44
644.374	166.44
644.579	175.44
644.784	164.44
644.989	159.44
645.194	175.44
645.399	167.44
645.604	164.44
645.809	177.44
646.014	165.44
646.219	172.44
646.423	156.44
646.628	165.44
646.833	180.44
647.038	154.44
647.243	157.44
647.447	187.44
647.652	169.44
647.857	183.44
648.062	177.44
648.266	176.44
648.471	171.44
648.676	165.44
648.88	179.44
649.085	175.44
649.289	162.44
649.494	157.44
649.698	177.44
649.903	167.44
650.107	179.44
650.312	176.44
650.516	152.44
650.721	164.44
650.925	171.44
651.13	153.44
651.334	151.44
651.539	160.44
651.743	153.44
651.947	147.44
652.152	139.44
652.356	161.44
652.56	127.44
652.764	133.44
652.969	150.44
653.173	155.44
653.377	143.44
653.581	139.44
653.785	148.44
653.99	155.44
654.194	144.44
654.398	133.44
654.602	154.44
654.806	139.44
655.01	139.44
655.214	146.44
655.418	136.44
655.622	134.44
655.826	142.44
656.03	143.44
656.234	138.44
656.438	135.44
656.642	129.44
656.846	129.44
657.049	131.44
657.253	136.44
657.457	125.44
657.661	124.44
657.865	118.44
658.068	112.44
658.272	120.44
658.476	112.44
658.68	108.44
658.883	94.44
659.087	108.44
659.291	100.44
659.494	104.44
659.698	124.44
659.901	101.44
660.105	96.44
660.309	107.44
660.512	99.44
660.716	108.44
660.919	91.44
661.123	81.44
661.326	105.44
661.53	88.44
661.733	87.44
661.936	95.44
662.14	80.44
662.343	83.44
662.546	90.44
662.75	89.44
662.953	81.44
663.156	81.44
663.36	96.44
663.563	75.44
663.766	98.44
663.969	75.44
664.173	93.44
664.376	84.44
664.579	82.44
664.782	89.44
664.985	87.44
665.188	80.44
665.391	85.44
665.594	88.44
665.797	90.44
666	87.44
666.203	76.44
666.406	79.44
666.609	64.44
666.812	77.44
667.015	77.44
667.218	81.44
667.421	68.44
667.624	90.44
667.827	85.44
668.03	76.44
668.232	62.44
668.435	81.44
668.638	91.44
668.841	88.44
669.043	79.44
669.246	75.44
669.449	80.44
669.651	74.44
669.854	81.44
670.057	73.44
670.259	71.44
670.462	76.44
670.665	82.44
670.867	77.44
671.07	71.44
671.272	80.44
671.475	83.44
671.677	75.44
671.88	86.44
672.082	90.44
672.284	80.44
672.487	89.44
672.689	82.44
672.892	85.44
