Data from 1974.PennyLincolnUp.Lamp.En5.5.200Scan.071719.P1.Changed Mount._HRD10591_15-52-50-856.txt Node
Date: Thu Jul 18 15:52:50 EDT 2019
User: cochatt
Spectrometer: HR+D1059
Trigger mode: 1
Integration Time (sec): 1.000000E-1
Scans to average: 1
Electric dark correction enabled: true
Nonlinearity correction enabled: false
Boxcar width: 0
XAxis mode: Wavelengths
Number of Pixels in Spectrum: 2048
>>>>>Begin Spectral Data<<<<<
223.165	-10.56
223.4	-10.56
223.635	-10.56
223.869	-24.56
224.104	-9.56
224.338	-5.56
224.573	-10.56
224.808	-5.56
225.042	1.44
225.277	-7.56
225.511	-18.56
225.746	-1.56
225.98	13.44
226.215	6.44
226.449	1.44
226.683	26.44
226.918	22.44
227.152	22.44
227.387	41.44
227.621	38.44
227.856	45.44
228.09	35.44
228.324	41.44
228.559	41.44
228.793	68.44
229.027	102.44
229.262	108.44
229.496	115.44
229.73	130.44
229.964	163.44
230.199	124.44
230.433	130.44
230.667	116.44
230.901	126.44
231.136	116.44
231.37	123.44
231.604	122.44
231.838	109.44
232.072	103.44
232.306	107.44
232.541	105.44
232.775	110.44
233.009	108.44
233.243	128.44
233.477	116.44
233.711	117.44
233.945	124.44
234.179	113.44
234.413	96.44
234.647	112.44
234.881	106.44
235.115	122.44
235.349	108.44
235.583	137.44
235.817	119.44
236.051	124.44
236.285	126.44
236.519	120.44
236.753	138.44
236.987	142.44
237.221	170.44
237.455	239.44
237.689	199.44
237.922	149.44
238.156	132.44
238.39	148.44
238.624	125.44
238.858	125.44
239.091	133.44
239.325	149.44
239.559	127.44
239.793	122.44
240.027	133.44
240.26	147.44
240.494	178.44
240.728	159.44
240.961	157.44
241.195	150.44
241.429	146.44
241.662	138.44
241.896	141.44
242.13	140.44
242.363	124.44
242.597	132.44
242.83	146.44
243.064	132.44
243.298	139.44
243.531	139.44
243.765	149.44
243.998	167.44
244.232	154.44
244.465	142.44
244.699	135.44
244.932	153.44
245.166	168.44
245.399	151.44
245.633	157.44
245.866	154.44
246.099	159.44
246.333	149.44
246.566	161.44
246.8	173.44
247.033	165.44
247.266	174.44
247.5	176.44
247.733	175.44
247.966	180.44
248.2	184.44
248.433	185.44
248.666	188.44
248.899	196.44
249.133	195.44
249.366	209.44
249.599	220.44
249.832	199.44
250.066	204.44
250.299	214.44
250.532	200.44
250.765	220.44
250.998	214.44
251.231	240.44
251.465	227.44
251.698	196.44
251.931	209.44
252.164	198.44
252.397	201.44
252.63	207.44
252.863	220.44
253.096	222.44
253.329	248.44
253.562	240.44
253.795	224.44
254.028	224.44
254.261	236.44
254.494	245.44
254.727	268.44
254.96	301.44
255.193	285.44
255.426	275.44
255.659	254.44
255.892	260.44
256.124	252.44
256.357	245.44
256.59	244.44
256.823	217.44
257.056	225.44
257.289	221.44
257.521	222.44
257.754	242.44
257.987	217.44
258.22	240.44
258.452	210.44
258.685	216.44
258.918	210.44
259.151	222.44
259.383	237.44
259.616	220.44
259.849	243.44
260.081	258.44
260.314	262.44
260.547	302.44
260.779	270.44
261.012	276.44
261.244	231.44
261.477	223.44
261.71	236.44
261.942	232.44
262.175	244.44
262.407	234.44
262.64	219.44
262.872	214.44
263.105	205.44
263.337	218.44
263.57	233.44
263.802	225.44
264.035	235.44
264.267	230.44
264.499	212.44
264.732	232.44
264.964	232.44
265.197	227.44
265.429	227.44
265.661	230.44
265.894	230.44
266.126	228.44
266.358	229.44
266.591	259.44
266.823	243.44
267.055	237.44
267.287	250.44
267.52	230.44
267.752	254.44
267.984	255.44
268.216	227.44
268.448	262.44
268.681	248.44
268.913	268.44
269.145	275.44
269.377	292.44
269.609	293.44
269.841	274.44
270.073	287.44
270.306	310.44
270.538	344.44
270.77	331.44
271.002	318.44
271.234	316.44
271.466	327.44
271.698	328.44
271.93	334.44
272.162	337.44
272.394	328.44
272.626	314.44
272.858	306.44
273.09	291.44
273.322	286.44
273.553	270.44
273.785	287.44
274.017	279.44
274.249	282.44
274.481	268.44
274.713	281.44
274.945	291.44
275.176	278.44
275.408	281.44
275.64	274.44
275.872	275.44
276.104	292.44
276.335	267.44
276.567	306.44
276.799	312.44
277.031	311.44
277.262	322.44
277.494	352.44
277.726	320.44
277.957	336.44
278.189	296.44
278.421	288.44
278.652	294.44
278.884	284.44
279.115	287.44
279.347	283.44
279.579	283.44
279.81	277.44
280.042	295.44
280.273	290.44
280.505	297.44
280.736	304.44
280.968	280.44
281.199	284.44
281.431	282.44
281.662	289.44
281.894	300.44
282.125	291.44
282.356	284.44
282.588	329.44
282.819	342.44
283.051	306.44
283.282	300.44
283.513	301.44
283.745	322.44
283.976	305.44
284.207	329.44
284.439	310.44
284.67	320.44
284.901	311.44
285.132	294.44
285.364	318.44
285.595	312.44
285.826	304.44
286.057	301.44
286.288	298.44
286.52	294.44
286.751	312.44
286.982	298.44
287.213	294.44
287.444	341.44
287.675	309.44
287.906	313.44
288.138	329.44
288.369	317.44
288.6	340.44
288.831	342.44
289.062	336.44
289.293	333.44
289.524	306.44
289.755	326.44
289.986	335.44
290.217	329.44
290.448	305.44
290.679	316.44
290.91	318.44
291.141	325.44
291.371	322.44
291.602	311.44
291.833	317.44
292.064	305.44
292.295	321.44
292.526	320.44
292.757	321.44
292.987	305.44
293.218	328.44
293.449	326.44
293.68	328.44
293.91	320.44
294.141	300.44
294.372	321.44
294.603	323.44
294.833	322.44
295.064	315.44
295.295	326.44
295.525	315.44
295.756	328.44
295.987	328.44
296.217	343.44
296.448	341.44
296.679	334.44
296.909	324.44
297.14	337.44
297.37	352.44
297.601	342.44
297.831	349.44
298.062	339.44
298.292	333.44
298.523	334.44
298.753	351.44
298.984	329.44
299.214	338.44
299.445	352.44
299.675	347.44
299.905	365.44
300.136	344.44
300.366	350.44
300.597	343.44
300.827	346.44
301.057	352.44
301.288	359.44
301.518	348.44
301.748	358.44
301.979	355.44
302.209	362.44
302.439	368.44
302.669	360.44
302.9	353.44
303.13	361.44
303.36	349.44
303.59	352.44
303.82	370.44
304.051	384.44
304.281	381.44
304.511	364.44
304.741	347.44
304.971	371.44
305.201	351.44
305.431	353.44
305.661	350.44
305.891	376.44
306.121	368.44
306.352	373.44
306.582	354.44
306.812	358.44
307.042	373.44
307.272	362.44
307.502	357.44
307.731	350.44
307.961	355.44
308.191	363.44
308.421	342.44
308.651	372.44
308.881	380.44
309.111	379.44
309.341	388.44
309.571	378.44
309.8	404.44
310.03	395.44
310.26	377.44
310.49	405.44
310.72	406.44
310.949	414.44
311.179	447.44
311.409	410.44
311.639	390.44
311.868	405.44
312.098	406.44
312.328	414.44
312.557	423.44
312.787	416.44
313.017	437.44
313.246	416.44
313.476	416.44
313.706	406.44
313.935	424.44
314.165	449.44
314.394	419.44
314.624	424.44
314.853	422.44
315.083	406.44
315.312	420.44
315.542	400.44
315.771	404.44
316.001	402.44
316.23	391.44
316.46	403.44
316.689	404.44
316.919	428.44
317.148	417.44
317.377	420.44
317.607	428.44
317.836	403.44
318.065	408.44
318.295	407.44
318.524	422.44
318.753	409.44
318.983	420.44
319.212	408.44
319.441	388.44
319.67	405.44
319.9	423.44
320.129	407.44
320.358	413.44
320.587	434.44
320.816	424.44
321.046	413.44
321.275	422.44
321.504	444.44
321.733	418.44
321.962	436.44
322.191	452.44
322.42	461.44
322.649	454.44
322.878	457.44
323.108	475.44
323.337	484.44
323.566	513.44
323.795	527.44
324.024	540.44
324.253	630.44
324.482	841.44
324.71	1292.44
324.939	1882.44
325.168	1717.44
325.397	871.44
325.626	618.44
325.855	576.44
326.084	513.44
326.313	504.44
326.542	489.44
326.77	538.44
326.999	616.44
327.228	809.44
327.457	1149.44
327.686	1442.44
327.914	1004.44
328.143	674.44
328.372	590.44
328.6	569.44
328.829	553.44
329.058	553.44
329.287	577.44
329.515	539.44
329.744	534.44
329.972	509.44
330.201	528.44
330.43	581.44
330.658	584.44
330.887	607.44
331.115	573.44
331.344	531.44
331.572	519.44
331.801	505.44
332.03	514.44
332.258	482.44
332.486	504.44
332.715	496.44
332.943	508.44
333.172	475.44
333.4	500.44
333.629	536.44
333.857	535.44
334.085	536.44
334.314	553.44
334.542	554.44
334.771	580.44
334.999	545.44
335.227	532.44
335.455	506.44
335.684	498.44
335.912	487.44
336.14	478.44
336.369	496.44
336.597	491.44
336.825	510.44
337.053	484.44
337.281	492.44
337.51	482.44
337.738	489.44
337.966	502.44
338.194	486.44
338.422	503.44
338.65	478.44
338.878	484.44
339.106	464.44
339.334	488.44
339.562	483.44
339.79	452.44
340.018	476.44
340.246	458.44
340.474	469.44
340.702	469.44
340.93	474.44
341.158	469.44
341.386	482.44
341.614	487.44
341.842	475.44
342.07	470.44
342.298	468.44
342.526	474.44
342.754	472.44
342.981	461.44
343.209	480.44
343.437	493.44
343.665	491.44
343.893	489.44
344.12	500.44
344.348	510.44
344.576	486.44
344.804	493.44
345.031	474.44
345.259	478.44
345.487	489.44
345.714	484.44
345.942	486.44
346.17	442.44
346.397	477.44
346.625	460.44
346.853	459.44
347.08	443.44
347.308	460.44
347.535	448.44
347.763	442.44
347.99	453.44
348.218	473.44
348.445	469.44
348.673	450.44
348.9	455.44
349.128	450.44
349.355	438.44
349.583	439.44
349.81	445.44
350.037	457.44
350.265	434.44
350.492	437.44
350.72	449.44
350.947	455.44
351.174	443.44
351.402	469.44
351.629	451.44
351.856	476.44
352.083	462.44
352.311	455.44
352.538	455.44
352.765	463.44
352.992	480.44
353.22	446.44
353.447	452.44
353.674	466.44
353.901	445.44
354.128	448.44
354.355	443.44
354.583	460.44
354.81	428.44
355.037	432.44
355.264	446.44
355.491	442.44
355.718	448.44
355.945	424.44
356.172	404.44
356.399	451.44
356.626	430.44
356.853	442.44
357.08	426.44
357.307	449.44
357.534	424.44
357.761	422.44
357.988	453.44
358.215	433.44
358.441	433.44
358.668	422.44
358.895	454.44
359.122	459.44
359.349	442.44
359.576	442.44
359.802	485.44
360.029	493.44
360.256	521.44
360.483	504.44
360.709	489.44
360.936	450.44
361.163	457.44
361.39	468.44
361.616	474.44
361.843	476.44
362.07	478.44
362.296	470.44
362.523	444.44
362.749	452.44
362.976	470.44
363.203	438.44
363.429	430.44
363.656	448.44
363.882	460.44
364.109	438.44
364.335	445.44
364.562	425.44
364.788	457.44
365.015	453.44
365.241	451.44
365.468	434.44
365.694	457.44
365.92	462.44
366.147	453.44
366.373	467.44
366.599	441.44
366.826	456.44
367.052	437.44
367.278	442.44
367.505	424.44
367.731	445.44
367.957	452.44
368.184	452.44
368.41	458.44
368.636	468.44
368.862	450.44
369.089	451.44
369.315	444.44
369.541	451.44
369.767	457.44
369.993	442.44
370.219	471.44
370.445	458.44
370.672	455.44
370.898	475.44
371.124	468.44
371.35	491.44
371.576	459.44
371.802	477.44
372.028	453.44
372.254	459.44
372.48	465.44
372.706	483.44
372.932	472.44
373.158	469.44
373.384	467.44
373.61	449.44
373.835	480.44
374.061	446.44
374.287	479.44
374.513	459.44
374.739	496.44
374.965	479.44
375.191	497.44
375.416	469.44
375.642	461.44
375.868	486.44
376.094	462.44
376.319	467.44
376.545	445.44
376.771	461.44
376.997	474.44
377.222	452.44
377.448	450.44
377.674	480.44
377.899	464.44
378.125	459.44
378.35	461.44
378.576	443.44
378.802	438.44
379.027	471.44
379.253	466.44
379.478	456.44
379.704	496.44
379.929	462.44
380.155	464.44
380.38	470.44
380.606	454.44
380.831	469.44
381.057	456.44
381.282	457.44
381.507	467.44
381.733	465.44
381.958	466.44
382.184	475.44
382.409	463.44
382.634	469.44
382.86	460.44
383.085	470.44
383.31	470.44
383.535	483.44
383.761	504.44
383.986	482.44
384.211	488.44
384.436	486.44
384.662	484.44
384.887	512.44
385.112	494.44
385.337	524.44
385.562	510.44
385.787	499.44
386.013	544.44
386.238	506.44
386.463	511.44
386.688	532.44
386.913	492.44
387.138	507.44
387.363	515.44
387.588	509.44
387.813	527.44
388.038	519.44
388.263	537.44
388.488	515.44
388.713	518.44
388.938	535.44
389.163	504.44
389.387	527.44
389.612	518.44
389.837	510.44
390.062	525.44
390.287	529.44
390.512	511.44
390.736	520.44
390.961	531.44
391.186	508.44
391.411	525.44
391.636	506.44
391.86	549.44
392.085	555.44
392.31	537.44
392.534	554.44
392.759	534.44
392.984	533.44
393.208	550.44
393.433	521.44
393.658	514.44
393.882	522.44
394.107	514.44
394.331	524.44
394.556	545.44
394.78	528.44
395.005	519.44
395.229	531.44
395.454	556.44
395.678	544.44
395.903	560.44
396.127	588.44
396.352	587.44
396.576	550.44
396.801	555.44
397.025	563.44
397.249	546.44
397.474	541.44
397.698	560.44
397.922	558.44
398.147	562.44
398.371	596.44
398.595	616.44
398.82	610.44
399.044	627.44
399.268	640.44
399.492	688.44
399.717	712.44
399.941	757.44
400.165	739.44
400.389	780.44
400.613	679.44
400.837	639.44
401.062	613.44
401.286	615.44
401.51	632.44
401.734	614.44
401.958	584.44
402.182	620.44
402.406	605.44
402.63	609.44
402.854	646.44
403.078	632.44
403.302	614.44
403.526	655.44
403.75	625.44
403.974	655.44
404.198	640.44
404.422	617.44
404.645	621.44
404.869	656.44
405.093	658.44
405.317	713.44
405.541	745.44
405.765	693.44
405.988	658.44
406.212	644.44
406.436	673.44
406.66	692.44
406.883	668.44
407.107	725.44
407.331	757.44
407.555	844.44
407.778	832.44
408.002	758.44
408.226	717.44
408.449	674.44
408.673	669.44
408.896	716.44
409.12	747.44
409.344	708.44
409.567	664.44
409.791	640.44
410.014	635.44
410.238	626.44
410.461	641.44
410.685	638.44
410.908	659.44
411.132	690.44
411.355	712.44
411.578	673.44
411.802	643.44
412.025	646.44
412.249	637.44
412.472	646.44
412.695	700.44
412.919	692.44
413.142	624.44
413.365	627.44
413.589	632.44
413.812	624.44
414.035	611.44
414.258	600.44
414.482	595.44
414.705	604.44
414.928	604.44
415.151	574.44
415.374	599.44
415.597	602.44
415.821	594.44
416.044	593.44
416.267	586.44
416.49	594.44
416.713	590.44
416.936	598.44
417.159	582.44
417.382	623.44
417.605	588.44
417.828	626.44
418.051	633.44
418.274	628.44
418.497	585.44
418.72	590.44
418.943	599.44
419.166	634.44
419.389	658.44
419.611	673.44
419.834	638.44
420.057	633.44
420.28	622.44
420.503	632.44
420.726	596.44
420.948	636.44
421.171	674.44
421.394	704.44
421.617	670.44
421.839	596.44
422.062	622.44
422.285	630.44
422.507	662.44
422.73	758.44
422.953	753.44
423.175	680.44
423.398	664.44
423.621	665.44
423.843	680.44
424.066	672.44
424.288	665.44
424.511	669.44
424.733	759.44
424.956	850.44
425.178	802.44
425.401	791.44
425.623	816.44
425.846	715.44
426.068	644.44
426.291	655.44
426.513	647.44
426.735	653.44
426.958	691.44
427.18	782.44
427.402	915.44
427.625	981.44
427.847	844.44
428.069	757.44
428.292	695.44
428.514	641.44
428.736	641.44
428.958	609.44
429.181	611.44
429.403	608.44
429.625	600.44
429.847	656.44
430.069	715.44
430.292	717.44
430.514	613.44
430.736	612.44
430.958	579.44
431.18	587.44
431.402	604.44
431.624	572.44
431.846	564.44
432.068	582.44
432.29	590.44
432.512	570.44
432.734	607.44
432.956	580.44
433.178	549.44
433.4	592.44
433.622	601.44
433.844	574.44
434.066	589.44
434.287	584.44
434.509	606.44
434.731	626.44
434.953	598.44
435.175	628.44
435.397	658.44
435.618	657.44
435.84	692.44
436.062	802.44
436.284	843.44
436.505	727.44
436.727	632.44
436.949	615.44
437.17	624.44
437.392	608.44
437.614	563.44
437.835	642.44
438.057	720.44
438.278	842.44
438.5	846.44
438.721	889.44
438.943	882.44
439.165	705.44
439.386	651.44
439.608	670.44
439.829	626.44
440.05	671.44
440.272	729.44
440.493	686.44
440.715	638.44
440.936	621.44
441.158	605.44
441.379	630.44
441.6	631.44
441.822	631.44
442.043	700.44
442.264	790.44
442.486	835.44
442.707	715.44
442.928	696.44
443.149	680.44
443.371	687.44
443.592	718.44
443.813	830.44
444.034	884.44
444.255	772.44
444.476	692.44
444.698	678.44
444.919	672.44
445.14	796.44
445.361	718.44
445.582	722.44
445.803	752.44
446.024	854.44
446.245	885.44
446.466	790.44
446.687	685.44
446.908	657.44
447.129	626.44
447.35	601.44
447.571	610.44
447.792	577.44
448.013	581.44
448.234	595.44
448.455	677.44
448.675	781.44
448.896	879.44
449.117	775.44
449.338	730.44
449.559	824.44
449.779	968.44
450	769.44
450.221	642.44
450.442	608.44
450.662	582.44
450.883	569.44
451.104	583.44
451.324	564.44
451.545	568.44
451.766	544.44
451.986	555.44
452.207	502.44
452.428	519.44
452.648	530.44
452.869	542.44
453.089	550.44
453.31	569.44
453.53	559.44
453.751	520.44
453.971	538.44
454.192	553.44
454.412	539.44
454.633	520.44
454.853	532.44
455.073	523.44
455.294	549.44
455.514	614.44
455.734	608.44
455.955	529.44
456.175	513.44
456.395	530.44
456.616	506.44
456.836	496.44
457.056	502.44
457.276	501.44
457.497	521.44
457.717	498.44
457.937	514.44
458.157	523.44
458.377	532.44
458.598	534.44
458.818	606.44
459.038	660.44
459.258	699.44
459.478	645.44
459.698	580.44
459.918	561.44
460.138	568.44
460.358	601.44
460.578	589.44
460.798	604.44
461.018	614.44
461.238	589.44
461.458	624.44
461.678	584.44
461.898	588.44
462.118	603.44
462.338	627.44
462.558	625.44
462.777	663.44
462.997	673.44
463.217	680.44
463.437	694.44
463.657	676.44
463.876	665.44
464.096	653.44
464.316	636.44
464.536	640.44
464.755	661.44
464.975	652.44
465.195	674.44
465.414	707.44
465.634	644.44
465.854	626.44
466.073	597.44
466.293	585.44
466.512	562.44
466.732	556.44
466.951	563.44
467.171	568.44
467.391	565.44
467.61	557.44
467.829	543.44
468.049	553.44
468.268	557.44
468.488	541.44
468.707	538.44
468.927	529.44
469.146	545.44
469.365	543.44
469.585	516.44
469.804	549.44
470.023	576.44
470.243	546.44
470.462	555.44
470.681	593.44
470.901	587.44
471.12	579.44
471.339	542.44
471.558	582.44
471.777	563.44
471.997	557.44
472.216	577.44
472.435	583.44
472.654	567.44
472.873	545.44
473.092	558.44
473.311	544.44
473.53	562.44
473.749	585.44
473.968	613.44
474.187	703.44
474.406	725.44
474.625	597.44
474.844	566.44
475.063	563.44
475.282	564.44
475.501	563.44
475.72	558.44
475.939	564.44
476.158	581.44
476.377	579.44
476.596	582.44
476.814	593.44
477.033	573.44
477.252	598.44
477.471	602.44
477.69	598.44
477.908	613.44
478.127	625.44
478.346	619.44
478.564	635.44
478.783	643.44
479.002	641.44
479.22	635.44
479.439	655.44
479.658	674.44
479.876	655.44
480.095	670.44
480.313	721.44
480.532	697.44
480.751	697.44
480.969	715.44
481.188	736.44
481.406	750.44
481.624	706.44
481.843	677.44
482.061	665.44
482.28	677.44
482.498	653.44
482.717	674.44
482.935	665.44
483.153	654.44
483.372	664.44
483.59	643.44
483.808	645.44
484.027	665.44
484.245	647.44
484.463	680.44
484.681	689.44
484.9	669.44
485.118	697.44
485.336	695.44
485.554	645.44
485.772	646.44
485.99	664.44
486.209	674.44
486.427	682.44
486.645	690.44
486.863	717.44
487.081	682.44
487.299	716.44
487.517	698.44
487.735	724.44
487.953	716.44
488.171	711.44
488.389	717.44
488.607	687.44
488.825	714.44
489.043	699.44
489.261	743.44
489.479	732.44
489.696	702.44
489.914	733.44
490.132	730.44
490.35	724.44
490.568	745.44
490.786	766.44
491.003	772.44
491.221	791.44
491.439	812.44
491.657	794.44
491.874	812.44
492.092	825.44
492.31	826.44
492.527	805.44
492.745	822.44
492.963	837.44
493.18	841.44
493.398	842.44
493.615	844.44
493.833	841.44
494.05	843.44
494.268	839.44
494.485	838.44
494.703	842.44
494.92	836.44
495.138	832.44
495.355	853.44
495.573	842.44
495.79	825.44
496.008	857.44
496.225	845.44
496.442	850.44
496.66	851.44
496.877	857.44
497.094	845.44
497.312	835.44
497.529	890.44
497.746	897.44
497.963	896.44
498.181	877.44
498.398	928.44
498.615	939.44
498.832	971.44
499.049	1005.44
499.267	1037.44
499.484	1077.44
499.701	1133.44
499.918	1176.44
500.135	1278.44
500.352	1338.44
500.569	1357.44
500.786	1368.44
501.003	1320.44
501.22	1264.44
501.437	1196.44
501.654	1153.44
501.871	1112.44
502.088	1062.44
502.305	1009.44
502.522	978.44
502.739	962.44
502.956	926.44
503.172	910.44
503.389	895.44
503.606	882.44
503.823	902.44
504.04	860.44
504.256	887.44
504.473	860.44
504.69	864.44
504.907	862.44
505.123	831.44
505.34	820.44
505.557	790.44
505.773	804.44
505.99	832.44
506.207	809.44
506.423	781.44
506.64	817.44
506.856	764.44
507.073	786.44
507.289	771.44
507.506	742.44
507.722	790.44
507.939	788.44
508.155	749.44
508.372	734.44
508.588	748.44
508.805	730.44
509.021	744.44
509.238	748.44
509.454	736.44
509.67	743.44
509.887	749.44
510.103	727.44
510.319	737.44
510.536	795.44
510.752	1121.44
510.968	1009.44
511.184	738.44
511.401	725.44
511.617	699.44
511.833	720.44
512.049	692.44
512.265	701.44
512.481	688.44
512.698	698.44
512.914	653.44
513.13	677.44
513.346	690.44
513.562	692.44
513.778	664.44
513.994	680.44
514.21	718.44
514.426	682.44
514.642	753.44
514.858	771.44
515.074	789.44
515.29	877.44
515.506	1162.44
515.721	1023.44
515.937	791.44
516.153	752.44
516.369	756.44
516.585	706.44
516.801	728.44
517.016	738.44
517.232	726.44
517.448	744.44
517.664	752.44
517.879	742.44
518.095	748.44
518.311	755.44
518.527	725.44
518.742	744.44
518.958	707.44
519.173	696.44
519.389	702.44
519.605	710.44
519.82	702.44
520.036	709.44
520.251	695.44
520.467	725.44
520.682	701.44
520.898	717.44
521.113	725.44
521.329	785.44
521.544	837.44
521.76	968.44
521.975	1412.44
522.19	1417.44
522.406	878.44
522.621	745.44
522.836	700.44
523.052	678.44
523.267	645.44
523.482	647.44
523.698	633.44
523.913	637.44
524.128	619.44
524.343	592.44
524.559	602.44
524.774	602.44
524.989	599.44
525.204	588.44
525.419	617.44
525.634	584.44
525.849	604.44
526.064	582.44
526.28	594.44
526.495	570.44
526.71	578.44
526.925	574.44
527.14	582.44
527.355	579.44
527.57	590.44
527.785	578.44
527.999	557.44
528.214	564.44
528.429	574.44
528.644	601.44
528.859	564.44
529.074	570.44
529.289	620.44
529.503	632.44
529.718	620.44
529.933	617.44
530.148	590.44
530.363	597.44
530.577	566.44
530.792	574.44
531.007	560.44
531.221	574.44
531.436	572.44
531.651	570.44
531.865	572.44
532.08	586.44
532.295	560.44
532.509	551.44
532.724	554.44
532.938	546.44
533.153	560.44
533.367	566.44
533.582	539.44
533.796	577.44
534.011	546.44
534.225	541.44
534.44	541.44
534.654	520.44
534.868	542.44
535.083	536.44
535.297	572.44
535.511	567.44
535.726	538.44
535.94	542.44
536.154	554.44
536.369	545.44
536.583	544.44
536.797	551.44
537.011	544.44
537.225	521.44
537.44	522.44
537.654	547.44
537.868	514.44
538.082	531.44
538.296	549.44
538.51	531.44
538.724	553.44
538.938	549.44
539.153	534.44
539.367	536.44
539.581	526.44
539.795	530.44
540.009	546.44
540.222	532.44
540.436	527.44
540.65	515.44
540.864	520.44
541.078	543.44
541.292	552.44
541.506	553.44
541.72	526.44
541.934	544.44
542.147	532.44
542.361	538.44
542.575	532.44
542.789	530.44
543.002	506.44
543.216	535.44
543.43	524.44
543.644	546.44
543.857	545.44
544.071	541.44
544.285	541.44
544.498	540.44
544.712	500.44
544.925	532.44
545.139	531.44
545.352	520.44
545.566	549.44
545.779	526.44
545.993	536.44
546.206	523.44
546.42	533.44
546.633	532.44
546.847	523.44
547.06	516.44
547.274	508.44
547.487	524.44
547.7	536.44
547.914	515.44
548.127	525.44
548.34	503.44
548.554	498.44
548.767	513.44
548.98	516.44
549.193	523.44
549.407	534.44
549.62	524.44
549.833	534.44
550.046	520.44
550.259	530.44
550.473	518.44
550.686	505.44
550.899	508.44
551.112	518.44
551.325	503.44
551.538	512.44
551.751	522.44
551.964	506.44
552.177	515.44
552.39	531.44
552.603	536.44
552.816	517.44
553.029	508.44
553.242	527.44
553.455	534.44
553.667	549.44
553.88	524.44
554.093	550.44
554.306	535.44
554.519	530.44
554.732	520.44
554.944	486.44
555.157	499.44
555.37	508.44
555.583	506.44
555.795	488.44
556.008	474.44
556.221	458.44
556.433	484.44
556.646	483.44
556.859	482.44
557.071	476.44
557.284	470.44
557.496	459.44
557.709	460.44
557.921	462.44
558.134	451.44
558.346	469.44
558.559	483.44
558.771	440.44
558.984	457.44
559.196	470.44
559.409	467.44
559.621	473.44
559.833	454.44
560.046	462.44
560.258	451.44
560.47	454.44
560.683	450.44
560.895	456.44
561.107	451.44
561.32	428.44
561.532	442.44
561.744	454.44
561.956	461.44
562.168	475.44
562.381	457.44
562.593	450.44
562.805	440.44
563.017	449.44
563.229	467.44
563.441	460.44
563.653	429.44
563.865	466.44
564.077	465.44
564.289	485.44
564.501	478.44
564.713	500.44
564.925	500.44
565.137	499.44
565.349	513.44
565.561	506.44
565.773	492.44
565.985	517.44
566.197	542.44
566.408	555.44
566.62	576.44
566.832	573.44
567.044	588.44
567.255	606.44
567.467	621.44
567.679	616.44
567.891	642.44
568.102	647.44
568.314	617.44
568.526	595.44
568.737	553.44
568.949	542.44
569.161	528.44
569.372	516.44
569.584	482.44
569.795	484.44
570.007	469.44
570.218	512.44
570.43	482.44
570.641	459.44
570.853	442.44
571.064	444.44
571.276	434.44
571.487	454.44
571.698	444.44
571.91	441.44
572.121	439.44
572.333	410.44
572.544	421.44
572.755	429.44
572.966	408.44
573.178	428.44
573.389	395.44
573.6	392.44
573.811	407.44
574.023	394.44
574.234	394.44
574.445	394.44
574.656	393.44
574.867	381.44
575.078	388.44
575.289	384.44
575.501	408.44
575.712	379.44
575.923	392.44
576.134	403.44
576.345	406.44
576.556	386.44
576.767	370.44
576.978	370.44
577.188	384.44
577.399	377.44
577.61	366.44
577.821	363.44
578.032	374.44
578.243	397.44
578.454	585.44
578.665	448.44
578.875	363.44
579.086	359.44
579.297	363.44
579.508	360.44
579.718	359.44
579.929	370.44
580.14	368.44
580.35	362.44
580.561	363.44
580.772	362.44
580.982	370.44
581.193	345.44
581.403	349.44
581.614	343.44
581.825	355.44
582.035	366.44
582.246	360.44
582.456	360.44
582.667	369.44
582.877	352.44
583.087	338.44
583.298	343.44
583.508	344.44
583.719	336.44
583.929	360.44
584.139	349.44
584.35	331.44
584.56	368.44
584.77	355.44
584.981	344.44
585.191	345.44
585.401	359.44
585.611	344.44
585.821	345.44
586.032	335.44
586.242	344.44
586.452	355.44
586.662	341.44
586.872	334.44
587.082	332.44
587.292	330.44
587.502	352.44
587.713	333.44
587.923	341.44
588.133	337.44
588.343	339.44
588.553	350.44
588.762	349.44
588.972	328.44
589.182	334.44
589.392	337.44
589.602	337.44
589.812	332.44
590.022	347.44
590.232	355.44
590.441	323.44
590.651	344.44
590.861	340.44
591.071	340.44
591.281	354.44
591.49	341.44
591.7	354.44
591.91	358.44
592.119	364.44
592.329	378.44
592.539	378.44
592.748	379.44
592.958	372.44
593.167	376.44
593.377	374.44
593.587	380.44
593.796	379.44
594.006	360.44
594.215	354.44
594.424	384.44
594.634	355.44
594.843	375.44
595.053	363.44
595.262	366.44
595.472	370.44
595.681	352.44
595.89	352.44
596.1	341.44
596.309	337.44
596.518	334.44
596.727	322.44
596.937	327.44
597.146	329.44
597.355	316.44
597.564	322.44
597.774	326.44
597.983	328.44
598.192	300.44
598.401	333.44
598.61	302.44
598.819	292.44
599.028	289.44
599.237	301.44
599.446	306.44
599.655	306.44
599.864	308.44
600.073	299.44
600.282	304.44
600.491	298.44
600.7	316.44
600.909	310.44
601.118	265.44
601.327	295.44
601.536	296.44
601.745	292.44
601.953	304.44
602.162	296.44
602.371	299.44
602.58	297.44
602.789	306.44
602.997	282.44
603.206	302.44
603.415	277.44
603.623	280.44
603.832	291.44
604.041	268.44
604.249	278.44
604.458	306.44
604.666	286.44
604.875	285.44
605.084	278.44
605.292	265.44
605.501	308.44
605.709	285.44
605.918	280.44
606.126	297.44
606.334	282.44
606.543	274.44
606.751	286.44
606.96	289.44
607.168	281.44
607.376	285.44
607.585	279.44
607.793	291.44
608.001	293.44
608.21	265.44
608.418	281.44
608.626	278.44
608.834	267.44
609.043	299.44
609.251	295.44
609.459	282.44
609.667	283.44
609.875	278.44
610.083	286.44
610.291	270.44
610.499	296.44
610.707	279.44
610.916	290.44
611.124	287.44
611.332	271.44
611.54	278.44
611.748	296.44
611.955	288.44
612.163	301.44
612.371	269.44
612.579	293.44
612.787	278.44
612.995	272.44
613.203	279.44
613.411	276.44
613.618	270.44
613.826	280.44
614.034	280.44
614.242	253.44
614.449	274.44
614.657	288.44
614.865	270.44
615.072	267.44
615.28	275.44
615.488	286.44
615.695	281.44
615.903	284.44
616.111	276.44
616.318	272.44
616.526	264.44
616.733	274.44
616.941	277.44
617.148	256.44
617.356	286.44
617.563	245.44
617.771	276.44
617.978	250.44
618.185	258.44
618.393	249.44
618.6	275.44
618.807	268.44
619.015	271.44
619.222	264.44
619.429	258.44
619.637	295.44
619.844	276.44
620.051	272.44
620.258	275.44
620.466	252.44
620.673	252.44
620.88	266.44
621.087	260.44
621.294	259.44
621.501	242.44
621.708	244.44
621.915	260.44
622.122	251.44
622.329	274.44
622.536	256.44
622.743	267.44
622.95	245.44
623.157	259.44
623.364	267.44
623.571	249.44
623.778	269.44
623.985	250.44
624.192	242.44
624.399	249.44
624.606	241.44
624.812	252.44
625.019	241.44
625.226	244.44
625.433	258.44
625.639	236.44
625.846	244.44
626.053	234.44
626.259	237.44
626.466	252.44
626.673	224.44
626.879	235.44
627.086	236.44
627.293	241.44
627.499	233.44
627.706	244.44
627.912	247.44
628.119	250.44
628.325	237.44
628.532	210.44
628.738	228.44
628.945	234.44
629.151	236.44
629.357	220.44
629.564	223.44
629.77	219.44
629.976	232.44
630.183	229.44
630.389	227.44
630.595	224.44
630.802	222.44
631.008	205.44
631.214	224.44
631.42	208.44
631.627	224.44
631.833	210.44
632.039	219.44
632.245	232.44
632.451	227.44
632.657	227.44
632.863	220.44
633.069	244.44
633.275	216.44
633.481	217.44
633.688	218.44
633.893	215.44
634.099	205.44
634.305	190.44
634.511	218.44
634.717	201.44
634.923	184.44
635.129	198.44
635.335	200.44
635.541	209.44
635.747	225.44
635.952	209.44
636.158	214.44
636.364	208.44
636.57	211.44
636.775	202.44
636.981	200.44
637.187	198.44
637.392	215.44
637.598	217.44
637.804	212.44
638.009	201.44
638.215	204.44
638.421	194.44
638.626	209.44
638.832	189.44
639.037	202.44
639.243	182.44
639.448	177.44
639.654	196.44
639.859	177.44
640.065	185.44
640.27	188.44
640.475	172.44
640.681	174.44
640.886	201.44
641.091	205.44
641.297	213.44
641.502	194.44
641.707	186.44
641.913	190.44
642.118	200.44
642.323	205.44
642.528	188.44
642.733	179.44
642.939	176.44
643.144	180.44
643.349	193.44
643.554	176.44
643.759	180.44
643.964	182.44
644.169	193.44
644.374	181.44
644.579	198.44
644.784	185.44
644.989	181.44
645.194	180.44
645.399	185.44
645.604	194.44
645.809	185.44
646.014	192.44
646.219	171.44
646.423	185.44
646.628	185.44
646.833	182.44
647.038	180.44
647.243	174.44
647.447	197.44
647.652	205.44
647.857	194.44
648.062	194.44
648.266	195.44
648.471	180.44
648.676	188.44
648.88	199.44
649.085	191.44
649.289	187.44
649.494	209.44
649.698	211.44
649.903	200.44
650.107	184.44
650.312	196.44
650.516	184.44
650.721	185.44
650.925	174.44
651.13	180.44
651.334	172.44
651.539	169.44
651.743	172.44
651.947	165.44
652.152	160.44
652.356	147.44
652.56	158.44
652.764	143.44
652.969	149.44
653.173	138.44
653.377	156.44
653.581	166.44
653.785	134.44
653.99	137.44
654.194	146.44
654.398	148.44
654.602	138.44
654.806	146.44
655.01	148.44
655.214	160.44
655.418	153.44
655.622	146.44
655.826	146.44
656.03	149.44
656.234	157.44
656.438	155.44
656.642	147.44
656.846	129.44
657.049	157.44
657.253	144.44
657.457	134.44
657.661	122.44
657.865	118.44
658.068	113.44
658.272	113.44
658.476	120.44
658.68	105.44
658.883	100.44
659.087	99.44
659.291	99.44
659.494	104.44
659.698	89.44
659.901	100.44
660.105	83.44
660.309	103.44
660.512	96.44
660.716	99.44
660.919	103.44
661.123	97.44
661.326	93.44
661.53	86.44
661.733	93.44
661.936	91.44
662.14	92.44
662.343	86.44
662.546	75.44
662.75	84.44
662.953	94.44
663.156	85.44
663.36	83.44
663.563	92.44
663.766	90.44
663.969	94.44
664.173	90.44
664.376	76.44
664.579	87.44
664.782	83.44
664.985	82.44
665.188	77.44
665.391	74.44
665.594	83.44
665.797	99.44
666	87.44
666.203	63.44
666.406	75.44
666.609	83.44
666.812	70.44
667.015	74.44
667.218	82.44
667.421	88.44
667.624	89.44
667.827	93.44
668.03	100.44
668.232	80.44
668.435	88.44
668.638	81.44
668.841	90.44
669.043	69.44
669.246	90.44
669.449	88.44
669.651	88.44
669.854	90.44
670.057	86.44
670.259	81.44
670.462	100.44
670.665	91.44
670.867	83.44
671.07	75.44
671.272	77.44
671.475	94.44
671.677	82.44
671.88	84.44
672.082	98.44
672.284	75.44
672.487	70.44
672.689	73.44
672.892	76.44
