Data from 1974.PennyLincolnUp.Lamp.En5.5.200Scan.071719.P1.Changed Mount._HRD10591_15-53-21-856.txt Node
Date: Thu Jul 18 15:53:21 EDT 2019
User: cochatt
Spectrometer: HR+D1059
Trigger mode: 1
Integration Time (sec): 1.000000E-1
Scans to average: 1
Electric dark correction enabled: true
Nonlinearity correction enabled: false
Boxcar width: 0
XAxis mode: Wavelengths
Number of Pixels in Spectrum: 2048
>>>>>Begin Spectral Data<<<<<
223.165	-21.75
223.4	-21.75
223.635	-21.75
223.869	-10.75
224.104	-12.75
224.338	-16.75
224.573	-20.75
224.808	-30.75
225.042	-17.75
225.277	-6.75
225.511	1.25
225.746	2.25
225.98	19.25
226.215	16.25
226.449	22.25
226.683	15.25
226.918	26.25
227.152	35.25
227.387	30.25
227.621	36.25
227.856	42.25
228.09	40.25
228.324	45.25
228.559	54.25
228.793	74.25
229.027	103.25
229.262	103.25
229.496	117.25
229.73	137.25
229.964	147.25
230.199	128.25
230.433	113.25
230.667	107.25
230.901	109.25
231.136	134.25
231.37	122.25
231.604	121.25
231.838	124.25
232.072	118.25
232.306	114.25
232.541	117.25
232.775	117.25
233.009	113.25
233.243	123.25
233.477	126.25
233.711	127.25
233.945	137.25
234.179	129.25
234.413	119.25
234.647	110.25
234.881	130.25
235.115	130.25
235.349	129.25
235.583	116.25
235.817	137.25
236.051	127.25
236.285	117.25
236.519	114.25
236.753	139.25
236.987	148.25
237.221	164.25
237.455	217.25
237.689	191.25
237.922	149.25
238.156	137.25
238.39	140.25
238.624	130.25
238.858	138.25
239.091	130.25
239.325	132.25
239.559	126.25
239.793	134.25
240.027	124.25
240.26	144.25
240.494	156.25
240.728	143.25
240.961	163.25
241.195	147.25
241.429	150.25
241.662	143.25
241.896	134.25
242.13	150.25
242.363	146.25
242.597	149.25
242.83	143.25
243.064	150.25
243.298	131.25
243.531	143.25
243.765	140.25
243.998	150.25
244.232	153.25
244.465	159.25
244.699	166.25
244.932	149.25
245.166	157.25
245.399	172.25
245.633	163.25
245.866	166.25
246.099	164.25
246.333	147.25
246.566	163.25
246.8	162.25
247.033	172.25
247.266	165.25
247.5	160.25
247.733	179.25
247.966	175.25
248.2	189.25
248.433	183.25
248.666	189.25
248.899	188.25
249.133	219.25
249.366	224.25
249.599	216.25
249.832	197.25
250.066	200.25
250.299	182.25
250.532	187.25
250.765	206.25
250.998	226.25
251.231	235.25
251.465	222.25
251.698	220.25
251.931	215.25
252.164	206.25
252.397	214.25
252.63	222.25
252.863	213.25
253.096	221.25
253.329	242.25
253.562	223.25
253.795	239.25
254.028	223.25
254.261	225.25
254.494	236.25
254.727	258.25
254.96	277.25
255.193	256.25
255.426	247.25
255.659	246.25
255.892	256.25
256.124	247.25
256.357	241.25
256.59	253.25
256.823	236.25
257.056	237.25
257.289	211.25
257.521	228.25
257.754	227.25
257.987	228.25
258.22	228.25
258.452	218.25
258.685	234.25
258.918	249.25
259.151	225.25
259.383	220.25
259.616	235.25
259.849	248.25
260.081	236.25
260.314	267.25
260.547	283.25
260.779	271.25
261.012	247.25
261.244	263.25
261.477	243.25
261.71	229.25
261.942	228.25
262.175	247.25
262.407	238.25
262.64	231.25
262.872	218.25
263.105	225.25
263.337	226.25
263.57	242.25
263.802	232.25
264.035	217.25
264.267	232.25
264.499	234.25
264.732	231.25
264.964	236.25
265.197	227.25
265.429	242.25
265.661	230.25
265.894	224.25
266.126	221.25
266.358	226.25
266.591	219.25
266.823	237.25
267.055	253.25
267.287	245.25
267.52	248.25
267.752	255.25
267.984	232.25
268.216	243.25
268.448	251.25
268.681	265.25
268.913	242.25
269.145	270.25
269.377	287.25
269.609	293.25
269.841	292.25
270.073	278.25
270.306	313.25
270.538	343.25
270.77	330.25
271.002	324.25
271.234	311.25
271.466	312.25
271.698	322.25
271.93	330.25
272.162	343.25
272.394	337.25
272.626	308.25
272.858	289.25
273.09	294.25
273.322	296.25
273.553	281.25
273.785	286.25
274.017	278.25
274.249	300.25
274.481	277.25
274.713	290.25
274.945	281.25
275.176	282.25
275.408	267.25
275.64	285.25
275.872	290.25
276.104	289.25
276.335	295.25
276.567	296.25
276.799	293.25
277.031	313.25
277.262	319.25
277.494	335.25
277.726	316.25
277.957	301.25
278.189	314.25
278.421	298.25
278.652	282.25
278.884	287.25
279.115	279.25
279.347	268.25
279.579	277.25
279.81	295.25
280.042	283.25
280.273	286.25
280.505	280.25
280.736	299.25
280.968	295.25
281.199	288.25
281.431	288.25
281.662	306.25
281.894	284.25
282.125	300.25
282.356	316.25
282.588	314.25
282.819	308.25
283.051	291.25
283.282	293.25
283.513	281.25
283.745	292.25
283.976	293.25
284.207	307.25
284.439	309.25
284.67	301.25
284.901	288.25
285.132	293.25
285.364	318.25
285.595	301.25
285.826	295.25
286.057	300.25
286.288	294.25
286.52	305.25
286.751	315.25
286.982	313.25
287.213	311.25
287.444	301.25
287.675	308.25
287.906	328.25
288.138	327.25
288.369	334.25
288.6	316.25
288.831	311.25
289.062	340.25
289.293	338.25
289.524	308.25
289.755	322.25
289.986	317.25
290.217	313.25
290.448	329.25
290.679	326.25
290.91	317.25
291.141	315.25
291.371	296.25
291.602	309.25
291.833	299.25
292.064	334.25
292.295	322.25
292.526	314.25
292.757	310.25
292.987	326.25
293.218	308.25
293.449	324.25
293.68	334.25
293.91	312.25
294.141	316.25
294.372	318.25
294.603	342.25
294.833	316.25
295.064	314.25
295.295	329.25
295.525	324.25
295.756	321.25
295.987	350.25
296.217	349.25
296.448	335.25
296.679	342.25
296.909	315.25
297.14	313.25
297.37	325.25
297.601	324.25
297.831	319.25
298.062	332.25
298.292	327.25
298.523	335.25
298.753	340.25
298.984	322.25
299.214	353.25
299.445	347.25
299.675	343.25
299.905	341.25
300.136	342.25
300.366	330.25
300.597	335.25
300.827	339.25
301.057	350.25
301.288	352.25
301.518	341.25
301.748	341.25
301.979	346.25
302.209	364.25
302.439	357.25
302.669	364.25
302.9	362.25
303.13	362.25
303.36	362.25
303.59	354.25
303.82	362.25
304.051	365.25
304.281	356.25
304.511	333.25
304.741	357.25
304.971	365.25
305.201	349.25
305.431	356.25
305.661	350.25
305.891	344.25
306.121	357.25
306.352	353.25
306.582	356.25
306.812	358.25
307.042	370.25
307.272	362.25
307.502	350.25
307.731	373.25
307.961	360.25
308.191	361.25
308.421	377.25
308.651	367.25
308.881	392.25
309.111	387.25
309.341	371.25
309.571	373.25
309.8	373.25
310.03	404.25
310.26	407.25
310.49	400.25
310.72	393.25
310.949	427.25
311.179	416.25
311.409	413.25
311.639	388.25
311.868	423.25
312.098	373.25
312.328	399.25
312.557	419.25
312.787	424.25
313.017	412.25
313.246	417.25
313.476	405.25
313.706	406.25
313.935	420.25
314.165	410.25
314.394	412.25
314.624	396.25
314.853	399.25
315.083	402.25
315.312	403.25
315.542	379.25
315.771	388.25
316.001	393.25
316.23	392.25
316.46	384.25
316.689	406.25
316.919	409.25
317.148	422.25
317.377	430.25
317.607	417.25
317.836	403.25
318.065	421.25
318.295	420.25
318.524	426.25
318.753	394.25
318.983	388.25
319.212	372.25
319.441	410.25
319.67	415.25
319.9	423.25
320.129	400.25
320.358	404.25
320.587	405.25
320.816	406.25
321.046	398.25
321.275	421.25
321.504	418.25
321.733	424.25
321.962	441.25
322.191	442.25
322.42	459.25
322.649	437.25
322.878	463.25
323.108	456.25
323.337	464.25
323.566	493.25
323.795	499.25
324.024	521.25
324.253	609.25
324.482	833.25
324.71	1246.25
324.939	1861.25
325.168	1615.25
325.397	843.25
325.626	616.25
325.855	531.25
326.084	503.25
326.313	484.25
326.542	498.25
326.77	559.25
326.999	600.25
327.228	782.25
327.457	1168.25
327.686	1403.25
327.914	940.25
328.143	643.25
328.372	590.25
328.6	553.25
328.829	525.25
329.058	566.25
329.287	562.25
329.515	538.25
329.744	511.25
329.972	527.25
330.201	527.25
330.43	557.25
330.658	588.25
330.887	609.25
331.115	606.25
331.344	536.25
331.572	517.25
331.801	508.25
332.03	506.25
332.258	491.25
332.486	500.25
332.715	487.25
332.943	497.25
333.172	497.25
333.4	514.25
333.629	528.25
333.857	522.25
334.085	525.25
334.314	528.25
334.542	559.25
334.771	555.25
334.999	543.25
335.227	511.25
335.455	510.25
335.684	499.25
335.912	493.25
336.14	486.25
336.369	476.25
336.597	486.25
336.825	485.25
337.053	453.25
337.281	491.25
337.51	477.25
337.738	474.25
337.966	494.25
338.194	482.25
338.422	472.25
338.65	472.25
338.878	485.25
339.106	437.25
339.334	437.25
339.562	451.25
339.79	458.25
340.018	465.25
340.246	457.25
340.474	472.25
340.702	473.25
340.93	481.25
341.158	434.25
341.386	435.25
341.614	459.25
341.842	468.25
342.07	461.25
342.298	461.25
342.526	455.25
342.754	446.25
342.981	457.25
343.209	463.25
343.437	460.25
343.665	469.25
343.893	484.25
344.12	486.25
344.348	500.25
344.576	485.25
344.804	470.25
345.031	495.25
345.259	491.25
345.487	490.25
345.714	448.25
345.942	454.25
346.17	463.25
346.397	461.25
346.625	447.25
346.853	444.25
347.08	446.25
347.308	442.25
347.535	445.25
347.763	455.25
347.99	446.25
348.218	468.25
348.445	462.25
348.673	462.25
348.9	430.25
349.128	435.25
349.355	437.25
349.583	438.25
349.81	446.25
350.037	445.25
350.265	445.25
350.492	429.25
350.72	446.25
350.947	430.25
351.174	445.25
351.402	443.25
351.629	444.25
351.856	450.25
352.083	456.25
352.311	445.25
352.538	465.25
352.765	449.25
352.992	456.25
353.22	452.25
353.447	430.25
353.674	461.25
353.901	445.25
354.128	452.25
354.355	446.25
354.583	444.25
354.81	414.25
355.037	438.25
355.264	443.25
355.491	418.25
355.718	415.25
355.945	437.25
356.172	417.25
356.399	423.25
356.626	400.25
356.853	415.25
357.08	388.25
357.307	438.25
357.534	414.25
357.761	424.25
357.988	447.25
358.215	448.25
358.441	446.25
358.668	430.25
358.895	428.25
359.122	446.25
359.349	435.25
359.576	460.25
359.802	462.25
360.029	482.25
360.256	479.25
360.483	465.25
360.709	467.25
360.936	448.25
361.163	459.25
361.39	442.25
361.616	453.25
361.843	457.25
362.07	444.25
362.296	460.25
362.523	435.25
362.749	461.25
362.976	450.25
363.203	443.25
363.429	425.25
363.656	447.25
363.882	456.25
364.109	453.25
364.335	460.25
364.562	457.25
364.788	452.25
365.015	443.25
365.241	442.25
365.468	442.25
365.694	443.25
365.92	463.25
366.147	428.25
366.373	442.25
366.599	462.25
366.826	430.25
367.052	424.25
367.278	446.25
367.505	452.25
367.731	465.25
367.957	449.25
368.184	446.25
368.41	446.25
368.636	458.25
368.862	461.25
369.089	448.25
369.315	429.25
369.541	419.25
369.767	457.25
369.993	451.25
370.219	442.25
370.445	468.25
370.672	437.25
370.898	444.25
371.124	444.25
371.35	456.25
371.576	426.25
371.802	443.25
372.028	449.25
372.254	430.25
372.48	432.25
372.706	454.25
372.932	453.25
373.158	455.25
373.384	461.25
373.61	454.25
373.835	454.25
374.061	463.25
374.287	449.25
374.513	468.25
374.739	472.25
374.965	463.25
375.191	443.25
375.416	478.25
375.642	467.25
375.868	442.25
376.094	453.25
376.319	452.25
376.545	450.25
376.771	458.25
376.997	442.25
377.222	444.25
377.448	447.25
377.674	449.25
377.899	429.25
378.125	441.25
378.35	453.25
378.576	466.25
378.802	450.25
379.027	434.25
379.253	444.25
379.478	442.25
379.704	441.25
379.929	443.25
380.155	462.25
380.38	443.25
380.606	455.25
380.831	466.25
381.057	478.25
381.282	450.25
381.507	445.25
381.733	446.25
381.958	454.25
382.184	477.25
382.409	485.25
382.634	458.25
382.86	462.25
383.085	467.25
383.31	471.25
383.535	485.25
383.761	463.25
383.986	472.25
384.211	501.25
384.436	475.25
384.662	481.25
384.887	485.25
385.112	491.25
385.337	493.25
385.562	480.25
385.787	494.25
386.013	500.25
386.238	495.25
386.463	523.25
386.688	513.25
386.913	538.25
387.138	502.25
387.363	494.25
387.588	508.25
387.813	520.25
388.038	519.25
388.263	517.25
388.488	490.25
388.713	492.25
388.938	508.25
389.163	499.25
389.387	515.25
389.612	499.25
389.837	498.25
390.062	509.25
390.287	499.25
390.512	513.25
390.736	497.25
390.961	505.25
391.186	504.25
391.411	511.25
391.636	553.25
391.86	523.25
392.085	540.25
392.31	529.25
392.534	520.25
392.759	521.25
392.984	524.25
393.208	521.25
393.433	505.25
393.658	500.25
393.882	532.25
394.107	524.25
394.331	526.25
394.556	486.25
394.78	503.25
395.005	539.25
395.229	517.25
395.454	525.25
395.678	550.25
395.903	547.25
396.127	584.25
396.352	570.25
396.576	562.25
396.801	565.25
397.025	550.25
397.249	524.25
397.474	528.25
397.698	541.25
397.922	579.25
398.147	587.25
398.371	605.25
398.595	581.25
398.82	607.25
399.044	612.25
399.268	627.25
399.492	666.25
399.717	721.25
399.941	710.25
400.165	745.25
400.389	741.25
400.613	684.25
400.837	615.25
401.062	618.25
401.286	587.25
401.51	590.25
401.734	595.25
401.958	582.25
402.182	620.25
402.406	594.25
402.63	606.25
402.854	607.25
403.078	605.25
403.302	620.25
403.526	624.25
403.75	617.25
403.974	617.25
404.198	622.25
404.422	629.25
404.645	622.25
404.869	643.25
405.093	656.25
405.317	719.25
405.541	740.25
405.765	668.25
405.988	637.25
406.212	638.25
406.436	661.25
406.66	686.25
406.883	683.25
407.107	709.25
407.331	738.25
407.555	777.25
407.778	796.25
408.002	725.25
408.226	673.25
408.449	687.25
408.673	668.25
408.896	694.25
409.12	764.25
409.344	703.25
409.567	668.25
409.791	640.25
410.014	638.25
410.238	617.25
410.461	635.25
410.685	622.25
410.908	628.25
411.132	661.25
411.355	713.25
411.578	673.25
411.802	622.25
412.025	606.25
412.249	645.25
412.472	649.25
412.695	691.25
412.919	669.25
413.142	635.25
413.365	607.25
413.589	608.25
413.812	597.25
414.035	586.25
414.258	558.25
414.482	579.25
414.705	581.25
414.928	586.25
415.151	590.25
415.374	598.25
415.597	589.25
415.821	563.25
416.044	573.25
416.267	574.25
416.49	579.25
416.713	583.25
416.936	577.25
417.159	573.25
417.382	586.25
417.605	581.25
417.828	602.25
418.051	625.25
418.274	607.25
418.497	597.25
418.72	561.25
418.943	584.25
419.166	605.25
419.389	644.25
419.611	658.25
419.834	629.25
420.057	615.25
420.28	602.25
420.503	628.25
420.726	618.25
420.948	630.25
421.171	669.25
421.394	696.25
421.617	616.25
421.839	606.25
422.062	618.25
422.285	605.25
422.507	678.25
422.73	766.25
422.953	728.25
423.175	673.25
423.398	615.25
423.621	638.25
423.843	664.25
424.066	665.25
424.288	650.25
424.511	670.25
424.733	728.25
424.956	791.25
425.178	757.25
425.401	770.25
425.623	789.25
425.846	687.25
426.068	642.25
426.291	620.25
426.513	647.25
426.735	649.25
426.958	702.25
427.18	767.25
427.402	891.25
427.625	997.25
427.847	838.25
428.069	760.25
428.292	686.25
428.514	655.25
428.736	613.25
428.958	603.25
429.181	595.25
429.403	601.25
429.625	618.25
429.847	631.25
430.069	679.25
430.292	682.25
430.514	615.25
430.736	614.25
430.958	580.25
431.18	596.25
431.402	591.25
431.624	558.25
431.846	576.25
432.068	554.25
432.29	580.25
432.512	568.25
432.734	570.25
432.956	565.25
433.178	571.25
433.4	593.25
433.622	564.25
433.844	581.25
434.066	574.25
434.287	605.25
434.509	603.25
434.731	577.25
434.953	603.25
435.175	598.25
435.397	652.25
435.618	643.25
435.84	683.25
436.062	772.25
436.284	834.25
436.505	727.25
436.727	651.25
436.949	606.25
437.17	595.25
437.392	561.25
437.614	587.25
437.835	631.25
438.057	723.25
438.278	821.25
438.5	797.25
438.721	933.25
438.943	864.25
439.165	713.25
439.386	661.25
439.608	613.25
439.829	630.25
440.05	637.25
440.272	700.25
440.493	665.25
440.715	619.25
440.936	608.25
441.158	579.25
441.379	594.25
441.6	612.25
441.822	662.25
442.043	686.25
442.264	752.25
442.486	826.25
442.707	697.25
442.928	651.25
443.149	655.25
443.371	669.25
443.592	713.25
443.813	839.25
444.034	919.25
444.255	775.25
444.476	716.25
444.698	686.25
444.919	681.25
445.14	767.25
445.361	716.25
445.582	673.25
445.803	724.25
446.024	831.25
446.245	838.25
446.466	800.25
446.687	674.25
446.908	646.25
447.129	591.25
447.35	611.25
447.571	575.25
447.792	558.25
448.013	599.25
448.234	598.25
448.455	632.25
448.675	731.25
448.896	873.25
449.117	738.25
449.338	722.25
449.559	814.25
449.779	919.25
450	761.25
450.221	625.25
450.442	601.25
450.662	565.25
450.883	582.25
451.104	597.25
451.324	571.25
451.545	523.25
451.766	543.25
451.986	541.25
452.207	547.25
452.428	542.25
452.648	535.25
452.869	505.25
453.089	545.25
453.31	542.25
453.53	537.25
453.751	504.25
453.971	523.25
454.192	537.25
454.412	527.25
454.633	552.25
454.853	533.25
455.073	524.25
455.294	553.25
455.514	612.25
455.734	600.25
455.955	516.25
456.175	525.25
456.395	521.25
456.616	524.25
456.836	485.25
457.056	487.25
457.276	482.25
457.497	509.25
457.717	500.25
457.937	508.25
458.157	525.25
458.377	515.25
458.598	548.25
458.818	604.25
459.038	645.25
459.258	670.25
459.478	612.25
459.698	570.25
459.918	575.25
460.138	573.25
460.358	589.25
460.578	593.25
460.798	598.25
461.018	597.25
461.238	564.25
461.458	587.25
461.678	597.25
461.898	592.25
462.118	595.25
462.338	637.25
462.558	599.25
462.777	641.25
462.997	680.25
463.217	679.25
463.437	679.25
463.657	657.25
463.876	645.25
464.096	637.25
464.316	634.25
464.536	655.25
464.755	633.25
464.975	633.25
465.195	639.25
465.414	705.25
465.634	626.25
465.854	573.25
466.073	568.25
466.293	566.25
466.512	573.25
466.732	539.25
466.951	531.25
467.171	557.25
467.391	562.25
467.61	563.25
467.829	541.25
468.049	563.25
468.268	558.25
468.488	522.25
468.707	516.25
468.927	553.25
469.146	537.25
469.365	542.25
469.585	531.25
469.804	551.25
470.023	563.25
470.243	565.25
470.462	544.25
470.681	559.25
470.901	578.25
471.12	573.25
471.339	565.25
471.558	535.25
471.777	555.25
471.997	543.25
472.216	549.25
472.435	590.25
472.654	552.25
472.873	538.25
473.092	552.25
473.311	563.25
473.53	553.25
473.749	557.25
473.968	588.25
474.187	667.25
474.406	695.25
474.625	601.25
474.844	563.25
475.063	546.25
475.282	551.25
475.501	566.25
475.72	561.25
475.939	571.25
476.158	548.25
476.377	581.25
476.596	575.25
476.814	587.25
477.033	609.25
477.252	580.25
477.471	576.25
477.69	595.25
477.908	603.25
478.127	595.25
478.346	611.25
478.564	607.25
478.783	632.25
479.002	653.25
479.22	659.25
479.439	662.25
479.658	659.25
479.876	668.25
480.095	681.25
480.313	704.25
480.532	709.25
480.751	692.25
480.969	659.25
481.188	714.25
481.406	729.25
481.624	698.25
481.843	649.25
482.061	637.25
482.28	638.25
482.498	661.25
482.717	638.25
482.935	653.25
483.153	656.25
483.372	638.25
483.59	651.25
483.808	632.25
484.027	664.25
484.245	655.25
484.463	663.25
484.681	668.25
484.9	668.25
485.118	670.25
485.336	672.25
485.554	677.25
485.772	693.25
485.99	659.25
486.209	654.25
486.427	677.25
486.645	675.25
486.863	684.25
487.081	679.25
487.299	698.25
487.517	689.25
487.735	694.25
487.953	709.25
488.171	714.25
488.389	699.25
488.607	689.25
488.825	695.25
489.043	695.25
489.261	675.25
489.479	711.25
489.696	709.25
489.914	703.25
490.132	740.25
490.35	723.25
490.568	733.25
490.786	730.25
491.003	750.25
491.221	771.25
491.439	755.25
491.657	776.25
491.874	783.25
492.092	814.25
492.31	827.25
492.527	812.25
492.745	820.25
492.963	803.25
493.18	793.25
493.398	821.25
493.615	833.25
493.833	832.25
494.05	826.25
494.268	796.25
494.485	816.25
494.703	854.25
494.92	818.25
495.138	817.25
495.355	807.25
495.573	827.25
495.79	818.25
496.008	842.25
496.225	822.25
496.442	826.25
496.66	844.25
496.877	825.25
497.094	832.25
497.312	849.25
497.529	842.25
497.746	870.25
497.963	864.25
498.181	919.25
498.398	917.25
498.615	925.25
498.832	974.25
499.049	996.25
499.267	1041.25
499.484	1081.25
499.701	1094.25
499.918	1149.25
500.135	1249.25
500.352	1289.25
500.569	1330.25
500.786	1308.25
501.003	1294.25
501.22	1240.25
501.437	1203.25
501.654	1115.25
501.871	1069.25
502.088	1033.25
502.305	1009.25
502.522	942.25
502.739	962.25
502.956	925.25
503.172	882.25
503.389	861.25
503.606	878.25
503.823	857.25
504.04	857.25
504.256	843.25
504.473	850.25
504.69	866.25
504.907	845.25
505.123	812.25
505.34	808.25
505.557	797.25
505.773	806.25
505.99	795.25
506.207	763.25
506.423	789.25
506.64	789.25
506.856	765.25
507.073	751.25
507.289	780.25
507.506	747.25
507.722	775.25
507.939	763.25
508.155	735.25
508.372	749.25
508.588	749.25
508.805	709.25
509.021	722.25
509.238	725.25
509.454	721.25
509.67	719.25
509.887	705.25
510.103	706.25
510.319	743.25
510.536	810.25
510.752	1118.25
510.968	975.25
511.184	724.25
511.401	668.25
511.617	699.25
511.833	709.25
512.049	675.25
512.265	688.25
512.481	679.25
512.698	673.25
512.914	696.25
513.13	677.25
513.346	684.25
513.562	671.25
513.778	662.25
513.994	675.25
514.21	692.25
514.426	697.25
514.642	746.25
514.858	737.25
515.074	778.25
515.29	876.25
515.506	1159.25
515.721	989.25
515.937	773.25
516.153	730.25
516.369	731.25
516.585	746.25
516.801	736.25
517.016	725.25
517.232	707.25
517.448	698.25
517.664	738.25
517.879	736.25
518.095	761.25
518.311	757.25
518.527	724.25
518.742	726.25
518.958	705.25
519.173	697.25
519.389	690.25
519.605	682.25
519.82	697.25
520.036	711.25
520.251	694.25
520.467	709.25
520.682	717.25
520.898	691.25
521.113	706.25
521.329	770.25
521.544	783.25
521.76	916.25
521.975	1374.25
522.19	1336.25
522.406	845.25
522.621	703.25
522.836	684.25
523.052	647.25
523.267	625.25
523.482	629.25
523.698	598.25
523.913	633.25
524.128	632.25
524.343	616.25
524.559	597.25
524.774	570.25
524.989	609.25
525.204	609.25
525.419	595.25
525.634	591.25
525.849	597.25
526.064	579.25
526.28	595.25
526.495	567.25
526.71	576.25
526.925	593.25
527.14	566.25
527.355	543.25
527.57	571.25
527.785	549.25
527.999	567.25
528.214	570.25
528.429	583.25
528.644	556.25
528.859	585.25
529.074	615.25
529.289	595.25
529.503	647.25
529.718	609.25
529.933	599.25
530.148	585.25
530.363	587.25
530.577	562.25
530.792	573.25
531.007	552.25
531.221	577.25
531.436	561.25
531.651	564.25
531.865	555.25
532.08	569.25
532.295	556.25
532.509	541.25
532.724	542.25
532.938	557.25
533.153	570.25
533.367	521.25
533.582	551.25
533.796	556.25
534.011	571.25
534.225	533.25
534.44	554.25
534.654	565.25
534.868	546.25
535.083	508.25
535.297	531.25
535.511	558.25
535.726	566.25
535.94	557.25
536.154	550.25
536.369	541.25
536.583	532.25
536.797	525.25
537.011	534.25
537.225	542.25
537.44	530.25
537.654	531.25
537.868	524.25
538.082	528.25
538.296	533.25
538.51	518.25
538.724	523.25
538.938	526.25
539.153	525.25
539.367	558.25
539.581	539.25
539.795	521.25
540.009	526.25
540.222	532.25
540.436	531.25
540.65	506.25
540.864	515.25
541.078	530.25
541.292	499.25
541.506	512.25
541.72	526.25
541.934	521.25
542.147	541.25
542.361	536.25
542.575	522.25
542.789	538.25
543.002	528.25
543.216	535.25
543.43	550.25
543.644	530.25
543.857	519.25
544.071	540.25
544.285	540.25
544.498	518.25
544.712	513.25
544.925	534.25
545.139	547.25
545.352	549.25
545.566	534.25
545.779	521.25
545.993	542.25
546.206	533.25
546.42	534.25
546.633	521.25
546.847	509.25
547.06	515.25
547.274	516.25
547.487	506.25
547.7	518.25
547.914	511.25
548.127	510.25
548.34	509.25
548.554	507.25
548.767	510.25
548.98	526.25
549.193	514.25
549.407	521.25
549.62	533.25
549.833	500.25
550.046	529.25
550.259	497.25
550.473	521.25
550.686	493.25
550.899	489.25
551.112	497.25
551.325	497.25
551.538	524.25
551.751	495.25
551.964	522.25
552.177	533.25
552.39	533.25
552.603	511.25
552.816	517.25
553.029	517.25
553.242	541.25
553.455	525.25
553.667	525.25
553.88	548.25
554.093	537.25
554.306	522.25
554.519	523.25
554.732	519.25
554.944	510.25
555.157	517.25
555.37	491.25
555.583	506.25
555.795	501.25
556.008	486.25
556.221	477.25
556.433	462.25
556.646	465.25
556.859	470.25
557.071	457.25
557.284	489.25
557.496	468.25
557.709	462.25
557.921	460.25
558.134	447.25
558.346	480.25
558.559	449.25
558.771	443.25
558.984	455.25
559.196	451.25
559.409	444.25
559.621	463.25
559.833	449.25
560.046	460.25
560.258	460.25
560.47	444.25
560.683	473.25
560.895	444.25
561.107	447.25
561.32	481.25
561.532	454.25
561.744	476.25
561.956	462.25
562.168	465.25
562.381	469.25
562.593	445.25
562.805	474.25
563.017	468.25
563.229	447.25
563.441	437.25
563.653	467.25
563.865	445.25
564.077	462.25
564.289	473.25
564.501	469.25
564.713	499.25
564.925	481.25
565.137	480.25
565.349	483.25
565.561	492.25
565.773	501.25
565.985	531.25
566.197	534.25
566.408	544.25
566.62	577.25
566.832	595.25
567.044	601.25
567.255	605.25
567.467	605.25
567.679	596.25
567.891	625.25
568.102	633.25
568.314	615.25
568.526	613.25
568.737	572.25
568.949	523.25
569.161	523.25
569.372	485.25
569.584	493.25
569.795	492.25
570.007	466.25
570.218	509.25
570.43	478.25
570.641	461.25
570.853	447.25
571.064	461.25
571.276	454.25
571.487	429.25
571.698	424.25
571.91	417.25
572.121	410.25
572.333	418.25
572.544	425.25
572.755	414.25
572.966	394.25
573.178	394.25
573.389	415.25
573.6	411.25
573.811	411.25
574.023	406.25
574.234	388.25
574.445	401.25
574.656	374.25
574.867	380.25
575.078	387.25
575.289	379.25
575.501	380.25
575.712	360.25
575.923	363.25
576.134	389.25
576.345	389.25
576.556	387.25
576.767	391.25
576.978	368.25
577.188	377.25
577.399	373.25
577.61	380.25
577.821	381.25
578.032	377.25
578.243	398.25
578.454	560.25
578.665	435.25
578.875	391.25
579.086	381.25
579.297	373.25
579.508	369.25
579.718	333.25
579.929	341.25
580.14	341.25
580.35	363.25
580.561	363.25
580.772	354.25
580.982	350.25
581.193	351.25
581.403	354.25
581.614	346.25
581.825	340.25
582.035	349.25
582.246	347.25
582.456	346.25
582.667	352.25
582.877	335.25
583.087	361.25
583.298	346.25
583.508	334.25
583.719	346.25
583.929	351.25
584.139	328.25
584.35	339.25
584.56	333.25
584.77	355.25
584.981	338.25
585.191	344.25
585.401	343.25
585.611	330.25
585.821	341.25
586.032	339.25
586.242	338.25
586.452	342.25
586.662	349.25
586.872	350.25
587.082	331.25
587.292	337.25
587.502	358.25
587.713	333.25
587.923	333.25
588.133	337.25
588.343	336.25
588.553	328.25
588.762	332.25
588.972	334.25
589.182	343.25
589.392	343.25
589.602	330.25
589.812	346.25
590.022	342.25
590.232	329.25
590.441	345.25
590.651	334.25
590.861	324.25
591.071	330.25
591.281	331.25
591.49	340.25
591.7	337.25
591.91	346.25
592.119	354.25
592.329	353.25
592.539	368.25
592.748	381.25
592.958	346.25
593.167	364.25
593.377	357.25
593.587	383.25
593.796	371.25
594.006	382.25
594.215	397.25
594.424	392.25
594.634	351.25
594.843	377.25
595.053	365.25
595.262	364.25
595.472	350.25
595.681	346.25
595.89	347.25
596.1	333.25
596.309	325.25
596.518	328.25
596.727	324.25
596.937	325.25
597.146	338.25
597.355	329.25
597.564	315.25
597.774	295.25
597.983	297.25
598.192	316.25
598.401	297.25
598.61	298.25
598.819	302.25
599.028	313.25
599.237	303.25
599.446	312.25
599.655	294.25
599.864	303.25
600.073	286.25
600.282	307.25
600.491	290.25
600.7	306.25
600.909	303.25
601.118	313.25
601.327	294.25
601.536	287.25
601.745	294.25
601.953	301.25
602.162	321.25
602.371	303.25
602.58	295.25
602.789	287.25
602.997	291.25
603.206	297.25
603.415	284.25
603.623	300.25
603.832	310.25
604.041	306.25
604.249	268.25
604.458	283.25
604.666	271.25
604.875	281.25
605.084	275.25
605.292	267.25
605.501	293.25
605.709	299.25
605.918	283.25
606.126	279.25
606.334	278.25
606.543	284.25
606.751	290.25
606.96	260.25
607.168	292.25
607.376	282.25
607.585	293.25
607.793	279.25
608.001	288.25
608.21	277.25
608.418	281.25
608.626	256.25
608.834	280.25
609.043	293.25
609.251	282.25
609.459	255.25
609.667	274.25
609.875	277.25
610.083	273.25
610.291	291.25
610.499	280.25
610.707	290.25
610.916	274.25
611.124	282.25
611.332	275.25
611.54	305.25
611.748	282.25
611.955	299.25
612.163	269.25
612.371	284.25
612.579	267.25
612.787	270.25
612.995	277.25
613.203	273.25
613.411	270.25
613.618	271.25
613.826	283.25
614.034	270.25
614.242	274.25
614.449	269.25
614.657	273.25
614.865	263.25
615.072	280.25
615.28	257.25
615.488	271.25
615.695	265.25
615.903	265.25
616.111	282.25
616.318	279.25
616.526	270.25
616.733	270.25
616.941	257.25
617.148	269.25
617.356	261.25
617.563	286.25
617.771	267.25
617.978	271.25
618.185	271.25
618.393	262.25
618.6	269.25
618.807	272.25
619.015	267.25
619.222	267.25
619.429	254.25
619.637	257.25
619.844	247.25
620.051	250.25
620.258	273.25
620.466	262.25
620.673	256.25
620.88	238.25
621.087	249.25
621.294	250.25
621.501	253.25
621.708	264.25
621.915	267.25
622.122	253.25
622.329	255.25
622.536	251.25
622.743	245.25
622.95	245.25
623.157	262.25
623.364	244.25
623.571	249.25
623.778	232.25
623.985	239.25
624.192	244.25
624.399	243.25
624.606	243.25
624.812	251.25
625.019	250.25
625.226	244.25
625.433	257.25
625.639	238.25
625.846	235.25
626.053	241.25
626.259	218.25
626.466	232.25
626.673	242.25
626.879	225.25
627.086	222.25
627.293	234.25
627.499	227.25
627.706	210.25
627.912	231.25
628.119	233.25
628.325	228.25
628.532	234.25
628.738	239.25
628.945	229.25
629.151	242.25
629.357	246.25
629.564	227.25
629.77	215.25
629.976	207.25
630.183	213.25
630.389	226.25
630.595	216.25
630.802	225.25
631.008	229.25
631.214	228.25
631.42	232.25
631.627	229.25
631.833	207.25
632.039	225.25
632.245	225.25
632.451	211.25
632.657	215.25
632.863	214.25
633.069	211.25
633.275	208.25
633.481	207.25
633.688	207.25
633.893	216.25
634.099	214.25
634.305	202.25
634.511	203.25
634.717	217.25
634.923	202.25
635.129	197.25
635.335	197.25
635.541	206.25
635.747	198.25
635.952	198.25
636.158	204.25
636.364	211.25
636.57	214.25
636.775	208.25
636.981	196.25
637.187	204.25
637.392	194.25
637.598	208.25
637.804	202.25
638.009	212.25
638.215	205.25
638.421	196.25
638.626	204.25
638.832	207.25
639.037	187.25
639.243	191.25
639.448	192.25
639.654	197.25
639.859	198.25
640.065	208.25
640.27	198.25
640.475	201.25
640.681	207.25
640.886	190.25
641.091	197.25
641.297	200.25
641.502	186.25
641.707	184.25
641.913	182.25
642.118	195.25
642.323	186.25
642.528	187.25
642.733	196.25
642.939	170.25
643.144	184.25
643.349	197.25
643.554	189.25
643.759	182.25
643.964	190.25
644.169	185.25
644.374	171.25
644.579	193.25
644.784	203.25
644.989	166.25
645.194	195.25
645.399	169.25
645.604	182.25
645.809	174.25
646.014	193.25
646.219	183.25
646.423	178.25
646.628	180.25
646.833	186.25
647.038	169.25
647.243	169.25
647.447	190.25
647.652	187.25
647.857	185.25
648.062	182.25
648.266	193.25
648.471	191.25
648.676	199.25
648.88	180.25
649.085	182.25
649.289	189.25
649.494	185.25
649.698	199.25
649.903	204.25
650.107	183.25
650.312	183.25
650.516	171.25
650.721	167.25
650.925	165.25
651.13	169.25
651.334	171.25
651.539	167.25
651.743	153.25
651.947	158.25
652.152	165.25
652.356	166.25
652.56	154.25
652.764	169.25
652.969	155.25
653.173	158.25
653.377	142.25
653.581	151.25
653.785	157.25
653.99	158.25
654.194	151.25
654.398	153.25
654.602	147.25
654.806	138.25
655.01	148.25
655.214	153.25
655.418	161.25
655.622	149.25
655.826	142.25
656.03	146.25
656.234	154.25
656.438	143.25
656.642	147.25
656.846	144.25
657.049	130.25
657.253	118.25
657.457	129.25
657.661	137.25
657.865	116.25
658.068	106.25
658.272	113.25
658.476	112.25
658.68	110.25
658.883	119.25
659.087	118.25
659.291	102.25
659.494	127.25
659.698	105.25
659.901	106.25
660.105	90.25
660.309	98.25
660.512	95.25
660.716	98.25
660.919	105.25
661.123	93.25
661.326	97.25
661.53	91.25
661.733	87.25
661.936	97.25
662.14	82.25
662.343	81.25
662.546	77.25
662.75	93.25
662.953	96.25
663.156	82.25
663.36	102.25
663.563	94.25
663.766	91.25
663.969	89.25
664.173	91.25
664.376	84.25
664.579	89.25
664.782	77.25
664.985	77.25
665.188	93.25
665.391	78.25
665.594	93.25
665.797	85.25
666	79.25
666.203	75.25
666.406	78.25
666.609	94.25
666.812	83.25
667.015	82.25
667.218	86.25
667.421	82.25
667.624	80.25
667.827	74.25
668.03	82.25
668.232	88.25
668.435	86.25
668.638	87.25
668.841	82.25
669.043	101.25
669.246	88.25
669.449	78.25
669.651	97.25
669.854	85.25
670.057	77.25
670.259	80.25
670.462	102.25
670.665	85.25
670.867	76.25
671.07	77.25
671.272	87.25
671.475	83.25
671.677	77.25
671.88	75.25
672.082	89.25
672.284	68.25
672.487	83.25
672.689	73.25
672.892	77.25
