Data from 1974.PennyLincolnUp.Lamp.En5.5.200Scan.071719.P1.Changed Mount._HRD10591_15-54-22-858.txt Node
Date: Thu Jul 18 15:54:22 EDT 2019
User: cochatt
Spectrometer: HR+D1059
Trigger mode: 1
Integration Time (sec): 1.000000E-1
Scans to average: 1
Electric dark correction enabled: true
Nonlinearity correction enabled: false
Boxcar width: 0
XAxis mode: Wavelengths
Number of Pixels in Spectrum: 2048
>>>>>Begin Spectral Data<<<<<
223.165	-15.06
223.4	-15.06
223.635	-15.06
223.869	-13.06
224.104	-21.06
224.338	-9.06
224.573	-12.06
224.808	-11.06
225.042	-5.06
225.277	-4.06
225.511	-1.06
225.746	-6.06
225.98	10.94
226.215	18.94
226.449	20.94
226.683	-0.06
226.918	14.94
227.152	31.94
227.387	37.94
227.621	26.94
227.856	45.94
228.09	42.94
228.324	58.94
228.559	52.94
228.793	72.94
229.027	115.94
229.262	107.94
229.496	126.94
229.73	135.94
229.964	159.94
230.199	140.94
230.433	126.94
230.667	119.94
230.901	110.94
231.136	122.94
231.37	138.94
231.604	129.94
231.838	121.94
232.072	116.94
232.306	131.94
232.541	123.94
232.775	116.94
233.009	127.94
233.243	130.94
233.477	117.94
233.711	126.94
233.945	132.94
234.179	138.94
234.413	134.94
234.647	125.94
234.881	124.94
235.115	125.94
235.349	116.94
235.583	126.94
235.817	136.94
236.051	128.94
236.285	141.94
236.519	130.94
236.753	137.94
236.987	157.94
237.221	172.94
237.455	232.94
237.689	180.94
237.922	146.94
238.156	146.94
238.39	154.94
238.624	134.94
238.858	140.94
239.091	132.94
239.325	145.94
239.559	142.94
239.793	135.94
240.027	144.94
240.26	156.94
240.494	158.94
240.728	162.94
240.961	164.94
241.195	160.94
241.429	132.94
241.662	148.94
241.896	128.94
242.13	141.94
242.363	149.94
242.597	132.94
242.83	146.94
243.064	142.94
243.298	160.94
243.531	156.94
243.765	162.94
243.998	148.94
244.232	159.94
244.465	160.94
244.699	162.94
244.932	168.94
245.166	156.94
245.399	162.94
245.633	169.94
245.866	156.94
246.099	162.94
246.333	164.94
246.566	151.94
246.8	163.94
247.033	151.94
247.266	148.94
247.5	186.94
247.733	188.94
247.966	190.94
248.2	171.94
248.433	179.94
248.666	195.94
248.899	205.94
249.133	220.94
249.366	226.94
249.599	233.94
249.832	200.94
250.066	204.94
250.299	206.94
250.532	204.94
250.765	214.94
250.998	238.94
251.231	247.94
251.465	235.94
251.698	215.94
251.931	223.94
252.164	221.94
252.397	218.94
252.63	215.94
252.863	240.94
253.096	230.94
253.329	244.94
253.562	224.94
253.795	245.94
254.028	222.94
254.261	237.94
254.494	242.94
254.727	278.94
254.96	307.94
255.193	294.94
255.426	272.94
255.659	263.94
255.892	260.94
256.124	261.94
256.357	253.94
256.59	253.94
256.823	250.94
257.056	247.94
257.289	234.94
257.521	248.94
257.754	235.94
257.987	229.94
258.22	233.94
258.452	218.94
258.685	231.94
258.918	237.94
259.151	232.94
259.383	238.94
259.616	249.94
259.849	240.94
260.081	258.94
260.314	268.94
260.547	277.94
260.779	274.94
261.012	250.94
261.244	240.94
261.477	239.94
261.71	236.94
261.942	231.94
262.175	256.94
262.407	260.94
262.64	241.94
262.872	239.94
263.105	229.94
263.337	249.94
263.57	246.94
263.802	256.94
264.035	242.94
264.267	245.94
264.499	246.94
264.732	246.94
264.964	230.94
265.197	235.94
265.429	219.94
265.661	234.94
265.894	240.94
266.126	229.94
266.358	235.94
266.591	229.94
266.823	265.94
267.055	244.94
267.287	271.94
267.52	256.94
267.752	250.94
267.984	259.94
268.216	258.94
268.448	264.94
268.681	259.94
268.913	279.94
269.145	273.94
269.377	319.94
269.609	323.94
269.841	310.94
270.073	310.94
270.306	328.94
270.538	346.94
270.77	347.94
271.002	335.94
271.234	339.94
271.466	320.94
271.698	355.94
271.93	341.94
272.162	343.94
272.394	332.94
272.626	327.94
272.858	314.94
273.09	294.94
273.322	280.94
273.553	290.94
273.785	290.94
274.017	284.94
274.249	293.94
274.481	292.94
274.713	311.94
274.945	301.94
275.176	300.94
275.408	290.94
275.64	286.94
275.872	280.94
276.104	312.94
276.335	300.94
276.567	288.94
276.799	329.94
277.031	322.94
277.262	338.94
277.494	354.94
277.726	328.94
277.957	331.94
278.189	331.94
278.421	299.94
278.652	297.94
278.884	300.94
279.115	325.94
279.347	298.94
279.579	309.94
279.81	302.94
280.042	290.94
280.273	292.94
280.505	298.94
280.736	298.94
280.968	292.94
281.199	310.94
281.431	298.94
281.662	304.94
281.894	309.94
282.125	316.94
282.356	335.94
282.588	360.94
282.819	330.94
283.051	320.94
283.282	295.94
283.513	326.94
283.745	324.94
283.976	318.94
284.207	328.94
284.439	325.94
284.67	336.94
284.901	319.94
285.132	319.94
285.364	307.94
285.595	327.94
285.826	321.94
286.057	310.94
286.288	324.94
286.52	342.94
286.751	324.94
286.982	312.94
287.213	325.94
287.444	323.94
287.675	323.94
287.906	328.94
288.138	321.94
288.369	325.94
288.6	334.94
288.831	333.94
289.062	340.94
289.293	336.94
289.524	336.94
289.755	315.94
289.986	312.94
290.217	318.94
290.448	319.94
290.679	326.94
290.91	340.94
291.141	322.94
291.371	315.94
291.602	336.94
291.833	319.94
292.064	331.94
292.295	340.94
292.526	333.94
292.757	329.94
292.987	341.94
293.218	332.94
293.449	330.94
293.68	337.94
293.91	348.94
294.141	342.94
294.372	346.94
294.603	332.94
294.833	333.94
295.064	330.94
295.295	347.94
295.525	335.94
295.756	356.94
295.987	352.94
296.217	373.94
296.448	360.94
296.679	377.94
296.909	344.94
297.14	334.94
297.37	356.94
297.601	351.94
297.831	330.94
298.062	345.94
298.292	355.94
298.523	358.94
298.753	333.94
298.984	355.94
299.214	347.94
299.445	347.94
299.675	344.94
299.905	358.94
300.136	350.94
300.366	351.94
300.597	361.94
300.827	367.94
301.057	359.94
301.288	360.94
301.518	364.94
301.748	364.94
301.979	366.94
302.209	359.94
302.439	380.94
302.669	380.94
302.9	381.94
303.13	370.94
303.36	387.94
303.59	379.94
303.82	363.94
304.051	374.94
304.281	362.94
304.511	379.94
304.741	378.94
304.971	380.94
305.201	380.94
305.431	382.94
305.661	370.94
305.891	381.94
306.121	374.94
306.352	371.94
306.582	376.94
306.812	384.94
307.042	394.94
307.272	366.94
307.502	358.94
307.731	382.94
307.961	380.94
308.191	376.94
308.421	381.94
308.651	390.94
308.881	378.94
309.111	388.94
309.341	382.94
309.571	381.94
309.8	407.94
310.03	390.94
310.26	379.94
310.49	408.94
310.72	401.94
310.949	414.94
311.179	421.94
311.409	425.94
311.639	401.94
311.868	414.94
312.098	396.94
312.328	412.94
312.557	419.94
312.787	424.94
313.017	427.94
313.246	422.94
313.476	418.94
313.706	417.94
313.935	423.94
314.165	432.94
314.394	415.94
314.624	406.94
314.853	425.94
315.083	423.94
315.312	418.94
315.542	412.94
315.771	394.94
316.001	423.94
316.23	420.94
316.46	401.94
316.689	434.94
316.919	429.94
317.148	408.94
317.377	410.94
317.607	429.94
317.836	407.94
318.065	415.94
318.295	412.94
318.524	437.94
318.753	420.94
318.983	423.94
319.212	420.94
319.441	424.94
319.67	406.94
319.9	434.94
320.129	415.94
320.358	443.94
320.587	450.94
320.816	432.94
321.046	431.94
321.275	446.94
321.504	434.94
321.733	441.94
321.962	470.94
322.191	439.94
322.42	459.94
322.649	462.94
322.878	475.94
323.108	472.94
323.337	516.94
323.566	508.94
323.795	550.94
324.024	565.94
324.253	678.94
324.482	922.94
324.71	1414.94
324.939	2035.94
325.168	1796.94
325.397	959.94
325.626	656.94
325.855	544.94
326.084	538.94
326.313	502.94
326.542	521.94
326.77	554.94
326.999	648.94
327.228	864.94
327.457	1268.94
327.686	1584.94
327.914	1056.94
328.143	683.94
328.372	612.94
328.6	591.94
328.829	569.94
329.058	587.94
329.287	600.94
329.515	580.94
329.744	520.94
329.972	554.94
330.201	550.94
330.43	565.94
330.658	587.94
330.887	595.94
331.115	628.94
331.344	572.94
331.572	516.94
331.801	555.94
332.03	522.94
332.258	532.94
332.486	522.94
332.715	506.94
332.943	516.94
333.172	524.94
333.4	519.94
333.629	557.94
333.857	560.94
334.085	574.94
334.314	570.94
334.542	592.94
334.771	602.94
334.999	544.94
335.227	552.94
335.455	524.94
335.684	528.94
335.912	494.94
336.14	523.94
336.369	524.94
336.597	525.94
336.825	524.94
337.053	529.94
337.281	484.94
337.51	488.94
337.738	502.94
337.966	516.94
338.194	498.94
338.422	510.94
338.65	491.94
338.878	481.94
339.106	481.94
339.334	471.94
339.562	486.94
339.79	487.94
340.018	470.94
340.246	471.94
340.474	479.94
340.702	486.94
340.93	505.94
341.158	480.94
341.386	474.94
341.614	487.94
341.842	471.94
342.07	478.94
342.298	491.94
342.526	479.94
342.754	488.94
342.981	473.94
343.209	494.94
343.437	496.94
343.665	482.94
343.893	508.94
344.12	509.94
344.348	534.94
344.576	538.94
344.804	504.94
345.031	507.94
345.259	528.94
345.487	500.94
345.714	480.94
345.942	463.94
346.17	472.94
346.397	488.94
346.625	460.94
346.853	492.94
347.08	454.94
347.308	468.94
347.535	483.94
347.763	469.94
347.99	478.94
348.218	487.94
348.445	501.94
348.673	462.94
348.9	474.94
349.128	480.94
349.355	470.94
349.583	470.94
349.81	454.94
350.037	452.94
350.265	461.94
350.492	464.94
350.72	460.94
350.947	476.94
351.174	473.94
351.402	490.94
351.629	452.94
351.856	470.94
352.083	476.94
352.311	499.94
352.538	503.94
352.765	472.94
352.992	472.94
353.22	472.94
353.447	453.94
353.674	442.94
353.901	456.94
354.128	452.94
354.355	448.94
354.583	470.94
354.81	438.94
355.037	458.94
355.264	463.94
355.491	452.94
355.718	439.94
355.945	429.94
356.172	460.94
356.399	431.94
356.626	461.94
356.853	477.94
357.08	439.94
357.307	443.94
357.534	454.94
357.761	454.94
357.988	458.94
358.215	446.94
358.441	460.94
358.668	468.94
358.895	472.94
359.122	443.94
359.349	463.94
359.576	455.94
359.802	488.94
360.029	519.94
360.256	491.94
360.483	501.94
360.709	494.94
360.936	475.94
361.163	470.94
361.39	469.94
361.616	480.94
361.843	464.94
362.07	459.94
362.296	452.94
362.523	487.94
362.749	461.94
362.976	478.94
363.203	484.94
363.429	446.94
363.656	470.94
363.882	453.94
364.109	455.94
364.335	471.94
364.562	458.94
364.788	462.94
365.015	462.94
365.241	462.94
365.468	465.94
365.694	462.94
365.92	452.94
366.147	463.94
366.373	459.94
366.599	458.94
366.826	456.94
367.052	463.94
367.278	474.94
367.505	475.94
367.731	462.94
367.957	458.94
368.184	465.94
368.41	490.94
368.636	470.94
368.862	483.94
369.089	464.94
369.315	458.94
369.541	473.94
369.767	446.94
369.993	473.94
370.219	450.94
370.445	471.94
370.672	461.94
370.898	458.94
371.124	477.94
371.35	447.94
371.576	471.94
371.802	463.94
372.028	475.94
372.254	461.94
372.48	476.94
372.706	464.94
372.932	465.94
373.158	493.94
373.384	490.94
373.61	473.94
373.835	474.94
374.061	490.94
374.287	463.94
374.513	476.94
374.739	475.94
374.965	475.94
375.191	491.94
375.416	479.94
375.642	477.94
375.868	473.94
376.094	468.94
376.319	479.94
376.545	460.94
376.771	458.94
376.997	454.94
377.222	468.94
377.448	471.94
377.674	460.94
377.899	469.94
378.125	462.94
378.35	454.94
378.576	449.94
378.802	462.94
379.027	481.94
379.253	463.94
379.478	471.94
379.704	470.94
379.929	446.94
380.155	474.94
380.38	476.94
380.606	448.94
380.831	459.94
381.057	455.94
381.282	480.94
381.507	463.94
381.733	468.94
381.958	480.94
382.184	484.94
382.409	468.94
382.634	489.94
382.86	494.94
383.085	475.94
383.31	500.94
383.535	501.94
383.761	490.94
383.986	501.94
384.211	497.94
384.436	486.94
384.662	500.94
384.887	505.94
385.112	522.94
385.337	531.94
385.562	523.94
385.787	506.94
386.013	545.94
386.238	532.94
386.463	546.94
386.688	528.94
386.913	524.94
387.138	536.94
387.363	537.94
387.588	537.94
387.813	526.94
388.038	507.94
388.263	515.94
388.488	523.94
388.713	526.94
388.938	536.94
389.163	528.94
389.387	503.94
389.612	534.94
389.837	525.94
390.062	503.94
390.287	527.94
390.512	542.94
390.736	541.94
390.961	523.94
391.186	532.94
391.411	550.94
391.636	534.94
391.86	546.94
392.085	552.94
392.31	553.94
392.534	545.94
392.759	542.94
392.984	553.94
393.208	503.94
393.433	525.94
393.658	537.94
393.882	534.94
394.107	536.94
394.331	548.94
394.556	551.94
394.78	539.94
395.005	544.94
395.229	572.94
395.454	563.94
395.678	567.94
395.903	585.94
396.127	574.94
396.352	582.94
396.576	552.94
396.801	543.94
397.025	575.94
397.249	551.94
397.474	564.94
397.698	571.94
397.922	593.94
398.147	601.94
398.371	617.94
398.595	603.94
398.82	606.94
399.044	612.94
399.268	664.94
399.492	708.94
399.717	725.94
399.941	791.94
400.165	797.94
400.389	785.94
400.613	696.94
400.837	644.94
401.062	609.94
401.286	638.94
401.51	630.94
401.734	610.94
401.958	633.94
402.182	638.94
402.406	633.94
402.63	633.94
402.854	629.94
403.078	628.94
403.302	634.94
403.526	632.94
403.75	642.94
403.974	644.94
404.198	662.94
404.422	646.94
404.645	678.94
404.869	642.94
405.093	677.94
405.317	703.94
405.541	768.94
405.765	686.94
405.988	678.94
406.212	679.94
406.436	679.94
406.66	729.94
406.883	686.94
407.107	717.94
407.331	779.94
407.555	864.94
407.778	836.94
408.002	781.94
408.226	694.94
408.449	708.94
408.673	702.94
408.896	722.94
409.12	772.94
409.344	744.94
409.567	670.94
409.791	648.94
410.014	643.94
410.238	632.94
410.461	628.94
410.685	628.94
410.908	664.94
411.132	681.94
411.355	718.94
411.578	702.94
411.802	660.94
412.025	639.94
412.249	661.94
412.472	674.94
412.695	721.94
412.919	707.94
413.142	647.94
413.365	636.94
413.589	631.94
413.812	620.94
414.035	625.94
414.258	610.94
414.482	612.94
414.705	619.94
414.928	604.94
415.151	602.94
415.374	599.94
415.597	609.94
415.821	615.94
416.044	613.94
416.267	593.94
416.49	604.94
416.713	617.94
416.936	606.94
417.159	589.94
417.382	630.94
417.605	607.94
417.828	615.94
418.051	639.94
418.274	622.94
418.497	628.94
418.72	605.94
418.943	636.94
419.166	636.94
419.389	659.94
419.611	649.94
419.834	661.94
420.057	654.94
420.28	646.94
420.503	645.94
420.726	624.94
420.948	660.94
421.171	674.94
421.394	733.94
421.617	665.94
421.839	633.94
422.062	632.94
422.285	645.94
422.507	692.94
422.73	790.94
422.953	782.94
423.175	666.94
423.398	667.94
423.621	651.94
423.843	682.94
424.066	688.94
424.288	706.94
424.511	695.94
424.733	784.94
424.956	833.94
425.178	802.94
425.401	793.94
425.623	820.94
425.846	714.94
426.068	656.94
426.291	687.94
426.513	668.94
426.735	656.94
426.958	714.94
427.18	804.94
427.402	949.94
427.625	1040.94
427.847	898.94
428.069	759.94
428.292	714.94
428.514	662.94
428.736	636.94
428.958	645.94
429.181	610.94
429.403	632.94
429.625	615.94
429.847	658.94
430.069	733.94
430.292	737.94
430.514	642.94
430.736	630.94
430.958	596.94
431.18	594.94
431.402	605.94
431.624	604.94
431.846	585.94
432.068	609.94
432.29	604.94
432.512	590.94
432.734	595.94
432.956	596.94
433.178	588.94
433.4	637.94
433.622	603.94
433.844	612.94
434.066	596.94
434.287	594.94
434.509	614.94
434.731	617.94
434.953	628.94
435.175	646.94
435.397	680.94
435.618	664.94
435.84	707.94
436.062	798.94
436.284	869.94
436.505	764.94
436.727	650.94
436.949	648.94
437.17	636.94
437.392	613.94
437.614	614.94
437.835	659.94
438.057	748.94
438.278	869.94
438.5	875.94
438.721	942.94
438.943	916.94
439.165	728.94
439.386	690.94
439.608	664.94
439.829	644.94
440.05	674.94
440.272	723.94
440.493	684.94
440.715	652.94
440.936	648.94
441.158	607.94
441.379	610.94
441.6	630.94
441.822	647.94
442.043	743.94
442.264	799.94
442.486	843.94
442.707	723.94
442.928	690.94
443.149	697.94
443.371	732.94
443.592	746.94
443.813	855.94
444.034	948.94
444.255	792.94
444.476	725.94
444.698	718.94
444.919	699.94
445.14	810.94
445.361	746.94
445.582	718.94
445.803	798.94
446.024	899.94
446.245	904.94
446.466	804.94
446.687	707.94
446.908	663.94
447.129	642.94
447.35	620.94
447.571	610.94
447.792	599.94
448.013	646.94
448.234	630.94
448.455	702.94
448.675	790.94
448.896	908.94
449.117	814.94
449.338	736.94
449.559	867.94
449.779	962.94
450	804.94
450.221	657.94
450.442	612.94
450.662	589.94
450.883	604.94
451.104	601.94
451.324	607.94
451.545	580.94
451.766	586.94
451.986	550.94
452.207	534.94
452.428	539.94
452.648	532.94
452.869	549.94
453.089	563.94
453.31	582.94
453.53	561.94
453.751	543.94
453.971	550.94
454.192	572.94
454.412	574.94
454.633	555.94
454.853	531.94
455.073	536.94
455.294	574.94
455.514	631.94
455.734	616.94
455.955	553.94
456.175	528.94
456.395	526.94
456.616	513.94
456.836	527.94
457.056	507.94
457.276	485.94
457.497	510.94
457.717	508.94
457.937	536.94
458.157	542.94
458.377	548.94
458.598	581.94
458.818	601.94
459.038	684.94
459.258	729.94
459.478	626.94
459.698	600.94
459.918	580.94
460.138	622.94
460.358	588.94
460.578	626.94
460.798	619.94
461.018	604.94
461.238	618.94
461.458	600.94
461.678	609.94
461.898	599.94
462.118	618.94
462.338	644.94
462.558	636.94
462.777	634.94
462.997	672.94
463.217	706.94
463.437	696.94
463.657	683.94
463.876	637.94
464.096	682.94
464.316	678.94
464.536	662.94
464.755	663.94
464.975	655.94
465.195	672.94
465.414	707.94
465.634	674.94
465.854	642.94
466.073	617.94
466.293	599.94
466.512	580.94
466.732	591.94
466.951	569.94
467.171	578.94
467.391	555.94
467.61	586.94
467.829	588.94
468.049	570.94
468.268	579.94
468.488	554.94
468.707	555.94
468.927	555.94
469.146	535.94
469.365	563.94
469.585	563.94
469.804	563.94
470.023	553.94
470.243	581.94
470.462	589.94
470.681	600.94
470.901	600.94
471.12	578.94
471.339	575.94
471.558	586.94
471.777	570.94
471.997	588.94
472.216	565.94
472.435	583.94
472.654	576.94
472.873	556.94
473.092	571.94
473.311	554.94
473.53	554.94
473.749	568.94
473.968	600.94
474.187	726.94
474.406	772.94
474.625	629.94
474.844	608.94
475.063	577.94
475.282	583.94
475.501	572.94
475.72	579.94
475.939	601.94
476.158	595.94
476.377	598.94
476.596	572.94
476.814	621.94
477.033	600.94
477.252	616.94
477.471	601.94
477.69	632.94
477.908	631.94
478.127	631.94
478.346	617.94
478.564	635.94
478.783	660.94
479.002	677.94
479.22	651.94
479.439	657.94
479.658	662.94
479.876	698.94
480.095	688.94
480.313	730.94
480.532	719.94
480.751	707.94
480.969	739.94
481.188	748.94
481.406	759.94
481.624	712.94
481.843	703.94
482.061	682.94
482.28	695.94
482.498	658.94
482.717	690.94
482.935	662.94
483.153	659.94
483.372	663.94
483.59	676.94
483.808	666.94
484.027	657.94
484.245	644.94
484.463	664.94
484.681	699.94
484.9	707.94
485.118	689.94
485.336	669.94
485.554	686.94
485.772	683.94
485.99	686.94
486.209	696.94
486.427	684.94
486.645	706.94
486.863	712.94
487.081	723.94
487.299	732.94
487.517	723.94
487.735	699.94
487.953	713.94
488.171	706.94
488.389	703.94
488.607	705.94
488.825	717.94
489.043	719.94
489.261	755.94
489.479	717.94
489.696	731.94
489.914	747.94
490.132	759.94
490.35	751.94
490.568	782.94
490.786	790.94
491.003	788.94
491.221	788.94
491.439	798.94
491.657	809.94
491.874	822.94
492.092	835.94
492.31	831.94
492.527	870.94
492.745	820.94
492.963	852.94
493.18	857.94
493.398	887.94
493.615	849.94
493.833	862.94
494.05	880.94
494.268	860.94
494.485	887.94
494.703	876.94
494.92	866.94
495.138	876.94
495.355	867.94
495.573	863.94
495.79	845.94
496.008	828.94
496.225	864.94
496.442	888.94
496.66	849.94
496.877	870.94
497.094	863.94
497.312	893.94
497.529	896.94
497.746	902.94
497.963	905.94
498.181	951.94
498.398	962.94
498.615	959.94
498.832	1000.94
499.049	1042.94
499.267	1065.94
499.484	1121.94
499.701	1123.94
499.918	1214.94
500.135	1260.94
500.352	1366.94
500.569	1358.94
500.786	1379.94
501.003	1320.94
501.22	1259.94
501.437	1251.94
501.654	1184.94
501.871	1149.94
502.088	1093.94
502.305	1057.94
502.522	1002.94
502.739	977.94
502.956	955.94
503.172	917.94
503.389	894.94
503.606	896.94
503.823	895.94
504.04	894.94
504.256	896.94
504.473	900.94
504.69	865.94
504.907	905.94
505.123	852.94
505.34	806.94
505.557	818.94
505.773	841.94
505.99	821.94
506.207	799.94
506.423	796.94
506.64	792.94
506.856	796.94
507.073	790.94
507.289	797.94
507.506	794.94
507.722	784.94
507.939	818.94
508.155	780.94
508.372	761.94
508.588	783.94
508.805	789.94
509.021	781.94
509.238	762.94
509.454	793.94
509.67	750.94
509.887	762.94
510.103	774.94
510.319	744.94
510.536	813.94
510.752	1190.94
510.968	1034.94
511.184	748.94
511.401	740.94
511.617	713.94
511.833	698.94
512.049	700.94
512.265	700.94
512.481	700.94
512.698	709.94
512.914	719.94
513.13	740.94
513.346	719.94
513.562	697.94
513.778	724.94
513.994	716.94
514.21	725.94
514.426	720.94
514.642	764.94
514.858	771.94
515.074	821.94
515.29	934.94
515.506	1210.94
515.721	1058.94
515.937	801.94
516.153	763.94
516.369	750.94
516.585	750.94
516.801	742.94
517.016	768.94
517.232	758.94
517.448	741.94
517.664	750.94
517.879	766.94
518.095	770.94
518.311	757.94
518.527	762.94
518.742	727.94
518.958	727.94
519.173	723.94
519.389	717.94
519.605	695.94
519.82	695.94
520.036	722.94
520.251	728.94
520.467	729.94
520.682	741.94
520.898	764.94
521.113	771.94
521.329	778.94
521.544	848.94
521.76	1016.94
521.975	1536.94
522.19	1471.94
522.406	934.94
522.621	760.94
522.836	685.94
523.052	685.94
523.267	662.94
523.482	650.94
523.698	646.94
523.913	638.94
524.128	648.94
524.343	627.94
524.559	608.94
524.774	614.94
524.989	613.94
525.204	622.94
525.419	624.94
525.634	616.94
525.849	616.94
526.064	589.94
526.28	582.94
526.495	584.94
526.71	601.94
526.925	592.94
527.14	587.94
527.355	592.94
527.57	596.94
527.785	599.94
527.999	582.94
528.214	592.94
528.429	573.94
528.644	586.94
528.859	589.94
529.074	590.94
529.289	612.94
529.503	665.94
529.718	642.94
529.933	620.94
530.148	587.94
530.363	606.94
530.577	573.94
530.792	548.94
531.007	553.94
531.221	563.94
531.436	583.94
531.651	578.94
531.865	581.94
532.08	590.94
532.295	557.94
532.509	552.94
532.724	571.94
532.938	560.94
533.153	557.94
533.367	569.94
533.582	574.94
533.796	577.94
534.011	562.94
534.225	574.94
534.44	568.94
534.654	567.94
534.868	543.94
535.083	555.94
535.297	564.94
535.511	556.94
535.726	591.94
535.94	579.94
536.154	565.94
536.369	541.94
536.583	551.94
536.797	544.94
537.011	557.94
537.225	539.94
537.44	549.94
537.654	539.94
537.868	548.94
538.082	533.94
538.296	536.94
538.51	535.94
538.724	551.94
538.938	562.94
539.153	539.94
539.367	568.94
539.581	546.94
539.795	522.94
540.009	538.94
540.222	534.94
540.436	569.94
540.65	551.94
540.864	536.94
541.078	548.94
541.292	570.94
541.506	564.94
541.72	573.94
541.934	554.94
542.147	552.94
542.361	550.94
542.575	526.94
542.789	526.94
543.002	549.94
543.216	540.94
543.43	554.94
543.644	545.94
543.857	568.94
544.071	546.94
544.285	579.94
544.498	564.94
544.712	547.94
544.925	544.94
545.139	559.94
545.352	531.94
545.566	559.94
545.779	554.94
545.993	531.94
546.206	530.94
546.42	538.94
546.633	552.94
546.847	538.94
547.06	546.94
547.274	535.94
547.487	529.94
547.7	550.94
547.914	528.94
548.127	518.94
548.34	522.94
548.554	522.94
548.767	534.94
548.98	557.94
549.193	543.94
549.407	527.94
549.62	537.94
549.833	537.94
550.046	525.94
550.259	524.94
550.473	525.94
550.686	528.94
550.899	518.94
551.112	528.94
551.325	532.94
551.538	522.94
551.751	525.94
551.964	529.94
552.177	520.94
552.39	532.94
552.603	547.94
552.816	551.94
553.029	549.94
553.242	540.94
553.455	525.94
553.667	562.94
553.88	550.94
554.093	554.94
554.306	551.94
554.519	524.94
554.732	526.94
554.944	534.94
555.157	507.94
555.37	514.94
555.583	514.94
555.795	515.94
556.008	482.94
556.221	495.94
556.433	495.94
556.646	500.94
556.859	492.94
557.071	493.94
557.284	490.94
557.496	485.94
557.709	479.94
557.921	477.94
558.134	490.94
558.346	456.94
558.559	464.94
558.771	484.94
558.984	463.94
559.196	480.94
559.409	474.94
559.621	468.94
559.833	469.94
560.046	459.94
560.258	473.94
560.47	471.94
560.683	458.94
560.895	450.94
561.107	460.94
561.32	470.94
561.532	453.94
561.744	462.94
561.956	454.94
562.168	470.94
562.381	468.94
562.593	489.94
562.805	477.94
563.017	482.94
563.229	468.94
563.441	466.94
563.653	474.94
563.865	468.94
564.077	480.94
564.289	484.94
564.501	480.94
564.713	492.94
564.925	520.94
565.137	523.94
565.349	512.94
565.561	516.94
565.773	510.94
565.985	551.94
566.197	546.94
566.408	572.94
566.62	585.94
566.832	604.94
567.044	599.94
567.255	619.94
567.467	622.94
567.679	619.94
567.891	651.94
568.102	648.94
568.314	651.94
568.526	623.94
568.737	568.94
568.949	538.94
569.161	512.94
569.372	499.94
569.584	497.94
569.795	480.94
570.007	479.94
570.218	496.94
570.43	495.94
570.641	457.94
570.853	463.94
571.064	444.94
571.276	465.94
571.487	453.94
571.698	447.94
571.91	424.94
572.121	430.94
572.333	428.94
572.544	435.94
572.755	430.94
572.966	410.94
573.178	412.94
573.389	414.94
573.6	397.94
573.811	394.94
574.023	396.94
574.234	421.94
574.445	415.94
574.656	402.94
574.867	391.94
575.078	418.94
575.289	398.94
575.501	407.94
575.712	391.94
575.923	393.94
576.134	399.94
576.345	375.94
576.556	382.94
576.767	386.94
576.978	380.94
577.188	403.94
577.399	385.94
577.61	383.94
577.821	368.94
578.032	371.94
578.243	406.94
578.454	582.94
578.665	450.94
578.875	386.94
579.086	363.94
579.297	370.94
579.508	348.94
579.718	378.94
579.929	356.94
580.14	371.94
580.35	360.94
580.561	370.94
580.772	363.94
580.982	361.94
581.193	368.94
581.403	349.94
581.614	382.94
581.825	348.94
582.035	375.94
582.246	357.94
582.456	364.94
582.667	367.94
582.877	349.94
583.087	339.94
583.298	368.94
583.508	354.94
583.719	358.94
583.929	342.94
584.139	347.94
584.35	336.94
584.56	347.94
584.77	348.94
584.981	352.94
585.191	356.94
585.401	347.94
585.611	334.94
585.821	346.94
586.032	346.94
586.242	349.94
586.452	357.94
586.662	340.94
586.872	345.94
587.082	347.94
587.292	331.94
587.502	351.94
587.713	347.94
587.923	358.94
588.133	361.94
588.343	340.94
588.553	328.94
588.762	341.94
588.972	355.94
589.182	333.94
589.392	347.94
589.602	340.94
589.812	313.94
590.022	343.94
590.232	336.94
590.441	335.94
590.651	348.94
590.861	355.94
591.071	354.94
591.281	329.94
591.49	339.94
591.7	329.94
591.91	372.94
592.119	354.94
592.329	343.94
592.539	373.94
592.748	365.94
592.958	368.94
593.167	382.94
593.377	389.94
593.587	370.94
593.796	378.94
594.006	390.94
594.215	400.94
594.424	384.94
594.634	387.94
594.843	362.94
595.053	365.94
595.262	368.94
595.472	374.94
595.681	341.94
595.89	346.94
596.1	345.94
596.309	343.94
596.518	327.94
596.727	347.94
596.937	335.94
597.146	325.94
597.355	340.94
597.564	310.94
597.774	292.94
597.983	319.94
598.192	316.94
598.401	318.94
598.61	318.94
598.819	323.94
599.028	296.94
599.237	294.94
599.446	309.94
599.655	302.94
599.864	302.94
600.073	307.94
600.282	314.94
600.491	290.94
600.7	332.94
600.909	311.94
601.118	295.94
601.327	287.94
601.536	301.94
601.745	295.94
601.953	293.94
602.162	310.94
602.371	318.94
602.58	308.94
602.789	294.94
602.997	290.94
603.206	291.94
603.415	283.94
603.623	294.94
603.832	283.94
604.041	290.94
604.249	270.94
604.458	292.94
604.666	272.94
604.875	278.94
605.084	298.94
605.292	276.94
605.501	272.94
605.709	280.94
605.918	283.94
606.126	284.94
606.334	293.94
606.543	286.94
606.751	283.94
606.96	298.94
607.168	288.94
607.376	280.94
607.585	271.94
607.793	288.94
608.001	282.94
608.21	284.94
608.418	272.94
608.626	276.94
608.834	275.94
609.043	294.94
609.251	250.94
609.459	277.94
609.667	278.94
609.875	274.94
610.083	280.94
610.291	281.94
610.499	270.94
610.707	271.94
610.916	278.94
611.124	277.94
611.332	286.94
611.54	292.94
611.748	292.94
611.955	282.94
612.163	272.94
612.371	270.94
612.579	286.94
612.787	284.94
612.995	261.94
613.203	294.94
613.411	283.94
613.618	294.94
613.826	285.94
614.034	280.94
614.242	270.94
614.449	268.94
614.657	277.94
614.865	283.94
615.072	291.94
615.28	269.94
615.488	286.94
615.695	270.94
615.903	280.94
616.111	288.94
616.318	270.94
616.526	276.94
616.733	277.94
616.941	283.94
617.148	300.94
617.356	284.94
617.563	291.94
617.771	263.94
617.978	268.94
618.185	266.94
618.393	254.94
618.6	263.94
618.807	278.94
619.015	263.94
619.222	264.94
619.429	280.94
619.637	274.94
619.844	267.94
620.051	270.94
620.258	272.94
620.466	250.94
620.673	253.94
620.88	250.94
621.087	243.94
621.294	247.94
621.501	251.94
621.708	266.94
621.915	249.94
622.122	269.94
622.329	270.94
622.536	262.94
622.743	247.94
622.95	260.94
623.157	235.94
623.364	256.94
623.571	262.94
623.778	239.94
623.985	239.94
624.192	265.94
624.399	248.94
624.606	242.94
624.812	261.94
625.019	249.94
625.226	239.94
625.433	250.94
625.639	226.94
625.846	230.94
626.053	229.94
626.259	236.94
626.466	238.94
626.673	254.94
626.879	233.94
627.086	228.94
627.293	234.94
627.499	244.94
627.706	231.94
627.912	226.94
628.119	227.94
628.325	235.94
628.532	221.94
628.738	220.94
628.945	230.94
629.151	228.94
629.357	230.94
629.564	230.94
629.77	240.94
629.976	226.94
630.183	230.94
630.389	228.94
630.595	231.94
630.802	223.94
631.008	238.94
631.214	237.94
631.42	233.94
631.627	235.94
631.833	210.94
632.039	210.94
632.245	216.94
632.451	204.94
632.657	214.94
632.863	232.94
633.069	213.94
633.275	202.94
633.481	212.94
633.688	200.94
633.893	202.94
634.099	218.94
634.305	213.94
634.511	198.94
634.717	200.94
634.923	208.94
635.129	188.94
635.335	198.94
635.541	200.94
635.747	210.94
635.952	196.94
636.158	204.94
636.364	206.94
636.57	210.94
636.775	204.94
636.981	202.94
637.187	222.94
637.392	208.94
637.598	211.94
637.804	226.94
638.009	221.94
638.215	227.94
638.421	193.94
638.626	197.94
638.832	197.94
639.037	208.94
639.243	186.94
639.448	202.94
639.654	173.94
639.859	206.94
640.065	199.94
640.27	198.94
640.475	201.94
640.681	199.94
640.886	215.94
641.091	197.94
641.297	198.94
641.502	181.94
641.707	182.94
641.913	191.94
642.118	175.94
642.323	191.94
642.528	202.94
642.733	198.94
642.939	185.94
643.144	207.94
643.349	200.94
643.554	211.94
643.759	189.94
643.964	178.94
644.169	190.94
644.374	200.94
644.579	177.94
644.784	194.94
644.989	174.94
645.194	196.94
645.399	196.94
645.604	191.94
645.809	179.94
646.014	182.94
646.219	195.94
646.423	180.94
646.628	192.94
646.833	194.94
647.038	200.94
647.243	175.94
647.447	198.94
647.652	204.94
647.857	198.94
648.062	184.94
648.266	202.94
648.471	188.94
648.676	208.94
648.88	202.94
649.085	187.94
649.289	190.94
649.494	188.94
649.698	214.94
649.903	215.94
650.107	204.94
650.312	203.94
650.516	179.94
650.721	180.94
650.925	183.94
651.13	169.94
651.334	170.94
651.539	171.94
651.743	163.94
651.947	160.94
652.152	168.94
652.356	168.94
652.56	168.94
652.764	160.94
652.969	167.94
653.173	150.94
653.377	155.94
653.581	163.94
653.785	165.94
653.99	147.94
654.194	157.94
654.398	142.94
654.602	154.94
654.806	159.94
655.01	166.94
655.214	146.94
655.418	147.94
655.622	158.94
655.826	144.94
656.03	136.94
656.234	136.94
656.438	158.94
656.642	140.94
656.846	155.94
657.049	150.94
657.253	134.94
657.457	138.94
657.661	124.94
657.865	127.94
658.068	127.94
658.272	115.94
658.476	108.94
658.68	108.94
658.883	103.94
659.087	119.94
659.291	113.94
659.494	110.94
659.698	117.94
659.901	106.94
660.105	97.94
660.309	97.94
660.512	98.94
660.716	111.94
660.919	92.94
661.123	107.94
661.326	92.94
661.53	91.94
661.733	87.94
661.936	77.94
662.14	85.94
662.343	92.94
662.546	87.94
662.75	92.94
662.953	87.94
663.156	94.94
663.36	93.94
663.563	93.94
663.766	85.94
663.969	89.94
664.173	90.94
664.376	83.94
664.579	92.94
664.782	91.94
664.985	92.94
665.188	89.94
665.391	91.94
665.594	90.94
665.797	76.94
666	90.94
666.203	88.94
666.406	87.94
666.609	78.94
666.812	80.94
667.015	79.94
667.218	77.94
667.421	106.94
667.624	86.94
667.827	104.94
668.03	84.94
668.232	80.94
668.435	82.94
668.638	76.94
668.841	82.94
669.043	79.94
669.246	84.94
669.449	89.94
669.651	82.94
669.854	84.94
670.057	72.94
670.259	83.94
670.462	94.94
670.665	76.94
670.867	91.94
671.07	92.94
671.272	80.94
671.475	71.94
671.677	75.94
671.88	76.94
672.082	79.94
672.284	89.94
672.487	91.94
672.689	80.94
672.892	80.94
