Data from 1974.PennyLincolnUp.Lamp.En5.5.200Scan.071719.P1.Changed Mount._HRD10591_15-52-30-856.txt Node
Date: Thu Jul 18 15:52:30 EDT 2019
User: cochatt
Spectrometer: HR+D1059
Trigger mode: 1
Integration Time (sec): 1.000000E-1
Scans to average: 1
Electric dark correction enabled: true
Nonlinearity correction enabled: false
Boxcar width: 0
XAxis mode: Wavelengths
Number of Pixels in Spectrum: 2048
>>>>>Begin Spectral Data<<<<<
223.165	-13
223.4	-13
223.635	-13
223.869	-22
224.104	-21
224.338	-5
224.573	-14
224.808	-5
225.042	-4
225.277	-2
225.511	-10
225.746	11
225.98	2
226.215	17
226.449	7
226.683	14
226.918	14
227.152	31
227.387	30
227.621	46
227.856	33
228.09	41
228.324	37
228.559	51
228.793	67
229.027	92
229.262	107
229.496	117
229.73	133
229.964	162
230.199	112
230.433	106
230.667	101
230.901	112
231.136	110
231.37	104
231.604	126
231.838	106
232.072	120
232.306	107
232.541	113
232.775	107
233.009	115
233.243	112
233.477	108
233.711	116
233.945	114
234.179	115
234.413	118
234.647	126
234.881	117
235.115	126
235.349	133
235.583	125
235.817	122
236.051	124
236.285	130
236.519	147
236.753	136
236.987	142
237.221	178
237.455	213
237.689	182
237.922	147
238.156	142
238.39	132
238.624	129
238.858	119
239.091	119
239.325	136
239.559	131
239.793	131
240.027	131
240.26	132
240.494	163
240.728	150
240.961	146
241.195	140
241.429	127
241.662	159
241.896	142
242.13	140
242.363	141
242.597	158
242.83	131
243.064	144
243.298	152
243.531	145
243.765	140
243.998	140
244.232	156
244.465	156
244.699	146
244.932	153
245.166	172
245.399	137
245.633	150
245.866	153
246.099	157
246.333	155
246.566	155
246.8	152
247.033	158
247.266	164
247.5	180
247.733	190
247.966	197
248.2	177
248.433	177
248.666	183
248.899	191
249.133	208
249.366	204
249.599	195
249.832	195
250.066	184
250.299	190
250.532	192
250.765	208
250.998	227
251.231	242
251.465	233
251.698	225
251.931	216
252.164	204
252.397	196
252.63	204
252.863	210
253.096	219
253.329	243
253.562	210
253.795	226
254.028	227
254.261	229
254.494	234
254.727	263
254.96	291
255.193	291
255.426	260
255.659	229
255.892	221
256.124	238
256.357	257
256.59	240
256.823	207
257.056	231
257.289	224
257.521	211
257.754	226
257.987	218
258.22	212
258.452	213
258.685	222
258.918	214
259.151	215
259.383	222
259.616	245
259.849	245
260.081	235
260.314	229
260.547	258
260.779	259
261.012	256
261.244	242
261.477	238
261.71	236
261.942	240
262.175	234
262.407	230
262.64	229
262.872	215
263.105	230
263.337	208
263.57	214
263.802	211
264.035	224
264.267	226
264.499	218
264.732	215
264.964	233
265.197	228
265.429	227
265.661	209
265.894	229
266.126	223
266.358	226
266.591	221
266.823	239
267.055	220
267.287	236
267.52	230
267.752	248
267.984	242
268.216	255
268.448	265
268.681	263
268.913	265
269.145	266
269.377	279
269.609	268
269.841	265
270.073	277
270.306	296
270.538	327
270.77	319
271.002	314
271.234	302
271.466	305
271.698	308
271.93	311
272.162	308
272.394	320
272.626	306
272.858	304
273.09	291
273.322	276
273.553	286
273.785	273
274.017	264
274.249	272
274.481	263
274.713	273
274.945	284
275.176	277
275.408	282
275.64	263
275.872	277
276.104	275
276.335	268
276.567	268
276.799	305
277.031	303
277.262	322
277.494	327
277.726	305
277.957	304
278.189	292
278.421	294
278.652	281
278.884	284
279.115	296
279.347	268
279.579	304
279.81	299
280.042	294
280.273	291
280.505	292
280.736	298
280.968	266
281.199	298
281.431	283
281.662	288
281.894	293
282.125	283
282.356	299
282.588	322
282.819	306
283.051	294
283.282	304
283.513	300
283.745	299
283.976	274
284.207	297
284.439	296
284.67	293
284.901	294
285.132	282
285.364	294
285.595	302
285.826	310
286.057	292
286.288	288
286.52	292
286.751	289
286.982	306
287.213	314
287.444	290
287.675	297
287.906	312
288.138	324
288.369	327
288.6	334
288.831	314
289.062	305
289.293	324
289.524	319
289.755	309
289.986	299
290.217	296
290.448	304
290.679	316
290.91	319
291.141	306
291.371	316
291.602	314
291.833	311
292.064	323
292.295	305
292.526	286
292.757	300
292.987	320
293.218	323
293.449	298
293.68	293
293.91	304
294.141	324
294.372	305
294.603	316
294.833	305
295.064	315
295.295	314
295.525	310
295.756	313
295.987	330
296.217	346
296.448	351
296.679	338
296.909	317
297.14	331
297.37	324
297.601	327
297.831	332
298.062	324
298.292	319
298.523	336
298.753	335
298.984	314
299.214	306
299.445	312
299.675	338
299.905	331
300.136	332
300.366	331
300.597	328
300.827	338
301.057	330
301.288	342
301.518	327
301.748	326
301.979	331
302.209	368
302.439	352
302.669	360
302.9	348
303.13	354
303.36	360
303.59	358
303.82	368
304.051	371
304.281	358
304.511	330
304.741	367
304.971	343
305.201	337
305.431	343
305.661	339
305.891	347
306.121	358
306.352	366
306.582	350
306.812	345
307.042	359
307.272	377
307.502	355
307.731	344
307.961	355
308.191	339
308.421	353
308.651	357
308.881	344
309.111	352
309.341	361
309.571	360
309.8	359
310.03	367
310.26	398
310.49	370
310.72	373
310.949	397
311.179	399
311.409	387
311.639	382
311.868	389
312.098	377
312.328	388
312.557	406
312.787	401
313.017	411
313.246	394
313.476	378
313.706	389
313.935	388
314.165	400
314.394	397
314.624	398
314.853	404
315.083	391
315.312	396
315.542	384
315.771	397
316.001	393
316.23	404
316.46	402
316.689	400
316.919	387
317.148	412
317.377	390
317.607	383
317.836	403
318.065	394
318.295	388
318.524	378
318.753	392
318.983	383
319.212	407
319.441	387
319.67	397
319.9	403
320.129	403
320.358	386
320.587	400
320.816	411
321.046	421
321.275	395
321.504	412
321.733	419
321.962	425
322.191	436
322.42	432
322.649	449
322.878	450
323.108	456
323.337	447
323.566	459
323.795	478
324.024	524
324.253	634
324.482	814
324.71	1204
324.939	1772
325.168	1597
325.397	837
325.626	591
325.855	497
326.084	473
326.313	495
326.542	476
326.77	507
326.999	585
327.228	756
327.457	1112
327.686	1368
327.914	942
328.143	624
328.372	560
328.6	532
328.829	533
329.058	548
329.287	542
329.515	510
329.744	498
329.972	505
330.201	526
330.43	533
330.658	547
330.887	582
331.115	564
331.344	536
331.572	491
331.801	498
332.03	516
332.258	478
332.486	474
332.715	474
332.943	467
333.172	486
333.4	485
333.629	488
333.857	521
334.085	539
334.314	512
334.542	524
334.771	557
334.999	504
335.227	506
335.455	474
335.684	476
335.912	464
336.14	473
336.369	488
336.597	504
336.825	489
337.053	470
337.281	448
337.51	456
337.738	475
337.966	455
338.194	458
338.422	473
338.65	462
338.878	458
339.106	472
339.334	449
339.562	458
339.79	443
340.018	465
340.246	458
340.474	440
340.702	451
340.93	461
341.158	465
341.386	426
341.614	458
341.842	455
342.07	457
342.298	438
342.526	442
342.754	417
342.981	436
343.209	438
343.437	462
343.665	441
343.893	474
344.12	476
344.348	445
344.576	471
344.804	472
345.031	454
345.259	480
345.487	464
345.714	469
345.942	450
346.17	446
346.397	475
346.625	450
346.853	450
347.08	438
347.308	443
347.535	447
347.763	457
347.99	453
348.218	449
348.445	447
348.673	446
348.9	439
349.128	443
349.355	440
349.583	447
349.81	437
350.037	448
350.265	406
350.492	419
350.72	425
350.947	440
351.174	443
351.402	415
351.629	443
351.856	453
352.083	427
352.311	439
352.538	444
352.765	435
352.992	450
353.22	425
353.447	452
353.674	451
353.901	421
354.128	414
354.355	417
354.583	415
354.81	424
355.037	417
355.264	439
355.491	419
355.718	425
355.945	422
356.172	415
356.399	438
356.626	417
356.853	414
357.08	423
357.307	414
357.534	428
357.761	403
357.988	418
358.215	423
358.441	420
358.668	421
358.895	428
359.122	427
359.349	426
359.576	455
359.802	466
360.029	460
360.256	471
360.483	444
360.709	456
360.936	449
361.163	444
361.39	430
361.616	439
361.843	433
362.07	435
362.296	431
362.523	449
362.749	434
362.976	434
363.203	442
363.429	450
363.656	433
363.882	453
364.109	432
364.335	422
364.562	430
364.788	445
365.015	437
365.241	431
365.468	430
365.694	425
365.92	434
366.147	418
366.373	444
366.599	443
366.826	447
367.052	411
367.278	426
367.505	433
367.731	419
367.957	427
368.184	455
368.41	436
368.636	437
368.862	446
369.089	416
369.315	450
369.541	419
369.767	414
369.993	430
370.219	416
370.445	444
370.672	442
370.898	425
371.124	436
371.35	434
371.576	443
371.802	451
372.028	424
372.254	440
372.48	432
372.706	438
372.932	446
373.158	451
373.384	432
373.61	441
373.835	446
374.061	446
374.287	436
374.513	471
374.739	476
374.965	458
375.191	467
375.416	454
375.642	463
375.868	446
376.094	452
376.319	439
376.545	420
376.771	428
376.997	472
377.222	456
377.448	435
377.674	428
377.899	431
378.125	450
378.35	434
378.576	455
378.802	432
379.027	448
379.253	455
379.478	441
379.704	435
379.929	434
380.155	436
380.38	454
380.606	453
380.831	455
381.057	450
381.282	438
381.507	443
381.733	432
381.958	460
382.184	457
382.409	444
382.634	474
382.86	462
383.085	455
383.31	456
383.535	487
383.761	471
383.986	486
384.211	475
384.436	464
384.662	485
384.887	490
385.112	486
385.337	480
385.562	479
385.787	495
386.013	507
386.238	545
386.463	482
386.688	505
386.913	489
387.138	477
387.363	483
387.588	505
387.813	496
388.038	487
388.263	504
388.488	475
388.713	477
388.938	481
389.163	492
389.387	522
389.612	496
389.837	510
390.062	503
390.287	502
390.512	462
390.736	477
390.961	480
391.186	500
391.411	499
391.636	492
391.86	510
392.085	523
392.31	522
392.534	534
392.759	512
392.984	522
393.208	487
393.433	491
393.658	495
393.882	522
394.107	503
394.331	508
394.556	488
394.78	499
395.005	531
395.229	511
395.454	522
395.678	535
395.903	512
396.127	576
396.352	553
396.576	533
396.801	509
397.025	502
397.249	537
397.474	533
397.698	542
397.922	560
398.147	561
398.371	561
398.595	583
398.82	562
399.044	587
399.268	629
399.492	664
399.717	703
399.941	698
400.165	737
400.389	723
400.613	652
400.837	619
401.062	599
401.286	576
401.51	588
401.734	595
401.958	572
402.182	579
402.406	577
402.63	594
402.854	591
403.078	588
403.302	617
403.526	610
403.75	622
403.974	616
404.198	603
404.422	601
404.645	618
404.869	610
405.093	635
405.317	680
405.541	719
405.765	663
405.988	635
406.212	647
406.436	657
406.66	688
406.883	632
407.107	676
407.331	728
407.555	806
407.778	793
408.002	734
408.226	669
408.449	680
408.673	673
408.896	676
409.12	728
409.344	696
409.567	632
409.791	604
410.014	624
410.238	608
410.461	611
410.685	616
410.908	625
411.132	675
411.355	694
411.578	636
411.802	621
412.025	596
412.249	616
412.472	651
412.695	675
412.919	648
413.142	618
413.365	622
413.589	584
413.812	582
414.035	590
414.258	572
414.482	585
414.705	570
414.928	560
415.151	582
415.374	569
415.597	576
415.821	550
416.044	548
416.267	589
416.49	580
416.713	578
416.936	563
417.159	547
417.382	595
417.605	601
417.828	571
418.051	604
418.274	604
418.497	576
418.72	566
418.943	561
419.166	594
419.389	633
419.611	619
419.834	633
420.057	604
420.28	589
420.503	593
420.726	600
420.948	615
421.171	647
421.394	674
421.617	622
421.839	606
422.062	606
422.285	612
422.507	694
422.73	731
422.953	740
423.175	641
423.398	642
423.621	614
423.843	656
424.066	644
424.288	622
424.511	642
424.733	710
424.956	795
425.178	747
425.401	726
425.623	760
425.846	695
426.068	635
426.291	624
426.513	625
426.735	639
426.958	644
427.18	757
427.402	882
427.625	974
427.847	833
428.069	738
428.292	680
428.514	631
428.736	618
428.958	602
429.181	585
429.403	570
429.625	578
429.847	624
430.069	698
430.292	686
430.514	611
430.736	604
430.958	576
431.18	558
431.402	545
431.624	558
431.846	560
432.068	547
432.29	569
432.512	565
432.734	547
432.956	565
433.178	578
433.4	562
433.622	567
433.844	578
434.066	547
434.287	559
434.509	582
434.731	585
434.953	589
435.175	601
435.397	627
435.618	634
435.84	688
436.062	754
436.284	823
436.505	690
436.727	644
436.949	600
437.17	592
437.392	552
437.614	591
437.835	592
438.057	694
438.278	786
438.5	794
438.721	874
438.943	867
439.165	703
439.386	650
439.608	630
439.829	631
440.05	639
440.272	668
440.493	666
440.715	606
440.936	600
441.158	605
441.379	600
441.6	602
441.822	616
442.043	649
442.264	757
442.486	787
442.707	686
442.928	664
443.149	646
443.371	674
443.592	705
443.813	799
444.034	857
444.255	740
444.476	679
444.698	670
444.919	632
445.14	769
445.361	699
445.582	648
445.803	708
446.024	820
446.245	837
446.466	774
446.687	665
446.908	638
447.129	574
447.35	598
447.571	567
447.792	577
448.013	583
448.234	587
448.455	606
448.675	734
448.896	840
449.117	748
449.338	692
449.559	823
449.779	915
450	735
450.221	639
450.442	572
450.662	547
450.883	578
451.104	563
451.324	564
451.545	542
451.766	522
451.986	527
452.207	523
452.428	500
452.648	507
452.869	520
453.089	512
453.31	536
453.53	514
453.751	503
453.971	492
454.192	499
454.412	526
454.633	496
454.853	523
455.073	505
455.294	522
455.514	569
455.734	581
455.955	504
456.175	488
456.395	477
456.616	484
456.836	484
457.056	500
457.276	467
457.497	497
457.717	485
457.937	495
458.157	497
458.377	512
458.598	537
458.818	549
459.038	636
459.258	661
459.478	590
459.698	561
459.918	542
460.138	549
460.358	578
460.578	554
460.798	571
461.018	586
461.238	576
461.458	591
461.678	558
461.898	582
462.118	568
462.338	598
462.558	638
462.777	621
462.997	628
463.217	664
463.437	674
463.657	653
463.876	641
464.096	624
464.316	610
464.536	613
464.755	615
464.975	636
465.195	616
465.414	647
465.634	606
465.854	570
466.073	585
466.293	554
466.512	524
466.732	523
466.951	553
467.171	544
467.391	534
467.61	547
467.829	548
468.049	543
468.268	553
468.488	540
468.707	523
468.927	514
469.146	514
469.365	504
469.585	524
469.804	510
470.023	540
470.243	554
470.462	542
470.681	542
470.901	567
471.12	553
471.339	509
471.558	520
471.777	543
471.997	545
472.216	545
472.435	573
472.654	534
472.873	527
473.092	526
473.311	550
473.53	541
473.749	543
473.968	577
474.187	647
474.406	685
474.625	591
474.844	567
475.063	561
475.282	538
475.501	546
475.72	549
475.939	560
476.158	531
476.377	555
476.596	541
476.814	560
477.033	575
477.252	585
477.471	567
477.69	591
477.908	600
478.127	610
478.346	585
478.564	618
478.783	607
479.002	622
479.22	627
479.439	628
479.658	645
479.876	662
480.095	665
480.313	677
480.532	690
480.751	686
480.969	682
481.188	690
481.406	722
481.624	663
481.843	658
482.061	630
482.28	624
482.498	645
482.717	619
482.935	627
483.153	646
483.372	656
483.59	628
483.808	620
484.027	619
484.245	635
484.463	640
484.681	649
484.9	638
485.118	648
485.336	659
485.554	649
485.772	657
485.99	653
486.209	648
486.427	661
486.645	660
486.863	691
487.081	690
487.299	672
487.517	696
487.735	690
487.953	681
488.171	678
488.389	665
488.607	677
488.825	664
489.043	676
489.261	692
489.479	698
489.696	696
489.914	682
490.132	690
490.35	716
490.568	712
490.786	731
491.003	739
491.221	759
491.439	764
491.657	746
491.874	766
492.092	784
492.31	773
492.527	775
492.745	791
492.963	773
493.18	792
493.398	820
493.615	798
493.833	812
494.05	817
494.268	791
494.485	752
494.703	799
494.92	784
495.138	808
495.355	782
495.573	793
495.79	804
496.008	798
496.225	784
496.442	810
496.66	821
496.877	792
497.094	851
497.312	851
497.529	819
497.746	825
497.963	860
498.181	882
498.398	893
498.615	926
498.832	934
499.049	991
499.267	1001
499.484	1045
499.701	1138
499.918	1124
500.135	1210
500.352	1251
500.569	1307
500.786	1279
501.003	1298
501.22	1191
501.437	1161
501.654	1094
501.871	1080
502.088	987
502.305	985
502.522	962
502.739	930
502.956	883
503.172	856
503.389	862
503.606	835
503.823	843
504.04	800
504.256	848
504.473	843
504.69	825
504.907	807
505.123	804
505.34	773
505.557	778
505.773	760
505.99	757
506.207	736
506.423	766
506.64	728
506.856	730
507.073	713
507.289	716
507.506	723
507.722	727
507.939	734
508.155	760
508.372	719
508.588	697
508.805	712
509.021	711
509.238	717
509.454	715
509.67	699
509.887	693
510.103	707
510.319	724
510.536	772
510.752	1089
510.968	927
511.184	702
511.401	678
511.617	674
511.833	650
512.049	695
512.265	670
512.481	663
512.698	649
512.914	670
513.13	646
513.346	664
513.562	692
513.778	674
513.994	668
514.21	658
514.426	686
514.642	692
514.858	725
515.074	774
515.29	844
515.506	1097
515.721	963
515.937	758
516.153	738
516.369	710
516.585	703
516.801	706
517.016	679
517.232	717
517.448	706
517.664	752
517.879	747
518.095	726
518.311	726
518.527	705
518.742	714
518.958	679
519.173	650
519.389	673
519.605	666
519.82	643
520.036	674
520.251	699
520.467	695
520.682	714
520.898	704
521.113	702
521.329	750
521.544	804
521.76	901
521.975	1355
522.19	1312
522.406	847
522.621	675
522.836	636
523.052	636
523.267	611
523.482	615
523.698	630
523.913	604
524.128	615
524.343	574
524.559	588
524.774	595
524.989	555
525.204	582
525.419	596
525.634	566
525.849	570
526.064	576
526.28	567
526.495	545
526.71	552
526.925	560
527.14	553
527.355	550
527.57	554
527.785	564
527.999	528
528.214	559
528.429	565
528.644	547
528.859	546
529.074	512
529.289	588
529.503	643
529.718	621
529.933	564
530.148	544
530.363	552
530.577	545
530.792	572
531.007	531
531.221	523
531.436	546
531.651	547
531.865	517
532.08	555
532.295	544
532.509	512
532.724	522
532.938	512
533.153	536
533.367	515
533.582	525
533.796	531
534.011	520
534.225	510
534.44	546
534.654	533
534.868	523
535.083	520
535.297	533
535.511	538
535.726	547
535.94	523
536.154	550
536.369	550
536.583	506
536.797	522
537.011	495
537.225	497
537.44	514
537.654	515
537.868	507
538.082	539
538.296	545
538.51	502
538.724	499
538.938	512
539.153	517
539.367	527
539.581	515
539.795	507
540.009	511
540.222	514
540.436	490
540.65	498
540.864	519
541.078	507
541.292	512
541.506	489
541.72	506
541.934	535
542.147	528
542.361	526
542.575	499
542.789	502
543.002	496
543.216	523
543.43	510
543.644	520
543.857	535
544.071	500
544.285	523
544.498	504
544.712	524
544.925	527
545.139	502
545.352	523
545.566	512
545.779	516
545.993	516
546.206	516
546.42	497
546.633	497
546.847	491
547.06	517
547.274	509
547.487	496
547.7	494
547.914	484
548.127	503
548.34	522
548.554	500
548.767	518
548.98	496
549.193	521
549.407	496
549.62	522
549.833	489
550.046	488
550.259	496
550.473	482
550.686	504
550.899	523
551.112	479
551.325	491
551.538	486
551.751	491
551.964	517
552.177	488
552.39	498
552.603	500
552.816	502
553.029	526
553.242	520
553.455	539
553.667	533
553.88	514
554.093	516
554.306	512
554.519	521
554.732	499
554.944	473
555.157	469
555.37	475
555.583	488
555.795	490
556.008	462
556.221	467
556.433	457
556.646	467
556.859	457
557.071	447
557.284	438
557.496	441
557.709	466
557.921	440
558.134	425
558.346	447
558.559	440
558.771	455
558.984	457
559.196	464
559.409	452
559.621	455
559.833	459
560.046	422
560.258	436
560.47	440
560.683	416
560.895	434
561.107	428
561.32	426
561.532	413
561.744	422
561.956	431
562.168	436
562.381	444
562.593	444
562.805	455
563.017	433
563.229	455
563.441	463
563.653	479
563.865	420
564.077	454
564.289	441
564.501	460
564.713	447
564.925	473
565.137	475
565.349	481
565.561	503
565.773	496
565.985	512
566.197	548
566.408	525
566.62	547
566.832	576
567.044	577
567.255	570
567.467	588
567.679	617
567.891	622
568.102	638
568.314	615
568.526	582
568.737	555
568.949	523
569.161	491
569.372	490
569.584	481
569.795	454
570.007	450
570.218	464
570.43	450
570.641	449
570.853	452
571.064	449
571.276	424
571.487	442
571.698	406
571.91	440
572.121	414
572.333	407
572.544	396
572.755	398
572.966	380
573.178	386
573.389	375
573.6	390
573.811	401
574.023	384
574.234	380
574.445	368
574.656	377
574.867	402
575.078	379
575.289	369
575.501	376
575.712	366
575.923	388
576.134	375
576.345	373
576.556	374
576.767	380
576.978	382
577.188	369
577.399	358
577.61	374
577.821	374
578.032	359
578.243	377
578.454	529
578.665	420
578.875	358
579.086	350
579.297	357
579.508	367
579.718	348
579.929	344
580.14	361
580.35	351
580.561	343
580.772	350
580.982	352
581.193	336
581.403	322
581.614	330
581.825	331
582.035	339
582.246	355
582.456	339
582.667	319
582.877	336
583.087	339
583.298	347
583.508	337
583.719	347
583.929	339
584.139	318
584.35	316
584.56	330
584.77	330
584.981	344
585.191	322
585.401	317
585.611	343
585.821	352
586.032	342
586.242	323
586.452	334
586.662	327
586.872	324
587.082	337
587.292	335
587.502	326
587.713	328
587.923	328
588.133	343
588.343	317
588.553	333
588.762	324
588.972	314
589.182	324
589.392	331
589.602	334
589.812	348
590.022	328
590.232	318
590.441	336
590.651	317
590.861	311
591.071	323
591.281	327
591.49	335
591.7	323
591.91	328
592.119	354
592.329	355
592.539	335
592.748	362
592.958	355
593.167	330
593.377	368
593.587	385
593.796	348
594.006	363
594.215	353
594.424	348
594.634	369
594.843	355
595.053	347
595.262	343
595.472	339
595.681	345
595.89	343
596.1	311
596.309	312
596.518	308
596.727	329
596.937	328
597.146	320
597.355	300
597.564	331
597.774	299
597.983	283
598.192	315
598.401	304
598.61	295
598.819	306
599.028	306
599.237	298
599.446	290
599.655	275
599.864	283
600.073	294
600.282	287
600.491	292
600.7	297
600.909	274
601.118	291
601.327	305
601.536	288
601.745	291
601.953	274
602.162	291
602.371	285
602.58	289
602.789	299
602.997	304
603.206	278
603.415	276
603.623	286
603.832	282
604.041	267
604.249	267
604.458	265
604.666	274
604.875	269
605.084	268
605.292	284
605.501	280
605.709	262
605.918	268
606.126	260
606.334	258
606.543	289
606.751	282
606.96	272
607.168	269
607.376	263
607.585	280
607.793	272
608.001	264
608.21	266
608.418	272
608.626	277
608.834	280
609.043	275
609.251	276
609.459	262
609.667	273
609.875	251
610.083	264
610.291	280
610.499	268
610.707	283
610.916	274
611.124	291
611.332	265
611.54	272
611.748	280
611.955	279
612.163	283
612.371	251
612.579	263
612.787	275
612.995	285
613.203	272
613.411	276
613.618	265
613.826	262
614.034	280
614.242	259
614.449	280
614.657	275
614.865	260
615.072	270
615.28	264
615.488	275
615.695	274
615.903	250
616.111	267
616.318	272
616.526	277
616.733	265
616.941	266
617.148	255
617.356	262
617.563	273
617.771	255
617.978	268
618.185	265
618.393	264
618.6	276
618.807	261
619.015	277
619.222	265
619.429	253
619.637	266
619.844	258
620.051	243
620.258	244
620.466	259
620.673	242
620.88	242
621.087	265
621.294	240
621.501	238
621.708	251
621.915	262
622.122	254
622.329	258
622.536	254
622.743	265
622.95	256
623.157	244
623.364	231
623.571	240
623.778	241
623.985	254
624.192	242
624.399	223
624.606	252
624.812	243
625.019	227
625.226	241
625.433	239
625.639	228
625.846	220
626.053	223
626.259	231
626.466	234
626.673	228
626.879	210
627.086	237
627.293	230
627.499	245
627.706	223
627.912	217
628.119	227
628.325	219
628.532	226
628.738	222
628.945	223
629.151	229
629.357	223
629.564	219
629.77	232
629.976	219
630.183	215
630.389	225
630.595	203
630.802	198
631.008	210
631.214	216
631.42	212
631.627	209
631.833	215
632.039	212
632.245	207
632.451	205
632.657	204
632.863	207
633.069	218
633.275	205
633.481	218
633.688	200
633.893	205
634.099	198
634.305	198
634.511	197
634.717	191
634.923	178
635.129	191
635.335	194
635.541	190
635.747	193
635.952	200
636.158	190
636.364	216
636.57	188
636.775	192
636.981	200
637.187	202
637.392	179
637.598	200
637.804	199
638.009	179
638.215	190
638.421	210
638.626	203
638.832	203
639.037	184
639.243	185
639.448	186
639.654	193
639.859	193
640.065	178
640.27	189
640.475	194
640.681	214
640.886	184
641.091	201
641.297	180
641.502	192
641.707	198
641.913	195
642.118	182
642.323	185
642.528	184
642.733	176
642.939	183
643.144	192
643.349	192
643.554	191
643.759	178
643.964	184
644.169	177
644.374	187
644.579	179
644.784	198
644.989	187
645.194	179
645.399	180
645.604	172
645.809	191
646.014	184
646.219	184
646.423	182
646.628	155
646.833	170
647.038	184
647.243	188
647.447	178
647.652	180
647.857	183
648.062	190
648.266	182
648.471	188
648.676	196
648.88	193
649.085	175
649.289	189
649.494	184
649.698	194
649.903	199
650.107	186
650.312	165
650.516	179
650.721	167
650.925	160
651.13	179
651.334	167
651.539	146
651.743	153
651.947	148
652.152	153
652.356	149
652.56	150
652.764	151
652.969	149
653.173	154
653.377	146
653.581	141
653.785	146
653.99	139
654.194	152
654.398	148
654.602	145
654.806	154
655.01	161
655.214	160
655.418	146
655.622	150
655.826	139
656.03	146
656.234	139
656.438	150
656.642	150
656.846	139
657.049	124
657.253	131
657.457	126
657.661	133
657.865	120
658.068	116
658.272	101
658.476	116
658.68	126
658.883	105
659.087	94
659.291	97
659.494	103
659.698	102
659.901	102
660.105	93
660.309	94
660.512	76
660.716	104
660.919	105
661.123	102
661.326	90
661.53	101
661.733	89
661.936	84
662.14	92
662.343	90
662.546	83
662.75	93
662.953	91
663.156	92
663.36	79
663.563	97
663.766	76
663.969	75
664.173	81
664.376	74
664.579	91
664.782	84
664.985	89
665.188	88
665.391	83
665.594	92
665.797	67
666	78
666.203	91
666.406	79
666.609	70
666.812	89
667.015	70
667.218	80
667.421	68
667.624	66
667.827	85
668.03	75
668.232	81
668.435	90
668.638	70
668.841	86
669.043	76
669.246	88
669.449	76
669.651	76
669.854	94
670.057	85
670.259	81
670.462	88
670.665	64
670.867	76
671.07	69
671.272	70
671.475	75
671.677	72
671.88	77
672.082	82
672.284	91
672.487	95
672.689	79
672.892	67
