Data from 1974.PennyLincolnUp.Lamp.En5.5.200Scan.071719.P1.Changed Mount._HRD10591_15-51-20-856.txt Node
Date: Thu Jul 18 15:51:20 EDT 2019
User: cochatt
Spectrometer: HR+D1059
Trigger mode: 1
Integration Time (sec): 1.000000E-1
Scans to average: 1
Electric dark correction enabled: true
Nonlinearity correction enabled: false
Boxcar width: 0
XAxis mode: Wavelengths
Number of Pixels in Spectrum: 2048
>>>>>Begin Spectral Data<<<<<
223.165	-19.5
223.4	-19.5
223.635	-19.5
223.869	-23.5
224.104	-23.5
224.338	-15.5
224.573	-13.5
224.808	-3.5
225.042	-14.5
225.277	7.5
225.511	-4.5
225.746	-7.5
225.98	9.5
226.215	12.5
226.449	23.5
226.683	18.5
226.918	24.5
227.152	29.5
227.387	53.5
227.621	23.5
227.856	48.5
228.09	33.5
228.324	56.5
228.559	55.5
228.793	65.5
229.027	92.5
229.262	105.5
229.496	89.5
229.73	122.5
229.964	150.5
230.199	109.5
230.433	116.5
230.667	98.5
230.901	102.5
231.136	109.5
231.37	109.5
231.604	101.5
231.838	107.5
232.072	114.5
232.306	108.5
232.541	117.5
232.775	114.5
233.009	119.5
233.243	113.5
233.477	108.5
233.711	114.5
233.945	117.5
234.179	105.5
234.413	113.5
234.647	114.5
234.881	109.5
235.115	112.5
235.349	123.5
235.583	132.5
235.817	109.5
236.051	112.5
236.285	106.5
236.519	114.5
236.753	123.5
236.987	141.5
237.221	155.5
237.455	193.5
237.689	153.5
237.922	141.5
238.156	126.5
238.39	138.5
238.624	125.5
238.858	124.5
239.091	115.5
239.325	126.5
239.559	118.5
239.793	121.5
240.027	123.5
240.26	143.5
240.494	138.5
240.728	137.5
240.961	124.5
241.195	133.5
241.429	128.5
241.662	125.5
241.896	132.5
242.13	130.5
242.363	146.5
242.597	154.5
242.83	135.5
243.064	138.5
243.298	136.5
243.531	141.5
243.765	134.5
243.998	133.5
244.232	138.5
244.465	146.5
244.699	148.5
244.932	136.5
245.166	152.5
245.399	140.5
245.633	148.5
245.866	150.5
246.099	148.5
246.333	143.5
246.566	148.5
246.8	133.5
247.033	152.5
247.266	160.5
247.5	155.5
247.733	172.5
247.966	152.5
248.2	168.5
248.433	168.5
248.666	156.5
248.899	173.5
249.133	189.5
249.366	193.5
249.599	184.5
249.832	165.5
250.066	178.5
250.299	187.5
250.532	173.5
250.765	209.5
250.998	212.5
251.231	190.5
251.465	220.5
251.698	194.5
251.931	186.5
252.164	185.5
252.397	166.5
252.63	184.5
252.863	182.5
253.096	198.5
253.329	193.5
253.562	214.5
253.795	201.5
254.028	215.5
254.261	196.5
254.494	217.5
254.727	222.5
254.96	264.5
255.193	244.5
255.426	231.5
255.659	202.5
255.892	217.5
256.124	214.5
256.357	204.5
256.59	207.5
256.823	196.5
257.056	211.5
257.289	196.5
257.521	204.5
257.754	194.5
257.987	200.5
258.22	219.5
258.452	207.5
258.685	190.5
258.918	185.5
259.151	199.5
259.383	200.5
259.616	201.5
259.849	205.5
260.081	221.5
260.314	232.5
260.547	226.5
260.779	234.5
261.012	226.5
261.244	213.5
261.477	203.5
261.71	209.5
261.942	203.5
262.175	217.5
262.407	206.5
262.64	200.5
262.872	201.5
263.105	197.5
263.337	209.5
263.57	200.5
263.802	198.5
264.035	212.5
264.267	208.5
264.499	187.5
264.732	206.5
264.964	210.5
265.197	214.5
265.429	206.5
265.661	210.5
265.894	201.5
266.126	204.5
266.358	203.5
266.591	206.5
266.823	238.5
267.055	215.5
267.287	218.5
267.52	204.5
267.752	224.5
267.984	229.5
268.216	222.5
268.448	224.5
268.681	218.5
268.913	215.5
269.145	248.5
269.377	251.5
269.609	261.5
269.841	273.5
270.073	249.5
270.306	249.5
270.538	284.5
270.77	282.5
271.002	244.5
271.234	248.5
271.466	272.5
271.698	282.5
271.93	269.5
272.162	282.5
272.394	274.5
272.626	268.5
272.858	269.5
273.09	257.5
273.322	251.5
273.553	256.5
273.785	240.5
274.017	242.5
274.249	283.5
274.481	244.5
274.713	260.5
274.945	269.5
275.176	232.5
275.408	265.5
275.64	247.5
275.872	260.5
276.104	262.5
276.335	256.5
276.567	244.5
276.799	264.5
277.031	270.5
277.262	307.5
277.494	287.5
277.726	262.5
277.957	256.5
278.189	237.5
278.421	277.5
278.652	263.5
278.884	264.5
279.115	237.5
279.347	246.5
279.579	263.5
279.81	259.5
280.042	247.5
280.273	264.5
280.505	252.5
280.736	247.5
280.968	277.5
281.199	265.5
281.431	258.5
281.662	254.5
281.894	262.5
282.125	261.5
282.356	252.5
282.588	269.5
282.819	277.5
283.051	252.5
283.282	261.5
283.513	236.5
283.745	258.5
283.976	267.5
284.207	265.5
284.439	282.5
284.67	262.5
284.901	263.5
285.132	265.5
285.364	278.5
285.595	258.5
285.826	268.5
286.057	271.5
286.288	268.5
286.52	247.5
286.751	270.5
286.982	253.5
287.213	281.5
287.444	261.5
287.675	257.5
287.906	284.5
288.138	298.5
288.369	273.5
288.6	288.5
288.831	289.5
289.062	288.5
289.293	288.5
289.524	287.5
289.755	283.5
289.986	285.5
290.217	270.5
290.448	264.5
290.679	275.5
290.91	272.5
291.141	268.5
291.371	278.5
291.602	261.5
291.833	263.5
292.064	280.5
292.295	277.5
292.526	269.5
292.757	298.5
292.987	295.5
293.218	298.5
293.449	291.5
293.68	292.5
293.91	273.5
294.141	288.5
294.372	277.5
294.603	290.5
294.833	280.5
295.064	276.5
295.295	293.5
295.525	285.5
295.756	276.5
295.987	268.5
296.217	306.5
296.448	295.5
296.679	286.5
296.909	298.5
297.14	298.5
297.37	307.5
297.601	297.5
297.831	306.5
298.062	309.5
298.292	283.5
298.523	292.5
298.753	290.5
298.984	289.5
299.214	302.5
299.445	298.5
299.675	314.5
299.905	313.5
300.136	285.5
300.366	290.5
300.597	295.5
300.827	315.5
301.057	312.5
301.288	308.5
301.518	301.5
301.748	302.5
301.979	312.5
302.209	322.5
302.439	316.5
302.669	318.5
302.9	307.5
303.13	309.5
303.36	311.5
303.59	316.5
303.82	330.5
304.051	317.5
304.281	300.5
304.511	301.5
304.741	304.5
304.971	308.5
305.201	308.5
305.431	309.5
305.661	319.5
305.891	327.5
306.121	329.5
306.352	321.5
306.582	323.5
306.812	310.5
307.042	288.5
307.272	307.5
307.502	313.5
307.731	308.5
307.961	313.5
308.191	316.5
308.421	311.5
308.651	339.5
308.881	323.5
309.111	328.5
309.341	314.5
309.571	320.5
309.8	334.5
310.03	326.5
310.26	348.5
310.49	341.5
310.72	346.5
310.949	343.5
311.179	341.5
311.409	330.5
311.639	342.5
311.868	343.5
312.098	339.5
312.328	355.5
312.557	338.5
312.787	355.5
313.017	351.5
313.246	356.5
313.476	342.5
313.706	368.5
313.935	334.5
314.165	349.5
314.394	345.5
314.624	352.5
314.853	336.5
315.083	356.5
315.312	352.5
315.542	354.5
315.771	349.5
316.001	345.5
316.23	349.5
316.46	356.5
316.689	343.5
316.919	329.5
317.148	357.5
317.377	374.5
317.607	353.5
317.836	372.5
318.065	348.5
318.295	359.5
318.524	350.5
318.753	333.5
318.983	364.5
319.212	349.5
319.441	358.5
319.67	346.5
319.9	372.5
320.129	346.5
320.358	341.5
320.587	350.5
320.816	371.5
321.046	365.5
321.275	362.5
321.504	359.5
321.733	377.5
321.962	366.5
322.191	384.5
322.42	390.5
322.649	358.5
322.878	376.5
323.108	391.5
323.337	401.5
323.566	413.5
323.795	425.5
324.024	461.5
324.253	518.5
324.482	673.5
324.71	957.5
324.939	1410.5
325.168	1256.5
325.397	659.5
325.626	476.5
325.855	421.5
326.084	408.5
326.313	408.5
326.542	419.5
326.77	438.5
326.999	482.5
327.228	610.5
327.457	892.5
327.686	1106.5
327.914	757.5
328.143	516.5
328.372	469.5
328.6	476.5
328.829	454.5
329.058	446.5
329.287	456.5
329.515	451.5
329.744	429.5
329.972	426.5
330.201	451.5
330.43	461.5
330.658	473.5
330.887	490.5
331.115	485.5
331.344	437.5
331.572	440.5
331.801	435.5
332.03	454.5
332.258	414.5
332.486	401.5
332.715	409.5
332.943	424.5
333.172	445.5
333.4	441.5
333.629	457.5
333.857	459.5
334.085	471.5
334.314	457.5
334.542	473.5
334.771	484.5
334.999	438.5
335.227	446.5
335.455	441.5
335.684	448.5
335.912	429.5
336.14	416.5
336.369	423.5
336.597	430.5
336.825	411.5
337.053	424.5
337.281	422.5
337.51	414.5
337.738	428.5
337.966	416.5
338.194	408.5
338.422	403.5
338.65	420.5
338.878	409.5
339.106	412.5
339.334	410.5
339.562	395.5
339.79	419.5
340.018	401.5
340.246	412.5
340.474	413.5
340.702	394.5
340.93	418.5
341.158	396.5
341.386	414.5
341.614	411.5
341.842	384.5
342.07	407.5
342.298	390.5
342.526	396.5
342.754	407.5
342.981	405.5
343.209	383.5
343.437	416.5
343.665	420.5
343.893	441.5
344.12	440.5
344.348	428.5
344.576	435.5
344.804	421.5
345.031	414.5
345.259	425.5
345.487	414.5
345.714	416.5
345.942	409.5
346.17	390.5
346.397	403.5
346.625	375.5
346.853	384.5
347.08	386.5
347.308	391.5
347.535	398.5
347.763	392.5
347.99	394.5
348.218	372.5
348.445	386.5
348.673	383.5
348.9	417.5
349.128	394.5
349.355	379.5
349.583	375.5
349.81	382.5
350.037	377.5
350.265	389.5
350.492	388.5
350.72	369.5
350.947	393.5
351.174	391.5
351.402	403.5
351.629	386.5
351.856	390.5
352.083	385.5
352.311	371.5
352.538	405.5
352.765	378.5
352.992	395.5
353.22	379.5
353.447	403.5
353.674	382.5
353.901	385.5
354.128	382.5
354.355	374.5
354.583	393.5
354.81	373.5
355.037	384.5
355.264	384.5
355.491	395.5
355.718	370.5
355.945	360.5
356.172	372.5
356.399	382.5
356.626	374.5
356.853	373.5
357.08	369.5
357.307	386.5
357.534	380.5
357.761	366.5
357.988	364.5
358.215	372.5
358.441	386.5
358.668	352.5
358.895	381.5
359.122	388.5
359.349	382.5
359.576	405.5
359.802	401.5
360.029	404.5
360.256	413.5
360.483	419.5
360.709	408.5
360.936	394.5
361.163	384.5
361.39	387.5
361.616	403.5
361.843	393.5
362.07	380.5
362.296	394.5
362.523	398.5
362.749	397.5
362.976	397.5
363.203	393.5
363.429	406.5
363.656	390.5
363.882	390.5
364.109	366.5
364.335	376.5
364.562	407.5
364.788	386.5
365.015	386.5
365.241	368.5
365.468	417.5
365.694	404.5
365.92	402.5
366.147	384.5
366.373	386.5
366.599	390.5
366.826	377.5
367.052	387.5
367.278	399.5
367.505	393.5
367.731	386.5
367.957	384.5
368.184	385.5
368.41	369.5
368.636	424.5
368.862	395.5
369.089	395.5
369.315	392.5
369.541	411.5
369.767	402.5
369.993	407.5
370.219	390.5
370.445	403.5
370.672	402.5
370.898	405.5
371.124	393.5
371.35	413.5
371.576	409.5
371.802	410.5
372.028	397.5
372.254	376.5
372.48	392.5
372.706	408.5
372.932	399.5
373.158	410.5
373.384	410.5
373.61	412.5
373.835	389.5
374.061	397.5
374.287	412.5
374.513	396.5
374.739	434.5
374.965	411.5
375.191	410.5
375.416	406.5
375.642	411.5
375.868	417.5
376.094	403.5
376.319	411.5
376.545	397.5
376.771	402.5
376.997	406.5
377.222	384.5
377.448	399.5
377.674	389.5
377.899	416.5
378.125	401.5
378.35	386.5
378.576	385.5
378.802	401.5
379.027	404.5
379.253	420.5
379.478	403.5
379.704	412.5
379.929	405.5
380.155	419.5
380.38	411.5
380.606	401.5
380.831	417.5
381.057	418.5
381.282	421.5
381.507	417.5
381.733	402.5
381.958	402.5
382.184	417.5
382.409	422.5
382.634	409.5
382.86	402.5
383.085	416.5
383.31	413.5
383.535	438.5
383.761	422.5
383.986	418.5
384.211	426.5
384.436	429.5
384.662	434.5
384.887	449.5
385.112	438.5
385.337	440.5
385.562	471.5
385.787	463.5
386.013	441.5
386.238	460.5
386.463	453.5
386.688	432.5
386.913	458.5
387.138	462.5
387.363	446.5
387.588	448.5
387.813	445.5
388.038	464.5
388.263	457.5
388.488	460.5
388.713	453.5
388.938	446.5
389.163	437.5
389.387	445.5
389.612	446.5
389.837	424.5
390.062	452.5
390.287	443.5
390.512	452.5
390.736	460.5
390.961	466.5
391.186	460.5
391.411	446.5
391.636	451.5
391.86	491.5
392.085	482.5
392.31	474.5
392.534	459.5
392.759	488.5
392.984	463.5
393.208	462.5
393.433	451.5
393.658	478.5
393.882	454.5
394.107	470.5
394.331	457.5
394.556	466.5
394.78	464.5
395.005	460.5
395.229	457.5
395.454	474.5
395.678	480.5
395.903	515.5
396.127	486.5
396.352	488.5
396.576	503.5
396.801	477.5
397.025	474.5
397.249	466.5
397.474	477.5
397.698	492.5
397.922	504.5
398.147	500.5
398.371	531.5
398.595	508.5
398.82	511.5
399.044	518.5
399.268	567.5
399.492	590.5
399.717	650.5
399.941	653.5
400.165	671.5
400.389	648.5
400.613	594.5
400.837	554.5
401.062	525.5
401.286	538.5
401.51	546.5
401.734	513.5
401.958	521.5
402.182	546.5
402.406	552.5
402.63	548.5
402.854	528.5
403.078	539.5
403.302	552.5
403.526	558.5
403.75	576.5
403.974	549.5
404.198	532.5
404.422	578.5
404.645	582.5
404.869	563.5
405.093	580.5
405.317	614.5
405.541	647.5
405.765	585.5
405.988	544.5
406.212	552.5
406.436	581.5
406.66	605.5
406.883	580.5
407.107	604.5
407.331	644.5
407.555	722.5
407.778	708.5
408.002	653.5
408.226	588.5
408.449	593.5
408.673	601.5
408.896	617.5
409.12	644.5
409.344	624.5
409.567	586.5
409.791	568.5
410.014	556.5
410.238	533.5
410.461	550.5
410.685	568.5
410.908	566.5
411.132	602.5
411.355	616.5
411.578	586.5
411.802	548.5
412.025	534.5
412.249	565.5
412.472	557.5
412.695	597.5
412.919	585.5
413.142	567.5
413.365	561.5
413.589	518.5
413.812	498.5
414.035	530.5
414.258	525.5
414.482	532.5
414.705	529.5
414.928	500.5
415.151	500.5
415.374	512.5
415.597	535.5
415.821	524.5
416.044	511.5
416.267	536.5
416.49	519.5
416.713	505.5
416.936	526.5
417.159	493.5
417.382	482.5
417.605	515.5
417.828	529.5
418.051	554.5
418.274	531.5
418.497	537.5
418.72	534.5
418.943	513.5
419.166	547.5
419.389	556.5
419.611	570.5
419.834	557.5
420.057	544.5
420.28	565.5
420.503	548.5
420.726	550.5
420.948	541.5
421.171	578.5
421.394	623.5
421.617	570.5
421.839	547.5
422.062	547.5
422.285	554.5
422.507	597.5
422.73	627.5
422.953	634.5
423.175	582.5
423.398	560.5
423.621	539.5
423.843	580.5
424.066	567.5
424.288	553.5
424.511	584.5
424.733	650.5
424.956	718.5
425.178	656.5
425.401	666.5
425.623	705.5
425.846	611.5
426.068	572.5
426.291	559.5
426.513	573.5
426.735	555.5
426.958	580.5
427.18	668.5
427.402	790.5
427.625	854.5
427.847	722.5
428.069	621.5
428.292	577.5
428.514	553.5
428.736	540.5
428.958	527.5
429.181	511.5
429.403	526.5
429.625	533.5
429.847	566.5
430.069	610.5
430.292	597.5
430.514	540.5
430.736	522.5
430.958	538.5
431.18	532.5
431.402	516.5
431.624	506.5
431.846	485.5
432.068	488.5
432.29	491.5
432.512	484.5
432.734	513.5
432.956	524.5
433.178	532.5
433.4	530.5
433.622	504.5
433.844	517.5
434.066	520.5
434.287	520.5
434.509	513.5
434.731	513.5
434.953	543.5
435.175	540.5
435.397	563.5
435.618	571.5
435.84	583.5
436.062	664.5
436.284	727.5
436.505	631.5
436.727	571.5
436.949	540.5
437.17	540.5
437.392	540.5
437.614	537.5
437.835	553.5
438.057	636.5
438.278	722.5
438.5	731.5
438.721	828.5
438.943	790.5
439.165	613.5
439.386	576.5
439.608	555.5
439.829	545.5
440.05	586.5
440.272	610.5
440.493	599.5
440.715	543.5
440.936	517.5
441.158	532.5
441.379	530.5
441.6	563.5
441.822	555.5
442.043	580.5
442.264	647.5
442.486	710.5
442.707	603.5
442.928	582.5
443.149	565.5
443.371	592.5
443.592	646.5
443.813	720.5
444.034	761.5
444.255	657.5
444.476	604.5
444.698	574.5
444.919	603.5
445.14	685.5
445.361	642.5
445.582	595.5
445.803	654.5
446.024	730.5
446.245	731.5
446.466	654.5
446.687	602.5
446.908	566.5
447.129	541.5
447.35	533.5
447.571	506.5
447.792	504.5
448.013	488.5
448.234	515.5
448.455	560.5
448.675	643.5
448.896	750.5
449.117	674.5
449.338	636.5
449.559	688.5
449.779	795.5
450	651.5
450.221	545.5
450.442	525.5
450.662	481.5
450.883	501.5
451.104	492.5
451.324	501.5
451.545	482.5
451.766	485.5
451.986	458.5
452.207	450.5
452.428	467.5
452.648	470.5
452.869	487.5
453.089	478.5
453.31	476.5
453.53	451.5
453.751	453.5
453.971	456.5
454.192	455.5
454.412	447.5
454.633	442.5
454.853	457.5
455.073	467.5
455.294	488.5
455.514	520.5
455.734	521.5
455.955	469.5
456.175	447.5
456.395	438.5
456.616	429.5
456.836	439.5
457.056	430.5
457.276	428.5
457.497	435.5
457.717	445.5
457.937	442.5
458.157	449.5
458.377	456.5
458.598	477.5
458.818	519.5
459.038	551.5
459.258	590.5
459.478	543.5
459.698	522.5
459.918	525.5
460.138	484.5
460.358	502.5
460.578	520.5
460.798	537.5
461.018	527.5
461.238	519.5
461.458	535.5
461.678	527.5
461.898	534.5
462.118	525.5
462.338	556.5
462.558	554.5
462.777	559.5
462.997	582.5
463.217	599.5
463.437	594.5
463.657	551.5
463.876	579.5
464.096	562.5
464.316	569.5
464.536	586.5
464.755	558.5
464.975	553.5
465.195	571.5
465.414	580.5
465.634	546.5
465.854	540.5
466.073	514.5
466.293	480.5
466.512	488.5
466.732	465.5
466.951	466.5
467.171	474.5
467.391	485.5
467.61	506.5
467.829	518.5
468.049	480.5
468.268	475.5
468.488	501.5
468.707	472.5
468.927	487.5
469.146	476.5
469.365	478.5
469.585	491.5
469.804	474.5
470.023	500.5
470.243	490.5
470.462	491.5
470.681	499.5
470.901	512.5
471.12	509.5
471.339	489.5
471.558	484.5
471.777	495.5
471.997	481.5
472.216	493.5
472.435	493.5
472.654	497.5
472.873	477.5
473.092	470.5
473.311	483.5
473.53	475.5
473.749	492.5
473.968	513.5
474.187	601.5
474.406	618.5
474.625	544.5
474.844	500.5
475.063	477.5
475.282	508.5
475.501	512.5
475.72	487.5
475.939	463.5
476.158	505.5
476.377	490.5
476.596	492.5
476.814	504.5
477.033	490.5
477.252	509.5
477.471	523.5
477.69	550.5
477.908	562.5
478.127	544.5
478.346	531.5
478.564	558.5
478.783	547.5
479.002	555.5
479.22	554.5
479.439	560.5
479.658	572.5
479.876	597.5
480.095	576.5
480.313	625.5
480.532	602.5
480.751	589.5
480.969	598.5
481.188	625.5
481.406	630.5
481.624	582.5
481.843	557.5
482.061	551.5
482.28	579.5
482.498	563.5
482.717	569.5
482.935	551.5
483.153	576.5
483.372	587.5
483.59	557.5
483.808	562.5
484.027	577.5
484.245	585.5
484.463	584.5
484.681	578.5
484.9	584.5
485.118	597.5
485.336	579.5
485.554	598.5
485.772	584.5
485.99	624.5
486.209	582.5
486.427	572.5
486.645	610.5
486.863	615.5
487.081	589.5
487.299	604.5
487.517	595.5
487.735	567.5
487.953	595.5
488.171	595.5
488.389	597.5
488.607	623.5
488.825	590.5
489.043	617.5
489.261	606.5
489.479	624.5
489.696	597.5
489.914	610.5
490.132	637.5
490.35	625.5
490.568	646.5
490.786	654.5
491.003	659.5
491.221	675.5
491.439	683.5
491.657	688.5
491.874	683.5
492.092	693.5
492.31	704.5
492.527	706.5
492.745	720.5
492.963	705.5
493.18	744.5
493.398	709.5
493.615	725.5
493.833	699.5
494.05	725.5
494.268	722.5
494.485	685.5
494.703	698.5
494.92	717.5
495.138	722.5
495.355	711.5
495.573	712.5
495.79	740.5
496.008	731.5
496.225	736.5
496.442	721.5
496.66	710.5
496.877	737.5
497.094	726.5
497.312	734.5
497.529	740.5
497.746	749.5
497.963	763.5
498.181	769.5
498.398	796.5
498.615	812.5
498.832	841.5
499.049	874.5
499.267	887.5
499.484	938.5
499.701	953.5
499.918	1001.5
500.135	1077.5
500.352	1135.5
500.569	1155.5
500.786	1172.5
501.003	1141.5
501.22	1079.5
501.437	1014.5
501.654	1013.5
501.871	968.5
502.088	889.5
502.305	875.5
502.522	843.5
502.739	869.5
502.956	777.5
503.172	792.5
503.389	787.5
503.606	774.5
503.823	758.5
504.04	744.5
504.256	726.5
504.473	741.5
504.69	746.5
504.907	710.5
505.123	692.5
505.34	700.5
505.557	707.5
505.773	698.5
505.99	672.5
506.207	678.5
506.423	661.5
506.64	680.5
506.856	680.5
507.073	668.5
507.289	665.5
507.506	627.5
507.722	632.5
507.939	666.5
508.155	654.5
508.372	628.5
508.588	626.5
508.805	657.5
509.021	661.5
509.238	631.5
509.454	635.5
509.67	624.5
509.887	629.5
510.103	616.5
510.319	608.5
510.536	651.5
510.752	862.5
510.968	760.5
511.184	615.5
511.401	592.5
511.617	604.5
511.833	592.5
512.049	600.5
512.265	572.5
512.481	579.5
512.698	589.5
512.914	575.5
513.13	582.5
513.346	591.5
513.562	603.5
513.778	591.5
513.994	596.5
514.21	596.5
514.426	585.5
514.642	612.5
514.858	634.5
515.074	648.5
515.29	695.5
515.506	884.5
515.721	777.5
515.937	663.5
516.153	633.5
516.369	610.5
516.585	611.5
516.801	629.5
517.016	628.5
517.232	648.5
517.448	646.5
517.664	632.5
517.879	641.5
518.095	637.5
518.311	640.5
518.527	618.5
518.742	601.5
518.958	622.5
519.173	602.5
519.389	581.5
519.605	599.5
519.82	590.5
520.036	602.5
520.251	591.5
520.467	632.5
520.682	634.5
520.898	605.5
521.113	594.5
521.329	611.5
521.544	653.5
521.76	738.5
521.975	986.5
522.19	1013.5
522.406	710.5
522.621	619.5
522.836	564.5
523.052	540.5
523.267	527.5
523.482	541.5
523.698	540.5
523.913	509.5
524.128	525.5
524.343	521.5
524.559	520.5
524.774	518.5
524.989	540.5
525.204	532.5
525.419	530.5
525.634	497.5
525.849	484.5
526.064	498.5
526.28	505.5
526.495	514.5
526.71	484.5
526.925	497.5
527.14	496.5
527.355	514.5
527.57	474.5
527.785	488.5
527.999	498.5
528.214	490.5
528.429	505.5
528.644	488.5
528.859	521.5
529.074	502.5
529.289	517.5
529.503	544.5
529.718	516.5
529.933	498.5
530.148	508.5
530.363	480.5
530.577	492.5
530.792	490.5
531.007	475.5
531.221	500.5
531.436	504.5
531.651	482.5
531.865	477.5
532.08	480.5
532.295	475.5
532.509	485.5
532.724	511.5
532.938	481.5
533.153	486.5
533.367	490.5
533.582	485.5
533.796	470.5
534.011	471.5
534.225	476.5
534.44	481.5
534.654	472.5
534.868	472.5
535.083	481.5
535.297	481.5
535.511	504.5
535.726	502.5
535.94	492.5
536.154	492.5
536.369	473.5
536.583	447.5
536.797	465.5
537.011	481.5
537.225	464.5
537.44	459.5
537.654	478.5
537.868	457.5
538.082	439.5
538.296	472.5
538.51	462.5
538.724	470.5
538.938	476.5
539.153	436.5
539.367	480.5
539.581	470.5
539.795	475.5
540.009	445.5
540.222	434.5
540.436	451.5
540.65	478.5
540.864	469.5
541.078	468.5
541.292	468.5
541.506	491.5
541.72	483.5
541.934	470.5
542.147	467.5
542.361	478.5
542.575	454.5
542.789	467.5
543.002	462.5
543.216	473.5
543.43	435.5
543.644	469.5
543.857	460.5
544.071	472.5
544.285	478.5
544.498	477.5
544.712	454.5
544.925	474.5
545.139	505.5
545.352	466.5
545.566	475.5
545.779	463.5
545.993	476.5
546.206	481.5
546.42	464.5
546.633	467.5
546.847	449.5
547.06	442.5
547.274	455.5
547.487	466.5
547.7	479.5
547.914	464.5
548.127	454.5
548.34	460.5
548.554	475.5
548.767	454.5
548.98	459.5
549.193	455.5
549.407	468.5
549.62	471.5
549.833	474.5
550.046	453.5
550.259	458.5
550.473	455.5
550.686	488.5
550.899	454.5
551.112	457.5
551.325	455.5
551.538	448.5
551.751	469.5
551.964	448.5
552.177	471.5
552.39	453.5
552.603	443.5
552.816	460.5
553.029	484.5
553.242	469.5
553.455	474.5
553.667	480.5
553.88	474.5
554.093	486.5
554.306	484.5
554.519	458.5
554.732	449.5
554.944	435.5
555.157	420.5
555.37	444.5
555.583	443.5
555.795	442.5
556.008	434.5
556.221	416.5
556.433	418.5
556.646	424.5
556.859	427.5
557.071	403.5
557.284	440.5
557.496	416.5
557.709	381.5
557.921	403.5
558.134	432.5
558.346	409.5
558.559	442.5
558.771	419.5
558.984	400.5
559.196	417.5
559.409	428.5
559.621	418.5
559.833	401.5
560.046	394.5
560.258	395.5
560.47	410.5
560.683	405.5
560.895	423.5
561.107	398.5
561.32	407.5
561.532	416.5
561.744	413.5
561.956	408.5
562.168	403.5
562.381	406.5
562.593	400.5
562.805	411.5
563.017	396.5
563.229	408.5
563.441	401.5
563.653	404.5
563.865	433.5
564.077	400.5
564.289	417.5
564.501	421.5
564.713	416.5
564.925	452.5
565.137	448.5
565.349	437.5
565.561	459.5
565.773	484.5
565.985	491.5
566.197	487.5
566.408	516.5
566.62	504.5
566.832	547.5
567.044	538.5
567.255	560.5
567.467	553.5
567.679	581.5
567.891	582.5
568.102	577.5
568.314	564.5
568.526	500.5
568.737	520.5
568.949	485.5
569.161	462.5
569.372	460.5
569.584	441.5
569.795	441.5
570.007	420.5
570.218	438.5
570.43	425.5
570.641	411.5
570.853	410.5
571.064	400.5
571.276	408.5
571.487	381.5
571.698	380.5
571.91	378.5
572.121	394.5
572.333	377.5
572.544	363.5
572.755	368.5
572.966	359.5
573.178	376.5
573.389	361.5
573.6	352.5
573.811	369.5
574.023	354.5
574.234	354.5
574.445	356.5
574.656	355.5
574.867	352.5
575.078	351.5
575.289	360.5
575.501	343.5
575.712	349.5
575.923	350.5
576.134	341.5
576.345	349.5
576.556	342.5
576.767	345.5
576.978	348.5
577.188	333.5
577.399	344.5
577.61	343.5
577.821	355.5
578.032	352.5
578.243	352.5
578.454	423.5
578.665	378.5
578.875	323.5
579.086	333.5
579.297	330.5
579.508	322.5
579.718	327.5
579.929	318.5
580.14	326.5
580.35	329.5
580.561	319.5
580.772	318.5
580.982	320.5
581.193	325.5
581.403	332.5
581.614	330.5
581.825	327.5
582.035	333.5
582.246	328.5
582.456	326.5
582.667	321.5
582.877	323.5
583.087	340.5
583.298	299.5
583.508	310.5
583.719	308.5
583.929	332.5
584.139	302.5
584.35	313.5
584.56	307.5
584.77	311.5
584.981	319.5
585.191	311.5
585.401	300.5
585.611	283.5
585.821	328.5
586.032	328.5
586.242	308.5
586.452	308.5
586.662	310.5
586.872	314.5
587.082	305.5
587.292	305.5
587.502	314.5
587.713	313.5
587.923	308.5
588.133	312.5
588.343	295.5
588.553	294.5
588.762	328.5
588.972	295.5
589.182	317.5
589.392	299.5
589.602	301.5
589.812	311.5
590.022	318.5
590.232	324.5
590.441	311.5
590.651	311.5
590.861	320.5
591.071	314.5
591.281	314.5
591.49	313.5
591.7	314.5
591.91	333.5
592.119	329.5
592.329	356.5
592.539	332.5
592.748	331.5
592.958	334.5
593.167	338.5
593.377	354.5
593.587	337.5
593.796	353.5
594.006	346.5
594.215	337.5
594.424	340.5
594.634	316.5
594.843	317.5
595.053	344.5
595.262	318.5
595.472	334.5
595.681	317.5
595.89	315.5
596.1	321.5
596.309	292.5
596.518	299.5
596.727	298.5
596.937	301.5
597.146	295.5
597.355	295.5
597.564	294.5
597.774	284.5
597.983	286.5
598.192	297.5
598.401	276.5
598.61	281.5
598.819	272.5
599.028	272.5
599.237	271.5
599.446	284.5
599.655	264.5
599.864	266.5
600.073	266.5
600.282	274.5
600.491	278.5
600.7	264.5
600.909	273.5
601.118	270.5
601.327	264.5
601.536	270.5
601.745	273.5
601.953	274.5
602.162	264.5
602.371	258.5
602.58	258.5
602.789	295.5
602.997	257.5
603.206	259.5
603.415	268.5
603.623	269.5
603.832	277.5
604.041	277.5
604.249	258.5
604.458	255.5
604.666	261.5
604.875	262.5
605.084	273.5
605.292	257.5
605.501	250.5
605.709	267.5
605.918	257.5
606.126	269.5
606.334	262.5
606.543	278.5
606.751	260.5
606.96	272.5
607.168	257.5
607.376	233.5
607.585	246.5
607.793	269.5
608.001	267.5
608.21	256.5
608.418	274.5
608.626	268.5
608.834	263.5
609.043	258.5
609.251	260.5
609.459	264.5
609.667	271.5
609.875	257.5
610.083	240.5
610.291	260.5
610.499	256.5
610.707	242.5
610.916	268.5
611.124	269.5
611.332	270.5
611.54	268.5
611.748	273.5
611.955	243.5
612.163	268.5
612.371	267.5
612.579	245.5
612.787	269.5
612.995	258.5
613.203	284.5
613.411	253.5
613.618	260.5
613.826	244.5
614.034	251.5
614.242	248.5
614.449	243.5
614.657	247.5
614.865	249.5
615.072	232.5
615.28	260.5
615.488	249.5
615.695	233.5
615.903	232.5
616.111	264.5
616.318	264.5
616.526	258.5
616.733	272.5
616.941	246.5
617.148	274.5
617.356	255.5
617.563	247.5
617.771	253.5
617.978	261.5
618.185	243.5
618.393	253.5
618.6	258.5
618.807	264.5
619.015	256.5
619.222	241.5
619.429	248.5
619.637	254.5
619.844	242.5
620.051	255.5
620.258	253.5
620.466	244.5
620.673	248.5
620.88	250.5
621.087	244.5
621.294	240.5
621.501	233.5
621.708	244.5
621.915	229.5
622.122	244.5
622.329	232.5
622.536	252.5
622.743	243.5
622.95	236.5
623.157	220.5
623.364	224.5
623.571	227.5
623.778	209.5
623.985	238.5
624.192	212.5
624.399	219.5
624.606	217.5
624.812	236.5
625.019	227.5
625.226	216.5
625.433	224.5
625.639	219.5
625.846	220.5
626.053	199.5
626.259	230.5
626.466	226.5
626.673	207.5
626.879	230.5
627.086	230.5
627.293	210.5
627.499	217.5
627.706	241.5
627.912	212.5
628.119	215.5
628.325	235.5
628.532	221.5
628.738	218.5
628.945	205.5
629.151	207.5
629.357	208.5
629.564	207.5
629.77	223.5
629.976	219.5
630.183	202.5
630.389	202.5
630.595	200.5
630.802	195.5
631.008	203.5
631.214	210.5
631.42	201.5
631.627	206.5
631.833	213.5
632.039	198.5
632.245	196.5
632.451	206.5
632.657	196.5
632.863	208.5
633.069	197.5
633.275	183.5
633.481	202.5
633.688	206.5
633.893	202.5
634.099	192.5
634.305	198.5
634.511	216.5
634.717	196.5
634.923	200.5
635.129	192.5
635.335	193.5
635.541	185.5
635.747	176.5
635.952	193.5
636.158	183.5
636.364	201.5
636.57	201.5
636.775	197.5
636.981	193.5
637.187	200.5
637.392	195.5
637.598	197.5
637.804	193.5
638.009	210.5
638.215	192.5
638.421	196.5
638.626	206.5
638.832	193.5
639.037	172.5
639.243	189.5
639.448	178.5
639.654	195.5
639.859	171.5
640.065	196.5
640.27	182.5
640.475	168.5
640.681	195.5
640.886	180.5
641.091	180.5
641.297	192.5
641.502	183.5
641.707	170.5
641.913	175.5
642.118	165.5
642.323	180.5
642.528	178.5
642.733	187.5
642.939	205.5
643.144	189.5
643.349	182.5
643.554	172.5
643.759	181.5
643.964	163.5
644.169	187.5
644.374	176.5
644.579	181.5
644.784	171.5
644.989	176.5
645.194	156.5
645.399	184.5
645.604	165.5
645.809	176.5
646.014	173.5
646.219	178.5
646.423	181.5
646.628	172.5
646.833	179.5
647.038	180.5
647.243	177.5
647.447	174.5
647.652	191.5
647.857	172.5
648.062	172.5
648.266	172.5
648.471	181.5
648.676	166.5
648.88	178.5
649.085	183.5
649.289	168.5
649.494	184.5
649.698	192.5
649.903	172.5
650.107	189.5
650.312	171.5
650.516	181.5
650.721	171.5
650.925	155.5
651.13	157.5
651.334	160.5
651.539	150.5
651.743	167.5
651.947	160.5
652.152	162.5
652.356	149.5
652.56	136.5
652.764	135.5
652.969	154.5
653.173	160.5
653.377	160.5
653.581	153.5
653.785	155.5
653.99	139.5
654.194	147.5
654.398	138.5
654.602	144.5
654.806	152.5
655.01	146.5
655.214	134.5
655.418	150.5
655.622	137.5
655.826	156.5
656.03	156.5
656.234	142.5
656.438	145.5
656.642	142.5
656.846	140.5
657.049	133.5
657.253	136.5
657.457	125.5
657.661	113.5
657.865	120.5
658.068	106.5
658.272	114.5
658.476	131.5
658.68	118.5
658.883	117.5
659.087	113.5
659.291	115.5
659.494	84.5
659.698	99.5
659.901	101.5
660.105	92.5
660.309	96.5
660.512	91.5
660.716	100.5
660.919	100.5
661.123	103.5
661.326	92.5
661.53	85.5
661.733	99.5
661.936	91.5
662.14	107.5
662.343	89.5
662.546	92.5
662.75	86.5
662.953	84.5
663.156	79.5
663.36	89.5
663.563	80.5
663.766	88.5
663.969	79.5
664.173	91.5
664.376	91.5
664.579	72.5
664.782	87.5
664.985	98.5
665.188	71.5
665.391	94.5
665.594	80.5
665.797	84.5
666	67.5
666.203	72.5
666.406	76.5
666.609	93.5
666.812	82.5
667.015	84.5
667.218	81.5
667.421	78.5
667.624	85.5
667.827	92.5
668.03	77.5
668.232	72.5
668.435	97.5
668.638	79.5
668.841	81.5
669.043	83.5
669.246	77.5
669.449	78.5
669.651	84.5
669.854	85.5
670.057	84.5
670.259	77.5
670.462	84.5
670.665	80.5
670.867	67.5
671.07	94.5
671.272	108.5
671.475	81.5
671.677	96.5
671.88	83.5
672.082	86.5
672.284	90.5
672.487	91.5
672.689	89.5
672.892	83.5
