Data from 1975.PennyLincolnUp.Lamp.En5.5.200Scan.071719.P1.Changed Mount._HRD10591_15-58-45-860.txt Node
Date: Thu Jul 18 15:58:45 EDT 2019
User: cochatt
Spectrometer: HR+D1059
Trigger mode: 1
Integration Time (sec): 1.000000E-1
Scans to average: 1
Electric dark correction enabled: true
Nonlinearity correction enabled: false
Boxcar width: 0
XAxis mode: Wavelengths
Number of Pixels in Spectrum: 2048
>>>>>Begin Spectral Data<<<<<
223.165	-24.88
223.4	-24.88
223.635	-24.88
223.869	-13.88
224.104	-18.88
224.338	-16.88
224.573	-22.88
224.808	-8.88
225.042	-1.88
225.277	-6.88
225.511	11.12
225.746	2.12
225.98	1.12
226.215	0.12
226.449	14.12
226.683	25.12
226.918	27.12
227.152	34.12
227.387	29.12
227.621	44.12
227.856	54.12
228.09	49.12
228.324	53.12
228.559	47.12
228.793	63.12
229.027	106.12
229.262	97.12
229.496	111.12
229.73	122.12
229.964	141.12
230.199	129.12
230.433	115.12
230.667	114.12
230.901	121.12
231.136	111.12
231.37	95.12
231.604	118.12
231.838	106.12
232.072	124.12
232.306	127.12
232.541	105.12
232.775	114.12
233.009	126.12
233.243	117.12
233.477	137.12
233.711	122.12
233.945	125.12
234.179	137.12
234.413	130.12
234.647	120.12
234.881	121.12
235.115	127.12
235.349	112.12
235.583	123.12
235.817	139.12
236.051	129.12
236.285	126.12
236.519	133.12
236.753	129.12
236.987	147.12
237.221	190.12
237.455	236.12
237.689	176.12
237.922	147.12
238.156	132.12
238.39	151.12
238.624	133.12
238.858	119.12
239.091	139.12
239.325	137.12
239.559	127.12
239.793	130.12
240.027	128.12
240.26	132.12
240.494	162.12
240.728	143.12
240.961	165.12
241.195	138.12
241.429	149.12
241.662	133.12
241.896	146.12
242.13	153.12
242.363	151.12
242.597	130.12
242.83	157.12
243.064	141.12
243.298	145.12
243.531	152.12
243.765	143.12
243.998	145.12
244.232	153.12
244.465	151.12
244.699	165.12
244.932	161.12
245.166	147.12
245.399	162.12
245.633	154.12
245.866	155.12
246.099	162.12
246.333	151.12
246.566	151.12
246.8	155.12
247.033	158.12
247.266	167.12
247.5	169.12
247.733	176.12
247.966	192.12
248.2	170.12
248.433	171.12
248.666	170.12
248.899	199.12
249.133	203.12
249.366	204.12
249.599	202.12
249.832	211.12
250.066	178.12
250.299	192.12
250.532	179.12
250.765	210.12
250.998	240.12
251.231	238.12
251.465	224.12
251.698	226.12
251.931	207.12
252.164	207.12
252.397	215.12
252.63	198.12
252.863	213.12
253.096	242.12
253.329	225.12
253.562	234.12
253.795	217.12
254.028	229.12
254.261	239.12
254.494	224.12
254.727	263.12
254.96	265.12
255.193	269.12
255.426	257.12
255.659	246.12
255.892	234.12
256.124	245.12
256.357	263.12
256.59	236.12
256.823	219.12
257.056	225.12
257.289	223.12
257.521	213.12
257.754	215.12
257.987	216.12
258.22	227.12
258.452	224.12
258.685	226.12
258.918	214.12
259.151	224.12
259.383	239.12
259.616	215.12
259.849	221.12
260.081	227.12
260.314	265.12
260.547	245.12
260.779	263.12
261.012	239.12
261.244	233.12
261.477	231.12
261.71	246.12
261.942	230.12
262.175	242.12
262.407	231.12
262.64	214.12
262.872	213.12
263.105	209.12
263.337	232.12
263.57	230.12
263.802	234.12
264.035	238.12
264.267	222.12
264.499	222.12
264.732	229.12
264.964	230.12
265.197	221.12
265.429	213.12
265.661	224.12
265.894	235.12
266.126	216.12
266.358	221.12
266.591	244.12
266.823	233.12
267.055	251.12
267.287	249.12
267.52	235.12
267.752	241.12
267.984	236.12
268.216	239.12
268.448	262.12
268.681	245.12
268.913	253.12
269.145	268.12
269.377	301.12
269.609	291.12
269.841	287.12
270.073	282.12
270.306	301.12
270.538	309.12
270.77	330.12
271.002	315.12
271.234	303.12
271.466	306.12
271.698	327.12
271.93	327.12
272.162	306.12
272.394	320.12
272.626	303.12
272.858	304.12
273.09	307.12
273.322	301.12
273.553	281.12
273.785	275.12
274.017	283.12
274.249	281.12
274.481	303.12
274.713	267.12
274.945	277.12
275.176	285.12
275.408	294.12
275.64	288.12
275.872	276.12
276.104	287.12
276.335	283.12
276.567	294.12
276.799	300.12
277.031	305.12
277.262	335.12
277.494	343.12
277.726	298.12
277.957	308.12
278.189	285.12
278.421	283.12
278.652	298.12
278.884	279.12
279.115	279.12
279.347	274.12
279.579	289.12
279.81	283.12
280.042	280.12
280.273	282.12
280.505	306.12
280.736	294.12
280.968	297.12
281.199	285.12
281.431	299.12
281.662	288.12
281.894	317.12
282.125	299.12
282.356	312.12
282.588	311.12
282.819	317.12
283.051	287.12
283.282	286.12
283.513	295.12
283.745	303.12
283.976	311.12
284.207	301.12
284.439	302.12
284.67	302.12
284.901	305.12
285.132	301.12
285.364	313.12
285.595	299.12
285.826	312.12
286.057	306.12
286.288	305.12
286.52	321.12
286.751	295.12
286.982	302.12
287.213	304.12
287.444	313.12
287.675	321.12
287.906	303.12
288.138	308.12
288.369	328.12
288.6	327.12
288.831	336.12
289.062	315.12
289.293	313.12
289.524	317.12
289.755	319.12
289.986	298.12
290.217	313.12
290.448	303.12
290.679	307.12
290.91	323.12
291.141	326.12
291.371	327.12
291.602	316.12
291.833	305.12
292.064	303.12
292.295	310.12
292.526	309.12
292.757	313.12
292.987	315.12
293.218	297.12
293.449	322.12
293.68	339.12
293.91	311.12
294.141	327.12
294.372	317.12
294.603	325.12
294.833	320.12
295.064	332.12
295.295	316.12
295.525	323.12
295.756	342.12
295.987	332.12
296.217	339.12
296.448	353.12
296.679	348.12
296.909	327.12
297.14	317.12
297.37	325.12
297.601	323.12
297.831	315.12
298.062	322.12
298.292	331.12
298.523	330.12
298.753	339.12
298.984	316.12
299.214	332.12
299.445	318.12
299.675	330.12
299.905	359.12
300.136	338.12
300.366	330.12
300.597	341.12
300.827	345.12
301.057	348.12
301.288	364.12
301.518	356.12
301.748	353.12
301.979	378.12
302.209	327.12
302.439	355.12
302.669	345.12
302.9	349.12
303.13	334.12
303.36	375.12
303.59	371.12
303.82	354.12
304.051	369.12
304.281	351.12
304.511	345.12
304.741	366.12
304.971	344.12
305.201	350.12
305.431	364.12
305.661	361.12
305.891	343.12
306.121	343.12
306.352	354.12
306.582	367.12
306.812	350.12
307.042	352.12
307.272	349.12
307.502	367.12
307.731	354.12
307.961	364.12
308.191	363.12
308.421	345.12
308.651	368.12
308.881	361.12
309.111	371.12
309.341	365.12
309.571	376.12
309.8	385.12
310.03	369.12
310.26	385.12
310.49	395.12
310.72	393.12
310.949	398.12
311.179	419.12
311.409	408.12
311.639	389.12
311.868	383.12
312.098	387.12
312.328	395.12
312.557	407.12
312.787	409.12
313.017	416.12
313.246	411.12
313.476	389.12
313.706	403.12
313.935	390.12
314.165	391.12
314.394	403.12
314.624	403.12
314.853	399.12
315.083	425.12
315.312	417.12
315.542	404.12
315.771	387.12
316.001	385.12
316.23	383.12
316.46	386.12
316.689	380.12
316.919	418.12
317.148	395.12
317.377	412.12
317.607	409.12
317.836	401.12
318.065	397.12
318.295	396.12
318.524	394.12
318.753	398.12
318.983	399.12
319.212	402.12
319.441	404.12
319.67	391.12
319.9	413.12
320.129	391.12
320.358	402.12
320.587	397.12
320.816	420.12
321.046	427.12
321.275	426.12
321.504	422.12
321.733	410.12
321.962	425.12
322.191	433.12
322.42	433.12
322.649	447.12
322.878	463.12
323.108	480.12
323.337	473.12
323.566	482.12
323.795	509.12
324.024	550.12
324.253	633.12
324.482	863.12
324.71	1277.12
324.939	1952.12
325.168	1760.12
325.397	875.12
325.626	593.12
325.855	547.12
326.084	504.12
326.313	495.12
326.542	488.12
326.77	537.12
326.999	612.12
327.228	802.12
327.457	1230.12
327.686	1510.12
327.914	991.12
328.143	695.12
328.372	593.12
328.6	554.12
328.829	536.12
329.058	567.12
329.287	543.12
329.515	531.12
329.744	523.12
329.972	524.12
330.201	546.12
330.43	582.12
330.658	589.12
330.887	575.12
331.115	571.12
331.344	553.12
331.572	503.12
331.801	517.12
332.03	512.12
332.258	487.12
332.486	496.12
332.715	489.12
332.943	490.12
333.172	477.12
333.4	498.12
333.629	494.12
333.857	534.12
334.085	548.12
334.314	551.12
334.542	569.12
334.771	583.12
334.999	540.12
335.227	512.12
335.455	504.12
335.684	486.12
335.912	492.12
336.14	458.12
336.369	488.12
336.597	478.12
336.825	467.12
337.053	474.12
337.281	498.12
337.51	500.12
337.738	462.12
337.966	442.12
338.194	481.12
338.422	476.12
338.65	476.12
338.878	456.12
339.106	461.12
339.334	459.12
339.562	465.12
339.79	457.12
340.018	453.12
340.246	461.12
340.474	455.12
340.702	453.12
340.93	430.12
341.158	442.12
341.386	465.12
341.614	477.12
341.842	463.12
342.07	447.12
342.298	460.12
342.526	437.12
342.754	463.12
342.981	461.12
343.209	465.12
343.437	451.12
343.665	485.12
343.893	469.12
344.12	487.12
344.348	487.12
344.576	485.12
344.804	491.12
345.031	473.12
345.259	485.12
345.487	481.12
345.714	450.12
345.942	438.12
346.17	439.12
346.397	435.12
346.625	434.12
346.853	428.12
347.08	440.12
347.308	445.12
347.535	471.12
347.763	462.12
347.99	469.12
348.218	455.12
348.445	460.12
348.673	467.12
348.9	435.12
349.128	436.12
349.355	445.12
349.583	421.12
349.81	422.12
350.037	437.12
350.265	425.12
350.492	412.12
350.72	428.12
350.947	462.12
351.174	430.12
351.402	441.12
351.629	469.12
351.856	447.12
352.083	459.12
352.311	475.12
352.538	450.12
352.765	455.12
352.992	457.12
353.22	454.12
353.447	432.12
353.674	450.12
353.901	433.12
354.128	458.12
354.355	433.12
354.583	411.12
354.81	424.12
355.037	440.12
355.264	436.12
355.491	442.12
355.718	411.12
355.945	426.12
356.172	437.12
356.399	416.12
356.626	441.12
356.853	407.12
357.08	414.12
357.307	426.12
357.534	410.12
357.761	411.12
357.988	422.12
358.215	410.12
358.441	429.12
358.668	443.12
358.895	439.12
359.122	455.12
359.349	434.12
359.576	435.12
359.802	474.12
360.029	469.12
360.256	477.12
360.483	457.12
360.709	460.12
360.936	446.12
361.163	437.12
361.39	440.12
361.616	438.12
361.843	434.12
362.07	438.12
362.296	470.12
362.523	463.12
362.749	424.12
362.976	430.12
363.203	437.12
363.429	421.12
363.656	421.12
363.882	442.12
364.109	435.12
364.335	417.12
364.562	441.12
364.788	429.12
365.015	428.12
365.241	439.12
365.468	448.12
365.694	431.12
365.92	441.12
366.147	415.12
366.373	429.12
366.599	432.12
366.826	427.12
367.052	419.12
367.278	417.12
367.505	426.12
367.731	439.12
367.957	453.12
368.184	415.12
368.41	439.12
368.636	427.12
368.862	451.12
369.089	449.12
369.315	431.12
369.541	436.12
369.767	427.12
369.993	448.12
370.219	435.12
370.445	437.12
370.672	420.12
370.898	449.12
371.124	442.12
371.35	424.12
371.576	443.12
371.802	438.12
372.028	425.12
372.254	426.12
372.48	430.12
372.706	422.12
372.932	442.12
373.158	445.12
373.384	447.12
373.61	443.12
373.835	473.12
374.061	445.12
374.287	437.12
374.513	453.12
374.739	428.12
374.965	448.12
375.191	466.12
375.416	438.12
375.642	442.12
375.868	449.12
376.094	457.12
376.319	425.12
376.545	441.12
376.771	417.12
376.997	442.12
377.222	435.12
377.448	451.12
377.674	443.12
377.899	428.12
378.125	441.12
378.35	431.12
378.576	443.12
378.802	421.12
379.027	423.12
379.253	450.12
379.478	413.12
379.704	426.12
379.929	441.12
380.155	433.12
380.38	419.12
380.606	430.12
380.831	437.12
381.057	449.12
381.282	445.12
381.507	431.12
381.733	463.12
381.958	449.12
382.184	445.12
382.409	450.12
382.634	452.12
382.86	469.12
383.085	463.12
383.31	472.12
383.535	453.12
383.761	486.12
383.986	460.12
384.211	472.12
384.436	451.12
384.662	462.12
384.887	473.12
385.112	462.12
385.337	480.12
385.562	503.12
385.787	509.12
386.013	505.12
386.238	473.12
386.463	512.12
386.688	485.12
386.913	488.12
387.138	487.12
387.363	465.12
387.588	478.12
387.813	470.12
388.038	482.12
388.263	502.12
388.488	485.12
388.713	512.12
388.938	483.12
389.163	495.12
389.387	474.12
389.612	511.12
389.837	491.12
390.062	501.12
390.287	472.12
390.512	475.12
390.736	458.12
390.961	486.12
391.186	495.12
391.411	503.12
391.636	517.12
391.86	500.12
392.085	508.12
392.31	510.12
392.534	530.12
392.759	522.12
392.984	521.12
393.208	501.12
393.433	505.12
393.658	468.12
393.882	485.12
394.107	504.12
394.331	482.12
394.556	509.12
394.78	497.12
395.005	505.12
395.229	513.12
395.454	499.12
395.678	513.12
395.903	532.12
396.127	545.12
396.352	530.12
396.576	516.12
396.801	514.12
397.025	511.12
397.249	511.12
397.474	540.12
397.698	521.12
397.922	546.12
398.147	563.12
398.371	584.12
398.595	538.12
398.82	572.12
399.044	575.12
399.268	640.12
399.492	650.12
399.717	685.12
399.941	730.12
400.165	730.12
400.389	721.12
400.613	661.12
400.837	607.12
401.062	586.12
401.286	584.12
401.51	606.12
401.734	578.12
401.958	611.12
402.182	585.12
402.406	572.12
402.63	592.12
402.854	581.12
403.078	589.12
403.302	581.12
403.526	622.12
403.75	609.12
403.974	603.12
404.198	597.12
404.422	628.12
404.645	623.12
404.869	615.12
405.093	601.12
405.317	687.12
405.541	746.12
405.765	650.12
405.988	646.12
406.212	605.12
406.436	649.12
406.66	669.12
406.883	645.12
407.107	682.12
407.331	710.12
407.555	809.12
407.778	788.12
408.002	721.12
408.226	649.12
408.449	670.12
408.673	645.12
408.896	673.12
409.12	713.12
409.344	658.12
409.567	622.12
409.791	605.12
410.014	610.12
410.238	595.12
410.461	593.12
410.685	607.12
410.908	612.12
411.132	646.12
411.355	682.12
411.578	657.12
411.802	601.12
412.025	594.12
412.249	599.12
412.472	635.12
412.695	685.12
412.919	655.12
413.142	621.12
413.365	596.12
413.589	589.12
413.812	570.12
414.035	568.12
414.258	577.12
414.482	563.12
414.705	551.12
414.928	561.12
415.151	562.12
415.374	576.12
415.597	550.12
415.821	562.12
416.044	552.12
416.267	554.12
416.49	560.12
416.713	565.12
416.936	539.12
417.159	585.12
417.382	567.12
417.605	585.12
417.828	595.12
418.051	622.12
418.274	577.12
418.497	588.12
418.72	587.12
418.943	554.12
419.166	604.12
419.389	619.12
419.611	625.12
419.834	611.12
420.057	595.12
420.28	598.12
420.503	590.12
420.726	578.12
420.948	614.12
421.171	647.12
421.394	663.12
421.617	618.12
421.839	594.12
422.062	595.12
422.285	599.12
422.507	661.12
422.73	743.12
422.953	727.12
423.175	652.12
423.398	620.12
423.621	632.12
423.843	608.12
424.066	629.12
424.288	634.12
424.511	680.12
424.733	701.12
424.956	779.12
425.178	748.12
425.401	747.12
425.623	786.12
425.846	663.12
426.068	617.12
426.291	629.12
426.513	621.12
426.735	631.12
426.958	659.12
427.18	742.12
427.402	878.12
427.625	961.12
427.847	820.12
428.069	737.12
428.292	652.12
428.514	605.12
428.736	582.12
428.958	594.12
429.181	588.12
429.403	572.12
429.625	583.12
429.847	609.12
430.069	669.12
430.292	681.12
430.514	610.12
430.736	550.12
430.958	565.12
431.18	563.12
431.402	552.12
431.624	534.12
431.846	538.12
432.068	539.12
432.29	550.12
432.512	555.12
432.734	542.12
432.956	551.12
433.178	568.12
433.4	582.12
433.622	543.12
433.844	557.12
434.066	549.12
434.287	565.12
434.509	549.12
434.731	571.12
434.953	557.12
435.175	589.12
435.397	649.12
435.618	624.12
435.84	648.12
436.062	765.12
436.284	845.12
436.505	695.12
436.727	629.12
436.949	589.12
437.17	571.12
437.392	574.12
437.614	592.12
437.835	605.12
438.057	716.12
438.278	817.12
438.5	802.12
438.721	886.12
438.943	873.12
439.165	678.12
439.386	638.12
439.608	627.12
439.829	622.12
440.05	655.12
440.272	676.12
440.493	643.12
440.715	576.12
440.936	585.12
441.158	586.12
441.379	581.12
441.6	587.12
441.822	638.12
442.043	663.12
442.264	736.12
442.486	800.12
442.707	679.12
442.928	645.12
443.149	632.12
443.371	647.12
443.592	718.12
443.813	807.12
444.034	897.12
444.255	734.12
444.476	648.12
444.698	651.12
444.919	652.12
445.14	769.12
445.361	716.12
445.582	658.12
445.803	721.12
446.024	847.12
446.245	858.12
446.466	797.12
446.687	667.12
446.908	606.12
447.129	577.12
447.35	574.12
447.571	571.12
447.792	567.12
448.013	555.12
448.234	575.12
448.455	639.12
448.675	769.12
448.896	889.12
449.117	730.12
449.338	694.12
449.559	808.12
449.779	939.12
450	728.12
450.221	626.12
450.442	558.12
450.662	574.12
450.883	536.12
451.104	552.12
451.324	548.12
451.545	535.12
451.766	513.12
451.986	511.12
452.207	525.12
452.428	518.12
452.648	488.12
452.869	509.12
453.089	497.12
453.31	522.12
453.53	511.12
453.751	502.12
453.971	493.12
454.192	507.12
454.412	536.12
454.633	524.12
454.853	490.12
455.073	519.12
455.294	534.12
455.514	602.12
455.734	599.12
455.955	489.12
456.175	487.12
456.395	467.12
456.616	460.12
456.836	490.12
457.056	473.12
457.276	474.12
457.497	478.12
457.717	467.12
457.937	465.12
458.157	494.12
458.377	509.12
458.598	512.12
458.818	537.12
459.038	631.12
459.258	677.12
459.478	595.12
459.698	551.12
459.918	562.12
460.138	557.12
460.358	560.12
460.578	574.12
460.798	569.12
461.018	555.12
461.238	562.12
461.458	571.12
461.678	569.12
461.898	571.12
462.118	593.12
462.338	586.12
462.558	609.12
462.777	593.12
462.997	636.12
463.217	625.12
463.437	660.12
463.657	640.12
463.876	621.12
464.096	624.12
464.316	590.12
464.536	609.12
464.755	590.12
464.975	597.12
465.195	646.12
465.414	646.12
465.634	588.12
465.854	600.12
466.073	556.12
466.293	572.12
466.512	528.12
466.732	541.12
466.951	549.12
467.171	524.12
467.391	527.12
467.61	541.12
467.829	547.12
468.049	553.12
468.268	543.12
468.488	528.12
468.707	512.12
468.927	492.12
469.146	523.12
469.365	517.12
469.585	489.12
469.804	496.12
470.023	526.12
470.243	543.12
470.462	539.12
470.681	563.12
470.901	555.12
471.12	526.12
471.339	506.12
471.558	524.12
471.777	561.12
471.997	520.12
472.216	537.12
472.435	558.12
472.654	551.12
472.873	534.12
473.092	546.12
473.311	527.12
473.53	531.12
473.749	534.12
473.968	581.12
474.187	651.12
474.406	686.12
474.625	586.12
474.844	544.12
475.063	512.12
475.282	538.12
475.501	550.12
475.72	539.12
475.939	535.12
476.158	528.12
476.377	579.12
476.596	531.12
476.814	543.12
477.033	565.12
477.252	582.12
477.471	558.12
477.69	578.12
477.908	588.12
478.127	579.12
478.346	613.12
478.564	579.12
478.783	614.12
479.002	593.12
479.22	621.12
479.439	604.12
479.658	641.12
479.876	622.12
480.095	649.12
480.313	683.12
480.532	678.12
480.751	657.12
480.969	651.12
481.188	705.12
481.406	737.12
481.624	661.12
481.843	644.12
482.061	637.12
482.28	618.12
482.498	631.12
482.717	611.12
482.935	643.12
483.153	622.12
483.372	618.12
483.59	636.12
483.808	639.12
484.027	634.12
484.245	623.12
484.463	615.12
484.681	607.12
484.9	603.12
485.118	622.12
485.336	630.12
485.554	618.12
485.772	657.12
485.99	627.12
486.209	645.12
486.427	663.12
486.645	622.12
486.863	658.12
487.081	665.12
487.299	663.12
487.517	677.12
487.735	671.12
487.953	663.12
488.171	683.12
488.389	666.12
488.607	641.12
488.825	651.12
489.043	673.12
489.261	680.12
489.479	665.12
489.696	666.12
489.914	685.12
490.132	696.12
490.35	682.12
490.568	702.12
490.786	716.12
491.003	714.12
491.221	726.12
491.439	745.12
491.657	761.12
491.874	777.12
492.092	796.12
492.31	779.12
492.527	763.12
492.745	764.12
492.963	769.12
493.18	773.12
493.398	777.12
493.615	793.12
493.833	795.12
494.05	792.12
494.268	795.12
494.485	793.12
494.703	776.12
494.92	792.12
495.138	770.12
495.355	801.12
495.573	807.12
495.79	789.12
496.008	809.12
496.225	792.12
496.442	799.12
496.66	810.12
496.877	787.12
497.094	806.12
497.312	806.12
497.529	807.12
497.746	816.12
497.963	820.12
498.181	896.12
498.398	890.12
498.615	890.12
498.832	913.12
499.049	950.12
499.267	975.12
499.484	1003.12
499.701	1069.12
499.918	1088.12
500.135	1169.12
500.352	1207.12
500.569	1285.12
500.786	1232.12
501.003	1228.12
501.22	1188.12
501.437	1112.12
501.654	1086.12
501.871	1047.12
502.088	992.12
502.305	965.12
502.522	934.12
502.739	881.12
502.956	851.12
503.172	835.12
503.389	847.12
503.606	803.12
503.823	822.12
504.04	835.12
504.256	814.12
504.473	819.12
504.69	817.12
504.907	794.12
505.123	744.12
505.34	773.12
505.557	747.12
505.773	763.12
505.99	769.12
506.207	742.12
506.423	763.12
506.64	723.12
506.856	744.12
507.073	745.12
507.289	724.12
507.506	707.12
507.722	747.12
507.939	737.12
508.155	696.12
508.372	695.12
508.588	705.12
508.805	705.12
509.021	704.12
509.238	699.12
509.454	721.12
509.67	705.12
509.887	696.12
510.103	700.12
510.319	695.12
510.536	758.12
510.752	1104.12
510.968	948.12
511.184	687.12
511.401	672.12
511.617	659.12
511.833	670.12
512.049	659.12
512.265	649.12
512.481	651.12
512.698	647.12
512.914	654.12
513.13	630.12
513.346	656.12
513.562	616.12
513.778	650.12
513.994	638.12
514.21	644.12
514.426	674.12
514.642	701.12
514.858	704.12
515.074	742.12
515.29	843.12
515.506	1116.12
515.721	965.12
515.937	753.12
516.153	699.12
516.369	704.12
516.585	673.12
516.801	689.12
517.016	718.12
517.232	704.12
517.448	706.12
517.664	709.12
517.879	715.12
518.095	702.12
518.311	712.12
518.527	690.12
518.742	667.12
518.958	674.12
519.173	648.12
519.389	682.12
519.605	654.12
519.82	679.12
520.036	672.12
520.251	674.12
520.467	717.12
520.682	681.12
520.898	686.12
521.113	714.12
521.329	698.12
521.544	755.12
521.76	928.12
521.975	1389.12
522.19	1363.12
522.406	855.12
522.621	671.12
522.836	675.12
523.052	625.12
523.267	618.12
523.482	609.12
523.698	586.12
523.913	609.12
524.128	585.12
524.343	567.12
524.559	538.12
524.774	556.12
524.989	572.12
525.204	570.12
525.419	557.12
525.634	559.12
525.849	562.12
526.064	553.12
526.28	548.12
526.495	528.12
526.71	552.12
526.925	539.12
527.14	562.12
527.355	545.12
527.57	569.12
527.785	504.12
527.999	539.12
528.214	552.12
528.429	534.12
528.644	539.12
528.859	537.12
529.074	526.12
529.289	559.12
529.503	625.12
529.718	594.12
529.933	571.12
530.148	559.12
530.363	535.12
530.577	521.12
530.792	525.12
531.007	529.12
531.221	518.12
531.436	541.12
531.651	525.12
531.865	523.12
532.08	521.12
532.295	529.12
532.509	542.12
532.724	503.12
532.938	539.12
533.153	499.12
533.367	520.12
533.582	515.12
533.796	519.12
534.011	530.12
534.225	524.12
534.44	514.12
534.654	493.12
534.868	513.12
535.083	523.12
535.297	515.12
535.511	510.12
535.726	514.12
535.94	527.12
536.154	520.12
536.369	510.12
536.583	487.12
536.797	519.12
537.011	502.12
537.225	507.12
537.44	491.12
537.654	495.12
537.868	494.12
538.082	499.12
538.296	505.12
538.51	495.12
538.724	497.12
538.938	496.12
539.153	502.12
539.367	496.12
539.581	492.12
539.795	520.12
540.009	477.12
540.222	498.12
540.436	510.12
540.65	479.12
540.864	494.12
541.078	503.12
541.292	505.12
541.506	520.12
541.72	517.12
541.934	510.12
542.147	502.12
542.361	484.12
542.575	480.12
542.789	502.12
543.002	494.12
543.216	500.12
543.43	494.12
543.644	466.12
543.857	497.12
544.071	511.12
544.285	496.12
544.498	514.12
544.712	489.12
544.925	515.12
545.139	498.12
545.352	481.12
545.566	476.12
545.779	489.12
545.993	481.12
546.206	485.12
546.42	509.12
546.633	493.12
546.847	475.12
547.06	498.12
547.274	491.12
547.487	504.12
547.7	498.12
547.914	477.12
548.127	509.12
548.34	485.12
548.554	477.12
548.767	475.12
548.98	487.12
549.193	487.12
549.407	482.12
549.62	521.12
549.833	501.12
550.046	486.12
550.259	472.12
550.473	472.12
550.686	473.12
550.899	486.12
551.112	478.12
551.325	474.12
551.538	495.12
551.751	482.12
551.964	481.12
552.177	464.12
552.39	481.12
552.603	483.12
552.816	487.12
553.029	511.12
553.242	498.12
553.455	513.12
553.667	509.12
553.88	504.12
554.093	520.12
554.306	492.12
554.519	485.12
554.732	486.12
554.944	478.12
555.157	487.12
555.37	474.12
555.583	462.12
555.795	468.12
556.008	451.12
556.221	461.12
556.433	439.12
556.646	447.12
556.859	445.12
557.071	444.12
557.284	425.12
557.496	447.12
557.709	466.12
557.921	417.12
558.134	433.12
558.346	422.12
558.559	443.12
558.771	432.12
558.984	412.12
559.196	421.12
559.409	433.12
559.621	439.12
559.833	425.12
560.046	422.12
560.258	443.12
560.47	424.12
560.683	408.12
560.895	428.12
561.107	414.12
561.32	408.12
561.532	425.12
561.744	404.12
561.956	394.12
562.168	418.12
562.381	438.12
562.593	449.12
562.805	426.12
563.017	427.12
563.229	421.12
563.441	434.12
563.653	435.12
563.865	446.12
564.077	434.12
564.289	443.12
564.501	457.12
564.713	476.12
564.925	447.12
565.137	467.12
565.349	470.12
565.561	484.12
565.773	491.12
565.985	478.12
566.197	507.12
566.408	525.12
566.62	539.12
566.832	552.12
567.044	589.12
567.255	584.12
567.467	581.12
567.679	600.12
567.891	585.12
568.102	598.12
568.314	584.12
568.526	566.12
568.737	538.12
568.949	492.12
569.161	507.12
569.372	474.12
569.584	447.12
569.795	455.12
570.007	470.12
570.218	468.12
570.43	450.12
570.641	431.12
570.853	434.12
571.064	440.12
571.276	441.12
571.487	421.12
571.698	418.12
571.91	401.12
572.121	399.12
572.333	409.12
572.544	394.12
572.755	386.12
572.966	385.12
573.178	382.12
573.389	393.12
573.6	391.12
573.811	381.12
574.023	355.12
574.234	377.12
574.445	385.12
574.656	366.12
574.867	376.12
575.078	383.12
575.289	360.12
575.501	383.12
575.712	389.12
575.923	363.12
576.134	363.12
576.345	346.12
576.556	366.12
576.767	348.12
576.978	373.12
577.188	382.12
577.399	385.12
577.61	368.12
577.821	356.12
578.032	368.12
578.243	378.12
578.454	531.12
578.665	410.12
578.875	364.12
579.086	340.12
579.297	356.12
579.508	349.12
579.718	328.12
579.929	359.12
580.14	326.12
580.35	335.12
580.561	347.12
580.772	345.12
580.982	322.12
581.193	337.12
581.403	321.12
581.614	334.12
581.825	340.12
582.035	332.12
582.246	334.12
582.456	331.12
582.667	339.12
582.877	337.12
583.087	332.12
583.298	326.12
583.508	296.12
583.719	318.12
583.929	340.12
584.139	342.12
584.35	335.12
584.56	329.12
584.77	336.12
584.981	317.12
585.191	340.12
585.401	336.12
585.611	309.12
585.821	318.12
586.032	325.12
586.242	322.12
586.452	319.12
586.662	327.12
586.872	311.12
587.082	338.12
587.292	328.12
587.502	327.12
587.713	323.12
587.923	315.12
588.133	333.12
588.343	314.12
588.553	323.12
588.762	320.12
588.972	305.12
589.182	321.12
589.392	319.12
589.602	319.12
589.812	324.12
590.022	345.12
590.232	315.12
590.441	314.12
590.651	319.12
590.861	322.12
591.071	312.12
591.281	335.12
591.49	339.12
591.7	333.12
591.91	335.12
592.119	323.12
592.329	352.12
592.539	353.12
592.748	350.12
592.958	357.12
593.167	357.12
593.377	342.12
593.587	349.12
593.796	345.12
594.006	367.12
594.215	340.12
594.424	368.12
594.634	367.12
594.843	362.12
595.053	365.12
595.262	348.12
595.472	337.12
595.681	329.12
595.89	325.12
596.1	322.12
596.309	317.12
596.518	309.12
596.727	299.12
596.937	313.12
597.146	313.12
597.355	297.12
597.564	305.12
597.774	296.12
597.983	297.12
598.192	280.12
598.401	301.12
598.61	290.12
598.819	287.12
599.028	289.12
599.237	306.12
599.446	298.12
599.655	295.12
599.864	302.12
600.073	280.12
600.282	293.12
600.491	284.12
600.7	307.12
600.909	287.12
601.118	294.12
601.327	280.12
601.536	291.12
601.745	285.12
601.953	280.12
602.162	289.12
602.371	288.12
602.58	273.12
602.789	268.12
602.997	288.12
603.206	273.12
603.415	272.12
603.623	283.12
603.832	266.12
604.041	284.12
604.249	261.12
604.458	276.12
604.666	273.12
604.875	273.12
605.084	283.12
605.292	290.12
605.501	279.12
605.709	258.12
605.918	273.12
606.126	265.12
606.334	259.12
606.543	276.12
606.751	249.12
606.96	280.12
607.168	270.12
607.376	272.12
607.585	271.12
607.793	271.12
608.001	290.12
608.21	277.12
608.418	253.12
608.626	275.12
608.834	267.12
609.043	270.12
609.251	266.12
609.459	275.12
609.667	275.12
609.875	250.12
610.083	254.12
610.291	242.12
610.499	273.12
610.707	265.12
610.916	281.12
611.124	286.12
611.332	266.12
611.54	271.12
611.748	279.12
611.955	270.12
612.163	252.12
612.371	268.12
612.579	269.12
612.787	272.12
612.995	249.12
613.203	262.12
613.411	261.12
613.618	274.12
613.826	263.12
614.034	277.12
614.242	260.12
614.449	252.12
614.657	253.12
614.865	264.12
615.072	254.12
615.28	283.12
615.488	254.12
615.695	253.12
615.903	273.12
616.111	257.12
616.318	260.12
616.526	262.12
616.733	266.12
616.941	246.12
617.148	261.12
617.356	258.12
617.563	265.12
617.771	246.12
617.978	261.12
618.185	238.12
618.393	251.12
618.6	251.12
618.807	263.12
619.015	253.12
619.222	243.12
619.429	249.12
619.637	246.12
619.844	261.12
620.051	257.12
620.258	246.12
620.466	222.12
620.673	237.12
620.88	240.12
621.087	235.12
621.294	252.12
621.501	256.12
621.708	262.12
621.915	253.12
622.122	235.12
622.329	231.12
622.536	237.12
622.743	239.12
622.95	241.12
623.157	249.12
623.364	238.12
623.571	253.12
623.778	235.12
623.985	247.12
624.192	246.12
624.399	219.12
624.606	240.12
624.812	238.12
625.019	231.12
625.226	223.12
625.433	234.12
625.639	245.12
625.846	231.12
626.053	242.12
626.259	223.12
626.466	234.12
626.673	229.12
626.879	225.12
627.086	240.12
627.293	233.12
627.499	224.12
627.706	226.12
627.912	215.12
628.119	231.12
628.325	238.12
628.532	229.12
628.738	227.12
628.945	224.12
629.151	215.12
629.357	217.12
629.564	210.12
629.77	226.12
629.976	202.12
630.183	229.12
630.389	226.12
630.595	221.12
630.802	202.12
631.008	204.12
631.214	207.12
631.42	218.12
631.627	205.12
631.833	205.12
632.039	204.12
632.245	203.12
632.451	208.12
632.657	207.12
632.863	203.12
633.069	211.12
633.275	223.12
633.481	199.12
633.688	201.12
633.893	208.12
634.099	211.12
634.305	217.12
634.511	211.12
634.717	201.12
634.923	195.12
635.129	189.12
635.335	194.12
635.541	200.12
635.747	192.12
635.952	182.12
636.158	210.12
636.364	188.12
636.57	225.12
636.775	201.12
636.981	200.12
637.187	197.12
637.392	193.12
637.598	208.12
637.804	198.12
638.009	191.12
638.215	191.12
638.421	185.12
638.626	186.12
638.832	199.12
639.037	183.12
639.243	185.12
639.448	191.12
639.654	197.12
639.859	190.12
640.065	181.12
640.27	200.12
640.475	200.12
640.681	207.12
640.886	190.12
641.091	178.12
641.297	188.12
641.502	177.12
641.707	188.12
641.913	181.12
642.118	191.12
642.323	192.12
642.528	186.12
642.733	188.12
642.939	190.12
643.144	196.12
643.349	176.12
643.554	167.12
643.759	175.12
643.964	179.12
644.169	194.12
644.374	181.12
644.579	173.12
644.784	193.12
644.989	185.12
645.194	181.12
645.399	167.12
645.604	184.12
645.809	171.12
646.014	171.12
646.219	176.12
646.423	176.12
646.628	173.12
646.833	163.12
647.038	176.12
647.243	193.12
647.447	186.12
647.652	187.12
647.857	181.12
648.062	193.12
648.266	186.12
648.471	190.12
648.676	193.12
648.88	182.12
649.085	184.12
649.289	191.12
649.494	187.12
649.698	206.12
649.903	198.12
650.107	200.12
650.312	179.12
650.516	183.12
650.721	174.12
650.925	155.12
651.13	172.12
651.334	173.12
651.539	154.12
651.743	155.12
651.947	176.12
652.152	165.12
652.356	174.12
652.56	153.12
652.764	148.12
652.969	143.12
653.173	157.12
653.377	155.12
653.581	148.12
653.785	161.12
653.99	144.12
654.194	156.12
654.398	160.12
654.602	155.12
654.806	149.12
655.01	141.12
655.214	142.12
655.418	141.12
655.622	155.12
655.826	130.12
656.03	141.12
656.234	146.12
656.438	134.12
656.642	153.12
656.846	137.12
657.049	155.12
657.253	145.12
657.457	118.12
657.661	127.12
657.865	122.12
658.068	117.12
658.272	125.12
658.476	112.12
658.68	106.12
658.883	96.12
659.087	99.12
659.291	106.12
659.494	103.12
659.698	112.12
659.901	112.12
660.105	100.12
660.309	104.12
660.512	99.12
660.716	112.12
660.919	97.12
661.123	88.12
661.326	99.12
661.53	95.12
661.733	104.12
661.936	99.12
662.14	83.12
662.343	102.12
662.546	86.12
662.75	99.12
662.953	104.12
663.156	86.12
663.36	89.12
663.563	87.12
663.766	77.12
663.969	85.12
664.173	105.12
664.376	90.12
664.579	85.12
664.782	82.12
664.985	88.12
665.188	82.12
665.391	89.12
665.594	83.12
665.797	94.12
666	81.12
666.203	76.12
666.406	91.12
666.609	81.12
666.812	77.12
667.015	86.12
667.218	99.12
667.421	94.12
667.624	79.12
667.827	88.12
668.03	78.12
668.232	82.12
668.435	88.12
668.638	83.12
668.841	92.12
669.043	77.12
669.246	89.12
669.449	84.12
669.651	73.12
669.854	80.12
670.057	92.12
670.259	89.12
670.462	94.12
670.665	93.12
670.867	76.12
671.07	82.12
671.272	71.12
671.475	82.12
671.677	104.12
671.88	110.12
672.082	80.12
672.284	93.12
672.487	89.12
672.689	80.12
672.892	97.12
