Data from 1975.PennyLincolnUp.Lamp.En5.5.200Scan.071719.P1.Changed Mount._HRD10591_15-56-53-858.txt Node
Date: Thu Jul 18 15:56:53 EDT 2019
User: cochatt
Spectrometer: HR+D1059
Trigger mode: 1
Integration Time (sec): 1.000000E-1
Scans to average: 1
Electric dark correction enabled: true
Nonlinearity correction enabled: false
Boxcar width: 0
XAxis mode: Wavelengths
Number of Pixels in Spectrum: 2048
>>>>>Begin Spectral Data<<<<<
223.165	-4.75
223.4	-4.75
223.635	-4.75
223.869	-27.75
224.104	-23.75
224.338	-7.75
224.573	-19.75
224.808	-10.75
225.042	1.25
225.277	-5.75
225.511	11.25
225.746	-4.75
225.98	5.25
226.215	4.25
226.449	19.25
226.683	24.25
226.918	13.25
227.152	26.25
227.387	38.25
227.621	49.25
227.856	36.25
228.09	32.25
228.324	56.25
228.559	60.25
228.793	74.25
229.027	93.25
229.262	96.25
229.496	118.25
229.73	117.25
229.964	148.25
230.199	109.25
230.433	126.25
230.667	108.25
230.901	116.25
231.136	111.25
231.37	112.25
231.604	113.25
231.838	105.25
232.072	104.25
232.306	104.25
232.541	124.25
232.775	94.25
233.009	125.25
233.243	118.25
233.477	112.25
233.711	127.25
233.945	132.25
234.179	116.25
234.413	127.25
234.647	111.25
234.881	124.25
235.115	130.25
235.349	117.25
235.583	116.25
235.817	141.25
236.051	124.25
236.285	135.25
236.519	121.25
236.753	121.25
236.987	139.25
237.221	172.25
237.455	210.25
237.689	192.25
237.922	132.25
238.156	136.25
238.39	126.25
238.624	121.25
238.858	135.25
239.091	117.25
239.325	131.25
239.559	134.25
239.793	130.25
240.027	152.25
240.26	139.25
240.494	151.25
240.728	147.25
240.961	135.25
241.195	148.25
241.429	135.25
241.662	155.25
241.896	138.25
242.13	130.25
242.363	137.25
242.597	141.25
242.83	130.25
243.064	141.25
243.298	152.25
243.531	159.25
243.765	139.25
243.998	146.25
244.232	135.25
244.465	166.25
244.699	130.25
244.932	152.25
245.166	142.25
245.399	140.25
245.633	148.25
245.866	160.25
246.099	164.25
246.333	142.25
246.566	148.25
246.8	159.25
247.033	160.25
247.266	158.25
247.5	157.25
247.733	178.25
247.966	178.25
248.2	163.25
248.433	171.25
248.666	180.25
248.899	189.25
249.133	205.25
249.366	209.25
249.599	216.25
249.832	179.25
250.066	184.25
250.299	184.25
250.532	190.25
250.765	216.25
250.998	224.25
251.231	227.25
251.465	205.25
251.698	214.25
251.931	200.25
252.164	196.25
252.397	199.25
252.63	200.25
252.863	201.25
253.096	204.25
253.329	235.25
253.562	232.25
253.795	229.25
254.028	219.25
254.261	225.25
254.494	228.25
254.727	260.25
254.96	289.25
255.193	262.25
255.426	240.25
255.659	235.25
255.892	237.25
256.124	239.25
256.357	226.25
256.59	235.25
256.823	225.25
257.056	212.25
257.289	207.25
257.521	216.25
257.754	228.25
257.987	224.25
258.22	212.25
258.452	213.25
258.685	212.25
258.918	207.25
259.151	231.25
259.383	215.25
259.616	225.25
259.849	241.25
260.081	238.25
260.314	253.25
260.547	270.25
260.779	253.25
261.012	244.25
261.244	241.25
261.477	224.25
261.71	218.25
261.942	225.25
262.175	223.25
262.407	231.25
262.64	214.25
262.872	211.25
263.105	221.25
263.337	210.25
263.57	207.25
263.802	212.25
264.035	220.25
264.267	230.25
264.499	221.25
264.732	224.25
264.964	228.25
265.197	219.25
265.429	223.25
265.661	226.25
265.894	237.25
266.126	241.25
266.358	214.25
266.591	220.25
266.823	230.25
267.055	232.25
267.287	231.25
267.52	247.25
267.752	223.25
267.984	248.25
268.216	224.25
268.448	225.25
268.681	235.25
268.913	265.25
269.145	280.25
269.377	289.25
269.609	257.25
269.841	261.25
270.073	278.25
270.306	295.25
270.538	301.25
270.77	318.25
271.002	306.25
271.234	315.25
271.466	304.25
271.698	310.25
271.93	295.25
272.162	316.25
272.394	315.25
272.626	297.25
272.858	288.25
273.09	270.25
273.322	289.25
273.553	269.25
273.785	283.25
274.017	249.25
274.249	259.25
274.481	280.25
274.713	262.25
274.945	289.25
275.176	273.25
275.408	282.25
275.64	266.25
275.872	259.25
276.104	279.25
276.335	262.25
276.567	296.25
276.799	277.25
277.031	313.25
277.262	319.25
277.494	328.25
277.726	325.25
277.957	287.25
278.189	275.25
278.421	274.25
278.652	287.25
278.884	253.25
279.115	304.25
279.347	276.25
279.579	284.25
279.81	277.25
280.042	297.25
280.273	276.25
280.505	286.25
280.736	285.25
280.968	267.25
281.199	271.25
281.431	264.25
281.662	272.25
281.894	282.25
282.125	269.25
282.356	299.25
282.588	311.25
282.819	298.25
283.051	294.25
283.282	279.25
283.513	276.25
283.745	296.25
283.976	274.25
284.207	287.25
284.439	280.25
284.67	286.25
284.901	290.25
285.132	282.25
285.364	294.25
285.595	285.25
285.826	293.25
286.057	290.25
286.288	292.25
286.52	290.25
286.751	294.25
286.982	275.25
287.213	304.25
287.444	312.25
287.675	316.25
287.906	313.25
288.138	305.25
288.369	324.25
288.6	325.25
288.831	310.25
289.062	306.25
289.293	298.25
289.524	302.25
289.755	307.25
289.986	303.25
290.217	296.25
290.448	299.25
290.679	296.25
290.91	304.25
291.141	294.25
291.371	299.25
291.602	294.25
291.833	302.25
292.064	285.25
292.295	311.25
292.526	291.25
292.757	314.25
292.987	300.25
293.218	276.25
293.449	303.25
293.68	316.25
293.91	306.25
294.141	315.25
294.372	286.25
294.603	302.25
294.833	305.25
295.064	309.25
295.295	316.25
295.525	296.25
295.756	315.25
295.987	323.25
296.217	318.25
296.448	349.25
296.679	320.25
296.909	318.25
297.14	297.25
297.37	308.25
297.601	312.25
297.831	322.25
298.062	315.25
298.292	315.25
298.523	318.25
298.753	312.25
298.984	314.25
299.214	338.25
299.445	317.25
299.675	331.25
299.905	324.25
300.136	332.25
300.366	314.25
300.597	336.25
300.827	348.25
301.057	341.25
301.288	328.25
301.518	338.25
301.748	340.25
301.979	360.25
302.209	348.25
302.439	346.25
302.669	335.25
302.9	344.25
303.13	329.25
303.36	337.25
303.59	344.25
303.82	339.25
304.051	337.25
304.281	349.25
304.511	326.25
304.741	328.25
304.971	346.25
305.201	336.25
305.431	331.25
305.661	336.25
305.891	325.25
306.121	339.25
306.352	346.25
306.582	351.25
306.812	341.25
307.042	334.25
307.272	343.25
307.502	338.25
307.731	345.25
307.961	347.25
308.191	332.25
308.421	347.25
308.651	353.25
308.881	358.25
309.111	354.25
309.341	330.25
309.571	353.25
309.8	374.25
310.03	372.25
310.26	371.25
310.49	361.25
310.72	378.25
310.949	380.25
311.179	384.25
311.409	379.25
311.639	361.25
311.868	376.25
312.098	383.25
312.328	387.25
312.557	382.25
312.787	398.25
313.017	391.25
313.246	374.25
313.476	370.25
313.706	390.25
313.935	366.25
314.165	396.25
314.394	399.25
314.624	401.25
314.853	380.25
315.083	372.25
315.312	391.25
315.542	381.25
315.771	356.25
316.001	385.25
316.23	382.25
316.46	365.25
316.689	396.25
316.919	396.25
317.148	387.25
317.377	385.25
317.607	385.25
317.836	381.25
318.065	387.25
318.295	403.25
318.524	376.25
318.753	370.25
318.983	381.25
319.212	382.25
319.441	381.25
319.67	382.25
319.9	377.25
320.129	368.25
320.358	372.25
320.587	394.25
320.816	406.25
321.046	392.25
321.275	371.25
321.504	388.25
321.733	408.25
321.962	400.25
322.191	420.25
322.42	401.25
322.649	414.25
322.878	437.25
323.108	452.25
323.337	440.25
323.566	482.25
323.795	470.25
324.024	518.25
324.253	594.25
324.482	821.25
324.71	1262.25
324.939	1839.25
325.168	1616.25
325.397	844.25
325.626	574.25
325.855	537.25
326.084	472.25
326.313	475.25
326.542	471.25
326.77	518.25
326.999	590.25
327.228	763.25
327.457	1142.25
327.686	1423.25
327.914	988.25
328.143	638.25
328.372	551.25
328.6	534.25
328.829	550.25
329.058	525.25
329.287	525.25
329.515	525.25
329.744	494.25
329.972	489.25
330.201	521.25
330.43	538.25
330.658	540.25
330.887	583.25
331.115	577.25
331.344	492.25
331.572	484.25
331.801	489.25
332.03	493.25
332.258	455.25
332.486	450.25
332.715	474.25
332.943	471.25
333.172	448.25
333.4	478.25
333.629	494.25
333.857	490.25
334.085	500.25
334.314	536.25
334.542	532.25
334.771	561.25
334.999	521.25
335.227	501.25
335.455	487.25
335.684	466.25
335.912	473.25
336.14	468.25
336.369	457.25
336.597	459.25
336.825	466.25
337.053	488.25
337.281	469.25
337.51	445.25
337.738	446.25
337.966	449.25
338.194	446.25
338.422	446.25
338.65	460.25
338.878	439.25
339.106	447.25
339.334	442.25
339.562	427.25
339.79	452.25
340.018	451.25
340.246	433.25
340.474	454.25
340.702	454.25
340.93	445.25
341.158	434.25
341.386	427.25
341.614	446.25
341.842	440.25
342.07	420.25
342.298	419.25
342.526	422.25
342.754	444.25
342.981	428.25
343.209	423.25
343.437	447.25
343.665	423.25
343.893	456.25
344.12	473.25
344.348	460.25
344.576	450.25
344.804	449.25
345.031	452.25
345.259	444.25
345.487	425.25
345.714	434.25
345.942	426.25
346.17	446.25
346.397	433.25
346.625	419.25
346.853	433.25
347.08	434.25
347.308	436.25
347.535	432.25
347.763	427.25
347.99	422.25
348.218	412.25
348.445	430.25
348.673	433.25
348.9	420.25
349.128	428.25
349.355	417.25
349.583	423.25
349.81	422.25
350.037	388.25
350.265	412.25
350.492	409.25
350.72	409.25
350.947	397.25
351.174	418.25
351.402	444.25
351.629	411.25
351.856	434.25
352.083	444.25
352.311	441.25
352.538	460.25
352.765	438.25
352.992	423.25
353.22	412.25
353.447	436.25
353.674	408.25
353.901	411.25
354.128	392.25
354.355	410.25
354.583	416.25
354.81	418.25
355.037	408.25
355.264	405.25
355.491	404.25
355.718	380.25
355.945	395.25
356.172	386.25
356.399	412.25
356.626	408.25
356.853	397.25
357.08	400.25
357.307	402.25
357.534	395.25
357.761	380.25
357.988	421.25
358.215	420.25
358.441	401.25
358.668	417.25
358.895	400.25
359.122	419.25
359.349	416.25
359.576	414.25
359.802	430.25
360.029	444.25
360.256	478.25
360.483	443.25
360.709	434.25
360.936	426.25
361.163	439.25
361.39	428.25
361.616	429.25
361.843	413.25
362.07	428.25
362.296	418.25
362.523	408.25
362.749	429.25
362.976	417.25
363.203	427.25
363.429	432.25
363.656	429.25
363.882	421.25
364.109	438.25
364.335	424.25
364.562	424.25
364.788	425.25
365.015	428.25
365.241	416.25
365.468	409.25
365.694	418.25
365.92	413.25
366.147	418.25
366.373	410.25
366.599	405.25
366.826	430.25
367.052	401.25
367.278	410.25
367.505	421.25
367.731	421.25
367.957	425.25
368.184	413.25
368.41	423.25
368.636	439.25
368.862	448.25
369.089	419.25
369.315	414.25
369.541	418.25
369.767	415.25
369.993	401.25
370.219	430.25
370.445	424.25
370.672	423.25
370.898	416.25
371.124	433.25
371.35	429.25
371.576	407.25
371.802	416.25
372.028	415.25
372.254	429.25
372.48	414.25
372.706	420.25
372.932	429.25
373.158	426.25
373.384	423.25
373.61	433.25
373.835	425.25
374.061	430.25
374.287	437.25
374.513	427.25
374.739	428.25
374.965	413.25
375.191	425.25
375.416	442.25
375.642	427.25
375.868	438.25
376.094	428.25
376.319	429.25
376.545	419.25
376.771	423.25
376.997	425.25
377.222	426.25
377.448	407.25
377.674	428.25
377.899	417.25
378.125	425.25
378.35	425.25
378.576	409.25
378.802	423.25
379.027	419.25
379.253	431.25
379.478	429.25
379.704	433.25
379.929	402.25
380.155	431.25
380.38	432.25
380.606	434.25
380.831	437.25
381.057	418.25
381.282	432.25
381.507	443.25
381.733	438.25
381.958	449.25
382.184	450.25
382.409	442.25
382.634	433.25
382.86	427.25
383.085	442.25
383.31	444.25
383.535	456.25
383.761	453.25
383.986	436.25
384.211	449.25
384.436	449.25
384.662	446.25
384.887	470.25
385.112	470.25
385.337	493.25
385.562	453.25
385.787	472.25
386.013	477.25
386.238	473.25
386.463	493.25
386.688	466.25
386.913	465.25
387.138	456.25
387.363	479.25
387.588	489.25
387.813	467.25
388.038	485.25
388.263	475.25
388.488	479.25
388.713	464.25
388.938	501.25
389.163	473.25
389.387	464.25
389.612	471.25
389.837	472.25
390.062	470.25
390.287	479.25
390.512	474.25
390.736	480.25
390.961	489.25
391.186	496.25
391.411	476.25
391.636	473.25
391.86	472.25
392.085	507.25
392.31	520.25
392.534	475.25
392.759	504.25
392.984	496.25
393.208	498.25
393.433	477.25
393.658	479.25
393.882	488.25
394.107	494.25
394.331	470.25
394.556	471.25
394.78	471.25
395.005	476.25
395.229	485.25
395.454	500.25
395.678	514.25
395.903	534.25
396.127	536.25
396.352	522.25
396.576	518.25
396.801	489.25
397.025	477.25
397.249	514.25
397.474	508.25
397.698	516.25
397.922	538.25
398.147	516.25
398.371	552.25
398.595	522.25
398.82	536.25
399.044	575.25
399.268	595.25
399.492	618.25
399.717	670.25
399.941	691.25
400.165	706.25
400.389	687.25
400.613	618.25
400.837	590.25
401.062	569.25
401.286	558.25
401.51	549.25
401.734	545.25
401.958	550.25
402.182	555.25
402.406	566.25
402.63	575.25
402.854	548.25
403.078	552.25
403.302	564.25
403.526	598.25
403.75	589.25
403.974	571.25
404.198	573.25
404.422	588.25
404.645	587.25
404.869	591.25
405.093	631.25
405.317	669.25
405.541	713.25
405.765	629.25
405.988	608.25
406.212	608.25
406.436	646.25
406.66	626.25
406.883	628.25
407.107	648.25
407.331	677.25
407.555	756.25
407.778	768.25
408.002	708.25
408.226	645.25
408.449	644.25
408.673	649.25
408.896	668.25
409.12	685.25
409.344	662.25
409.567	593.25
409.791	590.25
410.014	599.25
410.238	576.25
410.461	594.25
410.685	605.25
410.908	593.25
411.132	637.25
411.355	656.25
411.578	633.25
411.802	598.25
412.025	564.25
412.249	593.25
412.472	623.25
412.695	642.25
412.919	644.25
413.142	588.25
413.365	580.25
413.589	572.25
413.812	551.25
414.035	536.25
414.258	538.25
414.482	545.25
414.705	549.25
414.928	530.25
415.151	588.25
415.374	550.25
415.597	555.25
415.821	539.25
416.044	545.25
416.267	568.25
416.49	557.25
416.713	530.25
416.936	548.25
417.159	560.25
417.382	551.25
417.605	555.25
417.828	573.25
418.051	575.25
418.274	582.25
418.497	553.25
418.72	544.25
418.943	534.25
419.166	582.25
419.389	608.25
419.611	589.25
419.834	572.25
420.057	560.25
420.28	568.25
420.503	554.25
420.726	579.25
420.948	573.25
421.171	608.25
421.394	672.25
421.617	610.25
421.839	572.25
422.062	595.25
422.285	568.25
422.507	664.25
422.73	713.25
422.953	680.25
423.175	619.25
423.398	587.25
423.621	581.25
423.843	603.25
424.066	607.25
424.288	592.25
424.511	625.25
424.733	657.25
424.956	744.25
425.178	719.25
425.401	723.25
425.623	752.25
425.846	646.25
426.068	600.25
426.291	577.25
426.513	604.25
426.735	597.25
426.958	632.25
427.18	726.25
427.402	866.25
427.625	942.25
427.847	804.25
428.069	675.25
428.292	636.25
428.514	611.25
428.736	560.25
428.958	547.25
429.181	530.25
429.403	550.25
429.625	590.25
429.847	617.25
430.069	664.25
430.292	642.25
430.514	583.25
430.736	552.25
430.958	541.25
431.18	519.25
431.402	525.25
431.624	533.25
431.846	541.25
432.068	519.25
432.29	526.25
432.512	516.25
432.734	551.25
432.956	542.25
433.178	542.25
433.4	544.25
433.622	550.25
433.844	526.25
434.066	535.25
434.287	540.25
434.509	552.25
434.731	550.25
434.953	567.25
435.175	584.25
435.397	604.25
435.618	593.25
435.84	620.25
436.062	734.25
436.284	788.25
436.505	662.25
436.727	614.25
436.949	588.25
437.17	554.25
437.392	567.25
437.614	562.25
437.835	599.25
438.057	697.25
438.278	777.25
438.5	801.25
438.721	846.25
438.943	838.25
439.165	665.25
439.386	599.25
439.608	609.25
439.829	585.25
440.05	598.25
440.272	637.25
440.493	614.25
440.715	580.25
440.936	559.25
441.158	568.25
441.379	565.25
441.6	570.25
441.822	598.25
442.043	625.25
442.264	706.25
442.486	748.25
442.707	664.25
442.928	625.25
443.149	608.25
443.371	636.25
443.592	673.25
443.813	787.25
444.034	849.25
444.255	690.25
444.476	631.25
444.698	628.25
444.919	641.25
445.14	748.25
445.361	685.25
445.582	642.25
445.803	715.25
446.024	788.25
446.245	808.25
446.466	734.25
446.687	612.25
446.908	592.25
447.129	564.25
447.35	560.25
447.571	553.25
447.792	537.25
448.013	533.25
448.234	555.25
448.455	611.25
448.675	722.25
448.896	834.25
449.117	727.25
449.338	658.25
449.559	763.25
449.779	868.25
450	711.25
450.221	610.25
450.442	544.25
450.662	529.25
450.883	543.25
451.104	545.25
451.324	533.25
451.545	491.25
451.766	512.25
451.986	501.25
452.207	490.25
452.428	488.25
452.648	489.25
452.869	513.25
453.089	484.25
453.31	489.25
453.53	503.25
453.751	494.25
453.971	471.25
454.192	502.25
454.412	488.25
454.633	491.25
454.853	484.25
455.073	477.25
455.294	508.25
455.514	576.25
455.734	553.25
455.955	496.25
456.175	488.25
456.395	473.25
456.616	458.25
456.836	470.25
457.056	461.25
457.276	469.25
457.497	467.25
457.717	458.25
457.937	485.25
458.157	483.25
458.377	492.25
458.598	483.25
458.818	545.25
459.038	614.25
459.258	660.25
459.478	592.25
459.698	538.25
459.918	528.25
460.138	522.25
460.358	542.25
460.578	564.25
460.798	545.25
461.018	542.25
461.238	574.25
461.458	541.25
461.678	528.25
461.898	554.25
462.118	545.25
462.338	579.25
462.558	590.25
462.777	560.25
462.997	617.25
463.217	622.25
463.437	635.25
463.657	602.25
463.876	600.25
464.096	580.25
464.316	595.25
464.536	609.25
464.755	593.25
464.975	582.25
465.195	618.25
465.414	664.25
465.634	594.25
465.854	549.25
466.073	551.25
466.293	528.25
466.512	512.25
466.732	522.25
466.951	500.25
467.171	525.25
467.391	497.25
467.61	502.25
467.829	538.25
468.049	524.25
468.268	510.25
468.488	485.25
468.707	506.25
468.927	485.25
469.146	499.25
469.365	501.25
469.585	492.25
469.804	500.25
470.023	542.25
470.243	508.25
470.462	518.25
470.681	499.25
470.901	550.25
471.12	546.25
471.339	522.25
471.558	526.25
471.777	541.25
471.997	504.25
472.216	528.25
472.435	560.25
472.654	557.25
472.873	531.25
473.092	517.25
473.311	510.25
473.53	528.25
473.749	524.25
473.968	536.25
474.187	647.25
474.406	665.25
474.625	593.25
474.844	531.25
475.063	514.25
475.282	528.25
475.501	499.25
475.72	536.25
475.939	522.25
476.158	535.25
476.377	512.25
476.596	520.25
476.814	541.25
477.033	534.25
477.252	550.25
477.471	550.25
477.69	551.25
477.908	541.25
478.127	572.25
478.346	562.25
478.564	576.25
478.783	601.25
479.002	590.25
479.22	586.25
479.439	562.25
479.658	607.25
479.876	613.25
480.095	607.25
480.313	649.25
480.532	649.25
480.751	625.25
480.969	642.25
481.188	682.25
481.406	740.25
481.624	662.25
481.843	610.25
482.061	612.25
482.28	600.25
482.498	569.25
482.717	569.25
482.935	575.25
483.153	604.25
483.372	594.25
483.59	601.25
483.808	603.25
484.027	605.25
484.245	596.25
484.463	596.25
484.681	604.25
484.9	615.25
485.118	622.25
485.336	622.25
485.554	631.25
485.772	609.25
485.99	620.25
486.209	601.25
486.427	646.25
486.645	630.25
486.863	633.25
487.081	629.25
487.299	661.25
487.517	643.25
487.735	636.25
487.953	642.25
488.171	662.25
488.389	647.25
488.607	634.25
488.825	656.25
489.043	628.25
489.261	643.25
489.479	658.25
489.696	659.25
489.914	680.25
490.132	685.25
490.35	648.25
490.568	652.25
490.786	693.25
491.003	721.25
491.221	720.25
491.439	704.25
491.657	733.25
491.874	736.25
492.092	750.25
492.31	738.25
492.527	760.25
492.745	748.25
492.963	724.25
493.18	747.25
493.398	783.25
493.615	793.25
493.833	781.25
494.05	763.25
494.268	765.25
494.485	749.25
494.703	745.25
494.92	743.25
495.138	748.25
495.355	759.25
495.573	764.25
495.79	747.25
496.008	780.25
496.225	774.25
496.442	733.25
496.66	745.25
496.877	758.25
497.094	764.25
497.312	770.25
497.529	794.25
497.746	815.25
497.963	817.25
498.181	861.25
498.398	840.25
498.615	862.25
498.832	880.25
499.049	913.25
499.267	933.25
499.484	984.25
499.701	997.25
499.918	1049.25
500.135	1142.25
500.352	1223.25
500.569	1219.25
500.786	1219.25
501.003	1207.25
501.22	1146.25
501.437	1080.25
501.654	1053.25
501.871	991.25
502.088	962.25
502.305	941.25
502.522	897.25
502.739	869.25
502.956	835.25
503.172	810.25
503.389	817.25
503.606	809.25
503.823	808.25
504.04	783.25
504.256	777.25
504.473	770.25
504.69	789.25
504.907	777.25
505.123	751.25
505.34	740.25
505.557	722.25
505.773	724.25
505.99	747.25
506.207	704.25
506.423	696.25
506.64	720.25
506.856	701.25
507.073	703.25
507.289	692.25
507.506	666.25
507.722	707.25
507.939	712.25
508.155	684.25
508.372	673.25
508.588	693.25
508.805	679.25
509.021	678.25
509.238	683.25
509.454	684.25
509.67	673.25
509.887	685.25
510.103	672.25
510.319	674.25
510.536	716.25
510.752	1090.25
510.968	910.25
511.184	651.25
511.401	664.25
511.617	625.25
511.833	625.25
512.049	657.25
512.265	639.25
512.481	641.25
512.698	634.25
512.914	632.25
513.13	625.25
513.346	637.25
513.562	617.25
513.778	655.25
513.994	636.25
514.21	636.25
514.426	643.25
514.642	696.25
514.858	702.25
515.074	720.25
515.29	810.25
515.506	1113.25
515.721	966.25
515.937	738.25
516.153	687.25
516.369	684.25
516.585	656.25
516.801	675.25
517.016	686.25
517.232	673.25
517.448	680.25
517.664	699.25
517.879	676.25
518.095	686.25
518.311	696.25
518.527	651.25
518.742	648.25
518.958	657.25
519.173	667.25
519.389	640.25
519.605	634.25
519.82	635.25
520.036	630.25
520.251	645.25
520.467	666.25
520.682	658.25
520.898	676.25
521.113	673.25
521.329	686.25
521.544	763.25
521.76	895.25
521.975	1374.25
522.19	1351.25
522.406	856.25
522.621	658.25
522.836	604.25
523.052	607.25
523.267	590.25
523.482	598.25
523.698	572.25
523.913	574.25
524.128	586.25
524.343	549.25
524.559	555.25
524.774	566.25
524.989	554.25
525.204	570.25
525.419	568.25
525.634	546.25
525.849	555.25
526.064	544.25
526.28	519.25
526.495	551.25
526.71	528.25
526.925	529.25
527.14	539.25
527.355	509.25
527.57	529.25
527.785	540.25
527.999	524.25
528.214	528.25
528.429	541.25
528.644	533.25
528.859	539.25
529.074	547.25
529.289	544.25
529.503	620.25
529.718	604.25
529.933	561.25
530.148	528.25
530.363	513.25
530.577	534.25
530.792	510.25
531.007	517.25
531.221	500.25
531.436	520.25
531.651	507.25
531.865	517.25
532.08	514.25
532.295	503.25
532.509	512.25
532.724	506.25
532.938	471.25
533.153	495.25
533.367	505.25
533.582	512.25
533.796	503.25
534.011	497.25
534.225	482.25
534.44	494.25
534.654	488.25
534.868	490.25
535.083	493.25
535.297	501.25
535.511	487.25
535.726	502.25
535.94	502.25
536.154	502.25
536.369	490.25
536.583	475.25
536.797	495.25
537.011	492.25
537.225	487.25
537.44	482.25
537.654	476.25
537.868	497.25
538.082	461.25
538.296	479.25
538.51	481.25
538.724	501.25
538.938	494.25
539.153	487.25
539.367	493.25
539.581	490.25
539.795	488.25
540.009	492.25
540.222	498.25
540.436	493.25
540.65	475.25
540.864	495.25
541.078	501.25
541.292	513.25
541.506	477.25
541.72	508.25
541.934	449.25
542.147	484.25
542.361	496.25
542.575	487.25
542.789	487.25
543.002	479.25
543.216	498.25
543.43	491.25
543.644	489.25
543.857	469.25
544.071	476.25
544.285	516.25
544.498	478.25
544.712	482.25
544.925	493.25
545.139	494.25
545.352	475.25
545.566	494.25
545.779	473.25
545.993	505.25
546.206	462.25
546.42	476.25
546.633	473.25
546.847	478.25
547.06	492.25
547.274	482.25
547.487	478.25
547.7	482.25
547.914	463.25
548.127	491.25
548.34	480.25
548.554	466.25
548.767	503.25
548.98	452.25
549.193	477.25
549.407	474.25
549.62	453.25
549.833	484.25
550.046	488.25
550.259	477.25
550.473	458.25
550.686	481.25
550.899	448.25
551.112	487.25
551.325	454.25
551.538	460.25
551.751	468.25
551.964	475.25
552.177	477.25
552.39	472.25
552.603	456.25
552.816	476.25
553.029	477.25
553.242	502.25
553.455	464.25
553.667	495.25
553.88	521.25
554.093	478.25
554.306	472.25
554.519	485.25
554.732	498.25
554.944	473.25
555.157	469.25
555.37	454.25
555.583	438.25
555.795	426.25
556.008	446.25
556.221	436.25
556.433	444.25
556.646	437.25
556.859	415.25
557.071	425.25
557.284	454.25
557.496	427.25
557.709	429.25
557.921	415.25
558.134	429.25
558.346	444.25
558.559	427.25
558.771	412.25
558.984	421.25
559.196	422.25
559.409	423.25
559.621	439.25
559.833	424.25
560.046	412.25
560.258	408.25
560.47	423.25
560.683	415.25
560.895	424.25
561.107	429.25
561.32	427.25
561.532	395.25
561.744	424.25
561.956	430.25
562.168	410.25
562.381	421.25
562.593	422.25
562.805	409.25
563.017	436.25
563.229	439.25
563.441	431.25
563.653	427.25
563.865	415.25
564.077	421.25
564.289	417.25
564.501	433.25
564.713	450.25
564.925	452.25
565.137	440.25
565.349	454.25
565.561	471.25
565.773	470.25
565.985	490.25
566.197	490.25
566.408	519.25
566.62	528.25
566.832	555.25
567.044	558.25
567.255	575.25
567.467	567.25
567.679	570.25
567.891	590.25
568.102	581.25
568.314	548.25
568.526	543.25
568.737	547.25
568.949	504.25
569.161	465.25
569.372	459.25
569.584	459.25
569.795	449.25
570.007	445.25
570.218	463.25
570.43	465.25
570.641	435.25
570.853	394.25
571.064	389.25
571.276	409.25
571.487	406.25
571.698	402.25
571.91	394.25
572.121	400.25
572.333	380.25
572.544	393.25
572.755	391.25
572.966	381.25
573.178	366.25
573.389	383.25
573.6	353.25
573.811	361.25
574.023	372.25
574.234	369.25
574.445	358.25
574.656	362.25
574.867	378.25
575.078	348.25
575.289	369.25
575.501	361.25
575.712	344.25
575.923	345.25
576.134	352.25
576.345	345.25
576.556	352.25
576.767	352.25
576.978	332.25
577.188	350.25
577.399	363.25
577.61	338.25
577.821	338.25
578.032	356.25
578.243	369.25
578.454	520.25
578.665	433.25
578.875	359.25
579.086	342.25
579.297	333.25
579.508	328.25
579.718	343.25
579.929	353.25
580.14	334.25
580.35	340.25
580.561	325.25
580.772	310.25
580.982	317.25
581.193	317.25
581.403	312.25
581.614	346.25
581.825	336.25
582.035	301.25
582.246	333.25
582.456	338.25
582.667	337.25
582.877	338.25
583.087	334.25
583.298	319.25
583.508	326.25
583.719	324.25
583.929	337.25
584.139	319.25
584.35	315.25
584.56	333.25
584.77	339.25
584.981	325.25
585.191	317.25
585.401	324.25
585.611	340.25
585.821	327.25
586.032	311.25
586.242	327.25
586.452	337.25
586.662	326.25
586.872	316.25
587.082	302.25
587.292	310.25
587.502	323.25
587.713	326.25
587.923	305.25
588.133	328.25
588.343	322.25
588.553	308.25
588.762	322.25
588.972	309.25
589.182	320.25
589.392	318.25
589.602	332.25
589.812	333.25
590.022	325.25
590.232	300.25
590.441	319.25
590.651	321.25
590.861	333.25
591.071	319.25
591.281	334.25
591.49	329.25
591.7	332.25
591.91	332.25
592.119	322.25
592.329	330.25
592.539	348.25
592.748	351.25
592.958	352.25
593.167	353.25
593.377	333.25
593.587	350.25
593.796	343.25
594.006	351.25
594.215	334.25
594.424	349.25
594.634	325.25
594.843	359.25
595.053	328.25
595.262	338.25
595.472	319.25
595.681	313.25
595.89	306.25
596.1	301.25
596.309	346.25
596.518	310.25
596.727	302.25
596.937	303.25
597.146	299.25
597.355	306.25
597.564	300.25
597.774	302.25
597.983	280.25
598.192	291.25
598.401	293.25
598.61	275.25
598.819	270.25
599.028	278.25
599.237	274.25
599.446	284.25
599.655	284.25
599.864	289.25
600.073	282.25
600.282	275.25
600.491	293.25
600.7	273.25
600.909	286.25
601.118	278.25
601.327	271.25
601.536	281.25
601.745	286.25
601.953	278.25
602.162	277.25
602.371	269.25
602.58	278.25
602.789	270.25
602.997	273.25
603.206	265.25
603.415	284.25
603.623	266.25
603.832	275.25
604.041	288.25
604.249	281.25
604.458	251.25
604.666	252.25
604.875	276.25
605.084	268.25
605.292	276.25
605.501	263.25
605.709	258.25
605.918	253.25
606.126	278.25
606.334	276.25
606.543	272.25
606.751	272.25
606.96	252.25
607.168	261.25
607.376	256.25
607.585	278.25
607.793	250.25
608.001	261.25
608.21	252.25
608.418	244.25
608.626	272.25
608.834	262.25
609.043	249.25
609.251	260.25
609.459	256.25
609.667	270.25
609.875	259.25
610.083	265.25
610.291	248.25
610.499	278.25
610.707	272.25
610.916	258.25
611.124	262.25
611.332	277.25
611.54	261.25
611.748	268.25
611.955	246.25
612.163	263.25
612.371	262.25
612.579	250.25
612.787	272.25
612.995	260.25
613.203	234.25
613.411	254.25
613.618	246.25
613.826	255.25
614.034	262.25
614.242	271.25
614.449	257.25
614.657	259.25
614.865	245.25
615.072	238.25
615.28	260.25
615.488	237.25
615.695	264.25
615.903	262.25
616.111	262.25
616.318	261.25
616.526	260.25
616.733	266.25
616.941	246.25
617.148	262.25
617.356	259.25
617.563	253.25
617.771	241.25
617.978	255.25
618.185	260.25
618.393	254.25
618.6	248.25
618.807	263.25
619.015	255.25
619.222	256.25
619.429	248.25
619.637	243.25
619.844	246.25
620.051	248.25
620.258	250.25
620.466	230.25
620.673	238.25
620.88	229.25
621.087	240.25
621.294	233.25
621.501	239.25
621.708	250.25
621.915	251.25
622.122	256.25
622.329	257.25
622.536	217.25
622.743	232.25
622.95	222.25
623.157	228.25
623.364	244.25
623.571	247.25
623.778	239.25
623.985	255.25
624.192	233.25
624.399	233.25
624.606	232.25
624.812	232.25
625.019	240.25
625.226	212.25
625.433	219.25
625.639	230.25
625.846	229.25
626.053	219.25
626.259	205.25
626.466	244.25
626.673	229.25
626.879	231.25
627.086	250.25
627.293	214.25
627.499	213.25
627.706	222.25
627.912	220.25
628.119	211.25
628.325	213.25
628.532	217.25
628.738	206.25
628.945	224.25
629.151	226.25
629.357	212.25
629.564	223.25
629.77	226.25
629.976	209.25
630.183	216.25
630.389	200.25
630.595	222.25
630.802	206.25
631.008	212.25
631.214	192.25
631.42	205.25
631.627	219.25
631.833	217.25
632.039	191.25
632.245	207.25
632.451	201.25
632.657	211.25
632.863	205.25
633.069	202.25
633.275	198.25
633.481	195.25
633.688	211.25
633.893	206.25
634.099	202.25
634.305	199.25
634.511	201.25
634.717	208.25
634.923	196.25
635.129	204.25
635.335	198.25
635.541	201.25
635.747	198.25
635.952	197.25
636.158	206.25
636.364	198.25
636.57	205.25
636.775	197.25
636.981	190.25
637.187	201.25
637.392	199.25
637.598	204.25
637.804	203.25
638.009	189.25
638.215	190.25
638.421	196.25
638.626	177.25
638.832	184.25
639.037	164.25
639.243	184.25
639.448	182.25
639.654	189.25
639.859	184.25
640.065	170.25
640.27	197.25
640.475	192.25
640.681	190.25
640.886	196.25
641.091	166.25
641.297	181.25
641.502	166.25
641.707	185.25
641.913	175.25
642.118	171.25
642.323	191.25
642.528	181.25
642.733	188.25
642.939	165.25
643.144	192.25
643.349	176.25
643.554	178.25
643.759	182.25
643.964	186.25
644.169	181.25
644.374	195.25
644.579	192.25
644.784	173.25
644.989	193.25
645.194	170.25
645.399	160.25
645.604	178.25
645.809	182.25
646.014	172.25
646.219	178.25
646.423	185.25
646.628	174.25
646.833	188.25
647.038	178.25
647.243	172.25
647.447	190.25
647.652	171.25
647.857	189.25
648.062	175.25
648.266	184.25
648.471	181.25
648.676	182.25
648.88	181.25
649.085	189.25
649.289	174.25
649.494	180.25
649.698	188.25
649.903	200.25
650.107	182.25
650.312	198.25
650.516	179.25
650.721	165.25
650.925	167.25
651.13	161.25
651.334	159.25
651.539	164.25
651.743	160.25
651.947	149.25
652.152	155.25
652.356	146.25
652.56	153.25
652.764	151.25
652.969	157.25
653.173	147.25
653.377	141.25
653.581	161.25
653.785	167.25
653.99	140.25
654.194	141.25
654.398	145.25
654.602	137.25
654.806	137.25
655.01	138.25
655.214	153.25
655.418	156.25
655.622	156.25
655.826	149.25
656.03	142.25
656.234	145.25
656.438	149.25
656.642	139.25
656.846	142.25
657.049	136.25
657.253	136.25
657.457	133.25
657.661	128.25
657.865	122.25
658.068	128.25
658.272	112.25
658.476	113.25
658.68	118.25
658.883	132.25
659.087	98.25
659.291	121.25
659.494	110.25
659.698	95.25
659.901	96.25
660.105	120.25
660.309	92.25
660.512	97.25
660.716	97.25
660.919	86.25
661.123	94.25
661.326	73.25
661.53	97.25
661.733	93.25
661.936	105.25
662.14	90.25
662.343	102.25
662.546	102.25
662.75	108.25
662.953	89.25
663.156	93.25
663.36	87.25
663.563	73.25
663.766	89.25
663.969	90.25
664.173	83.25
664.376	87.25
664.579	89.25
664.782	90.25
664.985	93.25
665.188	76.25
665.391	106.25
665.594	77.25
665.797	71.25
666	86.25
666.203	66.25
666.406	89.25
666.609	83.25
666.812	81.25
667.015	100.25
667.218	81.25
667.421	87.25
667.624	76.25
667.827	88.25
668.03	88.25
668.232	90.25
668.435	83.25
668.638	92.25
668.841	91.25
669.043	96.25
669.246	91.25
669.449	89.25
669.651	83.25
669.854	97.25
670.057	87.25
670.259	96.25
670.462	89.25
670.665	91.25
670.867	98.25
671.07	110.25
671.272	85.25
671.475	82.25
671.677	88.25
671.88	85.25
672.082	76.25
672.284	102.25
672.487	75.25
672.689	86.25
672.892	90.25
