Data from 1975.PennyLincolnUp.Lamp.En5.5.200Scan.071719.P1.Changed Mount._HRD10591_15-57-13-859.txt Node
Date: Thu Jul 18 15:57:13 EDT 2019
User: cochatt
Spectrometer: HR+D1059
Trigger mode: 1
Integration Time (sec): 1.000000E-1
Scans to average: 1
Electric dark correction enabled: true
Nonlinearity correction enabled: false
Boxcar width: 0
XAxis mode: Wavelengths
Number of Pixels in Spectrum: 2048
>>>>>Begin Spectral Data<<<<<
223.165	-4.81
223.4	-4.81
223.635	-4.81
223.869	-17.81
224.104	-17.81
224.338	-8.81
224.573	-14.81
224.808	-5.81
225.042	1.19
225.277	-22.81
225.511	-9.81
225.746	-1.81
225.98	1.19
226.215	22.19
226.449	17.19
226.683	12.19
226.918	18.19
227.152	32.19
227.387	26.19
227.621	38.19
227.856	32.19
228.09	32.19
228.324	56.19
228.559	54.19
228.793	59.19
229.027	102.19
229.262	89.19
229.496	102.19
229.73	125.19
229.964	144.19
230.199	128.19
230.433	106.19
230.667	102.19
230.901	110.19
231.136	115.19
231.37	121.19
231.604	102.19
231.838	115.19
232.072	102.19
232.306	118.19
232.541	115.19
232.775	98.19
233.009	118.19
233.243	110.19
233.477	96.19
233.711	110.19
233.945	112.19
234.179	130.19
234.413	110.19
234.647	108.19
234.881	110.19
235.115	103.19
235.349	124.19
235.583	124.19
235.817	112.19
236.051	124.19
236.285	130.19
236.519	123.19
236.753	132.19
236.987	146.19
237.221	181.19
237.455	218.19
237.689	184.19
237.922	150.19
238.156	145.19
238.39	122.19
238.624	126.19
238.858	119.19
239.091	142.19
239.325	124.19
239.559	141.19
239.793	134.19
240.027	136.19
240.26	148.19
240.494	144.19
240.728	153.19
240.961	145.19
241.195	154.19
241.429	153.19
241.662	154.19
241.896	130.19
242.13	126.19
242.363	126.19
242.597	131.19
242.83	139.19
243.064	134.19
243.298	140.19
243.531	162.19
243.765	152.19
243.998	145.19
244.232	147.19
244.465	142.19
244.699	151.19
244.932	148.19
245.166	161.19
245.399	140.19
245.633	136.19
245.866	136.19
246.099	152.19
246.333	141.19
246.566	150.19
246.8	147.19
247.033	142.19
247.266	164.19
247.5	155.19
247.733	155.19
247.966	164.19
248.2	158.19
248.433	158.19
248.666	162.19
248.899	194.19
249.133	190.19
249.366	192.19
249.599	187.19
249.832	186.19
250.066	177.19
250.299	185.19
250.532	193.19
250.765	204.19
250.998	211.19
251.231	226.19
251.465	213.19
251.698	208.19
251.931	198.19
252.164	202.19
252.397	207.19
252.63	197.19
252.863	206.19
253.096	217.19
253.329	224.19
253.562	246.19
253.795	225.19
254.028	228.19
254.261	223.19
254.494	212.19
254.727	241.19
254.96	268.19
255.193	264.19
255.426	235.19
255.659	227.19
255.892	237.19
256.124	231.19
256.357	234.19
256.59	212.19
256.823	222.19
257.056	217.19
257.289	207.19
257.521	221.19
257.754	212.19
257.987	203.19
258.22	195.19
258.452	204.19
258.685	214.19
258.918	206.19
259.151	214.19
259.383	226.19
259.616	235.19
259.849	223.19
260.081	231.19
260.314	243.19
260.547	268.19
260.779	257.19
261.012	246.19
261.244	224.19
261.477	222.19
261.71	222.19
261.942	235.19
262.175	236.19
262.407	236.19
262.64	221.19
262.872	228.19
263.105	208.19
263.337	216.19
263.57	210.19
263.802	222.19
264.035	202.19
264.267	219.19
264.499	227.19
264.732	217.19
264.964	210.19
265.197	226.19
265.429	215.19
265.661	224.19
265.894	226.19
266.126	235.19
266.358	215.19
266.591	229.19
266.823	240.19
267.055	228.19
267.287	231.19
267.52	246.19
267.752	234.19
267.984	214.19
268.216	232.19
268.448	246.19
268.681	238.19
268.913	258.19
269.145	246.19
269.377	277.19
269.609	269.19
269.841	283.19
270.073	273.19
270.306	282.19
270.538	310.19
270.77	320.19
271.002	322.19
271.234	284.19
271.466	309.19
271.698	304.19
271.93	320.19
272.162	307.19
272.394	309.19
272.626	297.19
272.858	284.19
273.09	284.19
273.322	265.19
273.553	285.19
273.785	279.19
274.017	251.19
274.249	274.19
274.481	282.19
274.713	280.19
274.945	273.19
275.176	264.19
275.408	266.19
275.64	270.19
275.872	275.19
276.104	286.19
276.335	285.19
276.567	282.19
276.799	291.19
277.031	301.19
277.262	321.19
277.494	318.19
277.726	307.19
277.957	290.19
278.189	290.19
278.421	277.19
278.652	266.19
278.884	281.19
279.115	271.19
279.347	271.19
279.579	277.19
279.81	261.19
280.042	265.19
280.273	275.19
280.505	288.19
280.736	265.19
280.968	279.19
281.199	275.19
281.431	266.19
281.662	274.19
281.894	274.19
282.125	265.19
282.356	299.19
282.588	305.19
282.819	306.19
283.051	295.19
283.282	286.19
283.513	283.19
283.745	278.19
283.976	303.19
284.207	308.19
284.439	299.19
284.67	302.19
284.901	297.19
285.132	301.19
285.364	289.19
285.595	306.19
285.826	276.19
286.057	284.19
286.288	296.19
286.52	283.19
286.751	287.19
286.982	311.19
287.213	311.19
287.444	309.19
287.675	307.19
287.906	305.19
288.138	300.19
288.369	314.19
288.6	313.19
288.831	304.19
289.062	320.19
289.293	321.19
289.524	291.19
289.755	297.19
289.986	310.19
290.217	292.19
290.448	278.19
290.679	313.19
290.91	309.19
291.141	313.19
291.371	320.19
291.602	318.19
291.833	320.19
292.064	295.19
292.295	279.19
292.526	292.19
292.757	309.19
292.987	314.19
293.218	297.19
293.449	320.19
293.68	323.19
293.91	326.19
294.141	322.19
294.372	319.19
294.603	306.19
294.833	321.19
295.064	326.19
295.295	320.19
295.525	314.19
295.756	322.19
295.987	324.19
296.217	315.19
296.448	355.19
296.679	332.19
296.909	310.19
297.14	318.19
297.37	310.19
297.601	314.19
297.831	324.19
298.062	308.19
298.292	322.19
298.523	320.19
298.753	316.19
298.984	300.19
299.214	308.19
299.445	327.19
299.675	331.19
299.905	339.19
300.136	333.19
300.366	346.19
300.597	313.19
300.827	355.19
301.057	332.19
301.288	338.19
301.518	339.19
301.748	344.19
301.979	345.19
302.209	340.19
302.439	347.19
302.669	329.19
302.9	331.19
303.13	346.19
303.36	343.19
303.59	350.19
303.82	368.19
304.051	356.19
304.281	335.19
304.511	361.19
304.741	330.19
304.971	329.19
305.201	332.19
305.431	314.19
305.661	323.19
305.891	336.19
306.121	340.19
306.352	339.19
306.582	361.19
306.812	353.19
307.042	340.19
307.272	329.19
307.502	342.19
307.731	352.19
307.961	333.19
308.191	343.19
308.421	348.19
308.651	348.19
308.881	338.19
309.111	345.19
309.341	339.19
309.571	347.19
309.8	359.19
310.03	376.19
310.26	394.19
310.49	375.19
310.72	372.19
310.949	374.19
311.179	401.19
311.409	368.19
311.639	379.19
311.868	393.19
312.098	376.19
312.328	369.19
312.557	391.19
312.787	406.19
313.017	391.19
313.246	387.19
313.476	390.19
313.706	378.19
313.935	398.19
314.165	419.19
314.394	406.19
314.624	391.19
314.853	414.19
315.083	390.19
315.312	383.19
315.542	385.19
315.771	406.19
316.001	398.19
316.23	379.19
316.46	388.19
316.689	396.19
316.919	369.19
317.148	394.19
317.377	392.19
317.607	402.19
317.836	382.19
318.065	378.19
318.295	354.19
318.524	394.19
318.753	398.19
318.983	394.19
319.212	401.19
319.441	407.19
319.67	387.19
319.9	386.19
320.129	389.19
320.358	390.19
320.587	390.19
320.816	386.19
321.046	389.19
321.275	394.19
321.504	414.19
321.733	407.19
321.962	401.19
322.191	409.19
322.42	421.19
322.649	415.19
322.878	431.19
323.108	456.19
323.337	461.19
323.566	484.19
323.795	497.19
324.024	513.19
324.253	600.19
324.482	844.19
324.71	1264.19
324.939	1906.19
325.168	1680.19
325.397	871.19
325.626	583.19
325.855	515.19
326.084	479.19
326.313	482.19
326.542	472.19
326.77	516.19
326.999	605.19
327.228	754.19
327.457	1176.19
327.686	1450.19
327.914	962.19
328.143	643.19
328.372	587.19
328.6	536.19
328.829	531.19
329.058	514.19
329.287	548.19
329.515	527.19
329.744	499.19
329.972	498.19
330.201	518.19
330.43	559.19
330.658	558.19
330.887	580.19
331.115	562.19
331.344	514.19
331.572	478.19
331.801	483.19
332.03	497.19
332.258	470.19
332.486	478.19
332.715	488.19
332.943	482.19
333.172	461.19
333.4	472.19
333.629	495.19
333.857	509.19
334.085	524.19
334.314	532.19
334.542	555.19
334.771	560.19
334.999	516.19
335.227	508.19
335.455	494.19
335.684	480.19
335.912	474.19
336.14	459.19
336.369	461.19
336.597	470.19
336.825	468.19
337.053	443.19
337.281	447.19
337.51	455.19
337.738	458.19
337.966	451.19
338.194	434.19
338.422	448.19
338.65	448.19
338.878	454.19
339.106	467.19
339.334	446.19
339.562	467.19
339.79	462.19
340.018	427.19
340.246	453.19
340.474	445.19
340.702	449.19
340.93	444.19
341.158	417.19
341.386	436.19
341.614	456.19
341.842	470.19
342.07	432.19
342.298	425.19
342.526	427.19
342.754	426.19
342.981	415.19
343.209	430.19
343.437	450.19
343.665	425.19
343.893	464.19
344.12	463.19
344.348	450.19
344.576	449.19
344.804	459.19
345.031	470.19
345.259	474.19
345.487	447.19
345.714	444.19
345.942	425.19
346.17	427.19
346.397	448.19
346.625	432.19
346.853	431.19
347.08	424.19
347.308	435.19
347.535	431.19
347.763	442.19
347.99	427.19
348.218	473.19
348.445	436.19
348.673	442.19
348.9	428.19
349.128	431.19
349.355	433.19
349.583	449.19
349.81	434.19
350.037	434.19
350.265	441.19
350.492	395.19
350.72	435.19
350.947	432.19
351.174	431.19
351.402	429.19
351.629	419.19
351.856	416.19
352.083	435.19
352.311	444.19
352.538	440.19
352.765	427.19
352.992	435.19
353.22	428.19
353.447	422.19
353.674	403.19
353.901	420.19
354.128	414.19
354.355	392.19
354.583	423.19
354.81	401.19
355.037	416.19
355.264	411.19
355.491	406.19
355.718	414.19
355.945	410.19
356.172	409.19
356.399	389.19
356.626	412.19
356.853	416.19
357.08	399.19
357.307	384.19
357.534	434.19
357.761	404.19
357.988	408.19
358.215	428.19
358.441	400.19
358.668	403.19
358.895	412.19
359.122	399.19
359.349	416.19
359.576	420.19
359.802	436.19
360.029	472.19
360.256	478.19
360.483	448.19
360.709	442.19
360.936	430.19
361.163	422.19
361.39	420.19
361.616	440.19
361.843	434.19
362.07	445.19
362.296	424.19
362.523	424.19
362.749	422.19
362.976	418.19
363.203	425.19
363.429	422.19
363.656	439.19
363.882	409.19
364.109	405.19
364.335	420.19
364.562	416.19
364.788	435.19
365.015	432.19
365.241	444.19
365.468	406.19
365.694	408.19
365.92	448.19
366.147	424.19
366.373	409.19
366.599	415.19
366.826	406.19
367.052	433.19
367.278	390.19
367.505	418.19
367.731	434.19
367.957	420.19
368.184	440.19
368.41	428.19
368.636	422.19
368.862	449.19
369.089	442.19
369.315	416.19
369.541	453.19
369.767	434.19
369.993	420.19
370.219	405.19
370.445	424.19
370.672	414.19
370.898	419.19
371.124	419.19
371.35	416.19
371.576	424.19
371.802	427.19
372.028	407.19
372.254	432.19
372.48	425.19
372.706	416.19
372.932	425.19
373.158	434.19
373.384	429.19
373.61	424.19
373.835	424.19
374.061	435.19
374.287	420.19
374.513	428.19
374.739	433.19
374.965	440.19
375.191	432.19
375.416	450.19
375.642	421.19
375.868	432.19
376.094	429.19
376.319	425.19
376.545	427.19
376.771	452.19
376.997	419.19
377.222	407.19
377.448	437.19
377.674	418.19
377.899	425.19
378.125	424.19
378.35	424.19
378.576	436.19
378.802	420.19
379.027	421.19
379.253	426.19
379.478	420.19
379.704	429.19
379.929	415.19
380.155	427.19
380.38	425.19
380.606	424.19
380.831	413.19
381.057	442.19
381.282	432.19
381.507	421.19
381.733	428.19
381.958	430.19
382.184	431.19
382.409	418.19
382.634	424.19
382.86	458.19
383.085	439.19
383.31	435.19
383.535	426.19
383.761	442.19
383.986	454.19
384.211	454.19
384.436	448.19
384.662	470.19
384.887	464.19
385.112	456.19
385.337	480.19
385.562	476.19
385.787	482.19
386.013	472.19
386.238	481.19
386.463	494.19
386.688	487.19
386.913	478.19
387.138	466.19
387.363	480.19
387.588	473.19
387.813	460.19
388.038	479.19
388.263	481.19
388.488	474.19
388.713	471.19
388.938	482.19
389.163	457.19
389.387	490.19
389.612	479.19
389.837	465.19
390.062	472.19
390.287	477.19
390.512	497.19
390.736	487.19
390.961	483.19
391.186	494.19
391.411	480.19
391.636	486.19
391.86	513.19
392.085	496.19
392.31	500.19
392.534	502.19
392.759	513.19
392.984	478.19
393.208	475.19
393.433	462.19
393.658	473.19
393.882	480.19
394.107	485.19
394.331	490.19
394.556	483.19
394.78	497.19
395.005	481.19
395.229	475.19
395.454	497.19
395.678	500.19
395.903	520.19
396.127	544.19
396.352	528.19
396.576	516.19
396.801	489.19
397.025	512.19
397.249	500.19
397.474	524.19
397.698	530.19
397.922	531.19
398.147	532.19
398.371	543.19
398.595	526.19
398.82	558.19
399.044	576.19
399.268	604.19
399.492	633.19
399.717	670.19
399.941	721.19
400.165	720.19
400.389	705.19
400.613	635.19
400.837	603.19
401.062	574.19
401.286	594.19
401.51	552.19
401.734	554.19
401.958	547.19
402.182	553.19
402.406	571.19
402.63	563.19
402.854	559.19
403.078	570.19
403.302	575.19
403.526	608.19
403.75	601.19
403.974	563.19
404.198	596.19
404.422	594.19
404.645	597.19
404.869	592.19
405.093	645.19
405.317	662.19
405.541	718.19
405.765	638.19
405.988	649.19
406.212	628.19
406.436	653.19
406.66	634.19
406.883	633.19
407.107	654.19
407.331	711.19
407.555	754.19
407.778	774.19
408.002	724.19
408.226	626.19
408.449	652.19
408.673	660.19
408.896	682.19
409.12	711.19
409.344	667.19
409.567	615.19
409.791	617.19
410.014	585.19
410.238	572.19
410.461	594.19
410.685	595.19
410.908	625.19
411.132	633.19
411.355	659.19
411.578	626.19
411.802	602.19
412.025	590.19
412.249	590.19
412.472	628.19
412.695	661.19
412.919	651.19
413.142	606.19
413.365	558.19
413.589	579.19
413.812	546.19
414.035	553.19
414.258	575.19
414.482	562.19
414.705	560.19
414.928	541.19
415.151	565.19
415.374	568.19
415.597	564.19
415.821	529.19
416.044	555.19
416.267	541.19
416.49	534.19
416.713	537.19
416.936	559.19
417.159	534.19
417.382	553.19
417.605	554.19
417.828	565.19
418.051	559.19
418.274	580.19
418.497	561.19
418.72	542.19
418.943	546.19
419.166	592.19
419.389	626.19
419.611	600.19
419.834	580.19
420.057	612.19
420.28	596.19
420.503	593.19
420.726	575.19
420.948	584.19
421.171	639.19
421.394	665.19
421.617	598.19
421.839	592.19
422.062	557.19
422.285	566.19
422.507	632.19
422.73	727.19
422.953	663.19
423.175	627.19
423.398	623.19
423.621	609.19
423.843	612.19
424.066	640.19
424.288	595.19
424.511	610.19
424.733	691.19
424.956	765.19
425.178	745.19
425.401	727.19
425.623	756.19
425.846	662.19
426.068	591.19
426.291	604.19
426.513	629.19
426.735	622.19
426.958	655.19
427.18	732.19
427.402	844.19
427.625	919.19
427.847	808.19
428.069	710.19
428.292	632.19
428.514	600.19
428.736	569.19
428.958	572.19
429.181	546.19
429.403	559.19
429.625	570.19
429.847	612.19
430.069	675.19
430.292	656.19
430.514	583.19
430.736	571.19
430.958	551.19
431.18	571.19
431.402	532.19
431.624	526.19
431.846	532.19
432.068	502.19
432.29	547.19
432.512	542.19
432.734	539.19
432.956	532.19
433.178	542.19
433.4	524.19
433.622	540.19
433.844	533.19
434.066	513.19
434.287	543.19
434.509	555.19
434.731	575.19
434.953	544.19
435.175	578.19
435.397	623.19
435.618	615.19
435.84	636.19
436.062	750.19
436.284	808.19
436.505	635.19
436.727	614.19
436.949	600.19
437.17	555.19
437.392	575.19
437.614	564.19
437.835	586.19
438.057	669.19
438.278	796.19
438.5	786.19
438.721	889.19
438.943	830.19
439.165	656.19
439.386	597.19
439.608	619.19
439.829	609.19
440.05	618.19
440.272	661.19
440.493	611.19
440.715	576.19
440.936	574.19
441.158	552.19
441.379	562.19
441.6	588.19
441.822	598.19
442.043	644.19
442.264	742.19
442.486	756.19
442.707	688.19
442.928	608.19
443.149	623.19
443.371	648.19
443.592	714.19
443.813	788.19
444.034	870.19
444.255	715.19
444.476	641.19
444.698	622.19
444.919	627.19
445.14	746.19
445.361	681.19
445.582	650.19
445.803	699.19
446.024	802.19
446.245	840.19
446.466	758.19
446.687	636.19
446.908	603.19
447.129	558.19
447.35	559.19
447.571	552.19
447.792	536.19
448.013	542.19
448.234	545.19
448.455	634.19
448.675	736.19
448.896	844.19
449.117	711.19
449.338	663.19
449.559	807.19
449.779	896.19
450	711.19
450.221	594.19
450.442	558.19
450.662	537.19
450.883	534.19
451.104	544.19
451.324	543.19
451.545	514.19
451.766	505.19
451.986	477.19
452.207	507.19
452.428	486.19
452.648	489.19
452.869	470.19
453.089	503.19
453.31	504.19
453.53	484.19
453.751	494.19
453.971	481.19
454.192	500.19
454.412	507.19
454.633	481.19
454.853	482.19
455.073	480.19
455.294	505.19
455.514	568.19
455.734	572.19
455.955	496.19
456.175	478.19
456.395	451.19
456.616	470.19
456.836	465.19
457.056	462.19
457.276	460.19
457.497	471.19
457.717	470.19
457.937	448.19
458.157	465.19
458.377	477.19
458.598	491.19
458.818	540.19
459.038	609.19
459.258	627.19
459.478	572.19
459.698	544.19
459.918	510.19
460.138	533.19
460.358	537.19
460.578	544.19
460.798	545.19
461.018	591.19
461.238	567.19
461.458	545.19
461.678	528.19
461.898	556.19
462.118	563.19
462.338	558.19
462.558	562.19
462.777	588.19
462.997	610.19
463.217	615.19
463.437	631.19
463.657	610.19
463.876	625.19
464.096	589.19
464.316	602.19
464.536	614.19
464.755	605.19
464.975	607.19
465.195	594.19
465.414	669.19
465.634	595.19
465.854	561.19
466.073	539.19
466.293	527.19
466.512	512.19
466.732	507.19
466.951	513.19
467.171	498.19
467.391	510.19
467.61	501.19
467.829	503.19
468.049	527.19
468.268	518.19
468.488	494.19
468.707	523.19
468.927	489.19
469.146	479.19
469.365	486.19
469.585	516.19
469.804	512.19
470.023	537.19
470.243	508.19
470.462	515.19
470.681	530.19
470.901	550.19
471.12	513.19
471.339	547.19
471.558	525.19
471.777	526.19
471.997	515.19
472.216	525.19
472.435	540.19
472.654	544.19
472.873	508.19
473.092	500.19
473.311	507.19
473.53	511.19
473.749	520.19
473.968	544.19
474.187	667.19
474.406	679.19
474.625	569.19
474.844	556.19
475.063	545.19
475.282	514.19
475.501	534.19
475.72	534.19
475.939	522.19
476.158	544.19
476.377	536.19
476.596	537.19
476.814	526.19
477.033	532.19
477.252	527.19
477.471	558.19
477.69	575.19
477.908	561.19
478.127	568.19
478.346	578.19
478.564	566.19
478.783	572.19
479.002	600.19
479.22	596.19
479.439	609.19
479.658	608.19
479.876	639.19
480.095	615.19
480.313	655.19
480.532	648.19
480.751	656.19
480.969	659.19
481.188	678.19
481.406	737.19
481.624	664.19
481.843	610.19
482.061	624.19
482.28	618.19
482.498	619.19
482.717	595.19
482.935	621.19
483.153	582.19
483.372	592.19
483.59	593.19
483.808	577.19
484.027	602.19
484.245	619.19
484.463	597.19
484.681	613.19
484.9	598.19
485.118	595.19
485.336	612.19
485.554	611.19
485.772	613.19
485.99	624.19
486.209	646.19
486.427	638.19
486.645	635.19
486.863	644.19
487.081	666.19
487.299	644.19
487.517	625.19
487.735	632.19
487.953	639.19
488.171	652.19
488.389	656.19
488.607	649.19
488.825	662.19
489.043	650.19
489.261	642.19
489.479	650.19
489.696	661.19
489.914	679.19
490.132	696.19
490.35	675.19
490.568	692.19
490.786	688.19
491.003	691.19
491.221	726.19
491.439	727.19
491.657	737.19
491.874	737.19
492.092	740.19
492.31	745.19
492.527	750.19
492.745	752.19
492.963	751.19
493.18	782.19
493.398	771.19
493.615	747.19
493.833	760.19
494.05	770.19
494.268	771.19
494.485	805.19
494.703	764.19
494.92	775.19
495.138	761.19
495.355	757.19
495.573	777.19
495.79	770.19
496.008	755.19
496.225	789.19
496.442	795.19
496.66	804.19
496.877	771.19
497.094	794.19
497.312	784.19
497.529	804.19
497.746	829.19
497.963	797.19
498.181	829.19
498.398	856.19
498.615	886.19
498.832	921.19
499.049	907.19
499.267	956.19
499.484	986.19
499.701	1036.19
499.918	1086.19
500.135	1143.19
500.352	1222.19
500.569	1230.19
500.786	1247.19
501.003	1198.19
501.22	1184.19
501.437	1136.19
501.654	1084.19
501.871	1030.19
502.088	958.19
502.305	942.19
502.522	881.19
502.739	902.19
502.956	851.19
503.172	848.19
503.389	779.19
503.606	816.19
503.823	796.19
504.04	779.19
504.256	788.19
504.473	778.19
504.69	776.19
504.907	785.19
505.123	769.19
505.34	771.19
505.557	732.19
505.773	747.19
505.99	735.19
506.207	737.19
506.423	706.19
506.64	719.19
506.856	726.19
507.073	695.19
507.289	711.19
507.506	710.19
507.722	705.19
507.939	731.19
508.155	710.19
508.372	709.19
508.588	688.19
508.805	665.19
509.021	672.19
509.238	687.19
509.454	700.19
509.67	688.19
509.887	689.19
510.103	671.19
510.319	678.19
510.536	722.19
510.752	1094.19
510.968	910.19
511.184	674.19
511.401	640.19
511.617	647.19
511.833	634.19
512.049	664.19
512.265	639.19
512.481	628.19
512.698	650.19
512.914	620.19
513.13	627.19
513.346	628.19
513.562	625.19
513.778	645.19
513.994	649.19
514.21	639.19
514.426	657.19
514.642	695.19
514.858	712.19
515.074	740.19
515.29	834.19
515.506	1091.19
515.721	933.19
515.937	696.19
516.153	684.19
516.369	676.19
516.585	665.19
516.801	670.19
517.016	675.19
517.232	699.19
517.448	686.19
517.664	699.19
517.879	690.19
518.095	691.19
518.311	673.19
518.527	679.19
518.742	666.19
518.958	652.19
519.173	673.19
519.389	656.19
519.605	644.19
519.82	641.19
520.036	632.19
520.251	644.19
520.467	670.19
520.682	669.19
520.898	670.19
521.113	665.19
521.329	709.19
521.544	763.19
521.76	890.19
521.975	1374.19
522.19	1382.19
522.406	838.19
522.621	679.19
522.836	643.19
523.052	616.19
523.267	608.19
523.482	596.19
523.698	573.19
523.913	576.19
524.128	559.19
524.343	561.19
524.559	568.19
524.774	551.19
524.989	560.19
525.204	580.19
525.419	570.19
525.634	538.19
525.849	552.19
526.064	548.19
526.28	535.19
526.495	516.19
526.71	520.19
526.925	519.19
527.14	535.19
527.355	524.19
527.57	516.19
527.785	518.19
527.999	530.19
528.214	537.19
528.429	509.19
528.644	512.19
528.859	527.19
529.074	532.19
529.289	544.19
529.503	601.19
529.718	593.19
529.933	577.19
530.148	538.19
530.363	517.19
530.577	521.19
530.792	516.19
531.007	519.19
531.221	532.19
531.436	528.19
531.651	499.19
531.865	515.19
532.08	501.19
532.295	512.19
532.509	496.19
532.724	513.19
532.938	498.19
533.153	514.19
533.367	527.19
533.582	501.19
533.796	499.19
534.011	530.19
534.225	529.19
534.44	509.19
534.654	510.19
534.868	491.19
535.083	506.19
535.297	495.19
535.511	493.19
535.726	515.19
535.94	530.19
536.154	514.19
536.369	516.19
536.583	492.19
536.797	490.19
537.011	489.19
537.225	499.19
537.44	476.19
537.654	487.19
537.868	480.19
538.082	483.19
538.296	475.19
538.51	489.19
538.724	512.19
538.938	480.19
539.153	464.19
539.367	520.19
539.581	502.19
539.795	516.19
540.009	492.19
540.222	464.19
540.436	481.19
540.65	481.19
540.864	499.19
541.078	482.19
541.292	499.19
541.506	494.19
541.72	482.19
541.934	482.19
542.147	472.19
542.361	498.19
542.575	488.19
542.789	486.19
543.002	475.19
543.216	487.19
543.43	490.19
543.644	480.19
543.857	487.19
544.071	495.19
544.285	486.19
544.498	510.19
544.712	500.19
544.925	500.19
545.139	477.19
545.352	481.19
545.566	489.19
545.779	477.19
545.993	481.19
546.206	465.19
546.42	496.19
546.633	506.19
546.847	485.19
547.06	460.19
547.274	465.19
547.487	484.19
547.7	480.19
547.914	478.19
548.127	466.19
548.34	517.19
548.554	470.19
548.767	475.19
548.98	479.19
549.193	474.19
549.407	490.19
549.62	453.19
549.833	474.19
550.046	458.19
550.259	460.19
550.473	470.19
550.686	464.19
550.899	483.19
551.112	462.19
551.325	454.19
551.538	474.19
551.751	474.19
551.964	460.19
552.177	468.19
552.39	448.19
552.603	491.19
552.816	487.19
553.029	495.19
553.242	501.19
553.455	490.19
553.667	478.19
553.88	517.19
554.093	499.19
554.306	495.19
554.519	450.19
554.732	450.19
554.944	466.19
555.157	470.19
555.37	460.19
555.583	463.19
555.795	471.19
556.008	451.19
556.221	425.19
556.433	434.19
556.646	434.19
556.859	433.19
557.071	430.19
557.284	441.19
557.496	435.19
557.709	431.19
557.921	454.19
558.134	427.19
558.346	425.19
558.559	427.19
558.771	432.19
558.984	436.19
559.196	419.19
559.409	418.19
559.621	423.19
559.833	413.19
560.046	420.19
560.258	418.19
560.47	426.19
560.683	427.19
560.895	397.19
561.107	410.19
561.32	425.19
561.532	410.19
561.744	427.19
561.956	422.19
562.168	411.19
562.381	414.19
562.593	416.19
562.805	440.19
563.017	425.19
563.229	423.19
563.441	419.19
563.653	404.19
563.865	437.19
564.077	424.19
564.289	448.19
564.501	441.19
564.713	440.19
564.925	453.19
565.137	448.19
565.349	465.19
565.561	451.19
565.773	484.19
565.985	473.19
566.197	483.19
566.408	498.19
566.62	516.19
566.832	546.19
567.044	554.19
567.255	560.19
567.467	557.19
567.679	579.19
567.891	611.19
568.102	598.19
568.314	582.19
568.526	535.19
568.737	530.19
568.949	519.19
569.161	493.19
569.372	472.19
569.584	466.19
569.795	449.19
570.007	438.19
570.218	458.19
570.43	455.19
570.641	421.19
570.853	433.19
571.064	420.19
571.276	418.19
571.487	407.19
571.698	414.19
571.91	403.19
572.121	412.19
572.333	376.19
572.544	410.19
572.755	388.19
572.966	382.19
573.178	383.19
573.389	386.19
573.6	363.19
573.811	372.19
574.023	354.19
574.234	374.19
574.445	366.19
574.656	380.19
574.867	382.19
575.078	368.19
575.289	382.19
575.501	352.19
575.712	370.19
575.923	376.19
576.134	356.19
576.345	370.19
576.556	364.19
576.767	361.19
576.978	354.19
577.188	351.19
577.399	352.19
577.61	334.19
577.821	345.19
578.032	349.19
578.243	377.19
578.454	544.19
578.665	430.19
578.875	356.19
579.086	340.19
579.297	332.19
579.508	346.19
579.718	333.19
579.929	333.19
580.14	334.19
580.35	331.19
580.561	314.19
580.772	333.19
580.982	347.19
581.193	340.19
581.403	330.19
581.614	325.19
581.825	311.19
582.035	334.19
582.246	326.19
582.456	334.19
582.667	320.19
582.877	315.19
583.087	331.19
583.298	324.19
583.508	334.19
583.719	313.19
583.929	314.19
584.139	353.19
584.35	325.19
584.56	311.19
584.77	323.19
584.981	322.19
585.191	308.19
585.401	309.19
585.611	306.19
585.821	316.19
586.032	308.19
586.242	321.19
586.452	309.19
586.662	302.19
586.872	308.19
587.082	311.19
587.292	312.19
587.502	300.19
587.713	304.19
587.923	302.19
588.133	307.19
588.343	312.19
588.553	296.19
588.762	293.19
588.972	310.19
589.182	321.19
589.392	294.19
589.602	293.19
589.812	310.19
590.022	320.19
590.232	315.19
590.441	314.19
590.651	309.19
590.861	305.19
591.071	344.19
591.281	315.19
591.49	330.19
591.7	326.19
591.91	335.19
592.119	342.19
592.329	322.19
592.539	341.19
592.748	336.19
592.958	342.19
593.167	357.19
593.377	328.19
593.587	346.19
593.796	366.19
594.006	345.19
594.215	335.19
594.424	358.19
594.634	361.19
594.843	338.19
595.053	361.19
595.262	339.19
595.472	328.19
595.681	310.19
595.89	318.19
596.1	305.19
596.309	312.19
596.518	313.19
596.727	311.19
596.937	296.19
597.146	302.19
597.355	292.19
597.564	280.19
597.774	306.19
597.983	279.19
598.192	299.19
598.401	290.19
598.61	292.19
598.819	294.19
599.028	291.19
599.237	283.19
599.446	274.19
599.655	290.19
599.864	296.19
600.073	298.19
600.282	268.19
600.491	275.19
600.7	281.19
600.909	283.19
601.118	283.19
601.327	288.19
601.536	273.19
601.745	268.19
601.953	254.19
602.162	255.19
602.371	283.19
602.58	266.19
602.789	266.19
602.997	270.19
603.206	277.19
603.415	268.19
603.623	264.19
603.832	258.19
604.041	271.19
604.249	278.19
604.458	251.19
604.666	262.19
604.875	252.19
605.084	267.19
605.292	264.19
605.501	265.19
605.709	268.19
605.918	269.19
606.126	263.19
606.334	267.19
606.543	260.19
606.751	286.19
606.96	261.19
607.168	252.19
607.376	250.19
607.585	257.19
607.793	242.19
608.001	257.19
608.21	251.19
608.418	228.19
608.626	240.19
608.834	273.19
609.043	276.19
609.251	264.19
609.459	266.19
609.667	262.19
609.875	270.19
610.083	254.19
610.291	267.19
610.499	272.19
610.707	278.19
610.916	280.19
611.124	262.19
611.332	265.19
611.54	264.19
611.748	264.19
611.955	266.19
612.163	265.19
612.371	257.19
612.579	248.19
612.787	236.19
612.995	256.19
613.203	251.19
613.411	246.19
613.618	265.19
613.826	260.19
614.034	263.19
614.242	273.19
614.449	263.19
614.657	247.19
614.865	263.19
615.072	249.19
615.28	242.19
615.488	255.19
615.695	258.19
615.903	266.19
616.111	258.19
616.318	258.19
616.526	260.19
616.733	254.19
616.941	258.19
617.148	255.19
617.356	258.19
617.563	259.19
617.771	255.19
617.978	265.19
618.185	259.19
618.393	257.19
618.6	242.19
618.807	228.19
619.015	241.19
619.222	231.19
619.429	246.19
619.637	248.19
619.844	235.19
620.051	256.19
620.258	234.19
620.466	230.19
620.673	225.19
620.88	228.19
621.087	235.19
621.294	238.19
621.501	223.19
621.708	244.19
621.915	243.19
622.122	242.19
622.329	233.19
622.536	231.19
622.743	237.19
622.95	235.19
623.157	228.19
623.364	243.19
623.571	249.19
623.778	233.19
623.985	244.19
624.192	236.19
624.399	225.19
624.606	241.19
624.812	224.19
625.019	234.19
625.226	228.19
625.433	233.19
625.639	239.19
625.846	234.19
626.053	213.19
626.259	222.19
626.466	244.19
626.673	213.19
626.879	215.19
627.086	213.19
627.293	228.19
627.499	230.19
627.706	210.19
627.912	199.19
628.119	217.19
628.325	225.19
628.532	230.19
628.738	209.19
628.945	203.19
629.151	226.19
629.357	214.19
629.564	212.19
629.77	222.19
629.976	215.19
630.183	228.19
630.389	202.19
630.595	214.19
630.802	210.19
631.008	214.19
631.214	202.19
631.42	199.19
631.627	204.19
631.833	202.19
632.039	206.19
632.245	210.19
632.451	203.19
632.657	186.19
632.863	211.19
633.069	196.19
633.275	196.19
633.481	188.19
633.688	190.19
633.893	198.19
634.099	180.19
634.305	202.19
634.511	201.19
634.717	181.19
634.923	191.19
635.129	188.19
635.335	208.19
635.541	200.19
635.747	198.19
635.952	196.19
636.158	204.19
636.364	186.19
636.57	204.19
636.775	191.19
636.981	193.19
637.187	201.19
637.392	202.19
637.598	196.19
637.804	177.19
638.009	199.19
638.215	154.19
638.421	187.19
638.626	184.19
638.832	181.19
639.037	182.19
639.243	188.19
639.448	197.19
639.654	185.19
639.859	192.19
640.065	178.19
640.27	212.19
640.475	183.19
640.681	189.19
640.886	186.19
641.091	180.19
641.297	166.19
641.502	185.19
641.707	181.19
641.913	187.19
642.118	169.19
642.323	182.19
642.528	186.19
642.733	191.19
642.939	181.19
643.144	172.19
643.349	169.19
643.554	177.19
643.759	182.19
643.964	160.19
644.169	186.19
644.374	179.19
644.579	182.19
644.784	178.19
644.989	168.19
645.194	176.19
645.399	180.19
645.604	178.19
645.809	163.19
646.014	185.19
646.219	194.19
646.423	170.19
646.628	167.19
646.833	178.19
647.038	178.19
647.243	158.19
647.447	174.19
647.652	167.19
647.857	201.19
648.062	171.19
648.266	180.19
648.471	156.19
648.676	177.19
648.88	171.19
649.085	172.19
649.289	190.19
649.494	188.19
649.698	200.19
649.903	193.19
650.107	176.19
650.312	186.19
650.516	162.19
650.721	148.19
650.925	157.19
651.13	161.19
651.334	157.19
651.539	159.19
651.743	158.19
651.947	159.19
652.152	159.19
652.356	159.19
652.56	134.19
652.764	162.19
652.969	145.19
653.173	138.19
653.377	139.19
653.581	141.19
653.785	143.19
653.99	145.19
654.194	136.19
654.398	132.19
654.602	133.19
654.806	138.19
655.01	166.19
655.214	150.19
655.418	130.19
655.622	152.19
655.826	138.19
656.03	136.19
656.234	143.19
656.438	132.19
656.642	138.19
656.846	145.19
657.049	137.19
657.253	127.19
657.457	122.19
657.661	115.19
657.865	117.19
658.068	130.19
658.272	107.19
658.476	120.19
658.68	117.19
658.883	105.19
659.087	87.19
659.291	93.19
659.494	101.19
659.698	92.19
659.901	102.19
660.105	91.19
660.309	84.19
660.512	73.19
660.716	100.19
660.919	92.19
661.123	96.19
661.326	88.19
661.53	88.19
661.733	87.19
661.936	94.19
662.14	101.19
662.343	88.19
662.546	87.19
662.75	84.19
662.953	84.19
663.156	80.19
663.36	87.19
663.563	73.19
663.766	80.19
663.969	96.19
664.173	88.19
664.376	82.19
664.579	73.19
664.782	78.19
664.985	82.19
665.188	96.19
665.391	80.19
665.594	89.19
665.797	75.19
666	77.19
666.203	73.19
666.406	74.19
666.609	83.19
666.812	94.19
667.015	91.19
667.218	69.19
667.421	78.19
667.624	81.19
667.827	84.19
668.03	73.19
668.232	91.19
668.435	76.19
668.638	84.19
668.841	83.19
669.043	77.19
669.246	72.19
669.449	71.19
669.651	79.19
669.854	71.19
670.057	94.19
670.259	79.19
670.462	71.19
670.665	90.19
670.867	82.19
671.07	81.19
671.272	76.19
671.475	101.19
671.677	86.19
671.88	87.19
672.082	80.19
672.284	75.19
672.487	91.19
672.689	95.19
672.892	76.19
