Data from 1976.PennyLincolnUp.Lamp.En5.5.200Scan.071719.P1.Changed Mount._HRD10591_16-00-34-861.txt Node
Date: Thu Jul 18 16:00:34 EDT 2019
User: cochatt
Spectrometer: HR+D1059
Trigger mode: 1
Integration Time (sec): 1.000000E-1
Scans to average: 1
Electric dark correction enabled: true
Nonlinearity correction enabled: false
Boxcar width: 0
XAxis mode: Wavelengths
Number of Pixels in Spectrum: 2048
>>>>>Begin Spectral Data<<<<<
223.165	-10.56
223.4	-10.56
223.635	-10.56
223.869	-0.56
224.104	-15.56
224.338	-20.56
224.573	-6.56
224.808	-25.56
225.042	-5.56
225.277	-6.56
225.511	4.44
225.746	3.44
225.98	7.44
226.215	11.44
226.449	14.44
226.683	22.44
226.918	15.44
227.152	12.44
227.387	33.44
227.621	30.44
227.856	44.44
228.09	36.44
228.324	37.44
228.559	39.44
228.793	54.44
229.027	92.44
229.262	94.44
229.496	117.44
229.73	133.44
229.964	141.44
230.199	108.44
230.433	103.44
230.667	103.44
230.901	109.44
231.136	95.44
231.37	93.44
231.604	106.44
231.838	109.44
232.072	104.44
232.306	106.44
232.541	109.44
232.775	112.44
233.009	109.44
233.243	116.44
233.477	112.44
233.711	124.44
233.945	129.44
234.179	109.44
234.413	101.44
234.647	111.44
234.881	112.44
235.115	125.44
235.349	129.44
235.583	117.44
235.817	133.44
236.051	118.44
236.285	135.44
236.519	121.44
236.753	128.44
236.987	132.44
237.221	154.44
237.455	218.44
237.689	164.44
237.922	129.44
238.156	122.44
238.39	135.44
238.624	120.44
238.858	125.44
239.091	116.44
239.325	120.44
239.559	126.44
239.793	121.44
240.027	132.44
240.26	131.44
240.494	134.44
240.728	152.44
240.961	153.44
241.195	128.44
241.429	125.44
241.662	134.44
241.896	121.44
242.13	112.44
242.363	123.44
242.597	143.44
242.83	147.44
243.064	136.44
243.298	127.44
243.531	124.44
243.765	126.44
243.998	129.44
244.232	146.44
244.465	143.44
244.699	161.44
244.932	127.44
245.166	140.44
245.399	149.44
245.633	148.44
245.866	153.44
246.099	150.44
246.333	166.44
246.566	132.44
246.8	161.44
247.033	154.44
247.266	160.44
247.5	172.44
247.733	168.44
247.966	148.44
248.2	157.44
248.433	172.44
248.666	172.44
248.899	180.44
249.133	188.44
249.366	197.44
249.599	188.44
249.832	187.44
250.066	185.44
250.299	188.44
250.532	190.44
250.765	200.44
250.998	221.44
251.231	216.44
251.465	214.44
251.698	206.44
251.931	195.44
252.164	182.44
252.397	186.44
252.63	209.44
252.863	192.44
253.096	213.44
253.329	213.44
253.562	216.44
253.795	203.44
254.028	223.44
254.261	199.44
254.494	234.44
254.727	257.44
254.96	260.44
255.193	260.44
255.426	230.44
255.659	221.44
255.892	219.44
256.124	236.44
256.357	222.44
256.59	217.44
256.823	218.44
257.056	220.44
257.289	220.44
257.521	204.44
257.754	204.44
257.987	217.44
258.22	195.44
258.452	213.44
258.685	200.44
258.918	213.44
259.151	207.44
259.383	217.44
259.616	211.44
259.849	216.44
260.081	229.44
260.314	236.44
260.547	256.44
260.779	258.44
261.012	233.44
261.244	225.44
261.477	249.44
261.71	228.44
261.942	220.44
262.175	223.44
262.407	241.44
262.64	210.44
262.872	206.44
263.105	192.44
263.337	216.44
263.57	221.44
263.802	227.44
264.035	206.44
264.267	215.44
264.499	232.44
264.732	214.44
264.964	244.44
265.197	213.44
265.429	220.44
265.661	230.44
265.894	236.44
266.126	228.44
266.358	238.44
266.591	219.44
266.823	238.44
267.055	229.44
267.287	228.44
267.52	222.44
267.752	232.44
267.984	244.44
268.216	233.44
268.448	258.44
268.681	244.44
268.913	258.44
269.145	271.44
269.377	260.44
269.609	276.44
269.841	275.44
270.073	271.44
270.306	292.44
270.538	307.44
270.77	312.44
271.002	296.44
271.234	288.44
271.466	292.44
271.698	289.44
271.93	320.44
272.162	298.44
272.394	316.44
272.626	298.44
272.858	300.44
273.09	284.44
273.322	276.44
273.553	266.44
273.785	255.44
274.017	273.44
274.249	289.44
274.481	273.44
274.713	263.44
274.945	262.44
275.176	262.44
275.408	272.44
275.64	278.44
275.872	245.44
276.104	265.44
276.335	253.44
276.567	272.44
276.799	295.44
277.031	300.44
277.262	330.44
277.494	322.44
277.726	314.44
277.957	289.44
278.189	282.44
278.421	286.44
278.652	281.44
278.884	280.44
279.115	286.44
279.347	264.44
279.579	288.44
279.81	265.44
280.042	272.44
280.273	289.44
280.505	274.44
280.736	262.44
280.968	277.44
281.199	278.44
281.431	290.44
281.662	284.44
281.894	289.44
282.125	292.44
282.356	291.44
282.588	292.44
282.819	325.44
283.051	309.44
283.282	274.44
283.513	289.44
283.745	279.44
283.976	281.44
284.207	306.44
284.439	291.44
284.67	294.44
284.901	302.44
285.132	289.44
285.364	303.44
285.595	306.44
285.826	279.44
286.057	297.44
286.288	310.44
286.52	301.44
286.751	292.44
286.982	301.44
287.213	302.44
287.444	305.44
287.675	305.44
287.906	309.44
288.138	308.44
288.369	320.44
288.6	327.44
288.831	304.44
289.062	308.44
289.293	298.44
289.524	305.44
289.755	306.44
289.986	303.44
290.217	305.44
290.448	295.44
290.679	305.44
290.91	310.44
291.141	283.44
291.371	307.44
291.602	304.44
291.833	297.44
292.064	310.44
292.295	311.44
292.526	303.44
292.757	297.44
292.987	304.44
293.218	313.44
293.449	325.44
293.68	299.44
293.91	306.44
294.141	304.44
294.372	290.44
294.603	304.44
294.833	317.44
295.064	292.44
295.295	302.44
295.525	288.44
295.756	319.44
295.987	326.44
296.217	333.44
296.448	321.44
296.679	330.44
296.909	293.44
297.14	312.44
297.37	313.44
297.601	323.44
297.831	322.44
298.062	310.44
298.292	308.44
298.523	321.44
298.753	333.44
298.984	339.44
299.214	321.44
299.445	324.44
299.675	309.44
299.905	342.44
300.136	323.44
300.366	338.44
300.597	326.44
300.827	316.44
301.057	344.44
301.288	342.44
301.518	341.44
301.748	335.44
301.979	350.44
302.209	335.44
302.439	354.44
302.669	345.44
302.9	349.44
303.13	364.44
303.36	346.44
303.59	338.44
303.82	341.44
304.051	346.44
304.281	338.44
304.511	345.44
304.741	338.44
304.971	346.44
305.201	327.44
305.431	332.44
305.661	347.44
305.891	365.44
306.121	343.44
306.352	335.44
306.582	344.44
306.812	351.44
307.042	354.44
307.272	348.44
307.502	351.44
307.731	357.44
307.961	368.44
308.191	321.44
308.421	348.44
308.651	357.44
308.881	351.44
309.111	364.44
309.341	364.44
309.571	350.44
309.8	354.44
310.03	366.44
310.26	382.44
310.49	382.44
310.72	372.44
310.949	387.44
311.179	410.44
311.409	373.44
311.639	395.44
311.868	382.44
312.098	389.44
312.328	373.44
312.557	388.44
312.787	401.44
313.017	401.44
313.246	390.44
313.476	360.44
313.706	362.44
313.935	383.44
314.165	419.44
314.394	405.44
314.624	400.44
314.853	395.44
315.083	378.44
315.312	394.44
315.542	362.44
315.771	387.44
316.001	391.44
316.23	367.44
316.46	370.44
316.689	393.44
316.919	386.44
317.148	404.44
317.377	383.44
317.607	373.44
317.836	392.44
318.065	390.44
318.295	383.44
318.524	357.44
318.753	374.44
318.983	376.44
319.212	397.44
319.441	400.44
319.67	386.44
319.9	402.44
320.129	373.44
320.358	389.44
320.587	391.44
320.816	394.44
321.046	405.44
321.275	393.44
321.504	393.44
321.733	414.44
321.962	421.44
322.191	406.44
322.42	417.44
322.649	458.44
322.878	452.44
323.108	423.44
323.337	457.44
323.566	466.44
323.795	476.44
324.024	498.44
324.253	613.44
324.482	840.44
324.71	1242.44
324.939	1820.44
325.168	1606.44
325.397	806.44
325.626	586.44
325.855	513.44
326.084	482.44
326.313	465.44
326.542	478.44
326.77	516.44
326.999	589.44
327.228	783.44
327.457	1143.44
327.686	1395.44
327.914	935.44
328.143	625.44
328.372	574.44
328.6	552.44
328.829	529.44
329.058	528.44
329.287	550.44
329.515	559.44
329.744	497.44
329.972	494.44
330.201	499.44
330.43	544.44
330.658	538.44
330.887	575.44
331.115	540.44
331.344	504.44
331.572	481.44
331.801	480.44
332.03	492.44
332.258	479.44
332.486	452.44
332.715	483.44
332.943	474.44
333.172	472.44
333.4	500.44
333.629	490.44
333.857	509.44
334.085	512.44
334.314	526.44
334.542	523.44
334.771	547.44
334.999	515.44
335.227	494.44
335.455	495.44
335.684	484.44
335.912	456.44
336.14	466.44
336.369	472.44
336.597	464.44
336.825	468.44
337.053	457.44
337.281	458.44
337.51	457.44
337.738	460.44
337.966	449.44
338.194	451.44
338.422	471.44
338.65	455.44
338.878	439.44
339.106	433.44
339.334	447.44
339.562	425.44
339.79	444.44
340.018	428.44
340.246	445.44
340.474	439.44
340.702	443.44
340.93	446.44
341.158	434.44
341.386	442.44
341.614	425.44
341.842	426.44
342.07	439.44
342.298	408.44
342.526	421.44
342.754	406.44
342.981	413.44
343.209	409.44
343.437	442.44
343.665	444.44
343.893	449.44
344.12	474.44
344.348	481.44
344.576	455.44
344.804	457.44
345.031	465.44
345.259	450.44
345.487	436.44
345.714	443.44
345.942	439.44
346.17	413.44
346.397	436.44
346.625	427.44
346.853	447.44
347.08	407.44
347.308	436.44
347.535	426.44
347.763	446.44
347.99	448.44
348.218	426.44
348.445	439.44
348.673	438.44
348.9	412.44
349.128	415.44
349.355	425.44
349.583	405.44
349.81	408.44
350.037	403.44
350.265	421.44
350.492	406.44
350.72	419.44
350.947	414.44
351.174	396.44
351.402	447.44
351.629	426.44
351.856	435.44
352.083	446.44
352.311	425.44
352.538	432.44
352.765	430.44
352.992	408.44
353.22	416.44
353.447	414.44
353.674	428.44
353.901	415.44
354.128	399.44
354.355	419.44
354.583	398.44
354.81	412.44
355.037	400.44
355.264	407.44
355.491	395.44
355.718	392.44
355.945	402.44
356.172	408.44
356.399	398.44
356.626	405.44
356.853	393.44
357.08	375.44
357.307	374.44
357.534	402.44
357.761	402.44
357.988	403.44
358.215	398.44
358.441	398.44
358.668	422.44
358.895	393.44
359.122	409.44
359.349	409.44
359.576	415.44
359.802	418.44
360.029	460.44
360.256	436.44
360.483	427.44
360.709	421.44
360.936	428.44
361.163	417.44
361.39	397.44
361.616	413.44
361.843	402.44
362.07	423.44
362.296	398.44
362.523	419.44
362.749	403.44
362.976	398.44
363.203	394.44
363.429	405.44
363.656	417.44
363.882	393.44
364.109	406.44
364.335	410.44
364.562	403.44
364.788	425.44
365.015	411.44
365.241	405.44
365.468	402.44
365.694	410.44
365.92	409.44
366.147	417.44
366.373	404.44
366.599	406.44
366.826	402.44
367.052	405.44
367.278	405.44
367.505	407.44
367.731	409.44
367.957	398.44
368.184	400.44
368.41	426.44
368.636	406.44
368.862	419.44
369.089	405.44
369.315	414.44
369.541	411.44
369.767	388.44
369.993	406.44
370.219	419.44
370.445	394.44
370.672	408.44
370.898	398.44
371.124	412.44
371.35	410.44
371.576	402.44
371.802	413.44
372.028	407.44
372.254	399.44
372.48	393.44
372.706	417.44
372.932	410.44
373.158	435.44
373.384	424.44
373.61	434.44
373.835	402.44
374.061	411.44
374.287	424.44
374.513	432.44
374.739	432.44
374.965	421.44
375.191	435.44
375.416	433.44
375.642	414.44
375.868	422.44
376.094	431.44
376.319	411.44
376.545	406.44
376.771	395.44
376.997	424.44
377.222	405.44
377.448	416.44
377.674	419.44
377.899	433.44
378.125	409.44
378.35	402.44
378.576	407.44
378.802	418.44
379.027	409.44
379.253	429.44
379.478	411.44
379.704	408.44
379.929	398.44
380.155	398.44
380.38	414.44
380.606	432.44
380.831	424.44
381.057	423.44
381.282	416.44
381.507	402.44
381.733	410.44
381.958	412.44
382.184	414.44
382.409	415.44
382.634	420.44
382.86	429.44
383.085	430.44
383.31	448.44
383.535	436.44
383.761	441.44
383.986	434.44
384.211	412.44
384.436	415.44
384.662	461.44
384.887	455.44
385.112	448.44
385.337	460.44
385.562	456.44
385.787	460.44
386.013	469.44
386.238	457.44
386.463	476.44
386.688	465.44
386.913	459.44
387.138	476.44
387.363	470.44
387.588	465.44
387.813	460.44
388.038	465.44
388.263	456.44
388.488	473.44
388.713	475.44
388.938	477.44
389.163	468.44
389.387	467.44
389.612	448.44
389.837	449.44
390.062	468.44
390.287	434.44
390.512	449.44
390.736	478.44
390.961	484.44
391.186	458.44
391.411	441.44
391.636	471.44
391.86	485.44
392.085	514.44
392.31	470.44
392.534	473.44
392.759	464.44
392.984	466.44
393.208	461.44
393.433	471.44
393.658	476.44
393.882	460.44
394.107	470.44
394.331	457.44
394.556	449.44
394.78	471.44
395.005	484.44
395.229	450.44
395.454	460.44
395.678	489.44
395.903	512.44
396.127	510.44
396.352	522.44
396.576	492.44
396.801	477.44
397.025	481.44
397.249	508.44
397.474	506.44
397.698	476.44
397.922	524.44
398.147	521.44
398.371	503.44
398.595	533.44
398.82	542.44
399.044	545.44
399.268	595.44
399.492	628.44
399.717	625.44
399.941	672.44
400.165	684.44
400.389	678.44
400.613	611.44
400.837	560.44
401.062	539.44
401.286	546.44
401.51	545.44
401.734	551.44
401.958	542.44
402.182	543.44
402.406	560.44
402.63	569.44
402.854	547.44
403.078	562.44
403.302	551.44
403.526	564.44
403.75	566.44
403.974	580.44
404.198	553.44
404.422	562.44
404.645	572.44
404.869	567.44
405.093	596.44
405.317	632.44
405.541	690.44
405.765	622.44
405.988	596.44
406.212	562.44
406.436	611.44
406.66	630.44
406.883	606.44
407.107	639.44
407.331	670.44
407.555	745.44
407.778	729.44
408.002	670.44
408.226	620.44
408.449	590.44
408.673	590.44
408.896	621.44
409.12	646.44
409.344	630.44
409.567	568.44
409.791	582.44
410.014	552.44
410.238	584.44
410.461	568.44
410.685	554.44
410.908	590.44
411.132	618.44
411.355	615.44
411.578	603.44
411.802	570.44
412.025	558.44
412.249	578.44
412.472	575.44
412.695	620.44
412.919	614.44
413.142	576.44
413.365	554.44
413.589	548.44
413.812	529.44
414.035	536.44
414.258	528.44
414.482	546.44
414.705	533.44
414.928	540.44
415.151	523.44
415.374	528.44
415.597	529.44
415.821	513.44
416.044	521.44
416.267	512.44
416.49	513.44
416.713	523.44
416.936	513.44
417.159	528.44
417.382	527.44
417.605	525.44
417.828	564.44
418.051	560.44
418.274	542.44
418.497	501.44
418.72	561.44
418.943	510.44
419.166	556.44
419.389	581.44
419.611	579.44
419.834	546.44
420.057	574.44
420.28	548.44
420.503	543.44
420.726	545.44
420.948	576.44
421.171	590.44
421.394	642.44
421.617	566.44
421.839	545.44
422.062	572.44
422.285	570.44
422.507	608.44
422.73	698.44
422.953	664.44
423.175	594.44
423.398	588.44
423.621	574.44
423.843	580.44
424.066	583.44
424.288	567.44
424.511	603.44
424.733	640.44
424.956	724.44
425.178	688.44
425.401	684.44
425.623	716.44
425.846	620.44
426.068	570.44
426.291	564.44
426.513	568.44
426.735	577.44
426.958	606.44
427.18	722.44
427.402	828.44
427.625	926.44
427.847	759.44
428.069	675.44
428.292	616.44
428.514	562.44
428.736	549.44
428.958	547.44
429.181	522.44
429.403	530.44
429.625	545.44
429.847	576.44
430.069	637.44
430.292	630.44
430.514	566.44
430.736	553.44
430.958	545.44
431.18	510.44
431.402	492.44
431.624	500.44
431.846	513.44
432.068	508.44
432.29	485.44
432.512	518.44
432.734	526.44
432.956	516.44
433.178	512.44
433.4	535.44
433.622	492.44
433.844	499.44
434.066	485.44
434.287	508.44
434.509	506.44
434.731	544.44
434.953	526.44
435.175	559.44
435.397	588.44
435.618	584.44
435.84	609.44
436.062	675.44
436.284	759.44
436.505	634.44
436.727	592.44
436.949	549.44
437.17	520.44
437.392	514.44
437.614	549.44
437.835	564.44
438.057	618.44
438.278	771.44
438.5	766.44
438.721	831.44
438.943	792.44
439.165	643.44
439.386	568.44
439.608	576.44
439.829	574.44
440.05	614.44
440.272	641.44
440.493	604.44
440.715	547.44
440.936	528.44
441.158	531.44
441.379	545.44
441.6	576.44
441.822	564.44
442.043	626.44
442.264	714.44
442.486	752.44
442.707	629.44
442.928	593.44
443.149	608.44
443.371	606.44
443.592	666.44
443.813	761.44
444.034	815.44
444.255	701.44
444.476	615.44
444.698	605.44
444.919	591.44
445.14	721.44
445.361	654.44
445.582	624.44
445.803	679.44
446.024	732.44
446.245	751.44
446.466	702.44
446.687	620.44
446.908	573.44
447.129	505.44
447.35	520.44
447.571	524.44
447.792	501.44
448.013	520.44
448.234	544.44
448.455	594.44
448.675	688.44
448.896	794.44
449.117	673.44
449.338	639.44
449.559	743.44
449.779	859.44
450	665.44
450.221	558.44
450.442	511.44
450.662	495.44
450.883	515.44
451.104	534.44
451.324	526.44
451.545	488.44
451.766	469.44
451.986	464.44
452.207	466.44
452.428	469.44
452.648	475.44
452.869	456.44
453.089	484.44
453.31	508.44
453.53	473.44
453.751	450.44
453.971	472.44
454.192	471.44
454.412	462.44
454.633	470.44
454.853	454.44
455.073	463.44
455.294	478.44
455.514	523.44
455.734	519.44
455.955	462.44
456.175	456.44
456.395	422.44
456.616	454.44
456.836	426.44
457.056	455.44
457.276	432.44
457.497	464.44
457.717	441.44
457.937	460.44
458.157	446.44
458.377	456.44
458.598	456.44
458.818	531.44
459.038	579.44
459.258	607.44
459.478	566.44
459.698	500.44
459.918	480.44
460.138	499.44
460.358	524.44
460.578	523.44
460.798	510.44
461.018	525.44
461.238	528.44
461.458	516.44
461.678	522.44
461.898	540.44
462.118	516.44
462.338	541.44
462.558	534.44
462.777	571.44
462.997	561.44
463.217	602.44
463.437	605.44
463.657	588.44
463.876	581.44
464.096	561.44
464.316	576.44
464.536	573.44
464.755	570.44
464.975	571.44
465.195	558.44
465.414	592.44
465.634	572.44
465.854	531.44
466.073	503.44
466.293	497.44
466.512	487.44
466.732	507.44
466.951	460.44
467.171	495.44
467.391	497.44
467.61	486.44
467.829	504.44
468.049	498.44
468.268	509.44
468.488	477.44
468.707	463.44
468.927	480.44
469.146	483.44
469.365	483.44
469.585	482.44
469.804	489.44
470.023	495.44
470.243	484.44
470.462	468.44
470.681	520.44
470.901	501.44
471.12	483.44
471.339	473.44
471.558	490.44
471.777	501.44
471.997	492.44
472.216	497.44
472.435	521.44
472.654	491.44
472.873	481.44
473.092	477.44
473.311	482.44
473.53	475.44
473.749	507.44
473.968	538.44
474.187	632.44
474.406	636.44
474.625	550.44
474.844	498.44
475.063	497.44
475.282	486.44
475.501	480.44
475.72	488.44
475.939	473.44
476.158	519.44
476.377	482.44
476.596	508.44
476.814	506.44
477.033	497.44
477.252	515.44
477.471	511.44
477.69	516.44
477.908	498.44
478.127	552.44
478.346	516.44
478.564	550.44
478.783	567.44
479.002	558.44
479.22	592.44
479.439	571.44
479.658	575.44
479.876	566.44
480.095	594.44
480.313	630.44
480.532	644.44
480.751	617.44
480.969	630.44
481.188	632.44
481.406	662.44
481.624	583.44
481.843	593.44
482.061	574.44
482.28	583.44
482.498	590.44
482.717	565.44
482.935	580.44
483.153	566.44
483.372	576.44
483.59	578.44
483.808	566.44
484.027	560.44
484.245	562.44
484.463	566.44
484.681	584.44
484.9	579.44
485.118	589.44
485.336	568.44
485.554	577.44
485.772	560.44
485.99	599.44
486.209	591.44
486.427	565.44
486.645	593.44
486.863	636.44
487.081	624.44
487.299	611.44
487.517	599.44
487.735	616.44
487.953	631.44
488.171	601.44
488.389	601.44
488.607	601.44
488.825	634.44
489.043	622.44
489.261	621.44
489.479	605.44
489.696	626.44
489.914	629.44
490.132	630.44
490.35	638.44
490.568	644.44
490.786	674.44
491.003	651.44
491.221	658.44
491.439	682.44
491.657	686.44
491.874	694.44
492.092	681.44
492.31	698.44
492.527	686.44
492.745	693.44
492.963	711.44
493.18	693.44
493.398	736.44
493.615	727.44
493.833	718.44
494.05	714.44
494.268	719.44
494.485	717.44
494.703	708.44
494.92	720.44
495.138	690.44
495.355	727.44
495.573	720.44
495.79	690.44
496.008	720.44
496.225	701.44
496.442	726.44
496.66	732.44
496.877	728.44
497.094	732.44
497.312	771.44
497.529	745.44
497.746	772.44
497.963	738.44
498.181	766.44
498.398	801.44
498.615	830.44
498.832	851.44
499.049	870.44
499.267	890.44
499.484	951.44
499.701	979.44
499.918	1034.44
500.135	1073.44
500.352	1107.44
500.569	1157.44
500.786	1166.44
501.003	1138.44
501.22	1081.44
501.437	1053.44
501.654	995.44
501.871	1003.44
502.088	931.44
502.305	890.44
502.522	881.44
502.739	829.44
502.956	818.44
503.172	770.44
503.389	772.44
503.606	779.44
503.823	756.44
504.04	751.44
504.256	744.44
504.473	765.44
504.69	740.44
504.907	719.44
505.123	717.44
505.34	709.44
505.557	705.44
505.773	670.44
505.99	678.44
506.207	684.44
506.423	677.44
506.64	676.44
506.856	660.44
507.073	653.44
507.289	666.44
507.506	686.44
507.722	653.44
507.939	657.44
508.155	638.44
508.372	640.44
508.588	629.44
508.805	634.44
509.021	638.44
509.238	662.44
509.454	658.44
509.67	650.44
509.887	626.44
510.103	610.44
510.319	627.44
510.536	680.44
510.752	1021.44
510.968	840.44
511.184	647.44
511.401	608.44
511.617	594.44
511.833	580.44
512.049	610.44
512.265	606.44
512.481	588.44
512.698	578.44
512.914	597.44
513.13	608.44
513.346	579.44
513.562	591.44
513.778	607.44
513.994	591.44
514.21	603.44
514.426	609.44
514.642	656.44
514.858	667.44
515.074	682.44
515.29	803.44
515.506	1040.44
515.721	894.44
515.937	681.44
516.153	656.44
516.369	620.44
516.585	644.44
516.801	628.44
517.016	618.44
517.232	628.44
517.448	662.44
517.664	656.44
517.879	641.44
518.095	644.44
518.311	653.44
518.527	636.44
518.742	616.44
518.958	630.44
519.173	626.44
519.389	619.44
519.605	602.44
519.82	608.44
520.036	610.44
520.251	633.44
520.467	650.44
520.682	620.44
520.898	623.44
521.113	645.44
521.329	685.44
521.544	712.44
521.76	830.44
521.975	1257.44
522.19	1237.44
522.406	788.44
522.621	619.44
522.836	601.44
523.052	581.44
523.267	557.44
523.482	557.44
523.698	543.44
523.913	537.44
524.128	545.44
524.343	541.44
524.559	529.44
524.774	522.44
524.989	546.44
525.204	552.44
525.419	528.44
525.634	503.44
525.849	513.44
526.064	503.44
526.28	520.44
526.495	509.44
526.71	506.44
526.925	492.44
527.14	492.44
527.355	487.44
527.57	526.44
527.785	518.44
527.999	517.44
528.214	484.44
528.429	490.44
528.644	494.44
528.859	501.44
529.074	492.44
529.289	519.44
529.503	574.44
529.718	554.44
529.933	512.44
530.148	505.44
530.363	489.44
530.577	485.44
530.792	491.44
531.007	481.44
531.221	493.44
531.436	494.44
531.651	505.44
531.865	494.44
532.08	481.44
532.295	480.44
532.509	480.44
532.724	473.44
532.938	492.44
533.153	476.44
533.367	471.44
533.582	479.44
533.796	489.44
534.011	476.44
534.225	480.44
534.44	473.44
534.654	492.44
534.868	485.44
535.083	457.44
535.297	463.44
535.511	484.44
535.726	486.44
535.94	486.44
536.154	482.44
536.369	484.44
536.583	450.44
536.797	474.44
537.011	450.44
537.225	462.44
537.44	460.44
537.654	470.44
537.868	449.44
538.082	464.44
538.296	476.44
538.51	468.44
538.724	453.44
538.938	447.44
539.153	460.44
539.367	481.44
539.581	464.44
539.795	451.44
540.009	458.44
540.222	453.44
540.436	457.44
540.65	444.44
540.864	466.44
541.078	469.44
541.292	466.44
541.506	465.44
541.72	447.44
541.934	468.44
542.147	479.44
542.361	458.44
542.575	448.44
542.789	470.44
543.002	452.44
543.216	454.44
543.43	469.44
543.644	461.44
543.857	448.44
544.071	442.44
544.285	456.44
544.498	443.44
544.712	455.44
544.925	465.44
545.139	447.44
545.352	442.44
545.566	472.44
545.779	460.44
545.993	474.44
546.206	453.44
546.42	436.44
546.633	449.44
546.847	437.44
547.06	457.44
547.274	477.44
547.487	455.44
547.7	453.44
547.914	462.44
548.127	436.44
548.34	459.44
548.554	467.44
548.767	451.44
548.98	452.44
549.193	458.44
549.407	437.44
549.62	462.44
549.833	473.44
550.046	439.44
550.259	441.44
550.473	443.44
550.686	446.44
550.899	448.44
551.112	447.44
551.325	418.44
551.538	429.44
551.751	476.44
551.964	443.44
552.177	449.44
552.39	443.44
552.603	453.44
552.816	434.44
553.029	451.44
553.242	445.44
553.455	439.44
553.667	472.44
553.88	473.44
554.093	455.44
554.306	454.44
554.519	457.44
554.732	466.44
554.944	453.44
555.157	423.44
555.37	455.44
555.583	430.44
555.795	439.44
556.008	423.44
556.221	401.44
556.433	408.44
556.646	397.44
556.859	400.44
557.071	405.44
557.284	405.44
557.496	393.44
557.709	406.44
557.921	394.44
558.134	390.44
558.346	412.44
558.559	406.44
558.771	388.44
558.984	390.44
559.196	386.44
559.409	406.44
559.621	391.44
559.833	394.44
560.046	378.44
560.258	385.44
560.47	386.44
560.683	400.44
560.895	378.44
561.107	389.44
561.32	376.44
561.532	387.44
561.744	380.44
561.956	402.44
562.168	391.44
562.381	394.44
562.593	417.44
562.805	398.44
563.017	405.44
563.229	381.44
563.441	414.44
563.653	394.44
563.865	414.44
564.077	394.44
564.289	405.44
564.501	400.44
564.713	426.44
564.925	421.44
565.137	450.44
565.349	442.44
565.561	429.44
565.773	412.44
565.985	492.44
566.197	468.44
566.408	464.44
566.62	497.44
566.832	518.44
567.044	522.44
567.255	511.44
567.467	543.44
567.679	531.44
567.891	566.44
568.102	554.44
568.314	561.44
568.526	513.44
568.737	514.44
568.949	465.44
569.161	460.44
569.372	438.44
569.584	425.44
569.795	432.44
570.007	428.44
570.218	461.44
570.43	433.44
570.641	399.44
570.853	394.44
571.064	402.44
571.276	405.44
571.487	402.44
571.698	384.44
571.91	354.44
572.121	364.44
572.333	360.44
572.544	356.44
572.755	377.44
572.966	365.44
573.178	369.44
573.389	359.44
573.6	337.44
573.811	364.44
574.023	352.44
574.234	359.44
574.445	350.44
574.656	354.44
574.867	364.44
575.078	372.44
575.289	348.44
575.501	332.44
575.712	332.44
575.923	375.44
576.134	327.44
576.345	353.44
576.556	338.44
576.767	332.44
576.978	350.44
577.188	336.44
577.399	337.44
577.61	325.44
577.821	319.44
578.032	322.44
578.243	353.44
578.454	494.44
578.665	376.44
578.875	329.44
579.086	321.44
579.297	322.44
579.508	332.44
579.718	317.44
579.929	315.44
580.14	308.44
580.35	319.44
580.561	325.44
580.772	309.44
580.982	314.44
581.193	293.44
581.403	306.44
581.614	303.44
581.825	309.44
582.035	303.44
582.246	309.44
582.456	314.44
582.667	313.44
582.877	318.44
583.087	303.44
583.298	310.44
583.508	319.44
583.719	306.44
583.929	310.44
584.139	295.44
584.35	291.44
584.56	291.44
584.77	309.44
584.981	306.44
585.191	309.44
585.401	309.44
585.611	312.44
585.821	284.44
586.032	297.44
586.242	289.44
586.452	301.44
586.662	309.44
586.872	305.44
587.082	303.44
587.292	303.44
587.502	291.44
587.713	302.44
587.923	280.44
588.133	312.44
588.343	310.44
588.553	282.44
588.762	288.44
588.972	304.44
589.182	301.44
589.392	303.44
589.602	284.44
589.812	289.44
590.022	297.44
590.232	298.44
590.441	309.44
590.651	297.44
590.861	297.44
591.071	307.44
591.281	296.44
591.49	309.44
591.7	310.44
591.91	307.44
592.119	301.44
592.329	323.44
592.539	302.44
592.748	312.44
592.958	328.44
593.167	327.44
593.377	317.44
593.587	336.44
593.796	318.44
594.006	318.44
594.215	316.44
594.424	338.44
594.634	336.44
594.843	321.44
595.053	310.44
595.262	317.44
595.472	316.44
595.681	302.44
595.89	308.44
596.1	288.44
596.309	290.44
596.518	286.44
596.727	278.44
596.937	297.44
597.146	308.44
597.355	293.44
597.564	275.44
597.774	281.44
597.983	266.44
598.192	269.44
598.401	284.44
598.61	257.44
598.819	276.44
599.028	252.44
599.237	268.44
599.446	272.44
599.655	276.44
599.864	254.44
600.073	273.44
600.282	272.44
600.491	270.44
600.7	250.44
600.909	281.44
601.118	253.44
601.327	264.44
601.536	275.44
601.745	270.44
601.953	287.44
602.162	260.44
602.371	257.44
602.58	261.44
602.789	266.44
602.997	269.44
603.206	252.44
603.415	261.44
603.623	260.44
603.832	244.44
604.041	255.44
604.249	266.44
604.458	256.44
604.666	243.44
604.875	242.44
605.084	248.44
605.292	272.44
605.501	254.44
605.709	265.44
605.918	238.44
606.126	266.44
606.334	253.44
606.543	252.44
606.751	243.44
606.96	239.44
607.168	237.44
607.376	254.44
607.585	258.44
607.793	247.44
608.001	246.44
608.21	248.44
608.418	256.44
608.626	259.44
608.834	272.44
609.043	264.44
609.251	248.44
609.459	235.44
609.667	241.44
609.875	248.44
610.083	236.44
610.291	241.44
610.499	224.44
610.707	258.44
610.916	249.44
611.124	245.44
611.332	236.44
611.54	250.44
611.748	238.44
611.955	250.44
612.163	254.44
612.371	241.44
612.579	246.44
612.787	245.44
612.995	234.44
613.203	261.44
613.411	247.44
613.618	234.44
613.826	252.44
614.034	255.44
614.242	254.44
614.449	244.44
614.657	252.44
614.865	250.44
615.072	239.44
615.28	233.44
615.488	227.44
615.695	245.44
615.903	229.44
616.111	238.44
616.318	232.44
616.526	243.44
616.733	254.44
616.941	254.44
617.148	236.44
617.356	243.44
617.563	230.44
617.771	237.44
617.978	244.44
618.185	230.44
618.393	228.44
618.6	234.44
618.807	237.44
619.015	228.44
619.222	220.44
619.429	225.44
619.637	238.44
619.844	217.44
620.051	215.44
620.258	221.44
620.466	220.44
620.673	236.44
620.88	237.44
621.087	206.44
621.294	229.44
621.501	214.44
621.708	225.44
621.915	202.44
622.122	239.44
622.329	228.44
622.536	219.44
622.743	220.44
622.95	238.44
623.157	220.44
623.364	202.44
623.571	205.44
623.778	215.44
623.985	224.44
624.192	221.44
624.399	196.44
624.606	202.44
624.812	199.44
625.019	208.44
625.226	209.44
625.433	222.44
625.639	214.44
625.846	205.44
626.053	213.44
626.259	207.44
626.466	212.44
626.673	201.44
626.879	205.44
627.086	199.44
627.293	193.44
627.499	213.44
627.706	209.44
627.912	208.44
628.119	204.44
628.325	209.44
628.532	207.44
628.738	206.44
628.945	215.44
629.151	204.44
629.357	201.44
629.564	184.44
629.77	190.44
629.976	188.44
630.183	208.44
630.389	190.44
630.595	208.44
630.802	183.44
631.008	202.44
631.214	199.44
631.42	181.44
631.627	208.44
631.833	188.44
632.039	209.44
632.245	195.44
632.451	196.44
632.657	190.44
632.863	193.44
633.069	196.44
633.275	183.44
633.481	196.44
633.688	180.44
633.893	180.44
634.099	196.44
634.305	191.44
634.511	184.44
634.717	188.44
634.923	178.44
635.129	168.44
635.335	186.44
635.541	184.44
635.747	182.44
635.952	184.44
636.158	208.44
636.364	171.44
636.57	185.44
636.775	179.44
636.981	190.44
637.187	191.44
637.392	183.44
637.598	181.44
637.804	190.44
638.009	178.44
638.215	169.44
638.421	189.44
638.626	168.44
638.832	181.44
639.037	167.44
639.243	166.44
639.448	181.44
639.654	178.44
639.859	183.44
640.065	173.44
640.27	180.44
640.475	167.44
640.681	167.44
640.886	179.44
641.091	178.44
641.297	164.44
641.502	168.44
641.707	161.44
641.913	164.44
642.118	169.44
642.323	165.44
642.528	167.44
642.733	167.44
642.939	169.44
643.144	166.44
643.349	163.44
643.554	171.44
643.759	164.44
643.964	174.44
644.169	158.44
644.374	159.44
644.579	155.44
644.784	166.44
644.989	173.44
645.194	176.44
645.399	170.44
645.604	165.44
645.809	174.44
646.014	169.44
646.219	166.44
646.423	168.44
646.628	153.44
646.833	179.44
647.038	169.44
647.243	169.44
647.447	162.44
647.652	164.44
647.857	176.44
648.062	174.44
648.266	177.44
648.471	174.44
648.676	175.44
648.88	157.44
649.085	177.44
649.289	185.44
649.494	165.44
649.698	191.44
649.903	176.44
650.107	177.44
650.312	164.44
650.516	158.44
650.721	154.44
650.925	169.44
651.13	154.44
651.334	146.44
651.539	151.44
651.743	148.44
651.947	148.44
652.152	156.44
652.356	142.44
652.56	157.44
652.764	152.44
652.969	143.44
653.173	150.44
653.377	138.44
653.581	139.44
653.785	148.44
653.99	143.44
654.194	138.44
654.398	144.44
654.602	132.44
654.806	148.44
655.01	147.44
655.214	139.44
655.418	131.44
655.622	138.44
655.826	147.44
656.03	130.44
656.234	128.44
656.438	130.44
656.642	157.44
656.846	129.44
657.049	143.44
657.253	130.44
657.457	102.44
657.661	120.44
657.865	117.44
658.068	103.44
658.272	97.44
658.476	103.44
658.68	100.44
658.883	100.44
659.087	97.44
659.291	118.44
659.494	89.44
659.698	89.44
659.901	92.44
660.105	80.44
660.309	74.44
660.512	112.44
660.716	102.44
660.919	97.44
661.123	82.44
661.326	87.44
661.53	78.44
661.733	81.44
661.936	82.44
662.14	81.44
662.343	72.44
662.546	72.44
662.75	80.44
662.953	93.44
663.156	83.44
663.36	85.44
663.563	79.44
663.766	78.44
663.969	77.44
664.173	77.44
664.376	78.44
664.579	87.44
664.782	73.44
664.985	90.44
665.188	79.44
665.391	74.44
665.594	85.44
665.797	73.44
666	85.44
666.203	74.44
666.406	82.44
666.609	87.44
666.812	78.44
667.015	73.44
667.218	74.44
667.421	77.44
667.624	87.44
667.827	84.44
668.03	83.44
668.232	61.44
668.435	81.44
668.638	67.44
668.841	57.44
669.043	83.44
669.246	82.44
669.449	80.44
669.651	77.44
669.854	103.44
670.057	74.44
670.259	85.44
670.462	80.44
670.665	68.44
670.867	77.44
671.07	80.44
671.272	79.44
671.475	98.44
671.677	83.44
671.88	70.44
672.082	71.44
672.284	75.44
672.487	80.44
672.689	78.44
672.892	72.44
