Data from 1976.PennyLincolnUp.Lamp.En5.5.200Scan.071719.P1.Changed Mount._HRD10591_15-59-45-860.txt Node
Date: Thu Jul 18 15:59:45 EDT 2019
User: cochatt
Spectrometer: HR+D1059
Trigger mode: 1
Integration Time (sec): 1.000000E-1
Scans to average: 1
Electric dark correction enabled: true
Nonlinearity correction enabled: false
Boxcar width: 0
XAxis mode: Wavelengths
Number of Pixels in Spectrum: 2048
>>>>>Begin Spectral Data<<<<<
223.165	-19.56
223.4	-19.56
223.635	-19.56
223.869	-20.56
224.104	-8.56
224.338	-20.56
224.573	-19.56
224.808	6.44
225.042	-2.56
225.277	-18.56
225.511	-4.56
225.746	-0.56
225.98	5.44
226.215	9.44
226.449	21.44
226.683	17.44
226.918	28.44
227.152	26.44
227.387	27.44
227.621	36.44
227.856	53.44
228.09	58.44
228.324	57.44
228.559	61.44
228.793	61.44
229.027	76.44
229.262	93.44
229.496	97.44
229.73	107.44
229.964	146.44
230.199	111.44
230.433	102.44
230.667	97.44
230.901	108.44
231.136	103.44
231.37	104.44
231.604	118.44
231.838	115.44
232.072	118.44
232.306	103.44
232.541	117.44
232.775	120.44
233.009	116.44
233.243	114.44
233.477	110.44
233.711	121.44
233.945	105.44
234.179	125.44
234.413	109.44
234.647	114.44
234.881	112.44
235.115	98.44
235.349	102.44
235.583	115.44
235.817	107.44
236.051	110.44
236.285	119.44
236.519	122.44
236.753	125.44
236.987	120.44
237.221	161.44
237.455	217.44
237.689	171.44
237.922	126.44
238.156	125.44
238.39	121.44
238.624	122.44
238.858	129.44
239.091	133.44
239.325	121.44
239.559	121.44
239.793	116.44
240.027	125.44
240.26	136.44
240.494	139.44
240.728	124.44
240.961	147.44
241.195	141.44
241.429	129.44
241.662	142.44
241.896	138.44
242.13	118.44
242.363	130.44
242.597	124.44
242.83	129.44
243.064	129.44
243.298	129.44
243.531	125.44
243.765	110.44
243.998	154.44
244.232	131.44
244.465	138.44
244.699	140.44
244.932	136.44
245.166	136.44
245.399	141.44
245.633	147.44
245.866	139.44
246.099	138.44
246.333	138.44
246.566	153.44
246.8	147.44
247.033	164.44
247.266	161.44
247.5	168.44
247.733	169.44
247.966	175.44
248.2	168.44
248.433	148.44
248.666	164.44
248.899	165.44
249.133	179.44
249.366	193.44
249.599	182.44
249.832	172.44
250.066	153.44
250.299	167.44
250.532	207.44
250.765	188.44
250.998	208.44
251.231	206.44
251.465	220.44
251.698	191.44
251.931	191.44
252.164	197.44
252.397	191.44
252.63	206.44
252.863	212.44
253.096	214.44
253.329	211.44
253.562	190.44
253.795	195.44
254.028	198.44
254.261	197.44
254.494	207.44
254.727	244.44
254.96	259.44
255.193	235.44
255.426	221.44
255.659	219.44
255.892	211.44
256.124	216.44
256.357	217.44
256.59	199.44
256.823	201.44
257.056	193.44
257.289	209.44
257.521	205.44
257.754	220.44
257.987	219.44
258.22	209.44
258.452	207.44
258.685	199.44
258.918	198.44
259.151	202.44
259.383	198.44
259.616	196.44
259.849	214.44
260.081	227.44
260.314	235.44
260.547	259.44
260.779	222.44
261.012	222.44
261.244	227.44
261.477	213.44
261.71	215.44
261.942	233.44
262.175	210.44
262.407	211.44
262.64	217.44
262.872	200.44
263.105	191.44
263.337	209.44
263.57	203.44
263.802	210.44
264.035	204.44
264.267	212.44
264.499	212.44
264.732	194.44
264.964	212.44
265.197	202.44
265.429	203.44
265.661	215.44
265.894	212.44
266.126	218.44
266.358	226.44
266.591	236.44
266.823	223.44
267.055	228.44
267.287	227.44
267.52	218.44
267.752	225.44
267.984	242.44
268.216	231.44
268.448	237.44
268.681	237.44
268.913	219.44
269.145	245.44
269.377	273.44
269.609	258.44
269.841	259.44
270.073	261.44
270.306	286.44
270.538	314.44
270.77	300.44
271.002	289.44
271.234	271.44
271.466	287.44
271.698	278.44
271.93	289.44
272.162	305.44
272.394	314.44
272.626	297.44
272.858	270.44
273.09	267.44
273.322	266.44
273.553	264.44
273.785	257.44
274.017	258.44
274.249	244.44
274.481	254.44
274.713	268.44
274.945	277.44
275.176	277.44
275.408	263.44
275.64	246.44
275.872	247.44
276.104	275.44
276.335	297.44
276.567	274.44
276.799	287.44
277.031	289.44
277.262	283.44
277.494	309.44
277.726	297.44
277.957	285.44
278.189	276.44
278.421	284.44
278.652	263.44
278.884	249.44
279.115	267.44
279.347	283.44
279.579	275.44
279.81	262.44
280.042	275.44
280.273	259.44
280.505	262.44
280.736	259.44
280.968	242.44
281.199	274.44
281.431	281.44
281.662	269.44
281.894	251.44
282.125	262.44
282.356	281.44
282.588	296.44
282.819	286.44
283.051	286.44
283.282	252.44
283.513	300.44
283.745	286.44
283.976	292.44
284.207	276.44
284.439	283.44
284.67	295.44
284.901	273.44
285.132	282.44
285.364	296.44
285.595	285.44
285.826	276.44
286.057	283.44
286.288	286.44
286.52	286.44
286.751	293.44
286.982	285.44
287.213	293.44
287.444	311.44
287.675	292.44
287.906	292.44
288.138	305.44
288.369	297.44
288.6	321.44
288.831	297.44
289.062	315.44
289.293	306.44
289.524	292.44
289.755	290.44
289.986	275.44
290.217	281.44
290.448	290.44
290.679	301.44
290.91	292.44
291.141	290.44
291.371	300.44
291.602	284.44
291.833	286.44
292.064	293.44
292.295	280.44
292.526	279.44
292.757	277.44
292.987	310.44
293.218	312.44
293.449	302.44
293.68	289.44
293.91	294.44
294.141	309.44
294.372	294.44
294.603	321.44
294.833	296.44
295.064	302.44
295.295	296.44
295.525	297.44
295.756	317.44
295.987	310.44
296.217	325.44
296.448	322.44
296.679	300.44
296.909	305.44
297.14	311.44
297.37	315.44
297.601	300.44
297.831	307.44
298.062	296.44
298.292	297.44
298.523	307.44
298.753	327.44
298.984	319.44
299.214	313.44
299.445	311.44
299.675	301.44
299.905	327.44
300.136	312.44
300.366	321.44
300.597	326.44
300.827	331.44
301.057	341.44
301.288	313.44
301.518	331.44
301.748	319.44
301.979	340.44
302.209	314.44
302.439	339.44
302.669	337.44
302.9	330.44
303.13	329.44
303.36	325.44
303.59	317.44
303.82	350.44
304.051	340.44
304.281	342.44
304.511	342.44
304.741	328.44
304.971	342.44
305.201	319.44
305.431	346.44
305.661	327.44
305.891	326.44
306.121	318.44
306.352	335.44
306.582	343.44
306.812	352.44
307.042	337.44
307.272	325.44
307.502	334.44
307.731	321.44
307.961	333.44
308.191	338.44
308.421	345.44
308.651	325.44
308.881	333.44
309.111	333.44
309.341	349.44
309.571	348.44
309.8	363.44
310.03	353.44
310.26	350.44
310.49	350.44
310.72	351.44
310.949	366.44
311.179	369.44
311.409	361.44
311.639	355.44
311.868	360.44
312.098	361.44
312.328	362.44
312.557	377.44
312.787	394.44
313.017	385.44
313.246	383.44
313.476	359.44
313.706	369.44
313.935	364.44
314.165	381.44
314.394	375.44
314.624	384.44
314.853	389.44
315.083	377.44
315.312	372.44
315.542	371.44
315.771	379.44
316.001	361.44
316.23	373.44
316.46	371.44
316.689	374.44
316.919	377.44
317.148	386.44
317.377	379.44
317.607	377.44
317.836	360.44
318.065	365.44
318.295	355.44
318.524	375.44
318.753	366.44
318.983	372.44
319.212	374.44
319.441	368.44
319.67	379.44
319.9	375.44
320.129	375.44
320.358	380.44
320.587	379.44
320.816	374.44
321.046	398.44
321.275	370.44
321.504	399.44
321.733	404.44
321.962	376.44
322.191	397.44
322.42	398.44
322.649	405.44
322.878	399.44
323.108	413.44
323.337	415.44
323.566	441.44
323.795	460.44
324.024	478.44
324.253	572.44
324.482	752.44
324.71	1100.44
324.939	1637.44
325.168	1397.44
325.397	716.44
325.626	515.44
325.855	462.44
326.084	438.44
326.313	452.44
326.542	423.44
326.77	469.44
326.999	535.44
327.228	700.44
327.457	1016.44
327.686	1250.44
327.914	830.44
328.143	581.44
328.372	505.44
328.6	518.44
328.829	478.44
329.058	503.44
329.287	497.44
329.515	486.44
329.744	460.44
329.972	459.44
330.201	446.44
330.43	489.44
330.658	515.44
330.887	533.44
331.115	526.44
331.344	463.44
331.572	439.44
331.801	446.44
332.03	456.44
332.258	444.44
332.486	445.44
332.715	446.44
332.943	457.44
333.172	468.44
333.4	461.44
333.629	468.44
333.857	487.44
334.085	489.44
334.314	494.44
334.542	498.44
334.771	506.44
334.999	452.44
335.227	467.44
335.455	446.44
335.684	446.44
335.912	461.44
336.14	441.44
336.369	441.44
336.597	428.44
336.825	437.44
337.053	444.44
337.281	426.44
337.51	421.44
337.738	433.44
337.966	427.44
338.194	443.44
338.422	449.44
338.65	431.44
338.878	441.44
339.106	427.44
339.334	427.44
339.562	436.44
339.79	407.44
340.018	395.44
340.246	399.44
340.474	419.44
340.702	400.44
340.93	425.44
341.158	417.44
341.386	415.44
341.614	421.44
341.842	411.44
342.07	430.44
342.298	420.44
342.526	423.44
342.754	417.44
342.981	391.44
343.209	402.44
343.437	445.44
343.665	445.44
343.893	437.44
344.12	437.44
344.348	444.44
344.576	445.44
344.804	414.44
345.031	443.44
345.259	424.44
345.487	432.44
345.714	409.44
345.942	434.44
346.17	414.44
346.397	399.44
346.625	414.44
346.853	397.44
347.08	410.44
347.308	392.44
347.535	404.44
347.763	397.44
347.99	433.44
348.218	411.44
348.445	395.44
348.673	409.44
348.9	401.44
349.128	415.44
349.355	386.44
349.583	385.44
349.81	379.44
350.037	389.44
350.265	383.44
350.492	386.44
350.72	391.44
350.947	391.44
351.174	422.44
351.402	409.44
351.629	396.44
351.856	390.44
352.083	419.44
352.311	417.44
352.538	414.44
352.765	413.44
352.992	401.44
353.22	408.44
353.447	392.44
353.674	387.44
353.901	392.44
354.128	400.44
354.355	383.44
354.583	406.44
354.81	401.44
355.037	389.44
355.264	386.44
355.491	365.44
355.718	379.44
355.945	387.44
356.172	391.44
356.399	384.44
356.626	379.44
356.853	394.44
357.08	383.44
357.307	395.44
357.534	373.44
357.761	377.44
357.988	385.44
358.215	391.44
358.441	387.44
358.668	380.44
358.895	385.44
359.122	385.44
359.349	400.44
359.576	412.44
359.802	407.44
360.029	413.44
360.256	411.44
360.483	424.44
360.709	380.44
360.936	418.44
361.163	400.44
361.39	404.44
361.616	414.44
361.843	378.44
362.07	406.44
362.296	400.44
362.523	385.44
362.749	403.44
362.976	414.44
363.203	375.44
363.429	388.44
363.656	392.44
363.882	376.44
364.109	397.44
364.335	387.44
364.562	391.44
364.788	388.44
365.015	390.44
365.241	393.44
365.468	394.44
365.694	402.44
365.92	407.44
366.147	375.44
366.373	382.44
366.599	394.44
366.826	380.44
367.052	377.44
367.278	396.44
367.505	378.44
367.731	388.44
367.957	383.44
368.184	399.44
368.41	392.44
368.636	413.44
368.862	402.44
369.089	389.44
369.315	381.44
369.541	396.44
369.767	400.44
369.993	409.44
370.219	403.44
370.445	380.44
370.672	398.44
370.898	381.44
371.124	382.44
371.35	389.44
371.576	400.44
371.802	385.44
372.028	381.44
372.254	393.44
372.48	384.44
372.706	423.44
372.932	379.44
373.158	421.44
373.384	408.44
373.61	411.44
373.835	413.44
374.061	402.44
374.287	401.44
374.513	413.44
374.739	414.44
374.965	429.44
375.191	423.44
375.416	395.44
375.642	407.44
375.868	420.44
376.094	408.44
376.319	400.44
376.545	394.44
376.771	397.44
376.997	393.44
377.222	407.44
377.448	391.44
377.674	402.44
377.899	407.44
378.125	389.44
378.35	391.44
378.576	388.44
378.802	393.44
379.027	425.44
379.253	390.44
379.478	370.44
379.704	396.44
379.929	404.44
380.155	374.44
380.38	394.44
380.606	393.44
380.831	393.44
381.057	415.44
381.282	403.44
381.507	394.44
381.733	423.44
381.958	388.44
382.184	393.44
382.409	410.44
382.634	417.44
382.86	414.44
383.085	401.44
383.31	411.44
383.535	420.44
383.761	431.44
383.986	435.44
384.211	437.44
384.436	425.44
384.662	435.44
384.887	444.44
385.112	447.44
385.337	438.44
385.562	457.44
385.787	442.44
386.013	469.44
386.238	457.44
386.463	455.44
386.688	459.44
386.913	442.44
387.138	444.44
387.363	450.44
387.588	454.44
387.813	460.44
388.038	460.44
388.263	449.44
388.488	460.44
388.713	446.44
388.938	441.44
389.163	449.44
389.387	427.44
389.612	428.44
389.837	465.44
390.062	428.44
390.287	437.44
390.512	446.44
390.736	423.44
390.961	439.44
391.186	451.44
391.411	461.44
391.636	460.44
391.86	460.44
392.085	453.44
392.31	461.44
392.534	471.44
392.759	459.44
392.984	443.44
393.208	452.44
393.433	458.44
393.658	438.44
393.882	460.44
394.107	438.44
394.331	453.44
394.556	434.44
394.78	461.44
395.005	481.44
395.229	441.44
395.454	454.44
395.678	478.44
395.903	464.44
396.127	516.44
396.352	509.44
396.576	476.44
396.801	469.44
397.025	469.44
397.249	476.44
397.474	477.44
397.698	505.44
397.922	494.44
398.147	506.44
398.371	503.44
398.595	487.44
398.82	503.44
399.044	534.44
399.268	561.44
399.492	577.44
399.717	617.44
399.941	635.44
400.165	662.44
400.389	654.44
400.613	594.44
400.837	583.44
401.062	526.44
401.286	531.44
401.51	541.44
401.734	544.44
401.958	561.44
402.182	511.44
402.406	509.44
402.63	505.44
402.854	527.44
403.078	528.44
403.302	516.44
403.526	558.44
403.75	549.44
403.974	565.44
404.198	538.44
404.422	541.44
404.645	564.44
404.869	559.44
405.093	566.44
405.317	614.44
405.541	631.44
405.765	597.44
405.988	565.44
406.212	573.44
406.436	566.44
406.66	598.44
406.883	570.44
407.107	603.44
407.331	641.44
407.555	703.44
407.778	675.44
408.002	644.44
408.226	582.44
408.449	607.44
408.673	583.44
408.896	601.44
409.12	649.44
409.344	619.44
409.567	547.44
409.791	567.44
410.014	547.44
410.238	543.44
410.461	532.44
410.685	511.44
410.908	552.44
411.132	561.44
411.355	597.44
411.578	601.44
411.802	554.44
412.025	522.44
412.249	535.44
412.472	573.44
412.695	586.44
412.919	566.44
413.142	527.44
413.365	537.44
413.589	527.44
413.812	528.44
414.035	499.44
414.258	505.44
414.482	510.44
414.705	492.44
414.928	503.44
415.151	490.44
415.374	507.44
415.597	509.44
415.821	488.44
416.044	518.44
416.267	519.44
416.49	498.44
416.713	506.44
416.936	523.44
417.159	493.44
417.382	509.44
417.605	516.44
417.828	515.44
418.051	513.44
418.274	519.44
418.497	505.44
418.72	514.44
418.943	513.44
419.166	534.44
419.389	569.44
419.611	549.44
419.834	521.44
420.057	529.44
420.28	528.44
420.503	547.44
420.726	526.44
420.948	535.44
421.171	555.44
421.394	583.44
421.617	558.44
421.839	545.44
422.062	545.44
422.285	530.44
422.507	581.44
422.73	666.44
422.953	629.44
423.175	573.44
423.398	553.44
423.621	550.44
423.843	587.44
424.066	558.44
424.288	553.44
424.511	581.44
424.733	646.44
424.956	711.44
425.178	673.44
425.401	666.44
425.623	685.44
425.846	592.44
426.068	536.44
426.291	540.44
426.513	559.44
426.735	558.44
426.958	577.44
427.18	660.44
427.402	774.44
427.625	863.44
427.847	707.44
428.069	616.44
428.292	577.44
428.514	526.44
428.736	535.44
428.958	521.44
429.181	508.44
429.403	490.44
429.625	510.44
429.847	542.44
430.069	614.44
430.292	595.44
430.514	539.44
430.736	513.44
430.958	530.44
431.18	494.44
431.402	480.44
431.624	474.44
431.846	469.44
432.068	478.44
432.29	482.44
432.512	498.44
432.734	499.44
432.956	484.44
433.178	491.44
433.4	505.44
433.622	500.44
433.844	501.44
434.066	487.44
434.287	469.44
434.509	506.44
434.731	519.44
434.953	537.44
435.175	556.44
435.397	556.44
435.618	527.44
435.84	580.44
436.062	674.44
436.284	725.44
436.505	608.44
436.727	527.44
436.949	517.44
437.17	497.44
437.392	491.44
437.614	501.44
437.835	527.44
438.057	605.44
438.278	715.44
438.5	696.44
438.721	787.44
438.943	769.44
439.165	628.44
439.386	540.44
439.608	520.44
439.829	527.44
440.05	570.44
440.272	612.44
440.493	577.44
440.715	527.44
440.936	506.44
441.158	515.44
441.379	481.44
441.6	519.44
441.822	531.44
442.043	581.44
442.264	642.44
442.486	677.44
442.707	618.44
442.928	561.44
443.149	562.44
443.371	548.44
443.592	625.44
443.813	691.44
444.034	763.44
444.255	643.44
444.476	572.44
444.698	583.44
444.919	607.44
445.14	711.44
445.361	599.44
445.582	608.44
445.803	617.44
446.024	721.44
446.245	709.44
446.466	662.44
446.687	567.44
446.908	526.44
447.129	522.44
447.35	505.44
447.571	501.44
447.792	493.44
448.013	502.44
448.234	503.44
448.455	578.44
448.675	670.44
448.896	754.44
449.117	648.44
449.338	597.44
449.559	703.44
449.779	814.44
450	631.44
450.221	518.44
450.442	498.44
450.662	491.44
450.883	488.44
451.104	466.44
451.324	479.44
451.545	491.44
451.766	479.44
451.986	440.44
452.207	443.44
452.428	436.44
452.648	445.44
452.869	443.44
453.089	469.44
453.31	463.44
453.53	448.44
453.751	444.44
453.971	452.44
454.192	458.44
454.412	461.44
454.633	446.44
454.853	462.44
455.073	440.44
455.294	474.44
455.514	523.44
455.734	511.44
455.955	441.44
456.175	416.44
456.395	425.44
456.616	437.44
456.836	442.44
457.056	417.44
457.276	429.44
457.497	416.44
457.717	415.44
457.937	434.44
458.157	421.44
458.377	444.44
458.598	466.44
458.818	473.44
459.038	571.44
459.258	583.44
459.478	519.44
459.698	472.44
459.918	469.44
460.138	481.44
460.358	500.44
460.578	490.44
460.798	521.44
461.018	512.44
461.238	514.44
461.458	499.44
461.678	478.44
461.898	523.44
462.118	493.44
462.338	523.44
462.558	509.44
462.777	548.44
462.997	547.44
463.217	578.44
463.437	598.44
463.657	543.44
463.876	555.44
464.096	552.44
464.316	538.44
464.536	549.44
464.755	535.44
464.975	531.44
465.195	548.44
465.414	569.44
465.634	535.44
465.854	516.44
466.073	475.44
466.293	485.44
466.512	481.44
466.732	462.44
466.951	471.44
467.171	452.44
467.391	483.44
467.61	464.44
467.829	476.44
468.049	479.44
468.268	469.44
468.488	446.44
468.707	433.44
468.927	445.44
469.146	430.44
469.365	428.44
469.585	457.44
469.804	468.44
470.023	483.44
470.243	470.44
470.462	474.44
470.681	471.44
470.901	492.44
471.12	476.44
471.339	464.44
471.558	481.44
471.777	473.44
471.997	452.44
472.216	463.44
472.435	484.44
472.654	469.44
472.873	465.44
473.092	457.44
473.311	461.44
473.53	456.44
473.749	483.44
473.968	515.44
474.187	606.44
474.406	625.44
474.625	522.44
474.844	475.44
475.063	456.44
475.282	454.44
475.501	486.44
475.72	495.44
475.939	481.44
476.158	488.44
476.377	498.44
476.596	490.44
476.814	506.44
477.033	492.44
477.252	490.44
477.471	489.44
477.69	519.44
477.908	509.44
478.127	517.44
478.346	503.44
478.564	528.44
478.783	531.44
479.002	562.44
479.22	563.44
479.439	547.44
479.658	559.44
479.876	538.44
480.095	587.44
480.313	586.44
480.532	607.44
480.751	600.44
480.969	589.44
481.188	609.44
481.406	628.44
481.624	578.44
481.843	553.44
482.061	578.44
482.28	534.44
482.498	513.44
482.717	553.44
482.935	531.44
483.153	543.44
483.372	560.44
483.59	543.44
483.808	547.44
484.027	565.44
484.245	545.44
484.463	534.44
484.681	573.44
484.9	563.44
485.118	553.44
485.336	558.44
485.554	559.44
485.772	555.44
485.99	560.44
486.209	563.44
486.427	565.44
486.645	577.44
486.863	581.44
487.081	573.44
487.299	582.44
487.517	578.44
487.735	564.44
487.953	590.44
488.171	604.44
488.389	577.44
488.607	599.44
488.825	577.44
489.043	595.44
489.261	565.44
489.479	586.44
489.696	585.44
489.914	595.44
490.132	596.44
490.35	621.44
490.568	598.44
490.786	612.44
491.003	621.44
491.221	644.44
491.439	643.44
491.657	617.44
491.874	675.44
492.092	654.44
492.31	645.44
492.527	656.44
492.745	689.44
492.963	688.44
493.18	678.44
493.398	653.44
493.615	647.44
493.833	691.44
494.05	692.44
494.268	673.44
494.485	679.44
494.703	676.44
494.92	676.44
495.138	694.44
495.355	703.44
495.573	672.44
495.79	681.44
496.008	708.44
496.225	681.44
496.442	674.44
496.66	694.44
496.877	707.44
497.094	700.44
497.312	713.44
497.529	725.44
497.746	727.44
497.963	745.44
498.181	753.44
498.398	777.44
498.615	791.44
498.832	802.44
499.049	825.44
499.267	873.44
499.484	883.44
499.701	915.44
499.918	974.44
500.135	1006.44
500.352	1109.44
500.569	1096.44
500.786	1149.44
501.003	1110.44
501.22	1035.44
501.437	1000.44
501.654	952.44
501.871	905.44
502.088	861.44
502.305	836.44
502.522	836.44
502.739	780.44
502.956	749.44
503.172	751.44
503.389	745.44
503.606	746.44
503.823	710.44
504.04	724.44
504.256	682.44
504.473	686.44
504.69	708.44
504.907	693.44
505.123	691.44
505.34	665.44
505.557	672.44
505.773	664.44
505.99	647.44
506.207	649.44
506.423	647.44
506.64	622.44
506.856	618.44
507.073	628.44
507.289	626.44
507.506	607.44
507.722	623.44
507.939	629.44
508.155	601.44
508.372	620.44
508.588	602.44
508.805	587.44
509.021	618.44
509.238	601.44
509.454	630.44
509.67	595.44
509.887	591.44
510.103	580.44
510.319	598.44
510.536	621.44
510.752	865.44
510.968	782.44
511.184	604.44
511.401	599.44
511.617	547.44
511.833	559.44
512.049	564.44
512.265	558.44
512.481	581.44
512.698	582.44
512.914	564.44
513.13	586.44
513.346	572.44
513.562	557.44
513.778	561.44
513.994	595.44
514.21	571.44
514.426	599.44
514.642	603.44
514.858	621.44
515.074	673.44
515.29	703.44
515.506	869.44
515.721	772.44
515.937	619.44
516.153	591.44
516.369	583.44
516.585	613.44
516.801	597.44
517.016	596.44
517.232	623.44
517.448	604.44
517.664	618.44
517.879	636.44
518.095	605.44
518.311	622.44
518.527	643.44
518.742	590.44
518.958	587.44
519.173	592.44
519.389	588.44
519.605	557.44
519.82	580.44
520.036	587.44
520.251	593.44
520.467	604.44
520.682	564.44
520.898	591.44
521.113	574.44
521.329	611.44
521.544	663.44
521.76	777.44
521.975	1066.44
522.19	1087.44
522.406	681.44
522.621	589.44
522.836	555.44
523.052	525.44
523.267	522.44
523.482	533.44
523.698	493.44
523.913	513.44
524.128	501.44
524.343	497.44
524.559	489.44
524.774	518.44
524.989	517.44
525.204	496.44
525.419	472.44
525.634	494.44
525.849	488.44
526.064	485.44
526.28	486.44
526.495	500.44
526.71	483.44
526.925	473.44
527.14	466.44
527.355	486.44
527.57	481.44
527.785	473.44
527.999	489.44
528.214	484.44
528.429	457.44
528.644	476.44
528.859	469.44
529.074	485.44
529.289	489.44
529.503	518.44
529.718	513.44
529.933	482.44
530.148	485.44
530.363	494.44
530.577	490.44
530.792	459.44
531.007	471.44
531.221	455.44
531.436	474.44
531.651	435.44
531.865	480.44
532.08	488.44
532.295	462.44
532.509	461.44
532.724	477.44
532.938	457.44
533.153	464.44
533.367	453.44
533.582	451.44
533.796	441.44
534.011	455.44
534.225	457.44
534.44	455.44
534.654	448.44
534.868	445.44
535.083	444.44
535.297	452.44
535.511	465.44
535.726	474.44
535.94	439.44
536.154	444.44
536.369	447.44
536.583	439.44
536.797	455.44
537.011	447.44
537.225	426.44
537.44	446.44
537.654	461.44
537.868	447.44
538.082	441.44
538.296	448.44
538.51	445.44
538.724	439.44
538.938	446.44
539.153	456.44
539.367	446.44
539.581	429.44
539.795	445.44
540.009	435.44
540.222	435.44
540.436	411.44
540.65	443.44
540.864	437.44
541.078	466.44
541.292	437.44
541.506	435.44
541.72	451.44
541.934	438.44
542.147	450.44
542.361	421.44
542.575	432.44
542.789	437.44
543.002	420.44
543.216	433.44
543.43	441.44
543.644	443.44
543.857	450.44
544.071	447.44
544.285	448.44
544.498	449.44
544.712	454.44
544.925	452.44
545.139	443.44
545.352	442.44
545.566	416.44
545.779	436.44
545.993	442.44
546.206	456.44
546.42	451.44
546.633	438.44
546.847	461.44
547.06	438.44
547.274	425.44
547.487	433.44
547.7	433.44
547.914	461.44
548.127	458.44
548.34	449.44
548.554	435.44
548.767	435.44
548.98	449.44
549.193	428.44
549.407	423.44
549.62	439.44
549.833	423.44
550.046	445.44
550.259	431.44
550.473	438.44
550.686	429.44
550.899	427.44
551.112	428.44
551.325	435.44
551.538	410.44
551.751	422.44
551.964	435.44
552.177	425.44
552.39	442.44
552.603	441.44
552.816	442.44
553.029	428.44
553.242	421.44
553.455	452.44
553.667	442.44
553.88	454.44
554.093	457.44
554.306	445.44
554.519	437.44
554.732	421.44
554.944	433.44
555.157	439.44
555.37	423.44
555.583	423.44
555.795	394.44
556.008	400.44
556.221	401.44
556.433	415.44
556.646	391.44
556.859	404.44
557.071	385.44
557.284	388.44
557.496	401.44
557.709	396.44
557.921	377.44
558.134	392.44
558.346	375.44
558.559	411.44
558.771	391.44
558.984	392.44
559.196	377.44
559.409	389.44
559.621	393.44
559.833	397.44
560.046	373.44
560.258	355.44
560.47	403.44
560.683	377.44
560.895	371.44
561.107	367.44
561.32	391.44
561.532	390.44
561.744	402.44
561.956	389.44
562.168	406.44
562.381	385.44
562.593	384.44
562.805	383.44
563.017	376.44
563.229	371.44
563.441	375.44
563.653	392.44
563.865	397.44
564.077	404.44
564.289	383.44
564.501	412.44
564.713	409.44
564.925	408.44
565.137	427.44
565.349	445.44
565.561	417.44
565.773	453.44
565.985	447.44
566.197	453.44
566.408	450.44
566.62	501.44
566.832	509.44
567.044	516.44
567.255	518.44
567.467	527.44
567.679	523.44
567.891	550.44
568.102	540.44
568.314	531.44
568.526	513.44
568.737	478.44
568.949	463.44
569.161	451.44
569.372	418.44
569.584	439.44
569.795	411.44
570.007	401.44
570.218	428.44
570.43	412.44
570.641	378.44
570.853	368.44
571.064	389.44
571.276	378.44
571.487	379.44
571.698	380.44
571.91	381.44
572.121	370.44
572.333	371.44
572.544	370.44
572.755	361.44
572.966	349.44
573.178	337.44
573.389	352.44
573.6	350.44
573.811	340.44
574.023	346.44
574.234	337.44
574.445	331.44
574.656	326.44
574.867	327.44
575.078	342.44
575.289	348.44
575.501	330.44
575.712	335.44
575.923	346.44
576.134	324.44
576.345	333.44
576.556	322.44
576.767	310.44
576.978	340.44
577.188	329.44
577.399	336.44
577.61	318.44
577.821	323.44
578.032	320.44
578.243	331.44
578.454	422.44
578.665	371.44
578.875	315.44
579.086	292.44
579.297	315.44
579.508	308.44
579.718	310.44
579.929	306.44
580.14	313.44
580.35	301.44
580.561	309.44
580.772	312.44
580.982	300.44
581.193	321.44
581.403	295.44
581.614	311.44
581.825	315.44
582.035	291.44
582.246	290.44
582.456	295.44
582.667	312.44
582.877	292.44
583.087	299.44
583.298	295.44
583.508	308.44
583.719	310.44
583.929	311.44
584.139	299.44
584.35	289.44
584.56	309.44
584.77	295.44
584.981	289.44
585.191	323.44
585.401	296.44
585.611	289.44
585.821	296.44
586.032	301.44
586.242	299.44
586.452	289.44
586.662	288.44
586.872	291.44
587.082	285.44
587.292	297.44
587.502	306.44
587.713	278.44
587.923	294.44
588.133	286.44
588.343	278.44
588.553	292.44
588.762	290.44
588.972	287.44
589.182	305.44
589.392	290.44
589.602	298.44
589.812	308.44
590.022	301.44
590.232	298.44
590.441	308.44
590.651	299.44
590.861	293.44
591.071	301.44
591.281	297.44
591.49	319.44
591.7	300.44
591.91	315.44
592.119	305.44
592.329	307.44
592.539	311.44
592.748	313.44
592.958	332.44
593.167	322.44
593.377	317.44
593.587	331.44
593.796	317.44
594.006	320.44
594.215	323.44
594.424	322.44
594.634	330.44
594.843	314.44
595.053	310.44
595.262	306.44
595.472	321.44
595.681	297.44
595.89	302.44
596.1	267.44
596.309	287.44
596.518	279.44
596.727	300.44
596.937	271.44
597.146	262.44
597.355	294.44
597.564	284.44
597.774	275.44
597.983	269.44
598.192	263.44
598.401	268.44
598.61	247.44
598.819	267.44
599.028	259.44
599.237	275.44
599.446	236.44
599.655	260.44
599.864	255.44
600.073	270.44
600.282	274.44
600.491	260.44
600.7	238.44
600.909	266.44
601.118	257.44
601.327	267.44
601.536	256.44
601.745	252.44
601.953	250.44
602.162	265.44
602.371	253.44
602.58	257.44
602.789	254.44
602.997	245.44
603.206	258.44
603.415	249.44
603.623	245.44
603.832	268.44
604.041	260.44
604.249	247.44
604.458	235.44
604.666	249.44
604.875	265.44
605.084	249.44
605.292	246.44
605.501	241.44
605.709	264.44
605.918	238.44
606.126	249.44
606.334	247.44
606.543	262.44
606.751	238.44
606.96	249.44
607.168	264.44
607.376	226.44
607.585	236.44
607.793	224.44
608.001	251.44
608.21	226.44
608.418	247.44
608.626	235.44
608.834	229.44
609.043	230.44
609.251	247.44
609.459	221.44
609.667	237.44
609.875	233.44
610.083	245.44
610.291	237.44
610.499	246.44
610.707	253.44
610.916	242.44
611.124	247.44
611.332	262.44
611.54	243.44
611.748	263.44
611.955	235.44
612.163	238.44
612.371	241.44
612.579	246.44
612.787	232.44
612.995	244.44
613.203	263.44
613.411	242.44
613.618	237.44
613.826	231.44
614.034	242.44
614.242	224.44
614.449	242.44
614.657	218.44
614.865	235.44
615.072	235.44
615.28	222.44
615.488	237.44
615.695	221.44
615.903	228.44
616.111	237.44
616.318	245.44
616.526	226.44
616.733	259.44
616.941	230.44
617.148	234.44
617.356	241.44
617.563	243.44
617.771	224.44
617.978	228.44
618.185	239.44
618.393	246.44
618.6	222.44
618.807	232.44
619.015	233.44
619.222	216.44
619.429	229.44
619.637	215.44
619.844	234.44
620.051	219.44
620.258	231.44
620.466	232.44
620.673	220.44
620.88	219.44
621.087	225.44
621.294	230.44
621.501	212.44
621.708	225.44
621.915	229.44
622.122	212.44
622.329	223.44
622.536	230.44
622.743	215.44
622.95	216.44
623.157	221.44
623.364	216.44
623.571	229.44
623.778	221.44
623.985	215.44
624.192	214.44
624.399	201.44
624.606	220.44
624.812	215.44
625.019	212.44
625.226	207.44
625.433	213.44
625.639	230.44
625.846	211.44
626.053	193.44
626.259	206.44
626.466	212.44
626.673	210.44
626.879	193.44
627.086	197.44
627.293	193.44
627.499	201.44
627.706	227.44
627.912	218.44
628.119	205.44
628.325	202.44
628.532	204.44
628.738	184.44
628.945	214.44
629.151	200.44
629.357	194.44
629.564	191.44
629.77	191.44
629.976	210.44
630.183	210.44
630.389	206.44
630.595	196.44
630.802	203.44
631.008	194.44
631.214	202.44
631.42	203.44
631.627	211.44
631.833	195.44
632.039	189.44
632.245	189.44
632.451	190.44
632.657	210.44
632.863	205.44
633.069	191.44
633.275	189.44
633.481	183.44
633.688	169.44
633.893	187.44
634.099	174.44
634.305	190.44
634.511	187.44
634.717	212.44
634.923	203.44
635.129	183.44
635.335	185.44
635.541	181.44
635.747	187.44
635.952	193.44
636.158	188.44
636.364	198.44
636.57	183.44
636.775	182.44
636.981	195.44
637.187	178.44
637.392	182.44
637.598	180.44
637.804	188.44
638.009	166.44
638.215	193.44
638.421	166.44
638.626	179.44
638.832	168.44
639.037	163.44
639.243	164.44
639.448	158.44
639.654	179.44
639.859	187.44
640.065	180.44
640.27	196.44
640.475	187.44
640.681	165.44
640.886	179.44
641.091	183.44
641.297	170.44
641.502	189.44
641.707	195.44
641.913	187.44
642.118	189.44
642.323	193.44
642.528	169.44
642.733	169.44
642.939	175.44
643.144	155.44
643.349	163.44
643.554	160.44
643.759	162.44
643.964	171.44
644.169	171.44
644.374	178.44
644.579	173.44
644.784	171.44
644.989	181.44
645.194	162.44
645.399	170.44
645.604	170.44
645.809	178.44
646.014	163.44
646.219	168.44
646.423	175.44
646.628	154.44
646.833	167.44
647.038	147.44
647.243	163.44
647.447	178.44
647.652	181.44
647.857	159.44
648.062	165.44
648.266	172.44
648.471	163.44
648.676	162.44
648.88	158.44
649.085	177.44
649.289	167.44
649.494	165.44
649.698	178.44
649.903	179.44
650.107	181.44
650.312	171.44
650.516	175.44
650.721	161.44
650.925	179.44
651.13	157.44
651.334	158.44
651.539	159.44
651.743	145.44
651.947	156.44
652.152	169.44
652.356	145.44
652.56	150.44
652.764	145.44
652.969	149.44
653.173	133.44
653.377	137.44
653.581	128.44
653.785	125.44
653.99	139.44
654.194	133.44
654.398	136.44
654.602	139.44
654.806	135.44
655.01	147.44
655.214	149.44
655.418	143.44
655.622	147.44
655.826	146.44
656.03	142.44
656.234	139.44
656.438	147.44
656.642	146.44
656.846	133.44
657.049	121.44
657.253	126.44
657.457	123.44
657.661	124.44
657.865	127.44
658.068	117.44
658.272	110.44
658.476	103.44
658.68	126.44
658.883	114.44
659.087	95.44
659.291	104.44
659.494	103.44
659.698	101.44
659.901	100.44
660.105	101.44
660.309	95.44
660.512	89.44
660.716	99.44
660.919	92.44
661.123	103.44
661.326	90.44
661.53	92.44
661.733	81.44
661.936	96.44
662.14	85.44
662.343	90.44
662.546	97.44
662.75	76.44
662.953	84.44
663.156	96.44
663.36	85.44
663.563	87.44
663.766	89.44
663.969	77.44
664.173	93.44
664.376	86.44
664.579	86.44
664.782	91.44
664.985	91.44
665.188	78.44
665.391	77.44
665.594	82.44
665.797	92.44
666	62.44
666.203	92.44
666.406	83.44
666.609	77.44
666.812	86.44
667.015	86.44
667.218	89.44
667.421	84.44
667.624	69.44
667.827	75.44
668.03	78.44
668.232	76.44
668.435	77.44
668.638	77.44
668.841	77.44
669.043	83.44
669.246	85.44
669.449	79.44
669.651	86.44
669.854	73.44
670.057	74.44
670.259	75.44
670.462	79.44
670.665	84.44
670.867	83.44
671.07	75.44
671.272	95.44
671.475	72.44
671.677	73.44
671.88	61.44
672.082	85.44
672.284	86.44
672.487	84.44
672.689	76.44
672.892	77.44
