Data from 1977.PennyLincolnUp.Lamp.En5.5.200Scan.071719.P1_HRD10591_16-04-53-863.txt Node
Date: Thu Jul 18 16:04:53 EDT 2019
User: cochatt
Spectrometer: HR+D1059
Trigger mode: 1
Integration Time (sec): 1.000000E-1
Scans to average: 1
Electric dark correction enabled: true
Nonlinearity correction enabled: false
Boxcar width: 0
XAxis mode: Wavelengths
Number of Pixels in Spectrum: 2048
>>>>>Begin Spectral Data<<<<<
223.165	-5.5
223.4	-5.5
223.635	-5.5
223.869	-14.5
224.104	-19.5
224.338	-15.5
224.573	-13.5
224.808	-8.5
225.042	-14.5
225.277	-5.5
225.511	-1.5
225.746	1.5
225.98	4.5
226.215	2.5
226.449	31.5
226.683	12.5
226.918	16.5
227.152	29.5
227.387	54.5
227.621	40.5
227.856	51.5
228.09	53.5
228.324	58.5
228.559	56.5
228.793	70.5
229.027	85.5
229.262	103.5
229.496	74.5
229.73	106.5
229.964	111.5
230.199	105.5
230.433	112.5
230.667	104.5
230.901	118.5
231.136	94.5
231.37	103.5
231.604	96.5
231.838	103.5
232.072	124.5
232.306	101.5
232.541	112.5
232.775	101.5
233.009	115.5
233.243	111.5
233.477	110.5
233.711	106.5
233.945	111.5
234.179	112.5
234.413	108.5
234.647	112.5
234.881	104.5
235.115	110.5
235.349	115.5
235.583	107.5
235.817	124.5
236.051	120.5
236.285	114.5
236.519	125.5
236.753	108.5
236.987	131.5
237.221	144.5
237.455	168.5
237.689	146.5
237.922	115.5
238.156	113.5
238.39	118.5
238.624	128.5
238.858	124.5
239.091	122.5
239.325	122.5
239.559	126.5
239.793	122.5
240.027	127.5
240.26	122.5
240.494	125.5
240.728	149.5
240.961	126.5
241.195	119.5
241.429	123.5
241.662	118.5
241.896	130.5
242.13	131.5
242.363	119.5
242.597	123.5
242.83	132.5
243.064	139.5
243.298	143.5
243.531	133.5
243.765	144.5
243.998	130.5
244.232	137.5
244.465	129.5
244.699	146.5
244.932	144.5
245.166	134.5
245.399	133.5
245.633	139.5
245.866	147.5
246.099	120.5
246.333	118.5
246.566	146.5
246.8	142.5
247.033	126.5
247.266	149.5
247.5	147.5
247.733	154.5
247.966	149.5
248.2	163.5
248.433	154.5
248.666	171.5
248.899	154.5
249.133	186.5
249.366	171.5
249.599	166.5
249.832	152.5
250.066	171.5
250.299	174.5
250.532	170.5
250.765	163.5
250.998	182.5
251.231	182.5
251.465	185.5
251.698	186.5
251.931	188.5
252.164	178.5
252.397	160.5
252.63	177.5
252.863	183.5
253.096	178.5
253.329	184.5
253.562	172.5
253.795	186.5
254.028	207.5
254.261	178.5
254.494	204.5
254.727	206.5
254.96	215.5
255.193	209.5
255.426	198.5
255.659	182.5
255.892	186.5
256.124	188.5
256.357	190.5
256.59	175.5
256.823	182.5
257.056	174.5
257.289	173.5
257.521	194.5
257.754	177.5
257.987	191.5
258.22	178.5
258.452	182.5
258.685	198.5
258.918	182.5
259.151	176.5
259.383	196.5
259.616	190.5
259.849	195.5
260.081	201.5
260.314	209.5
260.547	223.5
260.779	206.5
261.012	224.5
261.244	202.5
261.477	206.5
261.71	198.5
261.942	186.5
262.175	199.5
262.407	192.5
262.64	190.5
262.872	209.5
263.105	199.5
263.337	196.5
263.57	195.5
263.802	188.5
264.035	213.5
264.267	186.5
264.499	191.5
264.732	204.5
264.964	222.5
265.197	214.5
265.429	185.5
265.661	197.5
265.894	190.5
266.126	206.5
266.358	201.5
266.591	211.5
266.823	213.5
267.055	200.5
267.287	210.5
267.52	205.5
267.752	220.5
267.984	232.5
268.216	221.5
268.448	223.5
268.681	211.5
268.913	230.5
269.145	219.5
269.377	233.5
269.609	229.5
269.841	226.5
270.073	241.5
270.306	228.5
270.538	251.5
270.77	264.5
271.002	244.5
271.234	251.5
271.466	241.5
271.698	250.5
271.93	259.5
272.162	243.5
272.394	242.5
272.626	259.5
272.858	241.5
273.09	243.5
273.322	242.5
273.553	228.5
273.785	232.5
274.017	239.5
274.249	250.5
274.481	249.5
274.713	233.5
274.945	233.5
275.176	241.5
275.408	235.5
275.64	240.5
275.872	245.5
276.104	246.5
276.335	241.5
276.567	250.5
276.799	250.5
277.031	257.5
277.262	247.5
277.494	268.5
277.726	250.5
277.957	260.5
278.189	254.5
278.421	242.5
278.652	238.5
278.884	248.5
279.115	237.5
279.347	242.5
279.579	281.5
279.81	270.5
280.042	260.5
280.273	265.5
280.505	253.5
280.736	242.5
280.968	244.5
281.199	255.5
281.431	246.5
281.662	249.5
281.894	255.5
282.125	268.5
282.356	253.5
282.588	262.5
282.819	270.5
283.051	256.5
283.282	254.5
283.513	263.5
283.745	262.5
283.976	263.5
284.207	261.5
284.439	264.5
284.67	275.5
284.901	261.5
285.132	274.5
285.364	275.5
285.595	264.5
285.826	254.5
286.057	270.5
286.288	269.5
286.52	275.5
286.751	282.5
286.982	286.5
287.213	243.5
287.444	260.5
287.675	273.5
287.906	292.5
288.138	288.5
288.369	263.5
288.6	276.5
288.831	266.5
289.062	271.5
289.293	282.5
289.524	275.5
289.755	286.5
289.986	279.5
290.217	270.5
290.448	278.5
290.679	294.5
290.91	292.5
291.141	276.5
291.371	280.5
291.602	270.5
291.833	280.5
292.064	288.5
292.295	282.5
292.526	291.5
292.757	281.5
292.987	278.5
293.218	271.5
293.449	285.5
293.68	272.5
293.91	278.5
294.141	275.5
294.372	281.5
294.603	264.5
294.833	294.5
295.064	287.5
295.295	315.5
295.525	295.5
295.756	289.5
295.987	270.5
296.217	298.5
296.448	313.5
296.679	297.5
296.909	292.5
297.14	291.5
297.37	300.5
297.601	292.5
297.831	287.5
298.062	284.5
298.292	283.5
298.523	291.5
298.753	283.5
298.984	282.5
299.214	290.5
299.445	311.5
299.675	284.5
299.905	292.5
300.136	295.5
300.366	318.5
300.597	291.5
300.827	313.5
301.057	313.5
301.288	307.5
301.518	317.5
301.748	294.5
301.979	307.5
302.209	301.5
302.439	307.5
302.669	334.5
302.9	306.5
303.13	313.5
303.36	305.5
303.59	297.5
303.82	314.5
304.051	304.5
304.281	304.5
304.511	323.5
304.741	303.5
304.971	318.5
305.201	323.5
305.431	318.5
305.661	312.5
305.891	336.5
306.121	316.5
306.352	316.5
306.582	305.5
306.812	300.5
307.042	301.5
307.272	314.5
307.502	299.5
307.731	324.5
307.961	326.5
308.191	304.5
308.421	326.5
308.651	320.5
308.881	330.5
309.111	322.5
309.341	320.5
309.571	314.5
309.8	326.5
310.03	348.5
310.26	320.5
310.49	324.5
310.72	317.5
310.949	329.5
311.179	324.5
311.409	335.5
311.639	335.5
311.868	349.5
312.098	334.5
312.328	335.5
312.557	353.5
312.787	339.5
313.017	342.5
313.246	349.5
313.476	340.5
313.706	341.5
313.935	360.5
314.165	366.5
314.394	358.5
314.624	340.5
314.853	353.5
315.083	326.5
315.312	348.5
315.542	378.5
315.771	334.5
316.001	336.5
316.23	333.5
316.46	346.5
316.689	355.5
316.919	347.5
317.148	349.5
317.377	345.5
317.607	370.5
317.836	365.5
318.065	372.5
318.295	355.5
318.524	345.5
318.753	355.5
318.983	351.5
319.212	335.5
319.441	328.5
319.67	351.5
319.9	345.5
320.129	348.5
320.358	344.5
320.587	359.5
320.816	352.5
321.046	345.5
321.275	340.5
321.504	334.5
321.733	362.5
321.962	352.5
322.191	370.5
322.42	381.5
322.649	348.5
322.878	360.5
323.108	366.5
323.337	385.5
323.566	391.5
323.795	392.5
324.024	413.5
324.253	472.5
324.482	593.5
324.71	828.5
324.939	1112.5
325.168	1009.5
325.397	556.5
325.626	443.5
325.855	411.5
326.084	399.5
326.313	402.5
326.542	407.5
326.77	423.5
326.999	458.5
327.228	552.5
327.457	759.5
327.686	870.5
327.914	602.5
328.143	482.5
328.372	433.5
328.6	416.5
328.829	426.5
329.058	438.5
329.287	420.5
329.515	410.5
329.744	388.5
329.972	396.5
330.201	391.5
330.43	420.5
330.658	437.5
330.887	440.5
331.115	439.5
331.344	408.5
331.572	405.5
331.801	401.5
332.03	398.5
332.258	417.5
332.486	395.5
332.715	396.5
332.943	430.5
333.172	394.5
333.4	438.5
333.629	431.5
333.857	417.5
334.085	436.5
334.314	424.5
334.542	418.5
334.771	422.5
334.999	435.5
335.227	431.5
335.455	429.5
335.684	402.5
335.912	427.5
336.14	412.5
336.369	407.5
336.597	398.5
336.825	412.5
337.053	408.5
337.281	410.5
337.51	402.5
337.738	419.5
337.966	411.5
338.194	389.5
338.422	396.5
338.65	401.5
338.878	383.5
339.106	387.5
339.334	399.5
339.562	380.5
339.79	397.5
340.018	370.5
340.246	397.5
340.474	398.5
340.702	386.5
340.93	370.5
341.158	379.5
341.386	381.5
341.614	371.5
341.842	377.5
342.07	391.5
342.298	374.5
342.526	379.5
342.754	381.5
342.981	397.5
343.209	390.5
343.437	397.5
343.665	386.5
343.893	404.5
344.12	407.5
344.348	412.5
344.576	393.5
344.804	393.5
345.031	407.5
345.259	390.5
345.487	383.5
345.714	401.5
345.942	371.5
346.17	363.5
346.397	378.5
346.625	366.5
346.853	368.5
347.08	369.5
347.308	374.5
347.535	363.5
347.763	375.5
347.99	371.5
348.218	360.5
348.445	383.5
348.673	355.5
348.9	376.5
349.128	355.5
349.355	346.5
349.583	353.5
349.81	363.5
350.037	365.5
350.265	364.5
350.492	371.5
350.72	365.5
350.947	372.5
351.174	353.5
351.402	351.5
351.629	371.5
351.856	384.5
352.083	371.5
352.311	368.5
352.538	378.5
352.765	355.5
352.992	382.5
353.22	345.5
353.447	362.5
353.674	340.5
353.901	344.5
354.128	352.5
354.355	376.5
354.583	348.5
354.81	348.5
355.037	350.5
355.264	369.5
355.491	359.5
355.718	359.5
355.945	359.5
356.172	355.5
356.399	340.5
356.626	354.5
356.853	352.5
357.08	370.5
357.307	361.5
357.534	346.5
357.761	332.5
357.988	332.5
358.215	354.5
358.441	363.5
358.668	356.5
358.895	356.5
359.122	346.5
359.349	345.5
359.576	356.5
359.802	363.5
360.029	370.5
360.256	379.5
360.483	362.5
360.709	360.5
360.936	375.5
361.163	352.5
361.39	359.5
361.616	346.5
361.843	341.5
362.07	342.5
362.296	358.5
362.523	356.5
362.749	356.5
362.976	347.5
363.203	362.5
363.429	369.5
363.656	344.5
363.882	376.5
364.109	378.5
364.335	343.5
364.562	370.5
364.788	338.5
365.015	346.5
365.241	344.5
365.468	357.5
365.694	348.5
365.92	345.5
366.147	335.5
366.373	346.5
366.599	346.5
366.826	349.5
367.052	335.5
367.278	343.5
367.505	336.5
367.731	354.5
367.957	350.5
368.184	348.5
368.41	347.5
368.636	349.5
368.862	365.5
369.089	349.5
369.315	351.5
369.541	352.5
369.767	353.5
369.993	367.5
370.219	362.5
370.445	348.5
370.672	359.5
370.898	342.5
371.124	363.5
371.35	350.5
371.576	365.5
371.802	355.5
372.028	349.5
372.254	369.5
372.48	361.5
372.706	358.5
372.932	361.5
373.158	352.5
373.384	356.5
373.61	359.5
373.835	369.5
374.061	364.5
374.287	374.5
374.513	352.5
374.739	366.5
374.965	355.5
375.191	386.5
375.416	358.5
375.642	363.5
375.868	371.5
376.094	348.5
376.319	352.5
376.545	353.5
376.771	366.5
376.997	350.5
377.222	356.5
377.448	347.5
377.674	377.5
377.899	353.5
378.125	349.5
378.35	361.5
378.576	350.5
378.802	363.5
379.027	360.5
379.253	364.5
379.478	367.5
379.704	347.5
379.929	356.5
380.155	348.5
380.38	381.5
380.606	358.5
380.831	357.5
381.057	375.5
381.282	355.5
381.507	362.5
381.733	357.5
381.958	352.5
382.184	378.5
382.409	378.5
382.634	356.5
382.86	355.5
383.085	360.5
383.31	385.5
383.535	378.5
383.761	371.5
383.986	382.5
384.211	384.5
384.436	371.5
384.662	386.5
384.887	404.5
385.112	387.5
385.337	405.5
385.562	378.5
385.787	392.5
386.013	388.5
386.238	395.5
386.463	413.5
386.688	395.5
386.913	396.5
387.138	407.5
387.363	388.5
387.588	387.5
387.813	388.5
388.038	399.5
388.263	412.5
388.488	394.5
388.713	399.5
388.938	380.5
389.163	411.5
389.387	380.5
389.612	383.5
389.837	372.5
390.062	400.5
390.287	375.5
390.512	378.5
390.736	395.5
390.961	388.5
391.186	390.5
391.411	400.5
391.636	393.5
391.86	401.5
392.085	411.5
392.31	393.5
392.534	402.5
392.759	400.5
392.984	412.5
393.208	403.5
393.433	422.5
393.658	403.5
393.882	412.5
394.107	412.5
394.331	388.5
394.556	405.5
394.78	370.5
395.005	389.5
395.229	394.5
395.454	404.5
395.678	412.5
395.903	418.5
396.127	430.5
396.352	409.5
396.576	392.5
396.801	413.5
397.025	417.5
397.249	417.5
397.474	399.5
397.698	404.5
397.922	409.5
398.147	410.5
398.371	428.5
398.595	425.5
398.82	418.5
399.044	470.5
399.268	452.5
399.492	520.5
399.717	523.5
399.941	532.5
400.165	544.5
400.389	525.5
400.613	492.5
400.837	478.5
401.062	462.5
401.286	451.5
401.51	449.5
401.734	439.5
401.958	440.5
402.182	435.5
402.406	452.5
402.63	455.5
402.854	459.5
403.078	442.5
403.302	431.5
403.526	454.5
403.75	451.5
403.974	448.5
404.198	476.5
404.422	462.5
404.645	445.5
404.869	468.5
405.093	460.5
405.317	499.5
405.541	498.5
405.765	462.5
405.988	478.5
406.212	480.5
406.436	489.5
406.66	479.5
406.883	474.5
407.107	486.5
407.331	506.5
407.555	587.5
407.778	556.5
408.002	527.5
408.226	491.5
408.449	480.5
408.673	481.5
408.896	502.5
409.12	522.5
409.344	516.5
409.567	467.5
409.791	450.5
410.014	458.5
410.238	460.5
410.461	457.5
410.685	442.5
410.908	460.5
411.132	475.5
411.355	488.5
411.578	504.5
411.802	454.5
412.025	455.5
412.249	456.5
412.472	450.5
412.695	475.5
412.919	459.5
413.142	425.5
413.365	439.5
413.589	422.5
413.812	433.5
414.035	426.5
414.258	447.5
414.482	435.5
414.705	418.5
414.928	447.5
415.151	440.5
415.374	425.5
415.597	436.5
415.821	417.5
416.044	392.5
416.267	431.5
416.49	428.5
416.713	405.5
416.936	430.5
417.159	429.5
417.382	430.5
417.605	420.5
417.828	424.5
418.051	424.5
418.274	415.5
418.497	435.5
418.72	428.5
418.943	429.5
419.166	444.5
419.389	454.5
419.611	458.5
419.834	446.5
420.057	448.5
420.28	449.5
420.503	422.5
420.726	430.5
420.948	428.5
421.171	479.5
421.394	475.5
421.617	458.5
421.839	430.5
422.062	445.5
422.285	454.5
422.507	478.5
422.73	520.5
422.953	516.5
423.175	491.5
423.398	440.5
423.621	450.5
423.843	447.5
424.066	435.5
424.288	457.5
424.511	452.5
424.733	482.5
424.956	551.5
425.178	515.5
425.401	507.5
425.623	531.5
425.846	466.5
426.068	456.5
426.291	441.5
426.513	422.5
426.735	467.5
426.958	472.5
427.18	518.5
427.402	603.5
427.625	640.5
427.847	539.5
428.069	456.5
428.292	454.5
428.514	410.5
428.736	421.5
428.958	411.5
429.181	410.5
429.403	392.5
429.625	418.5
429.847	425.5
430.069	461.5
430.292	474.5
430.514	410.5
430.736	413.5
430.958	400.5
431.18	405.5
431.402	407.5
431.624	400.5
431.846	403.5
432.068	399.5
432.29	412.5
432.512	385.5
432.734	399.5
432.956	402.5
433.178	407.5
433.4	390.5
433.622	404.5
433.844	410.5
434.066	409.5
434.287	422.5
434.509	414.5
434.731	407.5
434.953	419.5
435.175	421.5
435.397	434.5
435.618	446.5
435.84	462.5
436.062	508.5
436.284	551.5
436.505	478.5
436.727	458.5
436.949	410.5
437.17	411.5
437.392	414.5
437.614	402.5
437.835	420.5
438.057	481.5
438.278	532.5
438.5	544.5
438.721	578.5
438.943	578.5
439.165	446.5
439.386	445.5
439.608	420.5
439.829	424.5
440.05	436.5
440.272	449.5
440.493	442.5
440.715	420.5
440.936	429.5
441.158	414.5
441.379	416.5
441.6	442.5
441.822	444.5
442.043	474.5
442.264	518.5
442.486	530.5
442.707	456.5
442.928	434.5
443.149	453.5
443.371	455.5
443.592	487.5
443.813	557.5
444.034	598.5
444.255	495.5
444.476	456.5
444.698	454.5
444.919	467.5
445.14	537.5
445.361	476.5
445.582	462.5
445.803	497.5
446.024	560.5
446.245	547.5
446.466	487.5
446.687	470.5
446.908	419.5
447.129	418.5
447.35	405.5
447.571	402.5
447.792	396.5
448.013	396.5
448.234	408.5
448.455	440.5
448.675	506.5
448.896	557.5
449.117	499.5
449.338	480.5
449.559	540.5
449.779	618.5
450	486.5
450.221	415.5
450.442	399.5
450.662	392.5
450.883	391.5
451.104	379.5
451.324	379.5
451.545	364.5
451.766	352.5
451.986	360.5
452.207	367.5
452.428	360.5
452.648	355.5
452.869	358.5
453.089	383.5
453.31	388.5
453.53	356.5
453.751	381.5
453.971	365.5
454.192	369.5
454.412	361.5
454.633	382.5
454.853	372.5
455.073	357.5
455.294	371.5
455.514	387.5
455.734	394.5
455.955	362.5
456.175	353.5
456.395	352.5
456.616	344.5
456.836	325.5
457.056	338.5
457.276	358.5
457.497	335.5
457.717	354.5
457.937	353.5
458.157	357.5
458.377	349.5
458.598	376.5
458.818	389.5
459.038	405.5
459.258	435.5
459.478	418.5
459.698	396.5
459.918	386.5
460.138	397.5
460.358	393.5
460.578	430.5
460.798	417.5
461.018	436.5
461.238	419.5
461.458	427.5
461.678	426.5
461.898	407.5
462.118	411.5
462.338	431.5
462.558	444.5
462.777	449.5
462.997	454.5
463.217	471.5
463.437	467.5
463.657	483.5
463.876	460.5
464.096	442.5
464.316	459.5
464.536	454.5
464.755	459.5
464.975	438.5
465.195	451.5
465.414	446.5
465.634	416.5
465.854	424.5
466.073	388.5
466.293	388.5
466.512	402.5
466.732	384.5
466.951	390.5
467.171	388.5
467.391	377.5
467.61	378.5
467.829	386.5
468.049	364.5
468.268	366.5
468.488	374.5
468.707	367.5
468.927	386.5
469.146	370.5
469.365	372.5
469.585	390.5
469.804	371.5
470.023	396.5
470.243	394.5
470.462	402.5
470.681	381.5
470.901	388.5
471.12	381.5
471.339	394.5
471.558	390.5
471.777	375.5
471.997	367.5
472.216	378.5
472.435	376.5
472.654	386.5
472.873	374.5
473.092	398.5
473.311	370.5
473.53	392.5
473.749	403.5
473.968	394.5
474.187	454.5
474.406	452.5
474.625	395.5
474.844	395.5
475.063	388.5
475.282	383.5
475.501	387.5
475.72	386.5
475.939	386.5
476.158	385.5
476.377	393.5
476.596	387.5
476.814	392.5
477.033	416.5
477.252	407.5
477.471	420.5
477.69	418.5
477.908	411.5
478.127	427.5
478.346	410.5
478.564	424.5
478.783	434.5
479.002	441.5
479.22	436.5
479.439	438.5
479.658	456.5
479.876	452.5
480.095	441.5
480.313	475.5
480.532	456.5
480.751	467.5
480.969	481.5
481.188	482.5
481.406	463.5
481.624	442.5
481.843	438.5
482.061	459.5
482.28	428.5
482.498	426.5
482.717	449.5
482.935	443.5
483.153	459.5
483.372	440.5
483.59	441.5
483.808	420.5
484.027	448.5
484.245	425.5
484.463	450.5
484.681	457.5
484.9	440.5
485.118	465.5
485.336	452.5
485.554	440.5
485.772	427.5
485.99	445.5
486.209	464.5
486.427	457.5
486.645	482.5
486.863	439.5
487.081	464.5
487.299	451.5
487.517	479.5
487.735	443.5
487.953	480.5
488.171	454.5
488.389	470.5
488.607	470.5
488.825	456.5
489.043	472.5
489.261	479.5
489.479	450.5
489.696	488.5
489.914	466.5
490.132	472.5
490.35	482.5
490.568	466.5
490.786	475.5
491.003	478.5
491.221	492.5
491.439	515.5
491.657	492.5
491.874	498.5
492.092	487.5
492.31	507.5
492.527	508.5
492.745	497.5
492.963	505.5
493.18	490.5
493.398	525.5
493.615	524.5
493.833	536.5
494.05	527.5
494.268	532.5
494.485	515.5
494.703	553.5
494.92	523.5
495.138	530.5
495.355	531.5
495.573	503.5
495.79	532.5
496.008	570.5
496.225	539.5
496.442	531.5
496.66	542.5
496.877	540.5
497.094	529.5
497.312	550.5
497.529	548.5
497.746	551.5
497.963	544.5
498.181	600.5
498.398	608.5
498.615	632.5
498.832	625.5
499.049	641.5
499.267	672.5
499.484	690.5
499.701	734.5
499.918	776.5
500.135	819.5
500.352	880.5
500.569	882.5
500.786	888.5
501.003	856.5
501.22	819.5
501.437	765.5
501.654	735.5
501.871	734.5
502.088	690.5
502.305	646.5
502.522	622.5
502.739	615.5
502.956	607.5
503.172	593.5
503.389	588.5
503.606	578.5
503.823	551.5
504.04	550.5
504.256	559.5
504.473	549.5
504.69	571.5
504.907	558.5
505.123	529.5
505.34	520.5
505.557	538.5
505.773	506.5
505.99	507.5
506.207	519.5
506.423	490.5
506.64	494.5
506.856	496.5
507.073	488.5
507.289	516.5
507.506	504.5
507.722	475.5
507.939	492.5
508.155	459.5
508.372	455.5
508.588	462.5
508.805	449.5
509.021	483.5
509.238	468.5
509.454	461.5
509.67	480.5
509.887	467.5
510.103	458.5
510.319	468.5
510.536	481.5
510.752	623.5
510.968	570.5
511.184	462.5
511.401	447.5
511.617	450.5
511.833	450.5
512.049	442.5
512.265	455.5
512.481	444.5
512.698	434.5
512.914	433.5
513.13	423.5
513.346	450.5
513.562	440.5
513.778	461.5
513.994	446.5
514.21	452.5
514.426	475.5
514.642	459.5
514.858	475.5
515.074	479.5
515.29	495.5
515.506	578.5
515.721	528.5
515.937	472.5
516.153	477.5
516.369	450.5
516.585	445.5
516.801	468.5
517.016	487.5
517.232	486.5
517.448	492.5
517.664	481.5
517.879	464.5
518.095	491.5
518.311	504.5
518.527	482.5
518.742	470.5
518.958	459.5
519.173	471.5
519.389	470.5
519.605	482.5
519.82	452.5
520.036	466.5
520.251	455.5
520.467	449.5
520.682	463.5
520.898	434.5
521.113	463.5
521.329	483.5
521.544	498.5
521.76	529.5
521.975	674.5
522.19	660.5
522.406	494.5
522.621	455.5
522.836	452.5
523.052	434.5
523.267	426.5
523.482	421.5
523.698	394.5
523.913	402.5
524.128	403.5
524.343	377.5
524.559	384.5
524.774	390.5
524.989	408.5
525.204	398.5
525.419	396.5
525.634	392.5
525.849	408.5
526.064	394.5
526.28	407.5
526.495	403.5
526.71	383.5
526.925	382.5
527.14	377.5
527.355	378.5
527.57	374.5
527.785	386.5
527.999	378.5
528.214	387.5
528.429	378.5
528.644	394.5
528.859	374.5
529.074	384.5
529.289	394.5
529.503	402.5
529.718	417.5
529.933	402.5
530.148	411.5
530.363	378.5
530.577	388.5
530.792	394.5
531.007	382.5
531.221	381.5
531.436	392.5
531.651	383.5
531.865	380.5
532.08	386.5
532.295	367.5
532.509	376.5
532.724	377.5
532.938	372.5
533.153	374.5
533.367	392.5
533.582	380.5
533.796	395.5
534.011	388.5
534.225	352.5
534.44	382.5
534.654	370.5
534.868	367.5
535.083	370.5
535.297	353.5
535.511	385.5
535.726	394.5
535.94	377.5
536.154	362.5
536.369	365.5
536.583	359.5
536.797	372.5
537.011	345.5
537.225	348.5
537.44	365.5
537.654	352.5
537.868	358.5
538.082	354.5
538.296	349.5
538.51	360.5
538.724	382.5
538.938	361.5
539.153	376.5
539.367	366.5
539.581	378.5
539.795	374.5
540.009	380.5
540.222	372.5
540.436	369.5
540.65	361.5
540.864	364.5
541.078	367.5
541.292	358.5
541.506	353.5
541.72	352.5
541.934	344.5
542.147	357.5
542.361	362.5
542.575	354.5
542.789	336.5
543.002	361.5
543.216	371.5
543.43	352.5
543.644	354.5
543.857	350.5
544.071	352.5
544.285	363.5
544.498	343.5
544.712	362.5
544.925	352.5
545.139	367.5
545.352	361.5
545.566	376.5
545.779	364.5
545.993	358.5
546.206	374.5
546.42	369.5
546.633	352.5
546.847	364.5
547.06	366.5
547.274	355.5
547.487	360.5
547.7	352.5
547.914	348.5
548.127	363.5
548.34	350.5
548.554	357.5
548.767	350.5
548.98	368.5
549.193	365.5
549.407	354.5
549.62	348.5
549.833	375.5
550.046	350.5
550.259	326.5
550.473	347.5
550.686	351.5
550.899	344.5
551.112	358.5
551.325	343.5
551.538	330.5
551.751	353.5
551.964	358.5
552.177	361.5
552.39	361.5
552.603	366.5
552.816	371.5
553.029	379.5
553.242	370.5
553.455	371.5
553.667	365.5
553.88	361.5
554.093	372.5
554.306	366.5
554.519	352.5
554.732	343.5
554.944	343.5
555.157	361.5
555.37	347.5
555.583	337.5
555.795	343.5
556.008	334.5
556.221	330.5
556.433	315.5
556.646	332.5
556.859	325.5
557.071	329.5
557.284	319.5
557.496	325.5
557.709	326.5
557.921	322.5
558.134	306.5
558.346	308.5
558.559	292.5
558.771	316.5
558.984	322.5
559.196	318.5
559.409	315.5
559.621	296.5
559.833	322.5
560.046	310.5
560.258	322.5
560.47	325.5
560.683	331.5
560.895	334.5
561.107	315.5
561.32	321.5
561.532	310.5
561.744	326.5
561.956	314.5
562.168	310.5
562.381	326.5
562.593	314.5
562.805	324.5
563.017	307.5
563.229	319.5
563.441	316.5
563.653	318.5
563.865	305.5
564.077	311.5
564.289	304.5
564.501	323.5
564.713	339.5
564.925	343.5
565.137	349.5
565.349	344.5
565.561	349.5
565.773	370.5
565.985	366.5
566.197	381.5
566.408	386.5
566.62	398.5
566.832	405.5
567.044	398.5
567.255	429.5
567.467	426.5
567.679	439.5
567.891	438.5
568.102	458.5
568.314	441.5
568.526	403.5
568.737	408.5
568.949	387.5
569.161	366.5
569.372	354.5
569.584	324.5
569.795	329.5
570.007	334.5
570.218	355.5
570.43	351.5
570.641	333.5
570.853	330.5
571.064	316.5
571.276	310.5
571.487	326.5
571.698	323.5
571.91	308.5
572.121	299.5
572.333	302.5
572.544	285.5
572.755	304.5
572.966	284.5
573.178	288.5
573.389	290.5
573.6	297.5
573.811	294.5
574.023	289.5
574.234	282.5
574.445	283.5
574.656	280.5
574.867	282.5
575.078	271.5
575.289	270.5
575.501	270.5
575.712	272.5
575.923	273.5
576.134	273.5
576.345	271.5
576.556	283.5
576.767	266.5
576.978	280.5
577.188	276.5
577.399	282.5
577.61	290.5
577.821	279.5
578.032	276.5
578.243	293.5
578.454	335.5
578.665	280.5
578.875	282.5
579.086	265.5
579.297	262.5
579.508	253.5
579.718	266.5
579.929	248.5
580.14	252.5
580.35	247.5
580.561	256.5
580.772	247.5
580.982	252.5
581.193	239.5
581.403	249.5
581.614	235.5
581.825	268.5
582.035	257.5
582.246	240.5
582.456	248.5
582.667	245.5
582.877	242.5
583.087	262.5
583.298	255.5
583.508	268.5
583.719	233.5
583.929	258.5
584.139	238.5
584.35	255.5
584.56	270.5
584.77	234.5
584.981	250.5
585.191	238.5
585.401	254.5
585.611	251.5
585.821	246.5
586.032	243.5
586.242	255.5
586.452	256.5
586.662	231.5
586.872	238.5
587.082	268.5
587.292	243.5
587.502	264.5
587.713	250.5
587.923	248.5
588.133	245.5
588.343	236.5
588.553	252.5
588.762	255.5
588.972	246.5
589.182	250.5
589.392	262.5
589.602	235.5
589.812	248.5
590.022	243.5
590.232	248.5
590.441	255.5
590.651	244.5
590.861	251.5
591.071	254.5
591.281	254.5
591.49	265.5
591.7	267.5
591.91	241.5
592.119	261.5
592.329	243.5
592.539	247.5
592.748	271.5
592.958	275.5
593.167	286.5
593.377	287.5
593.587	295.5
593.796	293.5
594.006	266.5
594.215	272.5
594.424	286.5
594.634	280.5
594.843	270.5
595.053	274.5
595.262	269.5
595.472	235.5
595.681	244.5
595.89	253.5
596.1	254.5
596.309	254.5
596.518	241.5
596.727	247.5
596.937	256.5
597.146	232.5
597.355	249.5
597.564	245.5
597.774	233.5
597.983	250.5
598.192	233.5
598.401	229.5
598.61	234.5
598.819	224.5
599.028	247.5
599.237	228.5
599.446	228.5
599.655	227.5
599.864	227.5
600.073	233.5
600.282	232.5
600.491	240.5
600.7	228.5
600.909	221.5
601.118	215.5
601.327	215.5
601.536	223.5
601.745	219.5
601.953	219.5
602.162	219.5
602.371	233.5
602.58	201.5
602.789	225.5
602.997	229.5
603.206	219.5
603.415	216.5
603.623	202.5
603.832	211.5
604.041	202.5
604.249	221.5
604.458	200.5
604.666	204.5
604.875	203.5
605.084	210.5
605.292	202.5
605.501	222.5
605.709	224.5
605.918	217.5
606.126	191.5
606.334	226.5
606.543	203.5
606.751	210.5
606.96	177.5
607.168	196.5
607.376	206.5
607.585	200.5
607.793	204.5
608.001	206.5
608.21	204.5
608.418	217.5
608.626	214.5
608.834	202.5
609.043	203.5
609.251	218.5
609.459	220.5
609.667	200.5
609.875	198.5
610.083	216.5
610.291	194.5
610.499	210.5
610.707	208.5
610.916	207.5
611.124	205.5
611.332	206.5
611.54	215.5
611.748	231.5
611.955	214.5
612.163	214.5
612.371	202.5
612.579	217.5
612.787	195.5
612.995	209.5
613.203	199.5
613.411	213.5
613.618	209.5
613.826	194.5
614.034	210.5
614.242	211.5
614.449	207.5
614.657	191.5
614.865	207.5
615.072	208.5
615.28	203.5
615.488	208.5
615.695	217.5
615.903	199.5
616.111	193.5
616.318	200.5
616.526	190.5
616.733	196.5
616.941	205.5
617.148	200.5
617.356	191.5
617.563	203.5
617.771	211.5
617.978	202.5
618.185	207.5
618.393	208.5
618.6	207.5
618.807	202.5
619.015	204.5
619.222	206.5
619.429	197.5
619.637	207.5
619.844	198.5
620.051	201.5
620.258	212.5
620.466	202.5
620.673	192.5
620.88	190.5
621.087	180.5
621.294	210.5
621.501	183.5
621.708	208.5
621.915	190.5
622.122	190.5
622.329	203.5
622.536	187.5
622.743	195.5
622.95	186.5
623.157	187.5
623.364	203.5
623.571	171.5
623.778	183.5
623.985	193.5
624.192	178.5
624.399	190.5
624.606	194.5
624.812	172.5
625.019	179.5
625.226	176.5
625.433	192.5
625.639	191.5
625.846	178.5
626.053	182.5
626.259	198.5
626.466	184.5
626.673	175.5
626.879	180.5
627.086	172.5
627.293	188.5
627.499	174.5
627.706	171.5
627.912	180.5
628.119	182.5
628.325	186.5
628.532	175.5
628.738	172.5
628.945	186.5
629.151	192.5
629.357	176.5
629.564	160.5
629.77	187.5
629.976	177.5
630.183	177.5
630.389	170.5
630.595	170.5
630.802	159.5
631.008	164.5
631.214	174.5
631.42	186.5
631.627	164.5
631.833	168.5
632.039	177.5
632.245	191.5
632.451	165.5
632.657	176.5
632.863	173.5
633.069	161.5
633.275	144.5
633.481	159.5
633.688	169.5
633.893	174.5
634.099	163.5
634.305	169.5
634.511	160.5
634.717	163.5
634.923	162.5
635.129	149.5
635.335	155.5
635.541	160.5
635.747	153.5
635.952	139.5
636.158	159.5
636.364	163.5
636.57	160.5
636.775	168.5
636.981	159.5
637.187	164.5
637.392	168.5
637.598	154.5
637.804	171.5
638.009	153.5
638.215	162.5
638.421	178.5
638.626	169.5
638.832	159.5
639.037	158.5
639.243	144.5
639.448	150.5
639.654	171.5
639.859	153.5
640.065	157.5
640.27	164.5
640.475	148.5
640.681	146.5
640.886	149.5
641.091	161.5
641.297	162.5
641.502	149.5
641.707	146.5
641.913	147.5
642.118	157.5
642.323	163.5
642.528	146.5
642.733	162.5
642.939	161.5
643.144	154.5
643.349	146.5
643.554	131.5
643.759	146.5
643.964	156.5
644.169	161.5
644.374	162.5
644.579	153.5
644.784	136.5
644.989	153.5
645.194	150.5
645.399	175.5
645.604	156.5
645.809	155.5
646.014	154.5
646.219	156.5
646.423	145.5
646.628	145.5
646.833	168.5
647.038	154.5
647.243	160.5
647.447	142.5
647.652	162.5
647.857	165.5
648.062	158.5
648.266	178.5
648.471	158.5
648.676	153.5
648.88	149.5
649.085	151.5
649.289	156.5
649.494	161.5
649.698	169.5
649.903	170.5
650.107	139.5
650.312	153.5
650.516	148.5
650.721	155.5
650.925	146.5
651.13	140.5
651.334	148.5
651.539	141.5
651.743	151.5
651.947	154.5
652.152	142.5
652.356	144.5
652.56	139.5
652.764	140.5
652.969	137.5
653.173	151.5
653.377	125.5
653.581	131.5
653.785	137.5
653.99	139.5
654.194	128.5
654.398	146.5
654.602	131.5
654.806	134.5
655.01	138.5
655.214	130.5
655.418	136.5
655.622	130.5
655.826	122.5
656.03	147.5
656.234	141.5
656.438	134.5
656.642	139.5
656.846	139.5
657.049	149.5
657.253	139.5
657.457	121.5
657.661	127.5
657.865	129.5
658.068	123.5
658.272	103.5
658.476	124.5
658.68	99.5
658.883	108.5
659.087	105.5
659.291	121.5
659.494	92.5
659.698	102.5
659.901	104.5
660.105	111.5
660.309	119.5
660.512	96.5
660.716	92.5
660.919	109.5
661.123	86.5
661.326	91.5
661.53	81.5
661.733	89.5
661.936	77.5
662.14	93.5
662.343	91.5
662.546	88.5
662.75	97.5
662.953	84.5
663.156	93.5
663.36	98.5
663.563	93.5
663.766	84.5
663.969	87.5
664.173	84.5
664.376	102.5
664.579	95.5
664.782	86.5
664.985	98.5
665.188	76.5
665.391	96.5
665.594	84.5
665.797	71.5
666	86.5
666.203	87.5
666.406	91.5
666.609	101.5
666.812	101.5
667.015	87.5
667.218	78.5
667.421	84.5
667.624	81.5
667.827	89.5
668.03	86.5
668.232	90.5
668.435	79.5
668.638	79.5
668.841	104.5
669.043	97.5
669.246	78.5
669.449	88.5
669.651	78.5
669.854	91.5
670.057	93.5
670.259	103.5
670.462	82.5
670.665	92.5
670.867	92.5
671.07	86.5
671.272	93.5
671.475	90.5
671.677	96.5
671.88	82.5
672.082	88.5
672.284	69.5
672.487	88.5
672.689	74.5
672.892	81.5
