Data from 1977.PennyLincolnUp.Lamp.En5.5.200Scan.071719.P1_HRD10591_16-05-00-863.txt Node
Date: Thu Jul 18 16:05:00 EDT 2019
User: cochatt
Spectrometer: HR+D1059
Trigger mode: 1
Integration Time (sec): 1.000000E-1
Scans to average: 1
Electric dark correction enabled: true
Nonlinearity correction enabled: false
Boxcar width: 0
XAxis mode: Wavelengths
Number of Pixels in Spectrum: 2048
>>>>>Begin Spectral Data<<<<<
223.165	-11.25
223.4	-11.25
223.635	-11.25
223.869	-20.25
224.104	-23.25
224.338	-16.25
224.573	-13.25
224.808	-5.25
225.042	-3.25
225.277	-3.25
225.511	3.75
225.746	12.75
225.98	-2.25
226.215	13.75
226.449	4.75
226.683	14.75
226.918	20.75
227.152	27.75
227.387	22.75
227.621	28.75
227.856	42.75
228.09	34.75
228.324	45.75
228.559	52.75
228.793	53.75
229.027	74.75
229.262	81.75
229.496	92.75
229.73	104.75
229.964	114.75
230.199	96.75
230.433	83.75
230.667	85.75
230.901	113.75
231.136	101.75
231.37	105.75
231.604	106.75
231.838	117.75
232.072	94.75
232.306	112.75
232.541	108.75
232.775	99.75
233.009	122.75
233.243	101.75
233.477	112.75
233.711	110.75
233.945	121.75
234.179	106.75
234.413	120.75
234.647	116.75
234.881	99.75
235.115	116.75
235.349	90.75
235.583	108.75
235.817	109.75
236.051	121.75
236.285	104.75
236.519	123.75
236.753	123.75
236.987	126.75
237.221	142.75
237.455	165.75
237.689	137.75
237.922	122.75
238.156	108.75
238.39	110.75
238.624	121.75
238.858	101.75
239.091	116.75
239.325	115.75
239.559	107.75
239.793	124.75
240.027	121.75
240.26	120.75
240.494	122.75
240.728	119.75
240.961	132.75
241.195	131.75
241.429	128.75
241.662	125.75
241.896	121.75
242.13	105.75
242.363	122.75
242.597	128.75
242.83	141.75
243.064	129.75
243.298	134.75
243.531	138.75
243.765	129.75
243.998	124.75
244.232	129.75
244.465	138.75
244.699	139.75
244.932	124.75
245.166	123.75
245.399	128.75
245.633	141.75
245.866	125.75
246.099	128.75
246.333	134.75
246.566	138.75
246.8	128.75
247.033	148.75
247.266	135.75
247.5	130.75
247.733	142.75
247.966	171.75
248.2	160.75
248.433	158.75
248.666	155.75
248.899	156.75
249.133	162.75
249.366	164.75
249.599	169.75
249.832	158.75
250.066	170.75
250.299	165.75
250.532	146.75
250.765	150.75
250.998	192.75
251.231	211.75
251.465	168.75
251.698	176.75
251.931	180.75
252.164	181.75
252.397	169.75
252.63	166.75
252.863	178.75
253.096	190.75
253.329	184.75
253.562	189.75
253.795	179.75
254.028	190.75
254.261	169.75
254.494	190.75
254.727	187.75
254.96	205.75
255.193	219.75
255.426	199.75
255.659	176.75
255.892	194.75
256.124	204.75
256.357	180.75
256.59	194.75
256.823	201.75
257.056	186.75
257.289	175.75
257.521	182.75
257.754	185.75
257.987	188.75
258.22	188.75
258.452	173.75
258.685	203.75
258.918	166.75
259.151	201.75
259.383	206.75
259.616	200.75
259.849	194.75
260.081	216.75
260.314	201.75
260.547	205.75
260.779	204.75
261.012	192.75
261.244	203.75
261.477	211.75
261.71	197.75
261.942	191.75
262.175	204.75
262.407	217.75
262.64	199.75
262.872	189.75
263.105	186.75
263.337	205.75
263.57	194.75
263.802	220.75
264.035	207.75
264.267	196.75
264.499	188.75
264.732	209.75
264.964	204.75
265.197	207.75
265.429	201.75
265.661	188.75
265.894	193.75
266.126	184.75
266.358	196.75
266.591	203.75
266.823	211.75
267.055	211.75
267.287	222.75
267.52	204.75
267.752	205.75
267.984	198.75
268.216	187.75
268.448	212.75
268.681	221.75
268.913	222.75
269.145	246.75
269.377	241.75
269.609	222.75
269.841	232.75
270.073	240.75
270.306	256.75
270.538	261.75
270.77	246.75
271.002	262.75
271.234	258.75
271.466	253.75
271.698	260.75
271.93	268.75
272.162	281.75
272.394	246.75
272.626	272.75
272.858	234.75
273.09	243.75
273.322	225.75
273.553	236.75
273.785	227.75
274.017	235.75
274.249	250.75
274.481	241.75
274.713	247.75
274.945	254.75
275.176	237.75
275.408	252.75
275.64	244.75
275.872	244.75
276.104	251.75
276.335	258.75
276.567	258.75
276.799	261.75
277.031	279.75
277.262	274.75
277.494	271.75
277.726	258.75
277.957	266.75
278.189	253.75
278.421	242.75
278.652	244.75
278.884	245.75
279.115	230.75
279.347	262.75
279.579	250.75
279.81	251.75
280.042	231.75
280.273	244.75
280.505	260.75
280.736	265.75
280.968	269.75
281.199	260.75
281.431	247.75
281.662	257.75
281.894	263.75
282.125	262.75
282.356	277.75
282.588	254.75
282.819	265.75
283.051	272.75
283.282	245.75
283.513	258.75
283.745	277.75
283.976	276.75
284.207	267.75
284.439	262.75
284.67	281.75
284.901	281.75
285.132	258.75
285.364	266.75
285.595	270.75
285.826	286.75
286.057	269.75
286.288	264.75
286.52	278.75
286.751	269.75
286.982	286.75
287.213	272.75
287.444	287.75
287.675	297.75
287.906	291.75
288.138	289.75
288.369	296.75
288.6	297.75
288.831	278.75
289.062	288.75
289.293	271.75
289.524	282.75
289.755	290.75
289.986	289.75
290.217	267.75
290.448	288.75
290.679	282.75
290.91	290.75
291.141	292.75
291.371	288.75
291.602	289.75
291.833	283.75
292.064	284.75
292.295	273.75
292.526	292.75
292.757	291.75
292.987	289.75
293.218	290.75
293.449	287.75
293.68	302.75
293.91	289.75
294.141	280.75
294.372	288.75
294.603	280.75
294.833	293.75
295.064	278.75
295.295	285.75
295.525	275.75
295.756	283.75
295.987	300.75
296.217	301.75
296.448	292.75
296.679	299.75
296.909	294.75
297.14	292.75
297.37	293.75
297.601	300.75
297.831	299.75
298.062	281.75
298.292	288.75
298.523	293.75
298.753	292.75
298.984	304.75
299.214	308.75
299.445	327.75
299.675	314.75
299.905	300.75
300.136	303.75
300.366	312.75
300.597	292.75
300.827	306.75
301.057	319.75
301.288	320.75
301.518	322.75
301.748	322.75
301.979	323.75
302.209	325.75
302.439	318.75
302.669	330.75
302.9	308.75
303.13	307.75
303.36	318.75
303.59	320.75
303.82	315.75
304.051	320.75
304.281	329.75
304.511	302.75
304.741	321.75
304.971	328.75
305.201	312.75
305.431	313.75
305.661	320.75
305.891	326.75
306.121	319.75
306.352	329.75
306.582	313.75
306.812	319.75
307.042	320.75
307.272	329.75
307.502	328.75
307.731	332.75
307.961	318.75
308.191	320.75
308.421	340.75
308.651	321.75
308.881	338.75
309.111	333.75
309.341	341.75
309.571	328.75
309.8	339.75
310.03	341.75
310.26	338.75
310.49	325.75
310.72	333.75
310.949	342.75
311.179	361.75
311.409	343.75
311.639	371.75
311.868	334.75
312.098	358.75
312.328	368.75
312.557	378.75
312.787	355.75
313.017	360.75
313.246	352.75
313.476	353.75
313.706	324.75
313.935	353.75
314.165	345.75
314.394	329.75
314.624	350.75
314.853	357.75
315.083	335.75
315.312	339.75
315.542	358.75
315.771	346.75
316.001	343.75
316.23	358.75
316.46	332.75
316.689	346.75
316.919	355.75
317.148	354.75
317.377	363.75
317.607	359.75
317.836	365.75
318.065	338.75
318.295	344.75
318.524	350.75
318.753	350.75
318.983	352.75
319.212	357.75
319.441	373.75
319.67	334.75
319.9	368.75
320.129	338.75
320.358	360.75
320.587	348.75
320.816	369.75
321.046	359.75
321.275	386.75
321.504	352.75
321.733	373.75
321.962	368.75
322.191	381.75
322.42	378.75
322.649	379.75
322.878	370.75
323.108	372.75
323.337	371.75
323.566	398.75
323.795	399.75
324.024	413.75
324.253	487.75
324.482	657.75
324.71	928.75
324.939	1215.75
325.168	1013.75
325.397	578.75
325.626	459.75
325.855	411.75
326.084	406.75
326.313	396.75
326.542	392.75
326.77	432.75
326.999	483.75
327.228	605.75
327.457	818.75
327.686	925.75
327.914	662.75
328.143	484.75
328.372	446.75
328.6	442.75
328.829	405.75
329.058	427.75
329.287	442.75
329.515	412.75
329.744	420.75
329.972	407.75
330.201	424.75
330.43	416.75
330.658	451.75
330.887	440.75
331.115	438.75
331.344	407.75
331.572	395.75
331.801	427.75
332.03	410.75
332.258	431.75
332.486	426.75
332.715	421.75
332.943	414.75
333.172	429.75
333.4	440.75
333.629	448.75
333.857	451.75
334.085	440.75
334.314	438.75
334.542	436.75
334.771	460.75
334.999	429.75
335.227	445.75
335.455	432.75
335.684	429.75
335.912	402.75
336.14	412.75
336.369	436.75
336.597	437.75
336.825	420.75
337.053	410.75
337.281	409.75
337.51	408.75
337.738	405.75
337.966	412.75
338.194	404.75
338.422	416.75
338.65	403.75
338.878	390.75
339.106	417.75
339.334	384.75
339.562	406.75
339.79	396.75
340.018	396.75
340.246	385.75
340.474	385.75
340.702	385.75
340.93	388.75
341.158	383.75
341.386	387.75
341.614	375.75
341.842	391.75
342.07	389.75
342.298	376.75
342.526	392.75
342.754	370.75
342.981	392.75
343.209	380.75
343.437	394.75
343.665	409.75
343.893	417.75
344.12	395.75
344.348	412.75
344.576	413.75
344.804	398.75
345.031	407.75
345.259	410.75
345.487	402.75
345.714	394.75
345.942	386.75
346.17	390.75
346.397	384.75
346.625	380.75
346.853	382.75
347.08	382.75
347.308	390.75
347.535	384.75
347.763	358.75
347.99	392.75
348.218	380.75
348.445	386.75
348.673	372.75
348.9	379.75
349.128	370.75
349.355	363.75
349.583	382.75
349.81	356.75
350.037	360.75
350.265	383.75
350.492	369.75
350.72	381.75
350.947	379.75
351.174	347.75
351.402	357.75
351.629	365.75
351.856	369.75
352.083	368.75
352.311	388.75
352.538	358.75
352.765	381.75
352.992	364.75
353.22	364.75
353.447	357.75
353.674	349.75
353.901	346.75
354.128	350.75
354.355	351.75
354.583	359.75
354.81	350.75
355.037	355.75
355.264	348.75
355.491	364.75
355.718	354.75
355.945	353.75
356.172	337.75
356.399	356.75
356.626	349.75
356.853	376.75
357.08	362.75
357.307	350.75
357.534	363.75
357.761	362.75
357.988	359.75
358.215	351.75
358.441	349.75
358.668	378.75
358.895	362.75
359.122	384.75
359.349	345.75
359.576	375.75
359.802	386.75
360.029	363.75
360.256	368.75
360.483	343.75
360.709	386.75
360.936	348.75
361.163	370.75
361.39	371.75
361.616	380.75
361.843	382.75
362.07	363.75
362.296	374.75
362.523	357.75
362.749	361.75
362.976	352.75
363.203	372.75
363.429	370.75
363.656	361.75
363.882	358.75
364.109	353.75
364.335	349.75
364.562	347.75
364.788	357.75
365.015	366.75
365.241	356.75
365.468	342.75
365.694	335.75
365.92	359.75
366.147	342.75
366.373	344.75
366.599	345.75
366.826	360.75
367.052	353.75
367.278	362.75
367.505	365.75
367.731	360.75
367.957	349.75
368.184	363.75
368.41	350.75
368.636	376.75
368.862	348.75
369.089	365.75
369.315	360.75
369.541	350.75
369.767	334.75
369.993	369.75
370.219	374.75
370.445	358.75
370.672	360.75
370.898	374.75
371.124	369.75
371.35	351.75
371.576	365.75
371.802	375.75
372.028	352.75
372.254	372.75
372.48	359.75
372.706	357.75
372.932	372.75
373.158	354.75
373.384	362.75
373.61	374.75
373.835	374.75
374.061	360.75
374.287	386.75
374.513	376.75
374.739	371.75
374.965	384.75
375.191	364.75
375.416	369.75
375.642	354.75
375.868	368.75
376.094	378.75
376.319	363.75
376.545	348.75
376.771	363.75
376.997	378.75
377.222	361.75
377.448	352.75
377.674	353.75
377.899	337.75
378.125	368.75
378.35	344.75
378.576	353.75
378.802	355.75
379.027	345.75
379.253	361.75
379.478	384.75
379.704	364.75
379.929	356.75
380.155	348.75
380.38	347.75
380.606	355.75
380.831	365.75
381.057	361.75
381.282	348.75
381.507	344.75
381.733	353.75
381.958	347.75
382.184	342.75
382.409	365.75
382.634	372.75
382.86	376.75
383.085	365.75
383.31	376.75
383.535	364.75
383.761	376.75
383.986	365.75
384.211	380.75
384.436	392.75
384.662	376.75
384.887	379.75
385.112	375.75
385.337	397.75
385.562	387.75
385.787	397.75
386.013	404.75
386.238	399.75
386.463	425.75
386.688	414.75
386.913	394.75
387.138	404.75
387.363	398.75
387.588	386.75
387.813	392.75
388.038	398.75
388.263	410.75
388.488	386.75
388.713	391.75
388.938	382.75
389.163	371.75
389.387	396.75
389.612	398.75
389.837	408.75
390.062	355.75
390.287	388.75
390.512	392.75
390.736	414.75
390.961	402.75
391.186	399.75
391.411	411.75
391.636	405.75
391.86	411.75
392.085	417.75
392.31	415.75
392.534	412.75
392.759	401.75
392.984	396.75
393.208	394.75
393.433	403.75
393.658	418.75
393.882	403.75
394.107	403.75
394.331	404.75
394.556	388.75
394.78	382.75
395.005	418.75
395.229	392.75
395.454	399.75
395.678	412.75
395.903	436.75
396.127	410.75
396.352	409.75
396.576	407.75
396.801	412.75
397.025	424.75
397.249	428.75
397.474	423.75
397.698	413.75
397.922	430.75
398.147	442.75
398.371	433.75
398.595	440.75
398.82	469.75
399.044	428.75
399.268	475.75
399.492	531.75
399.717	566.75
399.941	532.75
400.165	570.75
400.389	560.75
400.613	525.75
400.837	450.75
401.062	456.75
401.286	450.75
401.51	460.75
401.734	449.75
401.958	455.75
402.182	452.75
402.406	457.75
402.63	456.75
402.854	467.75
403.078	448.75
403.302	449.75
403.526	453.75
403.75	460.75
403.974	470.75
404.198	460.75
404.422	475.75
404.645	471.75
404.869	467.75
405.093	485.75
405.317	485.75
405.541	509.75
405.765	509.75
405.988	478.75
406.212	472.75
406.436	468.75
406.66	499.75
406.883	481.75
407.107	492.75
407.331	537.75
407.555	586.75
407.778	599.75
408.002	516.75
408.226	499.75
408.449	501.75
408.673	520.75
408.896	520.75
409.12	542.75
409.344	508.75
409.567	483.75
409.791	465.75
410.014	464.75
410.238	465.75
410.461	473.75
410.685	475.75
410.908	470.75
411.132	491.75
411.355	512.75
411.578	496.75
411.802	462.75
412.025	447.75
412.249	455.75
412.472	470.75
412.695	476.75
412.919	485.75
413.142	456.75
413.365	451.75
413.589	428.75
413.812	422.75
414.035	444.75
414.258	438.75
414.482	426.75
414.705	439.75
414.928	436.75
415.151	427.75
415.374	439.75
415.597	426.75
415.821	418.75
416.044	428.75
416.267	434.75
416.49	421.75
416.713	421.75
416.936	421.75
417.159	423.75
417.382	406.75
417.605	411.75
417.828	433.75
418.051	460.75
418.274	441.75
418.497	421.75
418.72	443.75
418.943	432.75
419.166	467.75
419.389	468.75
419.611	475.75
419.834	474.75
420.057	452.75
420.28	437.75
420.503	433.75
420.726	418.75
420.948	438.75
421.171	467.75
421.394	469.75
421.617	457.75
421.839	436.75
422.062	439.75
422.285	452.75
422.507	493.75
422.73	515.75
422.953	507.75
423.175	479.75
423.398	456.75
423.621	426.75
423.843	454.75
424.066	460.75
424.288	474.75
424.511	487.75
424.733	501.75
424.956	582.75
425.178	553.75
425.401	534.75
425.623	542.75
425.846	465.75
426.068	444.75
426.291	449.75
426.513	431.75
426.735	446.75
426.958	468.75
427.18	529.75
427.402	628.75
427.625	683.75
427.847	558.75
428.069	519.75
428.292	469.75
428.514	425.75
428.736	404.75
428.958	401.75
429.181	413.75
429.403	410.75
429.625	440.75
429.847	448.75
430.069	474.75
430.292	461.75
430.514	425.75
430.736	432.75
430.958	414.75
431.18	419.75
431.402	415.75
431.624	405.75
431.846	401.75
432.068	392.75
432.29	417.75
432.512	424.75
432.734	408.75
432.956	398.75
433.178	409.75
433.4	406.75
433.622	404.75
433.844	418.75
434.066	398.75
434.287	396.75
434.509	404.75
434.731	425.75
434.953	414.75
435.175	444.75
435.397	462.75
435.618	472.75
435.84	488.75
436.062	521.75
436.284	563.75
436.505	482.75
436.727	428.75
436.949	419.75
437.17	403.75
437.392	413.75
437.614	412.75
437.835	432.75
438.057	477.75
438.278	546.75
438.5	568.75
438.721	642.75
438.943	613.75
439.165	478.75
439.386	444.75
439.608	457.75
439.829	448.75
440.05	433.75
440.272	484.75
440.493	448.75
440.715	428.75
440.936	419.75
441.158	432.75
441.379	433.75
441.6	422.75
441.822	461.75
442.043	468.75
442.264	518.75
442.486	522.75
442.707	468.75
442.928	448.75
443.149	458.75
443.371	471.75
443.592	492.75
443.813	556.75
444.034	602.75
444.255	509.75
444.476	487.75
444.698	460.75
444.919	469.75
445.14	545.75
445.361	502.75
445.582	466.75
445.803	501.75
446.024	579.75
446.245	576.75
446.466	512.75
446.687	450.75
446.908	458.75
447.129	411.75
447.35	393.75
447.571	414.75
447.792	395.75
448.013	406.75
448.234	413.75
448.455	446.75
448.675	526.75
448.896	606.75
449.117	503.75
449.338	502.75
449.559	554.75
449.779	640.75
450	514.75
450.221	436.75
450.442	392.75
450.662	396.75
450.883	389.75
451.104	388.75
451.324	376.75
451.545	377.75
451.766	381.75
451.986	353.75
452.207	371.75
452.428	368.75
452.648	349.75
452.869	366.75
453.089	373.75
453.31	384.75
453.53	361.75
453.751	372.75
453.971	365.75
454.192	355.75
454.412	382.75
454.633	343.75
454.853	368.75
455.073	367.75
455.294	375.75
455.514	407.75
455.734	391.75
455.955	376.75
456.175	365.75
456.395	372.75
456.616	352.75
456.836	359.75
457.056	349.75
457.276	342.75
457.497	357.75
457.717	359.75
457.937	347.75
458.157	340.75
458.377	374.75
458.598	388.75
458.818	401.75
459.038	437.75
459.258	458.75
459.478	416.75
459.698	413.75
459.918	405.75
460.138	401.75
460.358	403.75
460.578	411.75
460.798	438.75
461.018	415.75
461.238	400.75
461.458	420.75
461.678	412.75
461.898	411.75
462.118	423.75
462.338	457.75
462.558	438.75
462.777	455.75
462.997	441.75
463.217	472.75
463.437	499.75
463.657	456.75
463.876	473.75
464.096	450.75
464.316	469.75
464.536	437.75
464.755	426.75
464.975	440.75
465.195	439.75
465.414	466.75
465.634	436.75
465.854	424.75
466.073	415.75
466.293	384.75
466.512	390.75
466.732	376.75
466.951	385.75
467.171	373.75
467.391	394.75
467.61	392.75
467.829	386.75
468.049	392.75
468.268	379.75
468.488	372.75
468.707	368.75
468.927	368.75
469.146	340.75
469.365	380.75
469.585	380.75
469.804	385.75
470.023	364.75
470.243	386.75
470.462	384.75
470.681	399.75
470.901	385.75
471.12	395.75
471.339	390.75
471.558	384.75
471.777	403.75
471.997	391.75
472.216	398.75
472.435	378.75
472.654	375.75
472.873	379.75
473.092	386.75
473.311	378.75
473.53	394.75
473.749	387.75
473.968	418.75
474.187	492.75
474.406	472.75
474.625	414.75
474.844	386.75
475.063	396.75
475.282	381.75
475.501	389.75
475.72	385.75
475.939	397.75
476.158	390.75
476.377	406.75
476.596	391.75
476.814	410.75
477.033	411.75
477.252	405.75
477.471	408.75
477.69	409.75
477.908	411.75
478.127	434.75
478.346	420.75
478.564	444.75
478.783	426.75
479.002	442.75
479.22	435.75
479.439	446.75
479.658	441.75
479.876	445.75
480.095	451.75
480.313	468.75
480.532	471.75
480.751	477.75
480.969	481.75
481.188	470.75
481.406	476.75
481.624	457.75
481.843	444.75
482.061	429.75
482.28	464.75
482.498	450.75
482.717	437.75
482.935	419.75
483.153	435.75
483.372	429.75
483.59	461.75
483.808	435.75
484.027	437.75
484.245	463.75
484.463	441.75
484.681	445.75
484.9	452.75
485.118	435.75
485.336	459.75
485.554	474.75
485.772	441.75
485.99	450.75
486.209	467.75
486.427	450.75
486.645	468.75
486.863	460.75
487.081	458.75
487.299	456.75
487.517	465.75
487.735	474.75
487.953	439.75
488.171	477.75
488.389	469.75
488.607	463.75
488.825	481.75
489.043	476.75
489.261	451.75
489.479	461.75
489.696	473.75
489.914	452.75
490.132	475.75
490.35	488.75
490.568	486.75
490.786	491.75
491.003	476.75
491.221	514.75
491.439	510.75
491.657	494.75
491.874	509.75
492.092	502.75
492.31	502.75
492.527	525.75
492.745	509.75
492.963	537.75
493.18	518.75
493.398	530.75
493.615	522.75
493.833	507.75
494.05	544.75
494.268	521.75
494.485	548.75
494.703	528.75
494.92	512.75
495.138	522.75
495.355	517.75
495.573	544.75
495.79	522.75
496.008	550.75
496.225	546.75
496.442	525.75
496.66	537.75
496.877	544.75
497.094	554.75
497.312	558.75
497.529	579.75
497.746	576.75
497.963	571.75
498.181	581.75
498.398	593.75
498.615	628.75
498.832	645.75
499.049	678.75
499.267	684.75
499.484	690.75
499.701	756.75
499.918	807.75
500.135	818.75
500.352	902.75
500.569	908.75
500.786	887.75
501.003	876.75
501.22	829.75
501.437	787.75
501.654	773.75
501.871	737.75
502.088	702.75
502.305	672.75
502.522	622.75
502.739	630.75
502.956	620.75
503.172	590.75
503.389	626.75
503.606	578.75
503.823	560.75
504.04	546.75
504.256	569.75
504.473	562.75
504.69	549.75
504.907	572.75
505.123	520.75
505.34	517.75
505.557	522.75
505.773	532.75
505.99	518.75
506.207	501.75
506.423	502.75
506.64	497.75
506.856	496.75
507.073	500.75
507.289	493.75
507.506	469.75
507.722	505.75
507.939	489.75
508.155	460.75
508.372	480.75
508.588	469.75
508.805	469.75
509.021	470.75
509.238	472.75
509.454	473.75
509.67	462.75
509.887	465.75
510.103	499.75
510.319	454.75
510.536	504.75
510.752	633.75
510.968	558.75
511.184	472.75
511.401	454.75
511.617	460.75
511.833	455.75
512.049	455.75
512.265	441.75
512.481	452.75
512.698	454.75
512.914	457.75
513.13	440.75
513.346	429.75
513.562	442.75
513.778	437.75
513.994	437.75
514.21	461.75
514.426	452.75
514.642	471.75
514.858	497.75
515.074	505.75
515.29	519.75
515.506	644.75
515.721	560.75
515.937	478.75
516.153	466.75
516.369	478.75
516.585	469.75
516.801	479.75
517.016	485.75
517.232	491.75
517.448	508.75
517.664	524.75
517.879	492.75
518.095	485.75
518.311	500.75
518.527	492.75
518.742	466.75
518.958	448.75
519.173	455.75
519.389	473.75
519.605	450.75
519.82	461.75
520.036	465.75
520.251	457.75
520.467	471.75
520.682	453.75
520.898	450.75
521.113	454.75
521.329	485.75
521.544	500.75
521.76	546.75
521.975	721.75
522.19	714.75
522.406	524.75
522.621	444.75
522.836	416.75
523.052	438.75
523.267	445.75
523.482	409.75
523.698	422.75
523.913	421.75
524.128	396.75
524.343	386.75
524.559	410.75
524.774	409.75
524.989	412.75
525.204	401.75
525.419	404.75
525.634	389.75
525.849	398.75
526.064	398.75
526.28	381.75
526.495	379.75
526.71	390.75
526.925	387.75
527.14	380.75
527.355	394.75
527.57	381.75
527.785	376.75
527.999	384.75
528.214	396.75
528.429	373.75
528.644	393.75
528.859	396.75
529.074	395.75
529.289	377.75
529.503	403.75
529.718	410.75
529.933	380.75
530.148	376.75
530.363	389.75
530.577	385.75
530.792	378.75
531.007	385.75
531.221	388.75
531.436	384.75
531.651	401.75
531.865	406.75
532.08	388.75
532.295	349.75
532.509	376.75
532.724	388.75
532.938	382.75
533.153	347.75
533.367	358.75
533.582	359.75
533.796	378.75
534.011	356.75
534.225	366.75
534.44	371.75
534.654	381.75
534.868	386.75
535.083	378.75
535.297	388.75
535.511	380.75
535.726	386.75
535.94	365.75
536.154	363.75
536.369	364.75
536.583	375.75
536.797	372.75
537.011	370.75
537.225	346.75
537.44	355.75
537.654	362.75
537.868	364.75
538.082	344.75
538.296	360.75
538.51	375.75
538.724	344.75
538.938	366.75
539.153	366.75
539.367	368.75
539.581	362.75
539.795	358.75
540.009	352.75
540.222	352.75
540.436	338.75
540.65	344.75
540.864	379.75
541.078	352.75
541.292	346.75
541.506	355.75
541.72	363.75
541.934	358.75
542.147	365.75
542.361	355.75
542.575	344.75
542.789	374.75
543.002	363.75
543.216	346.75
543.43	375.75
543.644	364.75
543.857	355.75
544.071	369.75
544.285	352.75
544.498	376.75
544.712	350.75
544.925	352.75
545.139	353.75
545.352	363.75
545.566	375.75
545.779	359.75
545.993	357.75
546.206	365.75
546.42	366.75
546.633	355.75
546.847	366.75
547.06	357.75
547.274	349.75
547.487	350.75
547.7	350.75
547.914	352.75
548.127	345.75
548.34	333.75
548.554	355.75
548.767	344.75
548.98	337.75
549.193	349.75
549.407	349.75
549.62	351.75
549.833	340.75
550.046	341.75
550.259	368.75
550.473	343.75
550.686	374.75
550.899	350.75
551.112	349.75
551.325	326.75
551.538	356.75
551.751	344.75
551.964	349.75
552.177	352.75
552.39	356.75
552.603	362.75
552.816	357.75
553.029	361.75
553.242	357.75
553.455	368.75
553.667	357.75
553.88	351.75
554.093	352.75
554.306	339.75
554.519	369.75
554.732	360.75
554.944	358.75
555.157	355.75
555.37	344.75
555.583	360.75
555.795	339.75
556.008	336.75
556.221	339.75
556.433	336.75
556.646	339.75
556.859	325.75
557.071	297.75
557.284	320.75
557.496	318.75
557.709	312.75
557.921	323.75
558.134	310.75
558.346	307.75
558.559	311.75
558.771	322.75
558.984	312.75
559.196	300.75
559.409	304.75
559.621	290.75
559.833	330.75
560.046	317.75
560.258	309.75
560.47	300.75
560.683	308.75
560.895	312.75
561.107	322.75
561.32	311.75
561.532	312.75
561.744	309.75
561.956	332.75
562.168	317.75
562.381	309.75
562.593	322.75
562.805	318.75
563.017	323.75
563.229	331.75
563.441	305.75
563.653	338.75
563.865	328.75
564.077	337.75
564.289	332.75
564.501	323.75
564.713	340.75
564.925	329.75
565.137	334.75
565.349	335.75
565.561	330.75
565.773	376.75
565.985	365.75
566.197	378.75
566.408	382.75
566.62	393.75
566.832	397.75
567.044	409.75
567.255	416.75
567.467	407.75
567.679	441.75
567.891	424.75
568.102	442.75
568.314	437.75
568.526	406.75
568.737	397.75
568.949	363.75
569.161	364.75
569.372	353.75
569.584	351.75
569.795	335.75
570.007	329.75
570.218	320.75
570.43	318.75
570.641	326.75
570.853	314.75
571.064	324.75
571.276	312.75
571.487	298.75
571.698	304.75
571.91	296.75
572.121	311.75
572.333	291.75
572.544	301.75
572.755	291.75
572.966	286.75
573.178	296.75
573.389	290.75
573.6	287.75
573.811	278.75
574.023	260.75
574.234	282.75
574.445	283.75
574.656	282.75
574.867	273.75
575.078	270.75
575.289	266.75
575.501	273.75
575.712	291.75
575.923	260.75
576.134	274.75
576.345	252.75
576.556	266.75
576.767	266.75
576.978	260.75
577.188	261.75
577.399	275.75
577.61	253.75
577.821	261.75
578.032	245.75
578.243	286.75
578.454	333.75
578.665	292.75
578.875	261.75
579.086	272.75
579.297	261.75
579.508	258.75
579.718	254.75
579.929	260.75
580.14	246.75
580.35	250.75
580.561	245.75
580.772	265.75
580.982	249.75
581.193	222.75
581.403	244.75
581.614	266.75
581.825	241.75
582.035	231.75
582.246	250.75
582.456	246.75
582.667	254.75
582.877	259.75
583.087	250.75
583.298	250.75
583.508	250.75
583.719	245.75
583.929	246.75
584.139	245.75
584.35	237.75
584.56	248.75
584.77	245.75
584.981	226.75
585.191	247.75
585.401	256.75
585.611	242.75
585.821	258.75
586.032	252.75
586.242	225.75
586.452	260.75
586.662	250.75
586.872	246.75
587.082	237.75
587.292	254.75
587.502	258.75
587.713	243.75
587.923	263.75
588.133	260.75
588.343	219.75
588.553	212.75
588.762	237.75
588.972	259.75
589.182	253.75
589.392	252.75
589.602	233.75
589.812	237.75
590.022	246.75
590.232	242.75
590.441	246.75
590.651	239.75
590.861	231.75
591.071	247.75
591.281	250.75
591.49	256.75
591.7	268.75
591.91	236.75
592.119	240.75
592.329	234.75
592.539	250.75
592.748	258.75
592.958	263.75
593.167	266.75
593.377	265.75
593.587	270.75
593.796	280.75
594.006	252.75
594.215	260.75
594.424	251.75
594.634	266.75
594.843	251.75
595.053	257.75
595.262	260.75
595.472	250.75
595.681	255.75
595.89	246.75
596.1	253.75
596.309	252.75
596.518	261.75
596.727	217.75
596.937	233.75
597.146	222.75
597.355	238.75
597.564	228.75
597.774	213.75
597.983	224.75
598.192	229.75
598.401	224.75
598.61	221.75
598.819	226.75
599.028	223.75
599.237	215.75
599.446	221.75
599.655	222.75
599.864	222.75
600.073	204.75
600.282	221.75
600.491	216.75
600.7	207.75
600.909	215.75
601.118	212.75
601.327	210.75
601.536	214.75
601.745	219.75
601.953	216.75
602.162	202.75
602.371	210.75
602.58	211.75
602.789	200.75
602.997	198.75
603.206	195.75
603.415	217.75
603.623	204.75
603.832	204.75
604.041	213.75
604.249	207.75
604.458	197.75
604.666	205.75
604.875	203.75
605.084	202.75
605.292	205.75
605.501	206.75
605.709	208.75
605.918	213.75
606.126	220.75
606.334	216.75
606.543	209.75
606.751	210.75
606.96	215.75
607.168	197.75
607.376	202.75
607.585	204.75
607.793	197.75
608.001	188.75
608.21	197.75
608.418	200.75
608.626	199.75
608.834	195.75
609.043	183.75
609.251	201.75
609.459	204.75
609.667	206.75
609.875	192.75
610.083	170.75
610.291	208.75
610.499	203.75
610.707	218.75
610.916	190.75
611.124	206.75
611.332	201.75
611.54	203.75
611.748	216.75
611.955	207.75
612.163	192.75
612.371	212.75
612.579	196.75
612.787	216.75
612.995	200.75
613.203	206.75
613.411	181.75
613.618	190.75
613.826	197.75
614.034	198.75
614.242	187.75
614.449	192.75
614.657	192.75
614.865	186.75
615.072	198.75
615.28	206.75
615.488	200.75
615.695	195.75
615.903	214.75
616.111	214.75
616.318	202.75
616.526	187.75
616.733	210.75
616.941	193.75
617.148	204.75
617.356	201.75
617.563	198.75
617.771	194.75
617.978	199.75
618.185	211.75
618.393	185.75
618.6	201.75
618.807	195.75
619.015	190.75
619.222	200.75
619.429	185.75
619.637	192.75
619.844	176.75
620.051	177.75
620.258	178.75
620.466	179.75
620.673	185.75
620.88	181.75
621.087	185.75
621.294	182.75
621.501	192.75
621.708	203.75
621.915	198.75
622.122	193.75
622.329	183.75
622.536	198.75
622.743	184.75
622.95	197.75
623.157	188.75
623.364	186.75
623.571	178.75
623.778	184.75
623.985	171.75
624.192	189.75
624.399	175.75
624.606	187.75
624.812	179.75
625.019	193.75
625.226	167.75
625.433	172.75
625.639	176.75
625.846	176.75
626.053	169.75
626.259	176.75
626.466	198.75
626.673	186.75
626.879	161.75
627.086	176.75
627.293	182.75
627.499	173.75
627.706	180.75
627.912	155.75
628.119	168.75
628.325	181.75
628.532	171.75
628.738	181.75
628.945	167.75
629.151	165.75
629.357	161.75
629.564	161.75
629.77	169.75
629.976	164.75
630.183	169.75
630.389	163.75
630.595	162.75
630.802	171.75
631.008	158.75
631.214	164.75
631.42	177.75
631.627	161.75
631.833	157.75
632.039	154.75
632.245	154.75
632.451	160.75
632.657	162.75
632.863	176.75
633.069	167.75
633.275	165.75
633.481	160.75
633.688	156.75
633.893	157.75
634.099	150.75
634.305	147.75
634.511	157.75
634.717	154.75
634.923	150.75
635.129	154.75
635.335	166.75
635.541	160.75
635.747	163.75
635.952	160.75
636.158	157.75
636.364	154.75
636.57	148.75
636.775	162.75
636.981	165.75
637.187	158.75
637.392	161.75
637.598	153.75
637.804	172.75
638.009	160.75
638.215	156.75
638.421	151.75
638.626	152.75
638.832	148.75
639.037	141.75
639.243	153.75
639.448	161.75
639.654	148.75
639.859	150.75
640.065	151.75
640.27	170.75
640.475	150.75
640.681	166.75
640.886	161.75
641.091	145.75
641.297	142.75
641.502	154.75
641.707	152.75
641.913	148.75
642.118	138.75
642.323	150.75
642.528	142.75
642.733	143.75
642.939	154.75
643.144	143.75
643.349	140.75
643.554	150.75
643.759	148.75
643.964	142.75
644.169	136.75
644.374	153.75
644.579	160.75
644.784	158.75
644.989	151.75
645.194	152.75
645.399	134.75
645.604	146.75
645.809	165.75
646.014	158.75
646.219	170.75
646.423	138.75
646.628	151.75
646.833	160.75
647.038	155.75
647.243	150.75
647.447	142.75
647.652	155.75
647.857	134.75
648.062	137.75
648.266	128.75
648.471	149.75
648.676	152.75
648.88	148.75
649.085	139.75
649.289	153.75
649.494	154.75
649.698	158.75
649.903	156.75
650.107	144.75
650.312	139.75
650.516	133.75
650.721	136.75
650.925	140.75
651.13	137.75
651.334	136.75
651.539	129.75
651.743	125.75
651.947	140.75
652.152	121.75
652.356	114.75
652.56	147.75
652.764	142.75
652.969	129.75
653.173	136.75
653.377	121.75
653.581	123.75
653.785	137.75
653.99	128.75
654.194	126.75
654.398	113.75
654.602	125.75
654.806	141.75
655.01	112.75
655.214	128.75
655.418	131.75
655.622	114.75
655.826	114.75
656.03	132.75
656.234	128.75
656.438	123.75
656.642	117.75
656.846	128.75
657.049	141.75
657.253	128.75
657.457	122.75
657.661	120.75
657.865	112.75
658.068	104.75
658.272	105.75
658.476	97.75
658.68	97.75
658.883	98.75
659.087	92.75
659.291	113.75
659.494	101.75
659.698	89.75
659.901	86.75
660.105	120.75
660.309	97.75
660.512	93.75
660.716	100.75
660.919	104.75
661.123	98.75
661.326	90.75
661.53	103.75
661.733	85.75
661.936	80.75
662.14	72.75
662.343	81.75
662.546	87.75
662.75	80.75
662.953	73.75
663.156	89.75
663.36	95.75
663.563	82.75
663.766	93.75
663.969	84.75
664.173	91.75
664.376	72.75
664.579	85.75
664.782	70.75
664.985	76.75
665.188	89.75
665.391	83.75
665.594	84.75
665.797	96.75
666	76.75
666.203	85.75
666.406	83.75
666.609	81.75
666.812	81.75
667.015	77.75
667.218	90.75
667.421	84.75
667.624	84.75
667.827	83.75
668.03	86.75
668.232	76.75
668.435	79.75
668.638	74.75
668.841	91.75
669.043	92.75
669.246	95.75
669.449	81.75
669.651	90.75
669.854	78.75
670.057	76.75
670.259	76.75
670.462	85.75
670.665	84.75
670.867	88.75
671.07	89.75
671.272	87.75
671.475	75.75
671.677	85.75
671.88	70.75
672.082	86.75
672.284	85.75
672.487	72.75
672.689	83.75
672.892	80.75
