Data from 1977.PennyLincolnUp.Lamp.En5.5.200Scan.071719.P1_HRD10591_16-06-20-863.txt Node
Date: Thu Jul 18 16:06:20 EDT 2019
User: cochatt
Spectrometer: HR+D1059
Trigger mode: 1
Integration Time (sec): 1.000000E-1
Scans to average: 1
Electric dark correction enabled: true
Nonlinearity correction enabled: false
Boxcar width: 0
XAxis mode: Wavelengths
Number of Pixels in Spectrum: 2048
>>>>>Begin Spectral Data<<<<<
223.165	-16.88
223.4	-16.88
223.635	-16.88
223.869	2.12
224.104	-21.88
224.338	-12.88
224.573	-8.88
224.808	-13.88
225.042	-14.88
225.277	-3.88
225.511	-8.88
225.746	9.12
225.98	-9.88
226.215	3.12
226.449	20.12
226.683	12.12
226.918	35.12
227.152	30.12
227.387	31.12
227.621	50.12
227.856	66.12
228.09	49.12
228.324	50.12
228.559	55.12
228.793	72.12
229.027	111.12
229.262	112.12
229.496	119.12
229.73	115.12
229.964	146.12
230.199	112.12
230.433	106.12
230.667	100.12
230.901	107.12
231.136	114.12
231.37	122.12
231.604	124.12
231.838	113.12
232.072	119.12
232.306	127.12
232.541	115.12
232.775	107.12
233.009	114.12
233.243	120.12
233.477	125.12
233.711	113.12
233.945	131.12
234.179	127.12
234.413	109.12
234.647	120.12
234.881	124.12
235.115	115.12
235.349	132.12
235.583	128.12
235.817	114.12
236.051	120.12
236.285	130.12
236.519	132.12
236.753	135.12
236.987	156.12
237.221	163.12
237.455	196.12
237.689	159.12
237.922	140.12
238.156	134.12
238.39	131.12
238.624	121.12
238.858	124.12
239.091	125.12
239.325	151.12
239.559	125.12
239.793	128.12
240.027	128.12
240.26	142.12
240.494	152.12
240.728	149.12
240.961	158.12
241.195	136.12
241.429	129.12
241.662	134.12
241.896	144.12
242.13	145.12
242.363	149.12
242.597	132.12
242.83	134.12
243.064	143.12
243.298	136.12
243.531	145.12
243.765	149.12
243.998	149.12
244.232	146.12
244.465	129.12
244.699	163.12
244.932	149.12
245.166	141.12
245.399	152.12
245.633	154.12
245.866	158.12
246.099	144.12
246.333	154.12
246.566	156.12
246.8	156.12
247.033	156.12
247.266	146.12
247.5	177.12
247.733	172.12
247.966	183.12
248.2	166.12
248.433	164.12
248.666	174.12
248.899	174.12
249.133	188.12
249.366	192.12
249.599	191.12
249.832	172.12
250.066	193.12
250.299	178.12
250.532	196.12
250.765	190.12
250.998	210.12
251.231	209.12
251.465	195.12
251.698	210.12
251.931	196.12
252.164	200.12
252.397	190.12
252.63	180.12
252.863	200.12
253.096	226.12
253.329	228.12
253.562	229.12
253.795	213.12
254.028	216.12
254.261	223.12
254.494	203.12
254.727	239.12
254.96	263.12
255.193	280.12
255.426	238.12
255.659	234.12
255.892	224.12
256.124	227.12
256.357	234.12
256.59	216.12
256.823	200.12
257.056	209.12
257.289	205.12
257.521	217.12
257.754	207.12
257.987	219.12
258.22	215.12
258.452	226.12
258.685	203.12
258.918	221.12
259.151	196.12
259.383	216.12
259.616	207.12
259.849	224.12
260.081	251.12
260.314	244.12
260.547	242.12
260.779	250.12
261.012	234.12
261.244	225.12
261.477	231.12
261.71	236.12
261.942	211.12
262.175	243.12
262.407	229.12
262.64	224.12
262.872	224.12
263.105	214.12
263.337	211.12
263.57	213.12
263.802	224.12
264.035	223.12
264.267	241.12
264.499	226.12
264.732	233.12
264.964	227.12
265.197	220.12
265.429	216.12
265.661	226.12
265.894	216.12
266.126	212.12
266.358	240.12
266.591	226.12
266.823	232.12
267.055	240.12
267.287	236.12
267.52	238.12
267.752	232.12
267.984	237.12
268.216	242.12
268.448	249.12
268.681	245.12
268.913	243.12
269.145	262.12
269.377	275.12
269.609	271.12
269.841	267.12
270.073	283.12
270.306	282.12
270.538	314.12
270.77	315.12
271.002	296.12
271.234	291.12
271.466	307.12
271.698	296.12
271.93	303.12
272.162	300.12
272.394	301.12
272.626	285.12
272.858	286.12
273.09	287.12
273.322	265.12
273.553	279.12
273.785	277.12
274.017	268.12
274.249	274.12
274.481	284.12
274.713	266.12
274.945	271.12
275.176	285.12
275.408	273.12
275.64	288.12
275.872	271.12
276.104	272.12
276.335	271.12
276.567	280.12
276.799	296.12
277.031	291.12
277.262	308.12
277.494	332.12
277.726	302.12
277.957	310.12
278.189	301.12
278.421	278.12
278.652	271.12
278.884	278.12
279.115	293.12
279.347	295.12
279.579	286.12
279.81	300.12
280.042	294.12
280.273	288.12
280.505	280.12
280.736	286.12
280.968	286.12
281.199	281.12
281.431	283.12
281.662	251.12
281.894	281.12
282.125	297.12
282.356	313.12
282.588	319.12
282.819	320.12
283.051	285.12
283.282	290.12
283.513	288.12
283.745	295.12
283.976	306.12
284.207	299.12
284.439	317.12
284.67	305.12
284.901	303.12
285.132	304.12
285.364	305.12
285.595	294.12
285.826	303.12
286.057	288.12
286.288	287.12
286.52	299.12
286.751	285.12
286.982	300.12
287.213	310.12
287.444	308.12
287.675	320.12
287.906	303.12
288.138	311.12
288.369	307.12
288.6	327.12
288.831	316.12
289.062	319.12
289.293	321.12
289.524	310.12
289.755	306.12
289.986	320.12
290.217	307.12
290.448	303.12
290.679	306.12
290.91	304.12
291.141	305.12
291.371	306.12
291.602	299.12
291.833	302.12
292.064	337.12
292.295	318.12
292.526	312.12
292.757	302.12
292.987	314.12
293.218	323.12
293.449	327.12
293.68	315.12
293.91	318.12
294.141	326.12
294.372	321.12
294.603	335.12
294.833	303.12
295.064	315.12
295.295	322.12
295.525	302.12
295.756	312.12
295.987	332.12
296.217	346.12
296.448	350.12
296.679	332.12
296.909	325.12
297.14	313.12
297.37	342.12
297.601	313.12
297.831	330.12
298.062	319.12
298.292	323.12
298.523	327.12
298.753	324.12
298.984	331.12
299.214	337.12
299.445	339.12
299.675	322.12
299.905	324.12
300.136	334.12
300.366	310.12
300.597	328.12
300.827	349.12
301.057	344.12
301.288	352.12
301.518	338.12
301.748	349.12
301.979	348.12
302.209	362.12
302.439	336.12
302.669	348.12
302.9	325.12
303.13	353.12
303.36	362.12
303.59	355.12
303.82	365.12
304.051	359.12
304.281	354.12
304.511	352.12
304.741	346.12
304.971	355.12
305.201	346.12
305.431	347.12
305.661	350.12
305.891	355.12
306.121	363.12
306.352	356.12
306.582	355.12
306.812	339.12
307.042	356.12
307.272	354.12
307.502	357.12
307.731	356.12
307.961	345.12
308.191	339.12
308.421	354.12
308.651	362.12
308.881	344.12
309.111	359.12
309.341	370.12
309.571	377.12
309.8	376.12
310.03	374.12
310.26	398.12
310.49	369.12
310.72	390.12
310.949	408.12
311.179	384.12
311.409	386.12
311.639	392.12
311.868	384.12
312.098	389.12
312.328	397.12
312.557	416.12
312.787	398.12
313.017	407.12
313.246	387.12
313.476	367.12
313.706	404.12
313.935	388.12
314.165	395.12
314.394	409.12
314.624	395.12
314.853	403.12
315.083	384.12
315.312	380.12
315.542	387.12
315.771	392.12
316.001	383.12
316.23	395.12
316.46	359.12
316.689	382.12
316.919	364.12
317.148	416.12
317.377	408.12
317.607	398.12
317.836	394.12
318.065	392.12
318.295	393.12
318.524	403.12
318.753	410.12
318.983	397.12
319.212	404.12
319.441	401.12
319.67	375.12
319.9	399.12
320.129	387.12
320.358	388.12
320.587	378.12
320.816	413.12
321.046	398.12
321.275	426.12
321.504	414.12
321.733	411.12
321.962	427.12
322.191	432.12
322.42	428.12
322.649	424.12
322.878	436.12
323.108	443.12
323.337	450.12
323.566	471.12
323.795	504.12
324.024	548.12
324.253	607.12
324.482	839.12
324.71	1191.12
324.939	1624.12
325.168	1408.12
325.397	778.12
325.626	582.12
325.855	512.12
326.084	483.12
326.313	461.12
326.542	485.12
326.77	517.12
326.999	609.12
327.228	776.12
327.457	1094.12
327.686	1227.12
327.914	896.12
328.143	609.12
328.372	538.12
328.6	523.12
328.829	506.12
329.058	510.12
329.287	553.12
329.515	506.12
329.744	488.12
329.972	494.12
330.201	493.12
330.43	531.12
330.658	526.12
330.887	544.12
331.115	536.12
331.344	491.12
331.572	486.12
331.801	490.12
332.03	483.12
332.258	452.12
332.486	451.12
332.715	447.12
332.943	454.12
333.172	478.12
333.4	490.12
333.629	493.12
333.857	504.12
334.085	500.12
334.314	502.12
334.542	524.12
334.771	518.12
334.999	509.12
335.227	493.12
335.455	481.12
335.684	462.12
335.912	446.12
336.14	467.12
336.369	475.12
336.597	465.12
336.825	453.12
337.053	423.12
337.281	449.12
337.51	433.12
337.738	462.12
337.966	439.12
338.194	456.12
338.422	447.12
338.65	467.12
338.878	444.12
339.106	446.12
339.334	443.12
339.562	415.12
339.79	434.12
340.018	443.12
340.246	448.12
340.474	466.12
340.702	463.12
340.93	431.12
341.158	414.12
341.386	418.12
341.614	438.12
341.842	443.12
342.07	443.12
342.298	428.12
342.526	436.12
342.754	422.12
342.981	442.12
343.209	431.12
343.437	419.12
343.665	447.12
343.893	434.12
344.12	455.12
344.348	461.12
344.576	455.12
344.804	426.12
345.031	444.12
345.259	456.12
345.487	438.12
345.714	435.12
345.942	408.12
346.17	431.12
346.397	414.12
346.625	419.12
346.853	400.12
347.08	414.12
347.308	416.12
347.535	415.12
347.763	420.12
347.99	418.12
348.218	435.12
348.445	442.12
348.673	427.12
348.9	411.12
349.128	401.12
349.355	414.12
349.583	402.12
349.81	410.12
350.037	398.12
350.265	420.12
350.492	402.12
350.72	398.12
350.947	405.12
351.174	394.12
351.402	388.12
351.629	413.12
351.856	378.12
352.083	418.12
352.311	414.12
352.538	413.12
352.765	418.12
352.992	420.12
353.22	405.12
353.447	421.12
353.674	403.12
353.901	379.12
354.128	392.12
354.355	400.12
354.583	379.12
354.81	387.12
355.037	396.12
355.264	396.12
355.491	379.12
355.718	381.12
355.945	376.12
356.172	380.12
356.399	379.12
356.626	417.12
356.853	381.12
357.08	400.12
357.307	404.12
357.534	396.12
357.761	386.12
357.988	389.12
358.215	392.12
358.441	382.12
358.668	395.12
358.895	405.12
359.122	394.12
359.349	392.12
359.576	392.12
359.802	420.12
360.029	418.12
360.256	428.12
360.483	407.12
360.709	393.12
360.936	396.12
361.163	406.12
361.39	397.12
361.616	384.12
361.843	397.12
362.07	398.12
362.296	398.12
362.523	384.12
362.749	423.12
362.976	407.12
363.203	371.12
363.429	397.12
363.656	389.12
363.882	386.12
364.109	380.12
364.335	404.12
364.562	396.12
364.788	378.12
365.015	395.12
365.241	381.12
365.468	380.12
365.694	400.12
365.92	403.12
366.147	404.12
366.373	380.12
366.599	380.12
366.826	383.12
367.052	384.12
367.278	389.12
367.505	403.12
367.731	412.12
367.957	395.12
368.184	401.12
368.41	381.12
368.636	414.12
368.862	377.12
369.089	385.12
369.315	410.12
369.541	386.12
369.767	384.12
369.993	387.12
370.219	381.12
370.445	389.12
370.672	388.12
370.898	388.12
371.124	392.12
371.35	392.12
371.576	401.12
371.802	371.12
372.028	386.12
372.254	366.12
372.48	394.12
372.706	402.12
372.932	412.12
373.158	398.12
373.384	392.12
373.61	384.12
373.835	404.12
374.061	409.12
374.287	394.12
374.513	376.12
374.739	390.12
374.965	412.12
375.191	391.12
375.416	406.12
375.642	400.12
375.868	397.12
376.094	387.12
376.319	384.12
376.545	387.12
376.771	381.12
376.997	394.12
377.222	396.12
377.448	369.12
377.674	388.12
377.899	386.12
378.125	368.12
378.35	396.12
378.576	394.12
378.802	386.12
379.027	386.12
379.253	387.12
379.478	379.12
379.704	364.12
379.929	402.12
380.155	380.12
380.38	382.12
380.606	384.12
380.831	380.12
381.057	390.12
381.282	393.12
381.507	384.12
381.733	400.12
381.958	383.12
382.184	382.12
382.409	382.12
382.634	370.12
382.86	374.12
383.085	398.12
383.31	402.12
383.535	415.12
383.761	399.12
383.986	408.12
384.211	429.12
384.436	428.12
384.662	414.12
384.887	415.12
385.112	422.12
385.337	405.12
385.562	418.12
385.787	425.12
386.013	442.12
386.238	417.12
386.463	431.12
386.688	415.12
386.913	420.12
387.138	411.12
387.363	420.12
387.588	401.12
387.813	407.12
388.038	423.12
388.263	416.12
388.488	411.12
388.713	408.12
388.938	434.12
389.163	428.12
389.387	415.12
389.612	430.12
389.837	446.12
390.062	405.12
390.287	428.12
390.512	440.12
390.736	411.12
390.961	433.12
391.186	425.12
391.411	451.12
391.636	419.12
391.86	441.12
392.085	442.12
392.31	447.12
392.534	442.12
392.759	453.12
392.984	412.12
393.208	422.12
393.433	428.12
393.658	426.12
393.882	423.12
394.107	434.12
394.331	444.12
394.556	426.12
394.78	440.12
395.005	428.12
395.229	425.12
395.454	442.12
395.678	431.12
395.903	456.12
396.127	474.12
396.352	466.12
396.576	448.12
396.801	428.12
397.025	431.12
397.249	443.12
397.474	455.12
397.698	450.12
397.922	478.12
398.147	464.12
398.371	488.12
398.595	462.12
398.82	467.12
399.044	484.12
399.268	521.12
399.492	524.12
399.717	579.12
399.941	634.12
400.165	612.12
400.389	609.12
400.613	554.12
400.837	504.12
401.062	488.12
401.286	483.12
401.51	474.12
401.734	505.12
401.958	494.12
402.182	472.12
402.406	486.12
402.63	505.12
402.854	497.12
403.078	495.12
403.302	481.12
403.526	505.12
403.75	520.12
403.974	491.12
404.198	516.12
404.422	516.12
404.645	498.12
404.869	511.12
405.093	524.12
405.317	538.12
405.541	594.12
405.765	549.12
405.988	509.12
406.212	505.12
406.436	541.12
406.66	560.12
406.883	535.12
407.107	555.12
407.331	604.12
407.555	615.12
407.778	608.12
408.002	584.12
408.226	561.12
408.449	539.12
408.673	546.12
408.896	579.12
409.12	572.12
409.344	541.12
409.567	525.12
409.791	496.12
410.014	494.12
410.238	508.12
410.461	524.12
410.685	496.12
410.908	496.12
411.132	539.12
411.355	564.12
411.578	530.12
411.802	490.12
412.025	506.12
412.249	484.12
412.472	521.12
412.695	530.12
412.919	516.12
413.142	508.12
413.365	463.12
413.589	483.12
413.812	480.12
414.035	463.12
414.258	461.12
414.482	473.12
414.705	463.12
414.928	482.12
415.151	452.12
415.374	466.12
415.597	472.12
415.821	450.12
416.044	454.12
416.267	453.12
416.49	464.12
416.713	460.12
416.936	459.12
417.159	499.12
417.382	494.12
417.605	463.12
417.828	473.12
418.051	484.12
418.274	490.12
418.497	455.12
418.72	478.12
418.943	452.12
419.166	481.12
419.389	507.12
419.611	512.12
419.834	491.12
420.057	514.12
420.28	483.12
420.503	483.12
420.726	488.12
420.948	484.12
421.171	510.12
421.394	550.12
421.617	526.12
421.839	482.12
422.062	485.12
422.285	488.12
422.507	536.12
422.73	558.12
422.953	581.12
423.175	512.12
423.398	490.12
423.621	468.12
423.843	512.12
424.066	535.12
424.288	505.12
424.511	523.12
424.733	561.12
424.956	627.12
425.178	571.12
425.401	600.12
425.623	616.12
425.846	530.12
426.068	502.12
426.291	493.12
426.513	507.12
426.735	523.12
426.958	560.12
427.18	600.12
427.402	711.12
427.625	768.12
427.847	642.12
428.069	588.12
428.292	542.12
428.514	494.12
428.736	459.12
428.958	469.12
429.181	467.12
429.403	454.12
429.625	473.12
429.847	480.12
430.069	533.12
430.292	538.12
430.514	482.12
430.736	462.12
430.958	459.12
431.18	446.12
431.402	449.12
431.624	448.12
431.846	442.12
432.068	443.12
432.29	455.12
432.512	446.12
432.734	434.12
432.956	430.12
433.178	467.12
433.4	460.12
433.622	444.12
433.844	459.12
434.066	436.12
434.287	450.12
434.509	441.12
434.731	458.12
434.953	475.12
435.175	479.12
435.397	480.12
435.618	503.12
435.84	544.12
436.062	595.12
436.284	650.12
436.505	536.12
436.727	510.12
436.949	474.12
437.17	442.12
437.392	454.12
437.614	466.12
437.835	488.12
438.057	569.12
438.278	636.12
438.5	648.12
438.721	681.12
438.943	683.12
439.165	547.12
439.386	523.12
439.608	488.12
439.829	505.12
440.05	511.12
440.272	530.12
440.493	527.12
440.715	490.12
440.936	465.12
441.158	473.12
441.379	470.12
441.6	466.12
441.822	493.12
442.043	519.12
442.264	604.12
442.486	627.12
442.707	536.12
442.928	512.12
443.149	516.12
443.371	524.12
443.592	568.12
443.813	632.12
444.034	694.12
444.255	599.12
444.476	531.12
444.698	495.12
444.919	520.12
445.14	596.12
445.361	561.12
445.582	522.12
445.803	558.12
446.024	641.12
446.245	657.12
446.466	610.12
446.687	526.12
446.908	483.12
447.129	462.12
447.35	460.12
447.571	450.12
447.792	461.12
448.013	472.12
448.234	461.12
448.455	498.12
448.675	585.12
448.896	678.12
449.117	590.12
449.338	570.12
449.559	643.12
449.779	690.12
450	582.12
450.221	487.12
450.442	448.12
450.662	432.12
450.883	429.12
451.104	442.12
451.324	447.12
451.545	448.12
451.766	398.12
451.986	414.12
452.207	400.12
452.428	395.12
452.648	404.12
452.869	418.12
453.089	413.12
453.31	415.12
453.53	405.12
453.751	399.12
453.971	426.12
454.192	402.12
454.412	422.12
454.633	401.12
454.853	394.12
455.073	389.12
455.294	427.12
455.514	470.12
455.734	472.12
455.955	395.12
456.175	397.12
456.395	398.12
456.616	384.12
456.836	388.12
457.056	385.12
457.276	377.12
457.497	383.12
457.717	386.12
457.937	392.12
458.157	402.12
458.377	382.12
458.598	422.12
458.818	440.12
459.038	492.12
459.258	519.12
459.478	459.12
459.698	428.12
459.918	419.12
460.138	419.12
460.358	430.12
460.578	435.12
460.798	448.12
461.018	447.12
461.238	472.12
461.458	466.12
461.678	458.12
461.898	456.12
462.118	452.12
462.338	473.12
462.558	460.12
462.777	471.12
462.997	491.12
463.217	520.12
463.437	514.12
463.657	499.12
463.876	500.12
464.096	491.12
464.316	487.12
464.536	489.12
464.755	489.12
464.975	503.12
465.195	511.12
465.414	532.12
465.634	473.12
465.854	455.12
466.073	452.12
466.293	438.12
466.512	410.12
466.732	426.12
466.951	409.12
467.171	423.12
467.391	434.12
467.61	428.12
467.829	436.12
468.049	420.12
468.268	426.12
468.488	423.12
468.707	407.12
468.927	395.12
469.146	399.12
469.365	399.12
469.585	384.12
469.804	413.12
470.023	426.12
470.243	426.12
470.462	424.12
470.681	439.12
470.901	442.12
471.12	427.12
471.339	420.12
471.558	426.12
471.777	426.12
471.997	411.12
472.216	429.12
472.435	444.12
472.654	418.12
472.873	442.12
473.092	403.12
473.311	412.12
473.53	418.12
473.749	428.12
473.968	470.12
474.187	532.12
474.406	550.12
474.625	447.12
474.844	431.12
475.063	426.12
475.282	442.12
475.501	427.12
475.72	428.12
475.939	410.12
476.158	424.12
476.377	429.12
476.596	431.12
476.814	429.12
477.033	431.12
477.252	434.12
477.471	450.12
477.69	442.12
477.908	448.12
478.127	442.12
478.346	455.12
478.564	498.12
478.783	483.12
479.002	489.12
479.22	477.12
479.439	480.12
479.658	507.12
479.876	499.12
480.095	481.12
480.313	530.12
480.532	527.12
480.751	516.12
480.969	520.12
481.188	550.12
481.406	560.12
481.624	531.12
481.843	505.12
482.061	486.12
482.28	506.12
482.498	474.12
482.717	477.12
482.935	466.12
483.153	462.12
483.372	486.12
483.59	491.12
483.808	494.12
484.027	478.12
484.245	485.12
484.463	480.12
484.681	472.12
484.9	485.12
485.118	485.12
485.336	489.12
485.554	518.12
485.772	515.12
485.99	498.12
486.209	524.12
486.427	516.12
486.645	503.12
486.863	513.12
487.081	504.12
487.299	522.12
487.517	497.12
487.735	522.12
487.953	528.12
488.171	500.12
488.389	492.12
488.607	509.12
488.825	509.12
489.043	509.12
489.261	524.12
489.479	527.12
489.696	526.12
489.914	535.12
490.132	524.12
490.35	529.12
490.568	530.12
490.786	537.12
491.003	540.12
491.221	554.12
491.439	578.12
491.657	580.12
491.874	592.12
492.092	576.12
492.31	578.12
492.527	575.12
492.745	573.12
492.963	571.12
493.18	573.12
493.398	588.12
493.615	596.12
493.833	571.12
494.05	578.12
494.268	579.12
494.485	584.12
494.703	597.12
494.92	583.12
495.138	573.12
495.355	578.12
495.573	621.12
495.79	586.12
496.008	585.12
496.225	625.12
496.442	596.12
496.66	610.12
496.877	602.12
497.094	614.12
497.312	623.12
497.529	624.12
497.746	644.12
497.963	668.12
498.181	691.12
498.398	696.12
498.615	660.12
498.832	674.12
499.049	699.12
499.267	755.12
499.484	761.12
499.701	816.12
499.918	832.12
500.135	915.12
500.352	940.12
500.569	945.12
500.786	953.12
501.003	934.12
501.22	891.12
501.437	845.12
501.654	837.12
501.871	814.12
502.088	771.12
502.305	714.12
502.522	715.12
502.739	670.12
502.956	686.12
503.172	666.12
503.389	634.12
503.606	638.12
503.823	619.12
504.04	640.12
504.256	632.12
504.473	623.12
504.69	632.12
504.907	621.12
505.123	632.12
505.34	594.12
505.557	588.12
505.773	579.12
505.99	596.12
506.207	595.12
506.423	559.12
506.64	569.12
506.856	578.12
507.073	562.12
507.289	542.12
507.506	552.12
507.722	554.12
507.939	558.12
508.155	567.12
508.372	518.12
508.588	519.12
508.805	525.12
509.021	524.12
509.238	538.12
509.454	545.12
509.67	526.12
509.887	549.12
510.103	521.12
510.319	528.12
510.536	591.12
510.752	875.12
510.968	692.12
511.184	524.12
511.401	532.12
511.617	513.12
511.833	512.12
512.049	509.12
512.265	499.12
512.481	511.12
512.698	527.12
512.914	489.12
513.13	514.12
513.346	496.12
513.562	496.12
513.778	493.12
513.994	519.12
514.21	503.12
514.426	521.12
514.642	546.12
514.858	562.12
515.074	580.12
515.29	672.12
515.506	877.12
515.721	760.12
515.937	589.12
516.153	549.12
516.369	539.12
516.585	527.12
516.801	526.12
517.016	541.12
517.232	545.12
517.448	526.12
517.664	555.12
517.879	551.12
518.095	553.12
518.311	546.12
518.527	550.12
518.742	515.12
518.958	536.12
519.173	503.12
519.389	522.12
519.605	496.12
519.82	508.12
520.036	524.12
520.251	528.12
520.467	532.12
520.682	538.12
520.898	561.12
521.113	551.12
521.329	542.12
521.544	599.12
521.76	717.12
521.975	1064.12
522.19	1010.12
522.406	639.12
522.621	531.12
522.836	514.12
523.052	490.12
523.267	475.12
523.482	473.12
523.698	463.12
523.913	459.12
524.128	467.12
524.343	454.12
524.559	440.12
524.774	446.12
524.989	452.12
525.204	447.12
525.419	449.12
525.634	430.12
525.849	417.12
526.064	427.12
526.28	422.12
526.495	421.12
526.71	423.12
526.925	407.12
527.14	419.12
527.355	410.12
527.57	414.12
527.785	413.12
527.999	423.12
528.214	436.12
528.429	431.12
528.644	426.12
528.859	440.12
529.074	428.12
529.289	433.12
529.503	462.12
529.718	462.12
529.933	440.12
530.148	420.12
530.363	422.12
530.577	422.12
530.792	427.12
531.007	438.12
531.221	420.12
531.436	410.12
531.651	407.12
531.865	423.12
532.08	407.12
532.295	410.12
532.509	403.12
532.724	405.12
532.938	400.12
533.153	408.12
533.367	421.12
533.582	414.12
533.796	428.12
534.011	419.12
534.225	396.12
534.44	396.12
534.654	407.12
534.868	401.12
535.083	413.12
535.297	407.12
535.511	396.12
535.726	406.12
535.94	412.12
536.154	424.12
536.369	394.12
536.583	394.12
536.797	401.12
537.011	399.12
537.225	378.12
537.44	400.12
537.654	384.12
537.868	403.12
538.082	396.12
538.296	403.12
538.51	425.12
538.724	391.12
538.938	406.12
539.153	390.12
539.367	405.12
539.581	395.12
539.795	385.12
540.009	386.12
540.222	394.12
540.436	408.12
540.65	387.12
540.864	408.12
541.078	405.12
541.292	387.12
541.506	387.12
541.72	397.12
541.934	387.12
542.147	375.12
542.361	402.12
542.575	362.12
542.789	370.12
543.002	381.12
543.216	374.12
543.43	396.12
543.644	386.12
543.857	379.12
544.071	404.12
544.285	392.12
544.498	379.12
544.712	391.12
544.925	385.12
545.139	376.12
545.352	390.12
545.566	399.12
545.779	391.12
545.993	395.12
546.206	383.12
546.42	388.12
546.633	359.12
546.847	369.12
547.06	386.12
547.274	377.12
547.487	390.12
547.7	375.12
547.914	386.12
548.127	366.12
548.34	380.12
548.554	374.12
548.767	369.12
548.98	392.12
549.193	397.12
549.407	372.12
549.62	394.12
549.833	375.12
550.046	366.12
550.259	375.12
550.473	372.12
550.686	364.12
550.899	385.12
551.112	351.12
551.325	372.12
551.538	380.12
551.751	382.12
551.964	374.12
552.177	381.12
552.39	391.12
552.603	385.12
552.816	375.12
553.029	380.12
553.242	385.12
553.455	384.12
553.667	384.12
553.88	409.12
554.093	398.12
554.306	370.12
554.519	402.12
554.732	387.12
554.944	358.12
555.157	359.12
555.37	365.12
555.583	343.12
555.795	364.12
556.008	355.12
556.221	363.12
556.433	332.12
556.646	353.12
556.859	351.12
557.071	342.12
557.284	336.12
557.496	336.12
557.709	343.12
557.921	347.12
558.134	332.12
558.346	343.12
558.559	335.12
558.771	351.12
558.984	337.12
559.196	351.12
559.409	358.12
559.621	339.12
559.833	328.12
560.046	334.12
560.258	326.12
560.47	343.12
560.683	330.12
560.895	336.12
561.107	322.12
561.32	331.12
561.532	328.12
561.744	339.12
561.956	342.12
562.168	343.12
562.381	335.12
562.593	355.12
562.805	335.12
563.017	339.12
563.229	321.12
563.441	326.12
563.653	347.12
563.865	340.12
564.077	321.12
564.289	335.12
564.501	338.12
564.713	353.12
564.925	377.12
565.137	356.12
565.349	365.12
565.561	379.12
565.773	363.12
565.985	376.12
566.197	364.12
566.408	396.12
566.62	414.12
566.832	418.12
567.044	427.12
567.255	406.12
567.467	429.12
567.679	438.12
567.891	464.12
568.102	462.12
568.314	457.12
568.526	439.12
568.737	407.12
568.949	418.12
569.161	380.12
569.372	372.12
569.584	384.12
569.795	343.12
570.007	372.12
570.218	372.12
570.43	358.12
570.641	321.12
570.853	340.12
571.064	337.12
571.276	331.12
571.487	326.12
571.698	314.12
571.91	326.12
572.121	326.12
572.333	318.12
572.544	314.12
572.755	322.12
572.966	286.12
573.178	307.12
573.389	286.12
573.6	294.12
573.811	320.12
574.023	291.12
574.234	310.12
574.445	303.12
574.656	295.12
574.867	283.12
575.078	305.12
575.289	300.12
575.501	302.12
575.712	302.12
575.923	296.12
576.134	293.12
576.345	287.12
576.556	280.12
576.767	293.12
576.978	281.12
577.188	290.12
577.399	299.12
577.61	282.12
577.821	280.12
578.032	281.12
578.243	294.12
578.454	408.12
578.665	328.12
578.875	297.12
579.086	276.12
579.297	303.12
579.508	262.12
579.718	274.12
579.929	264.12
580.14	253.12
580.35	252.12
580.561	282.12
580.772	267.12
580.982	258.12
581.193	273.12
581.403	270.12
581.614	276.12
581.825	282.12
582.035	270.12
582.246	266.12
582.456	272.12
582.667	262.12
582.877	263.12
583.087	278.12
583.298	270.12
583.508	242.12
583.719	270.12
583.929	265.12
584.139	253.12
584.35	275.12
584.56	250.12
584.77	257.12
584.981	259.12
585.191	252.12
585.401	239.12
585.611	265.12
585.821	280.12
586.032	280.12
586.242	256.12
586.452	247.12
586.662	260.12
586.872	270.12
587.082	262.12
587.292	277.12
587.502	254.12
587.713	227.12
587.923	258.12
588.133	236.12
588.343	274.12
588.553	252.12
588.762	259.12
588.972	254.12
589.182	252.12
589.392	243.12
589.602	248.12
589.812	246.12
590.022	258.12
590.232	266.12
590.441	276.12
590.651	247.12
590.861	280.12
591.071	266.12
591.281	274.12
591.49	253.12
591.7	265.12
591.91	271.12
592.119	259.12
592.329	273.12
592.539	266.12
592.748	274.12
592.958	283.12
593.167	279.12
593.377	283.12
593.587	284.12
593.796	274.12
594.006	279.12
594.215	274.12
594.424	266.12
594.634	257.12
594.843	270.12
595.053	271.12
595.262	259.12
595.472	252.12
595.681	268.12
595.89	268.12
596.1	246.12
596.309	254.12
596.518	258.12
596.727	248.12
596.937	241.12
597.146	251.12
597.355	232.12
597.564	220.12
597.774	237.12
597.983	236.12
598.192	218.12
598.401	230.12
598.61	216.12
598.819	242.12
599.028	233.12
599.237	230.12
599.446	228.12
599.655	234.12
599.864	230.12
600.073	221.12
600.282	236.12
600.491	235.12
600.7	244.12
600.909	225.12
601.118	246.12
601.327	214.12
601.536	240.12
601.745	235.12
601.953	222.12
602.162	221.12
602.371	222.12
602.58	238.12
602.789	224.12
602.997	211.12
603.206	202.12
603.415	216.12
603.623	211.12
603.832	226.12
604.041	221.12
604.249	215.12
604.458	200.12
604.666	227.12
604.875	219.12
605.084	223.12
605.292	225.12
605.501	215.12
605.709	218.12
605.918	223.12
606.126	205.12
606.334	222.12
606.543	212.12
606.751	202.12
606.96	214.12
607.168	203.12
607.376	203.12
607.585	212.12
607.793	217.12
608.001	200.12
608.21	214.12
608.418	227.12
608.626	225.12
608.834	219.12
609.043	203.12
609.251	206.12
609.459	205.12
609.667	211.12
609.875	216.12
610.083	208.12
610.291	210.12
610.499	198.12
610.707	216.12
610.916	218.12
611.124	223.12
611.332	225.12
611.54	218.12
611.748	225.12
611.955	212.12
612.163	208.12
612.371	208.12
612.579	220.12
612.787	219.12
612.995	216.12
613.203	229.12
613.411	212.12
613.618	213.12
613.826	198.12
614.034	207.12
614.242	211.12
614.449	202.12
614.657	195.12
614.865	216.12
615.072	207.12
615.28	218.12
615.488	206.12
615.695	211.12
615.903	217.12
616.111	214.12
616.318	221.12
616.526	201.12
616.733	221.12
616.941	209.12
617.148	202.12
617.356	200.12
617.563	202.12
617.771	194.12
617.978	200.12
618.185	207.12
618.393	207.12
618.6	214.12
618.807	190.12
619.015	216.12
619.222	201.12
619.429	199.12
619.637	191.12
619.844	198.12
620.051	216.12
620.258	187.12
620.466	182.12
620.673	212.12
620.88	170.12
621.087	205.12
621.294	192.12
621.501	197.12
621.708	205.12
621.915	199.12
622.122	213.12
622.329	211.12
622.536	192.12
622.743	185.12
622.95	200.12
623.157	198.12
623.364	190.12
623.571	185.12
623.778	182.12
623.985	186.12
624.192	179.12
624.399	184.12
624.606	186.12
624.812	204.12
625.019	215.12
625.226	190.12
625.433	192.12
625.639	189.12
625.846	173.12
626.053	178.12
626.259	188.12
626.466	175.12
626.673	202.12
626.879	174.12
627.086	174.12
627.293	185.12
627.499	186.12
627.706	178.12
627.912	187.12
628.119	178.12
628.325	192.12
628.532	178.12
628.738	185.12
628.945	181.12
629.151	182.12
629.357	182.12
629.564	176.12
629.77	187.12
629.976	183.12
630.183	191.12
630.389	187.12
630.595	166.12
630.802	182.12
631.008	181.12
631.214	172.12
631.42	201.12
631.627	182.12
631.833	162.12
632.039	168.12
632.245	163.12
632.451	176.12
632.657	174.12
632.863	166.12
633.069	174.12
633.275	169.12
633.481	174.12
633.688	164.12
633.893	168.12
634.099	164.12
634.305	171.12
634.511	166.12
634.717	162.12
634.923	162.12
635.129	153.12
635.335	158.12
635.541	146.12
635.747	180.12
635.952	157.12
636.158	155.12
636.364	167.12
636.57	165.12
636.775	159.12
636.981	158.12
637.187	166.12
637.392	152.12
637.598	164.12
637.804	160.12
638.009	153.12
638.215	160.12
638.421	183.12
638.626	184.12
638.832	145.12
639.037	154.12
639.243	153.12
639.448	157.12
639.654	150.12
639.859	175.12
640.065	158.12
640.27	163.12
640.475	160.12
640.681	158.12
640.886	164.12
641.091	163.12
641.297	159.12
641.502	162.12
641.707	146.12
641.913	170.12
642.118	154.12
642.323	141.12
642.528	160.12
642.733	166.12
642.939	147.12
643.144	156.12
643.349	156.12
643.554	168.12
643.759	153.12
643.964	140.12
644.169	166.12
644.374	142.12
644.579	143.12
644.784	166.12
644.989	156.12
645.194	163.12
645.399	161.12
645.604	158.12
645.809	176.12
646.014	164.12
646.219	150.12
646.423	145.12
646.628	150.12
646.833	155.12
647.038	147.12
647.243	157.12
647.447	147.12
647.652	160.12
647.857	152.12
648.062	147.12
648.266	148.12
648.471	153.12
648.676	165.12
648.88	155.12
649.085	170.12
649.289	154.12
649.494	167.12
649.698	175.12
649.903	169.12
650.107	160.12
650.312	155.12
650.516	149.12
650.721	146.12
650.925	156.12
651.13	143.12
651.334	143.12
651.539	137.12
651.743	152.12
651.947	140.12
652.152	146.12
652.356	146.12
652.56	147.12
652.764	135.12
652.969	127.12
653.173	124.12
653.377	142.12
653.581	141.12
653.785	125.12
653.99	155.12
654.194	138.12
654.398	134.12
654.602	126.12
654.806	128.12
655.01	140.12
655.214	152.12
655.418	134.12
655.622	123.12
655.826	133.12
656.03	130.12
656.234	140.12
656.438	150.12
656.642	125.12
656.846	131.12
657.049	111.12
657.253	131.12
657.457	117.12
657.661	111.12
657.865	122.12
658.068	118.12
658.272	120.12
658.476	107.12
658.68	106.12
658.883	99.12
659.087	114.12
659.291	108.12
659.494	101.12
659.698	96.12
659.901	93.12
660.105	89.12
660.309	89.12
660.512	108.12
660.716	104.12
660.919	95.12
661.123	82.12
661.326	88.12
661.53	97.12
661.733	88.12
661.936	86.12
662.14	86.12
662.343	93.12
662.546	86.12
662.75	102.12
662.953	98.12
663.156	99.12
663.36	94.12
663.563	98.12
663.766	88.12
663.969	85.12
664.173	95.12
664.376	78.12
664.579	82.12
664.782	95.12
664.985	102.12
665.188	79.12
665.391	102.12
665.594	103.12
665.797	83.12
666	85.12
666.203	80.12
666.406	92.12
666.609	99.12
666.812	93.12
667.015	84.12
667.218	99.12
667.421	76.12
667.624	92.12
667.827	110.12
668.03	92.12
668.232	82.12
668.435	94.12
668.638	71.12
668.841	81.12
669.043	81.12
669.246	83.12
669.449	96.12
669.651	95.12
669.854	90.12
670.057	99.12
670.259	78.12
670.462	87.12
670.665	85.12
670.867	91.12
671.07	81.12
671.272	98.12
671.475	95.12
671.677	76.12
671.88	97.12
672.082	80.12
672.284	90.12
672.487	97.12
672.689	93.12
672.892	71.12
