Data from 1977.PennyLincolnUp.Lamp.En5.5.200Scan.071719.P1_HRD10591_16-04-54-885.txt Node
Date: Thu Jul 18 16:04:54 EDT 2019
User: cochatt
Spectrometer: HR+D1059
Trigger mode: 1
Integration Time (sec): 1.000000E-1
Scans to average: 1
Electric dark correction enabled: true
Nonlinearity correction enabled: false
Boxcar width: 0
XAxis mode: Wavelengths
Number of Pixels in Spectrum: 2048
>>>>>Begin Spectral Data<<<<<
223.165	-7.88
223.4	-7.88
223.635	-7.88
223.869	-16.88
224.104	-10.88
224.338	0.12
224.573	-11.88
224.808	-5.88
225.042	-21.88
225.277	-8.88
225.511	-6.88
225.746	-12.88
225.98	9.12
226.215	10.12
226.449	22.12
226.683	11.12
226.918	21.12
227.152	30.12
227.387	29.12
227.621	34.12
227.856	41.12
228.09	34.12
228.324	44.12
228.559	63.12
228.793	57.12
229.027	95.12
229.262	81.12
229.496	96.12
229.73	103.12
229.964	109.12
230.199	109.12
230.433	101.12
230.667	91.12
230.901	109.12
231.136	105.12
231.37	109.12
231.604	110.12
231.838	103.12
232.072	109.12
232.306	91.12
232.541	98.12
232.775	104.12
233.009	112.12
233.243	98.12
233.477	112.12
233.711	109.12
233.945	103.12
234.179	108.12
234.413	108.12
234.647	91.12
234.881	108.12
235.115	112.12
235.349	110.12
235.583	116.12
235.817	115.12
236.051	109.12
236.285	110.12
236.519	111.12
236.753	115.12
236.987	119.12
237.221	142.12
237.455	163.12
237.689	150.12
237.922	118.12
238.156	114.12
238.39	125.12
238.624	112.12
238.858	123.12
239.091	120.12
239.325	107.12
239.559	112.12
239.793	118.12
240.027	102.12
240.26	115.12
240.494	124.12
240.728	123.12
240.961	125.12
241.195	131.12
241.429	102.12
241.662	132.12
241.896	135.12
242.13	142.12
242.363	124.12
242.597	118.12
242.83	127.12
243.064	110.12
243.298	120.12
243.531	108.12
243.765	128.12
243.998	134.12
244.232	129.12
244.465	142.12
244.699	139.12
244.932	123.12
245.166	130.12
245.399	134.12
245.633	136.12
245.866	145.12
246.099	123.12
246.333	142.12
246.566	143.12
246.8	140.12
247.033	135.12
247.266	147.12
247.5	162.12
247.733	154.12
247.966	146.12
248.2	177.12
248.433	157.12
248.666	146.12
248.899	153.12
249.133	174.12
249.366	189.12
249.599	158.12
249.832	157.12
250.066	165.12
250.299	156.12
250.532	175.12
250.765	157.12
250.998	180.12
251.231	179.12
251.465	180.12
251.698	166.12
251.931	173.12
252.164	177.12
252.397	166.12
252.63	179.12
252.863	173.12
253.096	210.12
253.329	200.12
253.562	188.12
253.795	181.12
254.028	176.12
254.261	186.12
254.494	180.12
254.727	208.12
254.96	218.12
255.193	216.12
255.426	202.12
255.659	192.12
255.892	193.12
256.124	182.12
256.357	183.12
256.59	192.12
256.823	186.12
257.056	182.12
257.289	177.12
257.521	187.12
257.754	188.12
257.987	187.12
258.22	192.12
258.452	187.12
258.685	190.12
258.918	187.12
259.151	188.12
259.383	196.12
259.616	187.12
259.849	213.12
260.081	210.12
260.314	207.12
260.547	204.12
260.779	205.12
261.012	184.12
261.244	203.12
261.477	204.12
261.71	197.12
261.942	193.12
262.175	189.12
262.407	191.12
262.64	196.12
262.872	204.12
263.105	196.12
263.337	183.12
263.57	208.12
263.802	201.12
264.035	193.12
264.267	202.12
264.499	205.12
264.732	196.12
264.964	195.12
265.197	222.12
265.429	194.12
265.661	182.12
265.894	197.12
266.126	193.12
266.358	194.12
266.591	203.12
266.823	213.12
267.055	220.12
267.287	218.12
267.52	213.12
267.752	213.12
267.984	212.12
268.216	202.12
268.448	213.12
268.681	210.12
268.913	224.12
269.145	223.12
269.377	240.12
269.609	234.12
269.841	243.12
270.073	234.12
270.306	235.12
270.538	265.12
270.77	254.12
271.002	249.12
271.234	235.12
271.466	256.12
271.698	252.12
271.93	261.12
272.162	243.12
272.394	265.12
272.626	257.12
272.858	253.12
273.09	250.12
273.322	246.12
273.553	224.12
273.785	233.12
274.017	242.12
274.249	221.12
274.481	237.12
274.713	244.12
274.945	242.12
275.176	247.12
275.408	243.12
275.64	247.12
275.872	238.12
276.104	250.12
276.335	237.12
276.567	230.12
276.799	254.12
277.031	256.12
277.262	262.12
277.494	261.12
277.726	263.12
277.957	257.12
278.189	256.12
278.421	235.12
278.652	264.12
278.884	250.12
279.115	251.12
279.347	241.12
279.579	266.12
279.81	248.12
280.042	243.12
280.273	262.12
280.505	254.12
280.736	248.12
280.968	252.12
281.199	245.12
281.431	238.12
281.662	264.12
281.894	254.12
282.125	265.12
282.356	249.12
282.588	280.12
282.819	276.12
283.051	262.12
283.282	258.12
283.513	269.12
283.745	260.12
283.976	265.12
284.207	275.12
284.439	282.12
284.67	270.12
284.901	252.12
285.132	278.12
285.364	274.12
285.595	265.12
285.826	247.12
286.057	264.12
286.288	257.12
286.52	256.12
286.751	273.12
286.982	279.12
287.213	259.12
287.444	262.12
287.675	285.12
287.906	288.12
288.138	284.12
288.369	310.12
288.6	295.12
288.831	273.12
289.062	279.12
289.293	263.12
289.524	287.12
289.755	258.12
289.986	265.12
290.217	264.12
290.448	276.12
290.679	288.12
290.91	274.12
291.141	276.12
291.371	292.12
291.602	288.12
291.833	277.12
292.064	287.12
292.295	283.12
292.526	301.12
292.757	289.12
292.987	286.12
293.218	294.12
293.449	292.12
293.68	276.12
293.91	278.12
294.141	272.12
294.372	282.12
294.603	292.12
294.833	290.12
295.064	294.12
295.295	287.12
295.525	297.12
295.756	279.12
295.987	301.12
296.217	302.12
296.448	309.12
296.679	272.12
296.909	301.12
297.14	296.12
297.37	285.12
297.601	293.12
297.831	280.12
298.062	293.12
298.292	314.12
298.523	297.12
298.753	306.12
298.984	309.12
299.214	285.12
299.445	306.12
299.675	318.12
299.905	299.12
300.136	284.12
300.366	283.12
300.597	300.12
300.827	308.12
301.057	295.12
301.288	307.12
301.518	310.12
301.748	294.12
301.979	310.12
302.209	316.12
302.439	318.12
302.669	302.12
302.9	312.12
303.13	304.12
303.36	314.12
303.59	329.12
303.82	331.12
304.051	317.12
304.281	309.12
304.511	311.12
304.741	308.12
304.971	315.12
305.201	328.12
305.431	315.12
305.661	310.12
305.891	315.12
306.121	319.12
306.352	310.12
306.582	323.12
306.812	316.12
307.042	323.12
307.272	307.12
307.502	309.12
307.731	321.12
307.961	305.12
308.191	316.12
308.421	313.12
308.651	320.12
308.881	324.12
309.111	316.12
309.341	326.12
309.571	330.12
309.8	314.12
310.03	332.12
310.26	334.12
310.49	327.12
310.72	325.12
310.949	339.12
311.179	340.12
311.409	329.12
311.639	341.12
311.868	346.12
312.098	334.12
312.328	341.12
312.557	349.12
312.787	346.12
313.017	350.12
313.246	330.12
313.476	353.12
313.706	331.12
313.935	335.12
314.165	346.12
314.394	332.12
314.624	346.12
314.853	360.12
315.083	340.12
315.312	347.12
315.542	357.12
315.771	340.12
316.001	342.12
316.23	352.12
316.46	343.12
316.689	341.12
316.919	375.12
317.148	351.12
317.377	355.12
317.607	351.12
317.836	348.12
318.065	335.12
318.295	353.12
318.524	357.12
318.753	360.12
318.983	365.12
319.212	344.12
319.441	348.12
319.67	362.12
319.9	373.12
320.129	358.12
320.358	350.12
320.587	346.12
320.816	361.12
321.046	359.12
321.275	373.12
321.504	340.12
321.733	354.12
321.962	380.12
322.191	347.12
322.42	378.12
322.649	368.12
322.878	377.12
323.108	376.12
323.337	368.12
323.566	376.12
323.795	386.12
324.024	418.12
324.253	454.12
324.482	609.12
324.71	805.12
324.939	1154.12
325.168	976.12
325.397	566.12
325.626	445.12
325.855	405.12
326.084	390.12
326.313	397.12
326.542	399.12
326.77	426.12
326.999	465.12
327.228	583.12
327.457	772.12
327.686	869.12
327.914	596.12
328.143	442.12
328.372	434.12
328.6	417.12
328.829	415.12
329.058	407.12
329.287	421.12
329.515	400.12
329.744	394.12
329.972	388.12
330.201	397.12
330.43	415.12
330.658	427.12
330.887	450.12
331.115	443.12
331.344	394.12
331.572	413.12
331.801	386.12
332.03	397.12
332.258	427.12
332.486	413.12
332.715	404.12
332.943	415.12
333.172	422.12
333.4	424.12
333.629	429.12
333.857	443.12
334.085	425.12
334.314	438.12
334.542	427.12
334.771	435.12
334.999	422.12
335.227	405.12
335.455	418.12
335.684	428.12
335.912	406.12
336.14	406.12
336.369	425.12
336.597	409.12
336.825	404.12
337.053	394.12
337.281	420.12
337.51	406.12
337.738	425.12
337.966	409.12
338.194	417.12
338.422	405.12
338.65	402.12
338.878	403.12
339.106	389.12
339.334	388.12
339.562	367.12
339.79	388.12
340.018	395.12
340.246	392.12
340.474	380.12
340.702	384.12
340.93	390.12
341.158	404.12
341.386	401.12
341.614	397.12
341.842	382.12
342.07	365.12
342.298	401.12
342.526	378.12
342.754	380.12
342.981	380.12
343.209	374.12
343.437	391.12
343.665	412.12
343.893	405.12
344.12	422.12
344.348	413.12
344.576	396.12
344.804	391.12
345.031	400.12
345.259	406.12
345.487	397.12
345.714	388.12
345.942	372.12
346.17	396.12
346.397	372.12
346.625	369.12
346.853	382.12
347.08	380.12
347.308	369.12
347.535	361.12
347.763	388.12
347.99	374.12
348.218	366.12
348.445	364.12
348.673	370.12
348.9	370.12
349.128	349.12
349.355	353.12
349.583	363.12
349.81	348.12
350.037	360.12
350.265	374.12
350.492	356.12
350.72	357.12
350.947	369.12
351.174	362.12
351.402	365.12
351.629	366.12
351.856	370.12
352.083	378.12
352.311	365.12
352.538	375.12
352.765	378.12
352.992	362.12
353.22	361.12
353.447	355.12
353.674	351.12
353.901	338.12
354.128	358.12
354.355	346.12
354.583	350.12
354.81	357.12
355.037	344.12
355.264	350.12
355.491	356.12
355.718	330.12
355.945	349.12
356.172	346.12
356.399	345.12
356.626	340.12
356.853	338.12
357.08	343.12
357.307	333.12
357.534	348.12
357.761	353.12
357.988	345.12
358.215	342.12
358.441	356.12
358.668	353.12
358.895	363.12
359.122	357.12
359.349	356.12
359.576	369.12
359.802	347.12
360.029	363.12
360.256	380.12
360.483	374.12
360.709	342.12
360.936	348.12
361.163	360.12
361.39	360.12
361.616	361.12
361.843	343.12
362.07	346.12
362.296	346.12
362.523	336.12
362.749	352.12
362.976	356.12
363.203	360.12
363.429	361.12
363.656	341.12
363.882	347.12
364.109	342.12
364.335	343.12
364.562	351.12
364.788	356.12
365.015	369.12
365.241	360.12
365.468	378.12
365.694	365.12
365.92	333.12
366.147	349.12
366.373	346.12
366.599	334.12
366.826	346.12
367.052	339.12
367.278	353.12
367.505	343.12
367.731	358.12
367.957	357.12
368.184	354.12
368.41	359.12
368.636	348.12
368.862	355.12
369.089	333.12
369.315	354.12
369.541	349.12
369.767	368.12
369.993	342.12
370.219	350.12
370.445	370.12
370.672	357.12
370.898	368.12
371.124	346.12
371.35	372.12
371.576	349.12
371.802	372.12
372.028	345.12
372.254	336.12
372.48	356.12
372.706	365.12
372.932	373.12
373.158	365.12
373.384	352.12
373.61	352.12
373.835	354.12
374.061	349.12
374.287	365.12
374.513	365.12
374.739	360.12
374.965	392.12
375.191	374.12
375.416	369.12
375.642	358.12
375.868	376.12
376.094	360.12
376.319	378.12
376.545	353.12
376.771	346.12
376.997	348.12
377.222	358.12
377.448	348.12
377.674	348.12
377.899	336.12
378.125	345.12
378.35	368.12
378.576	360.12
378.802	349.12
379.027	358.12
379.253	345.12
379.478	343.12
379.704	346.12
379.929	360.12
380.155	351.12
380.38	356.12
380.606	366.12
380.831	344.12
381.057	358.12
381.282	376.12
381.507	378.12
381.733	356.12
381.958	342.12
382.184	342.12
382.409	339.12
382.634	377.12
382.86	380.12
383.085	386.12
383.31	368.12
383.535	368.12
383.761	378.12
383.986	381.12
384.211	388.12
384.436	376.12
384.662	388.12
384.887	379.12
385.112	384.12
385.337	402.12
385.562	401.12
385.787	395.12
386.013	402.12
386.238	409.12
386.463	402.12
386.688	401.12
386.913	405.12
387.138	411.12
387.363	408.12
387.588	392.12
387.813	404.12
388.038	403.12
388.263	388.12
388.488	412.12
388.713	397.12
388.938	399.12
389.163	413.12
389.387	388.12
389.612	393.12
389.837	402.12
390.062	382.12
390.287	386.12
390.512	372.12
390.736	388.12
390.961	406.12
391.186	397.12
391.411	384.12
391.636	404.12
391.86	422.12
392.085	411.12
392.31	399.12
392.534	404.12
392.759	398.12
392.984	412.12
393.208	398.12
393.433	411.12
393.658	393.12
393.882	393.12
394.107	408.12
394.331	394.12
394.556	416.12
394.78	396.12
395.005	413.12
395.229	384.12
395.454	402.12
395.678	430.12
395.903	405.12
396.127	434.12
396.352	429.12
396.576	412.12
396.801	416.12
397.025	421.12
397.249	417.12
397.474	399.12
397.698	419.12
397.922	441.12
398.147	424.12
398.371	436.12
398.595	438.12
398.82	445.12
399.044	454.12
399.268	468.12
399.492	505.12
399.717	540.12
399.941	566.12
400.165	553.12
400.389	550.12
400.613	509.12
400.837	480.12
401.062	469.12
401.286	446.12
401.51	451.12
401.734	434.12
401.958	444.12
402.182	457.12
402.406	448.12
402.63	434.12
402.854	468.12
403.078	464.12
403.302	451.12
403.526	457.12
403.75	470.12
403.974	485.12
404.198	453.12
404.422	509.12
404.645	467.12
404.869	465.12
405.093	475.12
405.317	491.12
405.541	509.12
405.765	482.12
405.988	481.12
406.212	501.12
406.436	490.12
406.66	475.12
406.883	475.12
407.107	530.12
407.331	520.12
407.555	572.12
407.778	581.12
408.002	530.12
408.226	520.12
408.449	507.12
408.673	498.12
408.896	538.12
409.12	546.12
409.344	506.12
409.567	464.12
409.791	446.12
410.014	461.12
410.238	443.12
410.461	453.12
410.685	469.12
410.908	456.12
411.132	498.12
411.355	508.12
411.578	487.12
411.802	452.12
412.025	447.12
412.249	458.12
412.472	452.12
412.695	476.12
412.919	474.12
413.142	455.12
413.365	448.12
413.589	432.12
413.812	410.12
414.035	448.12
414.258	445.12
414.482	410.12
414.705	432.12
414.928	424.12
415.151	451.12
415.374	428.12
415.597	435.12
415.821	408.12
416.044	449.12
416.267	418.12
416.49	414.12
416.713	424.12
416.936	441.12
417.159	426.12
417.382	423.12
417.605	404.12
417.828	425.12
418.051	442.12
418.274	445.12
418.497	425.12
418.72	440.12
418.943	423.12
419.166	441.12
419.389	453.12
419.611	462.12
419.834	437.12
420.057	442.12
420.28	429.12
420.503	444.12
420.726	420.12
420.948	434.12
421.171	453.12
421.394	487.12
421.617	432.12
421.839	414.12
422.062	434.12
422.285	424.12
422.507	480.12
422.73	534.12
422.953	532.12
423.175	480.12
423.398	442.12
423.621	465.12
423.843	436.12
424.066	460.12
424.288	460.12
424.511	471.12
424.733	490.12
424.956	530.12
425.178	525.12
425.401	517.12
425.623	528.12
425.846	469.12
426.068	454.12
426.291	450.12
426.513	455.12
426.735	437.12
426.958	482.12
427.18	527.12
427.402	618.12
427.625	636.12
427.847	572.12
428.069	490.12
428.292	438.12
428.514	426.12
428.736	418.12
428.958	441.12
429.181	420.12
429.403	390.12
429.625	403.12
429.847	438.12
430.069	475.12
430.292	490.12
430.514	436.12
430.736	422.12
430.958	410.12
431.18	383.12
431.402	404.12
431.624	374.12
431.846	387.12
432.068	398.12
432.29	405.12
432.512	396.12
432.734	404.12
432.956	416.12
433.178	400.12
433.4	399.12
433.622	415.12
433.844	400.12
434.066	410.12
434.287	402.12
434.509	398.12
434.731	410.12
434.953	428.12
435.175	431.12
435.397	433.12
435.618	442.12
435.84	441.12
436.062	509.12
436.284	561.12
436.505	484.12
436.727	454.12
436.949	416.12
437.17	428.12
437.392	404.12
437.614	419.12
437.835	427.12
438.057	470.12
438.278	532.12
438.5	543.12
438.721	600.12
438.943	562.12
439.165	458.12
439.386	444.12
439.608	439.12
439.829	418.12
440.05	446.12
440.272	456.12
440.493	442.12
440.715	422.12
440.936	425.12
441.158	413.12
441.379	418.12
441.6	420.12
441.822	422.12
442.043	460.12
442.264	522.12
442.486	546.12
442.707	482.12
442.928	464.12
443.149	441.12
443.371	463.12
443.592	475.12
443.813	535.12
444.034	589.12
444.255	494.12
444.476	468.12
444.698	463.12
444.919	482.12
445.14	568.12
445.361	510.12
445.582	445.12
445.803	496.12
446.024	546.12
446.245	550.12
446.466	500.12
446.687	441.12
446.908	432.12
447.129	409.12
447.35	399.12
447.571	401.12
447.792	403.12
448.013	408.12
448.234	431.12
448.455	432.12
448.675	523.12
448.896	586.12
449.117	515.12
449.338	492.12
449.559	548.12
449.779	612.12
450	505.12
450.221	433.12
450.442	407.12
450.662	375.12
450.883	388.12
451.104	388.12
451.324	389.12
451.545	373.12
451.766	378.12
451.986	376.12
452.207	365.12
452.428	376.12
452.648	356.12
452.869	363.12
453.089	369.12
453.31	377.12
453.53	365.12
453.751	365.12
453.971	379.12
454.192	386.12
454.412	372.12
454.633	365.12
454.853	367.12
455.073	348.12
455.294	359.12
455.514	408.12
455.734	397.12
455.955	350.12
456.175	354.12
456.395	337.12
456.616	331.12
456.836	356.12
457.056	362.12
457.276	349.12
457.497	358.12
457.717	349.12
457.937	349.12
458.157	370.12
458.377	362.12
458.598	372.12
458.818	412.12
459.038	452.12
459.258	437.12
459.478	422.12
459.698	406.12
459.918	387.12
460.138	399.12
460.358	419.12
460.578	419.12
460.798	421.12
461.018	436.12
461.238	424.12
461.458	432.12
461.678	411.12
461.898	433.12
462.118	424.12
462.338	429.12
462.558	431.12
462.777	467.12
462.997	451.12
463.217	491.12
463.437	489.12
463.657	471.12
463.876	456.12
464.096	439.12
464.316	446.12
464.536	465.12
464.755	452.12
464.975	448.12
465.195	437.12
465.414	452.12
465.634	408.12
465.854	414.12
466.073	386.12
466.293	384.12
466.512	386.12
466.732	381.12
466.951	388.12
467.171	390.12
467.391	380.12
467.61	372.12
467.829	378.12
468.049	396.12
468.268	396.12
468.488	361.12
468.707	366.12
468.927	377.12
469.146	388.12
469.365	372.12
469.585	377.12
469.804	383.12
470.023	377.12
470.243	389.12
470.462	374.12
470.681	399.12
470.901	372.12
471.12	379.12
471.339	391.12
471.558	377.12
471.777	385.12
471.997	376.12
472.216	346.12
472.435	379.12
472.654	367.12
472.873	384.12
473.092	380.12
473.311	373.12
473.53	372.12
473.749	392.12
473.968	416.12
474.187	477.12
474.406	457.12
474.625	392.12
474.844	397.12
475.063	385.12
475.282	381.12
475.501	391.12
475.72	398.12
475.939	396.12
476.158	398.12
476.377	392.12
476.596	394.12
476.814	397.12
477.033	422.12
477.252	408.12
477.471	399.12
477.69	421.12
477.908	409.12
478.127	428.12
478.346	430.12
478.564	438.12
478.783	430.12
479.002	451.12
479.22	438.12
479.439	441.12
479.658	435.12
479.876	461.12
480.095	459.12
480.313	476.12
480.532	469.12
480.751	477.12
480.969	469.12
481.188	512.12
481.406	486.12
481.624	453.12
481.843	444.12
482.061	443.12
482.28	433.12
482.498	428.12
482.717	443.12
482.935	430.12
483.153	452.12
483.372	446.12
483.59	417.12
483.808	448.12
484.027	457.12
484.245	445.12
484.463	430.12
484.681	470.12
484.9	449.12
485.118	456.12
485.336	456.12
485.554	454.12
485.772	476.12
485.99	463.12
486.209	439.12
486.427	469.12
486.645	458.12
486.863	466.12
487.081	460.12
487.299	477.12
487.517	459.12
487.735	464.12
487.953	445.12
488.171	467.12
488.389	462.12
488.607	467.12
488.825	472.12
489.043	470.12
489.261	482.12
489.479	456.12
489.696	479.12
489.914	470.12
490.132	471.12
490.35	468.12
490.568	490.12
490.786	485.12
491.003	504.12
491.221	487.12
491.439	490.12
491.657	497.12
491.874	500.12
492.092	502.12
492.31	527.12
492.527	508.12
492.745	523.12
492.963	523.12
493.18	532.12
493.398	521.12
493.615	526.12
493.833	519.12
494.05	536.12
494.268	522.12
494.485	516.12
494.703	498.12
494.92	530.12
495.138	531.12
495.355	528.12
495.573	522.12
495.79	540.12
496.008	524.12
496.225	538.12
496.442	532.12
496.66	532.12
496.877	549.12
497.094	560.12
497.312	570.12
497.529	564.12
497.746	556.12
497.963	579.12
498.181	588.12
498.398	617.12
498.615	640.12
498.832	635.12
499.049	651.12
499.267	692.12
499.484	702.12
499.701	750.12
499.918	781.12
500.135	803.12
500.352	873.12
500.569	885.12
500.786	903.12
501.003	839.12
501.22	830.12
501.437	812.12
501.654	755.12
501.871	720.12
502.088	726.12
502.305	677.12
502.522	648.12
502.739	621.12
502.956	582.12
503.172	591.12
503.389	582.12
503.606	583.12
503.823	578.12
504.04	578.12
504.256	566.12
504.473	569.12
504.69	556.12
504.907	562.12
505.123	548.12
505.34	539.12
505.557	536.12
505.773	521.12
505.99	512.12
506.207	512.12
506.423	519.12
506.64	513.12
506.856	499.12
507.073	493.12
507.289	473.12
507.506	485.12
507.722	462.12
507.939	493.12
508.155	496.12
508.372	472.12
508.588	475.12
508.805	465.12
509.021	477.12
509.238	475.12
509.454	481.12
509.67	456.12
509.887	464.12
510.103	477.12
510.319	466.12
510.536	506.12
510.752	624.12
510.968	550.12
511.184	462.12
511.401	481.12
511.617	429.12
511.833	453.12
512.049	460.12
512.265	452.12
512.481	443.12
512.698	453.12
512.914	444.12
513.13	434.12
513.346	439.12
513.562	452.12
513.778	469.12
513.994	441.12
514.21	443.12
514.426	441.12
514.642	470.12
514.858	482.12
515.074	480.12
515.29	511.12
515.506	606.12
515.721	552.12
515.937	466.12
516.153	482.12
516.369	470.12
516.585	454.12
516.801	480.12
517.016	477.12
517.232	479.12
517.448	484.12
517.664	471.12
517.879	480.12
518.095	484.12
518.311	514.12
518.527	491.12
518.742	480.12
518.958	474.12
519.173	466.12
519.389	480.12
519.605	466.12
519.82	445.12
520.036	469.12
520.251	451.12
520.467	475.12
520.682	446.12
520.898	450.12
521.113	465.12
521.329	488.12
521.544	456.12
521.76	544.12
521.975	676.12
522.19	664.12
522.406	509.12
522.621	443.12
522.836	458.12
523.052	429.12
523.267	436.12
523.482	419.12
523.698	414.12
523.913	403.12
524.128	413.12
524.343	412.12
524.559	390.12
524.774	398.12
524.989	403.12
525.204	412.12
525.419	400.12
525.634	377.12
525.849	395.12
526.064	409.12
526.28	393.12
526.495	397.12
526.71	403.12
526.925	379.12
527.14	391.12
527.355	388.12
527.57	381.12
527.785	380.12
527.999	404.12
528.214	401.12
528.429	387.12
528.644	408.12
528.859	374.12
529.074	394.12
529.289	408.12
529.503	421.12
529.718	422.12
529.933	406.12
530.148	378.12
530.363	390.12
530.577	396.12
530.792	384.12
531.007	374.12
531.221	373.12
531.436	376.12
531.651	381.12
531.865	382.12
532.08	386.12
532.295	390.12
532.509	372.12
532.724	402.12
532.938	383.12
533.153	386.12
533.367	394.12
533.582	362.12
533.796	372.12
534.011	372.12
534.225	378.12
534.44	371.12
534.654	370.12
534.868	380.12
535.083	365.12
535.297	361.12
535.511	381.12
535.726	376.12
535.94	390.12
536.154	365.12
536.369	376.12
536.583	373.12
536.797	371.12
537.011	369.12
537.225	371.12
537.44	357.12
537.654	359.12
537.868	388.12
538.082	371.12
538.296	375.12
538.51	360.12
538.724	362.12
538.938	360.12
539.153	372.12
539.367	381.12
539.581	352.12
539.795	360.12
540.009	374.12
540.222	369.12
540.436	351.12
540.65	375.12
540.864	350.12
541.078	358.12
541.292	365.12
541.506	373.12
541.72	350.12
541.934	362.12
542.147	373.12
542.361	372.12
542.575	340.12
542.789	356.12
543.002	363.12
543.216	363.12
543.43	358.12
543.644	351.12
543.857	364.12
544.071	363.12
544.285	379.12
544.498	363.12
544.712	352.12
544.925	345.12
545.139	356.12
545.352	349.12
545.566	361.12
545.779	353.12
545.993	350.12
546.206	352.12
546.42	349.12
546.633	346.12
546.847	348.12
547.06	361.12
547.274	350.12
547.487	360.12
547.7	334.12
547.914	356.12
548.127	360.12
548.34	356.12
548.554	362.12
548.767	368.12
548.98	349.12
549.193	351.12
549.407	361.12
549.62	368.12
549.833	347.12
550.046	348.12
550.259	352.12
550.473	340.12
550.686	354.12
550.899	350.12
551.112	346.12
551.325	353.12
551.538	341.12
551.751	345.12
551.964	354.12
552.177	355.12
552.39	354.12
552.603	373.12
552.816	365.12
553.029	358.12
553.242	372.12
553.455	374.12
553.667	390.12
553.88	364.12
554.093	374.12
554.306	362.12
554.519	348.12
554.732	324.12
554.944	352.12
555.157	336.12
555.37	351.12
555.583	345.12
555.795	341.12
556.008	336.12
556.221	329.12
556.433	317.12
556.646	314.12
556.859	328.12
557.071	302.12
557.284	318.12
557.496	317.12
557.709	333.12
557.921	334.12
558.134	325.12
558.346	316.12
558.559	330.12
558.771	315.12
558.984	326.12
559.196	309.12
559.409	318.12
559.621	322.12
559.833	313.12
560.046	311.12
560.258	326.12
560.47	316.12
560.683	320.12
560.895	316.12
561.107	301.12
561.32	322.12
561.532	341.12
561.744	323.12
561.956	301.12
562.168	314.12
562.381	321.12
562.593	326.12
562.805	332.12
563.017	315.12
563.229	308.12
563.441	323.12
563.653	345.12
563.865	328.12
564.077	340.12
564.289	332.12
564.501	312.12
564.713	334.12
564.925	339.12
565.137	336.12
565.349	336.12
565.561	344.12
565.773	362.12
565.985	374.12
566.197	392.12
566.408	392.12
566.62	393.12
566.832	424.12
567.044	404.12
567.255	434.12
567.467	423.12
567.679	445.12
567.891	442.12
568.102	428.12
568.314	432.12
568.526	394.12
568.737	404.12
568.949	394.12
569.161	376.12
569.372	369.12
569.584	360.12
569.795	342.12
570.007	327.12
570.218	347.12
570.43	346.12
570.641	323.12
570.853	334.12
571.064	323.12
571.276	326.12
571.487	325.12
571.698	321.12
571.91	312.12
572.121	306.12
572.333	309.12
572.544	311.12
572.755	288.12
572.966	286.12
573.178	292.12
573.389	289.12
573.6	290.12
573.811	286.12
574.023	288.12
574.234	297.12
574.445	277.12
574.656	296.12
574.867	292.12
575.078	292.12
575.289	267.12
575.501	290.12
575.712	258.12
575.923	274.12
576.134	283.12
576.345	276.12
576.556	259.12
576.767	261.12
576.978	263.12
577.188	276.12
577.399	271.12
577.61	278.12
577.821	276.12
578.032	273.12
578.243	283.12
578.454	339.12
578.665	289.12
578.875	263.12
579.086	264.12
579.297	263.12
579.508	267.12
579.718	262.12
579.929	263.12
580.14	257.12
580.35	255.12
580.561	236.12
580.772	258.12
580.982	250.12
581.193	263.12
581.403	262.12
581.614	270.12
581.825	260.12
582.035	274.12
582.246	237.12
582.456	262.12
582.667	246.12
582.877	248.12
583.087	266.12
583.298	242.12
583.508	260.12
583.719	249.12
583.929	243.12
584.139	247.12
584.35	262.12
584.56	260.12
584.77	254.12
584.981	254.12
585.191	265.12
585.401	233.12
585.611	247.12
585.821	256.12
586.032	253.12
586.242	248.12
586.452	251.12
586.662	251.12
586.872	254.12
587.082	254.12
587.292	261.12
587.502	266.12
587.713	244.12
587.923	228.12
588.133	249.12
588.343	244.12
588.553	246.12
588.762	252.12
588.972	266.12
589.182	258.12
589.392	240.12
589.602	261.12
589.812	233.12
590.022	260.12
590.232	262.12
590.441	250.12
590.651	241.12
590.861	255.12
591.071	233.12
591.281	266.12
591.49	245.12
591.7	259.12
591.91	265.12
592.119	261.12
592.329	261.12
592.539	264.12
592.748	260.12
592.958	274.12
593.167	278.12
593.377	258.12
593.587	284.12
593.796	273.12
594.006	271.12
594.215	279.12
594.424	277.12
594.634	281.12
594.843	275.12
595.053	266.12
595.262	256.12
595.472	242.12
595.681	254.12
595.89	235.12
596.1	237.12
596.309	240.12
596.518	253.12
596.727	233.12
596.937	238.12
597.146	229.12
597.355	253.12
597.564	247.12
597.774	224.12
597.983	237.12
598.192	215.12
598.401	224.12
598.61	219.12
598.819	236.12
599.028	240.12
599.237	230.12
599.446	232.12
599.655	235.12
599.864	223.12
600.073	218.12
600.282	235.12
600.491	221.12
600.7	206.12
600.909	246.12
601.118	220.12
601.327	226.12
601.536	230.12
601.745	219.12
601.953	208.12
602.162	223.12
602.371	205.12
602.58	206.12
602.789	213.12
602.997	211.12
603.206	212.12
603.415	224.12
603.623	201.12
603.832	198.12
604.041	205.12
604.249	203.12
604.458	202.12
604.666	196.12
604.875	221.12
605.084	204.12
605.292	216.12
605.501	212.12
605.709	202.12
605.918	209.12
606.126	194.12
606.334	210.12
606.543	205.12
606.751	195.12
606.96	203.12
607.168	211.12
607.376	207.12
607.585	221.12
607.793	217.12
608.001	224.12
608.21	197.12
608.418	210.12
608.626	219.12
608.834	208.12
609.043	197.12
609.251	207.12
609.459	195.12
609.667	209.12
609.875	199.12
610.083	203.12
610.291	217.12
610.499	208.12
610.707	205.12
610.916	207.12
611.124	220.12
611.332	213.12
611.54	211.12
611.748	209.12
611.955	202.12
612.163	201.12
612.371	211.12
612.579	200.12
612.787	195.12
612.995	212.12
613.203	212.12
613.411	191.12
613.618	197.12
613.826	217.12
614.034	202.12
614.242	189.12
614.449	189.12
614.657	202.12
614.865	203.12
615.072	187.12
615.28	195.12
615.488	189.12
615.695	200.12
615.903	210.12
616.111	201.12
616.318	198.12
616.526	189.12
616.733	200.12
616.941	201.12
617.148	213.12
617.356	185.12
617.563	203.12
617.771	202.12
617.978	209.12
618.185	210.12
618.393	185.12
618.6	188.12
618.807	188.12
619.015	182.12
619.222	189.12
619.429	186.12
619.637	186.12
619.844	198.12
620.051	212.12
620.258	203.12
620.466	173.12
620.673	173.12
620.88	183.12
621.087	176.12
621.294	185.12
621.501	192.12
621.708	183.12
621.915	186.12
622.122	184.12
622.329	183.12
622.536	189.12
622.743	192.12
622.95	166.12
623.157	196.12
623.364	186.12
623.571	209.12
623.778	198.12
623.985	203.12
624.192	195.12
624.399	188.12
624.606	177.12
624.812	189.12
625.019	177.12
625.226	180.12
625.433	194.12
625.639	172.12
625.846	192.12
626.053	180.12
626.259	188.12
626.466	162.12
626.673	176.12
626.879	163.12
627.086	180.12
627.293	173.12
627.499	189.12
627.706	188.12
627.912	179.12
628.119	165.12
628.325	187.12
628.532	187.12
628.738	169.12
628.945	172.12
629.151	171.12
629.357	167.12
629.564	167.12
629.77	183.12
629.976	179.12
630.183	161.12
630.389	176.12
630.595	161.12
630.802	170.12
631.008	179.12
631.214	176.12
631.42	152.12
631.627	176.12
631.833	155.12
632.039	161.12
632.245	170.12
632.451	162.12
632.657	164.12
632.863	154.12
633.069	166.12
633.275	162.12
633.481	145.12
633.688	169.12
633.893	167.12
634.099	174.12
634.305	150.12
634.511	162.12
634.717	160.12
634.923	163.12
635.129	152.12
635.335	164.12
635.541	158.12
635.747	158.12
635.952	149.12
636.158	164.12
636.364	150.12
636.57	162.12
636.775	158.12
636.981	171.12
637.187	156.12
637.392	158.12
637.598	167.12
637.804	168.12
638.009	152.12
638.215	169.12
638.421	160.12
638.626	153.12
638.832	150.12
639.037	157.12
639.243	143.12
639.448	139.12
639.654	164.12
639.859	162.12
640.065	142.12
640.27	152.12
640.475	155.12
640.681	153.12
640.886	154.12
641.091	153.12
641.297	155.12
641.502	148.12
641.707	148.12
641.913	151.12
642.118	150.12
642.323	147.12
642.528	153.12
642.733	157.12
642.939	154.12
643.144	159.12
643.349	150.12
643.554	150.12
643.759	133.12
643.964	146.12
644.169	145.12
644.374	144.12
644.579	136.12
644.784	139.12
644.989	155.12
645.194	160.12
645.399	136.12
645.604	142.12
645.809	148.12
646.014	153.12
646.219	162.12
646.423	162.12
646.628	148.12
646.833	139.12
647.038	133.12
647.243	140.12
647.447	142.12
647.652	142.12
647.857	153.12
648.062	139.12
648.266	150.12
648.471	150.12
648.676	154.12
648.88	153.12
649.085	150.12
649.289	144.12
649.494	148.12
649.698	165.12
649.903	152.12
650.107	156.12
650.312	155.12
650.516	128.12
650.721	156.12
650.925	133.12
651.13	152.12
651.334	154.12
651.539	146.12
651.743	138.12
651.947	126.12
652.152	139.12
652.356	134.12
652.56	129.12
652.764	130.12
652.969	134.12
653.173	119.12
653.377	130.12
653.581	133.12
653.785	133.12
653.99	117.12
654.194	130.12
654.398	136.12
654.602	136.12
654.806	141.12
655.01	132.12
655.214	148.12
655.418	121.12
655.622	142.12
655.826	124.12
656.03	130.12
656.234	138.12
656.438	123.12
656.642	136.12
656.846	141.12
657.049	123.12
657.253	120.12
657.457	109.12
657.661	122.12
657.865	122.12
658.068	106.12
658.272	110.12
658.476	102.12
658.68	103.12
658.883	105.12
659.087	106.12
659.291	88.12
659.494	103.12
659.698	110.12
659.901	85.12
660.105	92.12
660.309	86.12
660.512	105.12
660.716	99.12
660.919	82.12
661.123	82.12
661.326	105.12
661.53	87.12
661.733	93.12
661.936	85.12
662.14	83.12
662.343	80.12
662.546	80.12
662.75	87.12
662.953	80.12
663.156	88.12
663.36	82.12
663.563	94.12
663.766	82.12
663.969	77.12
664.173	89.12
664.376	83.12
664.579	91.12
664.782	95.12
664.985	85.12
665.188	78.12
665.391	93.12
665.594	78.12
665.797	71.12
666	88.12
666.203	76.12
666.406	87.12
666.609	91.12
666.812	92.12
667.015	66.12
667.218	73.12
667.421	78.12
667.624	96.12
667.827	66.12
668.03	85.12
668.232	88.12
668.435	84.12
668.638	87.12
668.841	85.12
669.043	72.12
669.246	66.12
669.449	70.12
669.651	88.12
669.854	74.12
670.057	82.12
670.259	90.12
670.462	77.12
670.665	83.12
670.867	90.12
671.07	84.12
671.272	76.12
671.475	76.12
671.677	80.12
671.88	75.12
672.082	82.12
672.284	94.12
672.487	80.12
672.689	72.12
672.892	79.12
