Data from 1977.PennyLincolnUp.Lamp.En5.5.200Scan.071719.P1_HRD10591_16-06-00-863.txt Node
Date: Thu Jul 18 16:06:00 EDT 2019
User: cochatt
Spectrometer: HR+D1059
Trigger mode: 1
Integration Time (sec): 1.000000E-1
Scans to average: 1
Electric dark correction enabled: true
Nonlinearity correction enabled: false
Boxcar width: 0
XAxis mode: Wavelengths
Number of Pixels in Spectrum: 2048
>>>>>Begin Spectral Data<<<<<
223.165	-9.56
223.4	-9.56
223.635	-9.56
223.869	-15.56
224.104	-26.56
224.338	-16.56
224.573	-19.56
224.808	-9.56
225.042	-4.56
225.277	-10.56
225.511	7.44
225.746	3.44
225.98	2.44
226.215	5.44
226.449	16.44
226.683	25.44
226.918	27.44
227.152	24.44
227.387	35.44
227.621	51.44
227.856	34.44
228.09	45.44
228.324	42.44
228.559	40.44
228.793	64.44
229.027	98.44
229.262	94.44
229.496	107.44
229.73	117.44
229.964	130.44
230.199	115.44
230.433	110.44
230.667	97.44
230.901	111.44
231.136	88.44
231.37	115.44
231.604	121.44
231.838	104.44
232.072	103.44
232.306	110.44
232.541	118.44
232.775	124.44
233.009	113.44
233.243	133.44
233.477	109.44
233.711	122.44
233.945	105.44
234.179	129.44
234.413	125.44
234.647	107.44
234.881	120.44
235.115	131.44
235.349	106.44
235.583	115.44
235.817	116.44
236.051	100.44
236.285	123.44
236.519	128.44
236.753	137.44
236.987	134.44
237.221	150.44
237.455	193.44
237.689	163.44
237.922	132.44
238.156	150.44
238.39	130.44
238.624	140.44
238.858	108.44
239.091	122.44
239.325	123.44
239.559	117.44
239.793	109.44
240.027	126.44
240.26	143.44
240.494	149.44
240.728	143.44
240.961	150.44
241.195	129.44
241.429	118.44
241.662	110.44
241.896	142.44
242.13	135.44
242.363	126.44
242.597	131.44
242.83	129.44
243.064	134.44
243.298	135.44
243.531	145.44
243.765	145.44
243.998	142.44
244.232	127.44
244.465	154.44
244.699	145.44
244.932	155.44
245.166	146.44
245.399	135.44
245.633	137.44
245.866	135.44
246.099	149.44
246.333	139.44
246.566	157.44
246.8	140.44
247.033	147.44
247.266	149.44
247.5	157.44
247.733	160.44
247.966	173.44
248.2	158.44
248.433	179.44
248.666	177.44
248.899	167.44
249.133	173.44
249.366	198.44
249.599	185.44
249.832	169.44
250.066	173.44
250.299	164.44
250.532	174.44
250.765	213.44
250.998	202.44
251.231	221.44
251.465	196.44
251.698	179.44
251.931	192.44
252.164	203.44
252.397	179.44
252.63	192.44
252.863	187.44
253.096	203.44
253.329	214.44
253.562	201.44
253.795	200.44
254.028	233.44
254.261	214.44
254.494	213.44
254.727	248.44
254.96	243.44
255.193	251.44
255.426	221.44
255.659	218.44
255.892	218.44
256.124	218.44
256.357	219.44
256.59	214.44
256.823	214.44
257.056	206.44
257.289	209.44
257.521	187.44
257.754	200.44
257.987	219.44
258.22	195.44
258.452	213.44
258.685	203.44
258.918	200.44
259.151	198.44
259.383	190.44
259.616	230.44
259.849	214.44
260.081	208.44
260.314	222.44
260.547	245.44
260.779	239.44
261.012	212.44
261.244	211.44
261.477	241.44
261.71	206.44
261.942	208.44
262.175	218.44
262.407	237.44
262.64	223.44
262.872	207.44
263.105	204.44
263.337	220.44
263.57	201.44
263.802	212.44
264.035	199.44
264.267	201.44
264.499	207.44
264.732	218.44
264.964	218.44
265.197	218.44
265.429	206.44
265.661	213.44
265.894	202.44
266.126	211.44
266.358	228.44
266.591	239.44
266.823	218.44
267.055	242.44
267.287	241.44
267.52	237.44
267.752	225.44
267.984	226.44
268.216	235.44
268.448	242.44
268.681	248.44
268.913	246.44
269.145	255.44
269.377	257.44
269.609	276.44
269.841	265.44
270.073	260.44
270.306	266.44
270.538	292.44
270.77	299.44
271.002	304.44
271.234	286.44
271.466	286.44
271.698	293.44
271.93	305.44
272.162	318.44
272.394	299.44
272.626	286.44
272.858	276.44
273.09	285.44
273.322	285.44
273.553	295.44
273.785	265.44
274.017	269.44
274.249	274.44
274.481	281.44
274.713	259.44
274.945	278.44
275.176	275.44
275.408	267.44
275.64	284.44
275.872	264.44
276.104	291.44
276.335	260.44
276.567	265.44
276.799	287.44
277.031	316.44
277.262	324.44
277.494	341.44
277.726	289.44
277.957	291.44
278.189	276.44
278.421	287.44
278.652	296.44
278.884	285.44
279.115	272.44
279.347	277.44
279.579	274.44
279.81	283.44
280.042	292.44
280.273	280.44
280.505	277.44
280.736	280.44
280.968	283.44
281.199	297.44
281.431	281.44
281.662	274.44
281.894	273.44
282.125	282.44
282.356	313.44
282.588	300.44
282.819	299.44
283.051	288.44
283.282	287.44
283.513	271.44
283.745	298.44
283.976	278.44
284.207	309.44
284.439	285.44
284.67	297.44
284.901	308.44
285.132	300.44
285.364	302.44
285.595	300.44
285.826	292.44
286.057	287.44
286.288	313.44
286.52	300.44
286.751	299.44
286.982	290.44
287.213	287.44
287.444	305.44
287.675	315.44
287.906	301.44
288.138	307.44
288.369	305.44
288.6	319.44
288.831	312.44
289.062	293.44
289.293	303.44
289.524	306.44
289.755	301.44
289.986	305.44
290.217	297.44
290.448	289.44
290.679	309.44
290.91	301.44
291.141	308.44
291.371	306.44
291.602	297.44
291.833	330.44
292.064	298.44
292.295	311.44
292.526	301.44
292.757	301.44
292.987	301.44
293.218	292.44
293.449	305.44
293.68	321.44
293.91	314.44
294.141	300.44
294.372	317.44
294.603	301.44
294.833	318.44
295.064	319.44
295.295	321.44
295.525	314.44
295.756	322.44
295.987	318.44
296.217	343.44
296.448	322.44
296.679	326.44
296.909	305.44
297.14	327.44
297.37	299.44
297.601	325.44
297.831	318.44
298.062	331.44
298.292	326.44
298.523	309.44
298.753	311.44
298.984	340.44
299.214	329.44
299.445	321.44
299.675	324.44
299.905	338.44
300.136	330.44
300.366	317.44
300.597	323.44
300.827	339.44
301.057	348.44
301.288	338.44
301.518	320.44
301.748	333.44
301.979	341.44
302.209	355.44
302.439	351.44
302.669	353.44
302.9	362.44
303.13	346.44
303.36	352.44
303.59	353.44
303.82	348.44
304.051	334.44
304.281	329.44
304.511	332.44
304.741	349.44
304.971	329.44
305.201	352.44
305.431	331.44
305.661	353.44
305.891	349.44
306.121	337.44
306.352	349.44
306.582	326.44
306.812	342.44
307.042	355.44
307.272	349.44
307.502	349.44
307.731	341.44
307.961	342.44
308.191	328.44
308.421	370.44
308.651	341.44
308.881	337.44
309.111	356.44
309.341	367.44
309.571	344.44
309.8	367.44
310.03	379.44
310.26	374.44
310.49	362.44
310.72	391.44
310.949	380.44
311.179	386.44
311.409	377.44
311.639	376.44
311.868	364.44
312.098	370.44
312.328	413.44
312.557	409.44
312.787	379.44
313.017	404.44
313.246	398.44
313.476	397.44
313.706	396.44
313.935	403.44
314.165	389.44
314.394	406.44
314.624	399.44
314.853	389.44
315.083	381.44
315.312	382.44
315.542	372.44
315.771	391.44
316.001	384.44
316.23	403.44
316.46	402.44
316.689	394.44
316.919	392.44
317.148	395.44
317.377	402.44
317.607	395.44
317.836	402.44
318.065	380.44
318.295	376.44
318.524	384.44
318.753	399.44
318.983	389.44
319.212	374.44
319.441	398.44
319.67	402.44
319.9	390.44
320.129	381.44
320.358	407.44
320.587	401.44
320.816	399.44
321.046	406.44
321.275	395.44
321.504	425.44
321.733	392.44
321.962	420.44
322.191	427.44
322.42	438.44
322.649	438.44
322.878	438.44
323.108	430.44
323.337	458.44
323.566	474.44
323.795	487.44
324.024	525.44
324.253	613.44
324.482	825.44
324.71	1184.44
324.939	1614.44
325.168	1353.44
325.397	767.44
325.626	582.44
325.855	505.44
326.084	462.44
326.313	473.44
326.542	488.44
326.77	515.44
326.999	582.44
327.228	784.44
327.457	1050.44
327.686	1239.44
327.914	861.44
328.143	601.44
328.372	554.44
328.6	518.44
328.829	503.44
329.058	498.44
329.287	522.44
329.515	502.44
329.744	465.44
329.972	493.44
330.201	495.44
330.43	535.44
330.658	535.44
330.887	552.44
331.115	517.44
331.344	490.44
331.572	471.44
331.801	478.44
332.03	461.44
332.258	458.44
332.486	452.44
332.715	449.44
332.943	471.44
333.172	461.44
333.4	480.44
333.629	479.44
333.857	475.44
334.085	501.44
334.314	496.44
334.542	522.44
334.771	523.44
334.999	525.44
335.227	485.44
335.455	485.44
335.684	462.44
335.912	460.44
336.14	454.44
336.369	478.44
336.597	446.44
336.825	463.44
337.053	460.44
337.281	457.44
337.51	445.44
337.738	452.44
337.966	439.44
338.194	453.44
338.422	457.44
338.65	456.44
338.878	442.44
339.106	444.44
339.334	454.44
339.562	448.44
339.79	442.44
340.018	448.44
340.246	428.44
340.474	433.44
340.702	437.44
340.93	431.44
341.158	427.44
341.386	426.44
341.614	442.44
341.842	428.44
342.07	423.44
342.298	393.44
342.526	418.44
342.754	441.44
342.981	417.44
343.209	426.44
343.437	435.44
343.665	469.44
343.893	443.44
344.12	448.44
344.348	450.44
344.576	441.44
344.804	444.44
345.031	428.44
345.259	441.44
345.487	437.44
345.714	434.44
345.942	402.44
346.17	423.44
346.397	419.44
346.625	426.44
346.853	406.44
347.08	407.44
347.308	429.44
347.535	416.44
347.763	454.44
347.99	430.44
348.218	433.44
348.445	419.44
348.673	395.44
348.9	406.44
349.128	407.44
349.355	399.44
349.583	399.44
349.81	411.44
350.037	398.44
350.265	385.44
350.492	394.44
350.72	395.44
350.947	410.44
351.174	389.44
351.402	423.44
351.629	404.44
351.856	396.44
352.083	412.44
352.311	383.44
352.538	413.44
352.765	439.44
352.992	364.44
353.22	393.44
353.447	403.44
353.674	378.44
353.901	412.44
354.128	385.44
354.355	387.44
354.583	369.44
354.81	389.44
355.037	402.44
355.264	376.44
355.491	383.44
355.718	388.44
355.945	375.44
356.172	386.44
356.399	366.44
356.626	371.44
356.853	385.44
357.08	380.44
357.307	407.44
357.534	386.44
357.761	387.44
357.988	391.44
358.215	378.44
358.441	388.44
358.668	390.44
358.895	382.44
359.122	393.44
359.349	399.44
359.576	403.44
359.802	422.44
360.029	431.44
360.256	439.44
360.483	427.44
360.709	398.44
360.936	400.44
361.163	394.44
361.39	391.44
361.616	402.44
361.843	421.44
362.07	405.44
362.296	406.44
362.523	387.44
362.749	391.44
362.976	403.44
363.203	401.44
363.429	406.44
363.656	386.44
363.882	391.44
364.109	384.44
364.335	371.44
364.562	385.44
364.788	388.44
365.015	381.44
365.241	411.44
365.468	390.44
365.694	385.44
365.92	377.44
366.147	389.44
366.373	377.44
366.599	395.44
366.826	388.44
367.052	383.44
367.278	399.44
367.505	389.44
367.731	378.44
367.957	393.44
368.184	376.44
368.41	373.44
368.636	400.44
368.862	410.44
369.089	397.44
369.315	378.44
369.541	387.44
369.767	385.44
369.993	382.44
370.219	396.44
370.445	398.44
370.672	405.44
370.898	392.44
371.124	401.44
371.35	383.44
371.576	384.44
371.802	381.44
372.028	364.44
372.254	366.44
372.48	387.44
372.706	379.44
372.932	378.44
373.158	389.44
373.384	398.44
373.61	376.44
373.835	393.44
374.061	388.44
374.287	383.44
374.513	381.44
374.739	413.44
374.965	394.44
375.191	405.44
375.416	419.44
375.642	403.44
375.868	392.44
376.094	393.44
376.319	386.44
376.545	389.44
376.771	409.44
376.997	382.44
377.222	415.44
377.448	382.44
377.674	382.44
377.899	387.44
378.125	403.44
378.35	398.44
378.576	388.44
378.802	386.44
379.027	389.44
379.253	376.44
379.478	383.44
379.704	386.44
379.929	398.44
380.155	391.44
380.38	378.44
380.606	394.44
380.831	386.44
381.057	382.44
381.282	392.44
381.507	385.44
381.733	383.44
381.958	390.44
382.184	397.44
382.409	397.44
382.634	387.44
382.86	412.44
383.085	413.44
383.31	386.44
383.535	422.44
383.761	392.44
383.986	402.44
384.211	407.44
384.436	416.44
384.662	405.44
384.887	426.44
385.112	398.44
385.337	422.44
385.562	426.44
385.787	423.44
386.013	437.44
386.238	435.44
386.463	419.44
386.688	429.44
386.913	405.44
387.138	420.44
387.363	405.44
387.588	431.44
387.813	435.44
388.038	414.44
388.263	435.44
388.488	420.44
388.713	443.44
388.938	419.44
389.163	449.44
389.387	444.44
389.612	415.44
389.837	406.44
390.062	426.44
390.287	430.44
390.512	434.44
390.736	409.44
390.961	429.44
391.186	434.44
391.411	439.44
391.636	434.44
391.86	452.44
392.085	438.44
392.31	454.44
392.534	452.44
392.759	440.44
392.984	453.44
393.208	428.44
393.433	459.44
393.658	438.44
393.882	436.44
394.107	415.44
394.331	441.44
394.556	414.44
394.78	430.44
395.005	421.44
395.229	449.44
395.454	436.44
395.678	442.44
395.903	446.44
396.127	477.44
396.352	470.44
396.576	446.44
396.801	434.44
397.025	442.44
397.249	434.44
397.474	453.44
397.698	455.44
397.922	453.44
398.147	483.44
398.371	479.44
398.595	478.44
398.82	476.44
399.044	499.44
399.268	511.44
399.492	563.44
399.717	567.44
399.941	593.44
400.165	620.44
400.389	582.44
400.613	538.44
400.837	530.44
401.062	503.44
401.286	494.44
401.51	470.44
401.734	457.44
401.958	476.44
402.182	466.44
402.406	491.44
402.63	514.44
402.854	501.44
403.078	507.44
403.302	502.44
403.526	504.44
403.75	490.44
403.974	513.44
404.198	519.44
404.422	500.44
404.645	511.44
404.869	521.44
405.093	544.44
405.317	554.44
405.541	582.44
405.765	557.44
405.988	526.44
406.212	514.44
406.436	532.44
406.66	545.44
406.883	538.44
407.107	549.44
407.331	604.44
407.555	627.44
407.778	629.44
408.002	593.44
408.226	561.44
408.449	541.44
408.673	557.44
408.896	575.44
409.12	585.44
409.344	549.44
409.567	517.44
409.791	503.44
410.014	489.44
410.238	506.44
410.461	501.44
410.685	533.44
410.908	518.44
411.132	523.44
411.355	565.44
411.578	542.44
411.802	502.44
412.025	481.44
412.249	497.44
412.472	510.44
412.695	535.44
412.919	534.44
413.142	506.44
413.365	490.44
413.589	494.44
413.812	479.44
414.035	476.44
414.258	479.44
414.482	451.44
414.705	481.44
414.928	464.44
415.151	479.44
415.374	477.44
415.597	487.44
415.821	466.44
416.044	458.44
416.267	452.44
416.49	472.44
416.713	458.44
416.936	463.44
417.159	454.44
417.382	472.44
417.605	447.44
417.828	483.44
418.051	506.44
418.274	449.44
418.497	469.44
418.72	463.44
418.943	448.44
419.166	491.44
419.389	509.44
419.611	507.44
419.834	485.44
420.057	492.44
420.28	474.44
420.503	494.44
420.726	486.44
420.948	514.44
421.171	531.44
421.394	548.44
421.617	497.44
421.839	478.44
422.062	478.44
422.285	480.44
422.507	541.44
422.73	577.44
422.953	596.44
423.175	524.44
423.398	493.44
423.621	510.44
423.843	493.44
424.066	523.44
424.288	495.44
424.511	521.44
424.733	581.44
424.956	645.44
425.178	622.44
425.401	601.44
425.623	627.44
425.846	538.44
426.068	507.44
426.291	529.44
426.513	521.44
426.735	512.44
426.958	557.44
427.18	589.44
427.402	705.44
427.625	771.44
427.847	650.44
428.069	566.44
428.292	500.44
428.514	480.44
428.736	479.44
428.958	474.44
429.181	477.44
429.403	465.44
429.625	460.44
429.847	467.44
430.069	535.44
430.292	545.44
430.514	475.44
430.736	459.44
430.958	451.44
431.18	437.44
431.402	452.44
431.624	445.44
431.846	427.44
432.068	450.44
432.29	440.44
432.512	439.44
432.734	443.44
432.956	441.44
433.178	439.44
433.4	441.44
433.622	438.44
433.844	438.44
434.066	438.44
434.287	429.44
434.509	433.44
434.731	463.44
434.953	458.44
435.175	476.44
435.397	487.44
435.618	496.44
435.84	537.44
436.062	604.44
436.284	644.44
436.505	557.44
436.727	486.44
436.949	471.44
437.17	474.44
437.392	457.44
437.614	457.44
437.835	493.44
438.057	542.44
438.278	629.44
438.5	657.44
438.721	714.44
438.943	665.44
439.165	553.44
439.386	493.44
439.608	491.44
439.829	496.44
440.05	516.44
440.272	538.44
440.493	511.44
440.715	465.44
440.936	485.44
441.158	462.44
441.379	441.44
441.6	481.44
441.822	494.44
442.043	540.44
442.264	603.44
442.486	617.44
442.707	528.44
442.928	492.44
443.149	505.44
443.371	521.44
443.592	545.44
443.813	638.44
444.034	669.44
444.255	573.44
444.476	541.44
444.698	535.44
444.919	494.44
445.14	622.44
445.361	551.44
445.582	527.44
445.803	583.44
446.024	637.44
446.245	647.44
446.466	589.44
446.687	538.44
446.908	483.44
447.129	487.44
447.35	470.44
447.571	445.44
447.792	428.44
448.013	469.44
448.234	463.44
448.455	507.44
448.675	590.44
448.896	691.44
449.117	588.44
449.338	568.44
449.559	633.44
449.779	716.44
450	565.44
450.221	489.44
450.442	452.44
450.662	443.44
450.883	442.44
451.104	459.44
451.324	456.44
451.545	410.44
451.766	417.44
451.986	407.44
452.207	410.44
452.428	417.44
452.648	407.44
452.869	413.44
453.089	441.44
453.31	440.44
453.53	402.44
453.751	407.44
453.971	383.44
454.192	411.44
454.412	428.44
454.633	397.44
454.853	396.44
455.073	405.44
455.294	409.44
455.514	473.44
455.734	449.44
455.955	435.44
456.175	390.44
456.395	373.44
456.616	367.44
456.836	377.44
457.056	377.44
457.276	390.44
457.497	398.44
457.717	360.44
457.937	395.44
458.157	393.44
458.377	390.44
458.598	398.44
458.818	457.44
459.038	490.44
459.258	524.44
459.478	460.44
459.698	424.44
459.918	430.44
460.138	439.44
460.358	453.44
460.578	458.44
460.798	450.44
461.018	469.44
461.238	464.44
461.458	465.44
461.678	457.44
461.898	442.44
462.118	437.44
462.338	478.44
462.558	463.44
462.777	489.44
462.997	479.44
463.217	508.44
463.437	509.44
463.657	504.44
463.876	513.44
464.096	518.44
464.316	493.44
464.536	488.44
464.755	484.44
464.975	499.44
465.195	482.44
465.414	502.44
465.634	452.44
465.854	462.44
466.073	458.44
466.293	431.44
466.512	407.44
466.732	432.44
466.951	429.44
467.171	429.44
467.391	426.44
467.61	415.44
467.829	421.44
468.049	413.44
468.268	422.44
468.488	427.44
468.707	418.44
468.927	394.44
469.146	405.44
469.365	414.44
469.585	391.44
469.804	414.44
470.023	418.44
470.243	428.44
470.462	430.44
470.681	450.44
470.901	427.44
471.12	425.44
471.339	426.44
471.558	412.44
471.777	416.44
471.997	422.44
472.216	431.44
472.435	442.44
472.654	427.44
472.873	411.44
473.092	433.44
473.311	430.44
473.53	403.44
473.749	416.44
473.968	459.44
474.187	539.44
474.406	541.44
474.625	462.44
474.844	425.44
475.063	428.44
475.282	424.44
475.501	416.44
475.72	408.44
475.939	453.44
476.158	435.44
476.377	449.44
476.596	441.44
476.814	424.44
477.033	426.44
477.252	442.44
477.471	453.44
477.69	451.44
477.908	446.44
478.127	468.44
478.346	462.44
478.564	447.44
478.783	457.44
479.002	487.44
479.22	498.44
479.439	493.44
479.658	508.44
479.876	502.44
480.095	488.44
480.313	519.44
480.532	539.44
480.751	520.44
480.969	505.44
481.188	536.44
481.406	537.44
481.624	524.44
481.843	505.44
482.061	493.44
482.28	514.44
482.498	488.44
482.717	491.44
482.935	486.44
483.153	484.44
483.372	476.44
483.59	490.44
483.808	483.44
484.027	490.44
484.245	490.44
484.463	479.44
484.681	472.44
484.9	485.44
485.118	468.44
485.336	478.44
485.554	482.44
485.772	525.44
485.99	517.44
486.209	502.44
486.427	497.44
486.645	506.44
486.863	515.44
487.081	516.44
487.299	522.44
487.517	537.44
487.735	480.44
487.953	493.44
488.171	526.44
488.389	526.44
488.607	512.44
488.825	517.44
489.043	511.44
489.261	519.44
489.479	510.44
489.696	525.44
489.914	512.44
490.132	519.44
490.35	531.44
490.568	535.44
490.786	508.44
491.003	539.44
491.221	529.44
491.439	562.44
491.657	561.44
491.874	564.44
492.092	545.44
492.31	574.44
492.527	583.44
492.745	573.44
492.963	582.44
493.18	581.44
493.398	574.44
493.615	603.44
493.833	598.44
494.05	558.44
494.268	596.44
494.485	605.44
494.703	581.44
494.92	578.44
495.138	588.44
495.355	575.44
495.573	606.44
495.79	601.44
496.008	609.44
496.225	598.44
496.442	605.44
496.66	584.44
496.877	609.44
497.094	603.44
497.312	599.44
497.529	623.44
497.746	614.44
497.963	635.44
498.181	658.44
498.398	675.44
498.615	661.44
498.832	715.44
499.049	716.44
499.267	763.44
499.484	749.44
499.701	818.44
499.918	852.44
500.135	869.44
500.352	941.44
500.569	962.44
500.786	955.44
501.003	945.44
501.22	900.44
501.437	877.44
501.654	823.44
501.871	803.44
502.088	759.44
502.305	717.44
502.522	729.44
502.739	674.44
502.956	666.44
503.172	658.44
503.389	634.44
503.606	645.44
503.823	638.44
504.04	624.44
504.256	603.44
504.473	621.44
504.69	617.44
504.907	621.44
505.123	599.44
505.34	596.44
505.557	603.44
505.773	573.44
505.99	590.44
506.207	571.44
506.423	572.44
506.64	549.44
506.856	558.44
507.073	546.44
507.289	560.44
507.506	538.44
507.722	532.44
507.939	546.44
508.155	556.44
508.372	538.44
508.588	545.44
508.805	527.44
509.021	532.44
509.238	543.44
509.454	562.44
509.67	549.44
509.887	543.44
510.103	499.44
510.319	521.44
510.536	591.44
510.752	871.44
510.968	729.44
511.184	535.44
511.401	507.44
511.617	495.44
511.833	481.44
512.049	512.44
512.265	519.44
512.481	498.44
512.698	493.44
512.914	509.44
513.13	488.44
513.346	496.44
513.562	515.44
513.778	494.44
513.994	508.44
514.21	511.44
514.426	526.44
514.642	535.44
514.858	533.44
515.074	580.44
515.29	660.44
515.506	846.44
515.721	745.44
515.937	569.44
516.153	523.44
516.369	525.44
516.585	519.44
516.801	546.44
517.016	542.44
517.232	544.44
517.448	534.44
517.664	549.44
517.879	537.44
518.095	541.44
518.311	527.44
518.527	526.44
518.742	546.44
518.958	521.44
519.173	518.44
519.389	516.44
519.605	505.44
519.82	529.44
520.036	504.44
520.251	530.44
520.467	561.44
520.682	518.44
520.898	527.44
521.113	545.44
521.329	575.44
521.544	605.44
521.76	695.44
521.975	1031.44
522.19	1003.44
522.406	623.44
522.621	536.44
522.836	487.44
523.052	488.44
523.267	471.44
523.482	457.44
523.698	475.44
523.913	453.44
524.128	465.44
524.343	441.44
524.559	459.44
524.774	435.44
524.989	451.44
525.204	427.44
525.419	438.44
525.634	413.44
525.849	425.44
526.064	433.44
526.28	438.44
526.495	444.44
526.71	429.44
526.925	395.44
527.14	421.44
527.355	416.44
527.57	424.44
527.785	399.44
527.999	425.44
528.214	414.44
528.429	435.44
528.644	410.44
528.859	434.44
529.074	425.44
529.289	433.44
529.503	453.44
529.718	439.44
529.933	439.44
530.148	420.44
530.363	417.44
530.577	419.44
530.792	420.44
531.007	410.44
531.221	418.44
531.436	406.44
531.651	424.44
531.865	382.44
532.08	389.44
532.295	414.44
532.509	401.44
532.724	405.44
532.938	408.44
533.153	404.44
533.367	426.44
533.582	401.44
533.796	410.44
534.011	401.44
534.225	389.44
534.44	391.44
534.654	406.44
534.868	407.44
535.083	407.44
535.297	414.44
535.511	405.44
535.726	411.44
535.94	407.44
536.154	391.44
536.369	392.44
536.583	378.44
536.797	383.44
537.011	411.44
537.225	394.44
537.44	383.44
537.654	375.44
537.868	395.44
538.082	387.44
538.296	384.44
538.51	401.44
538.724	374.44
538.938	382.44
539.153	375.44
539.367	401.44
539.581	393.44
539.795	388.44
540.009	389.44
540.222	400.44
540.436	376.44
540.65	397.44
540.864	404.44
541.078	410.44
541.292	383.44
541.506	380.44
541.72	396.44
541.934	389.44
542.147	382.44
542.361	390.44
542.575	393.44
542.789	380.44
543.002	375.44
543.216	397.44
543.43	401.44
543.644	373.44
543.857	381.44
544.071	369.44
544.285	377.44
544.498	388.44
544.712	369.44
544.925	373.44
545.139	381.44
545.352	366.44
545.566	387.44
545.779	391.44
545.993	408.44
546.206	409.44
546.42	374.44
546.633	390.44
546.847	390.44
547.06	351.44
547.274	388.44
547.487	381.44
547.7	379.44
547.914	372.44
548.127	398.44
548.34	379.44
548.554	381.44
548.767	390.44
548.98	367.44
549.193	378.44
549.407	391.44
549.62	379.44
549.833	371.44
550.046	379.44
550.259	356.44
550.473	375.44
550.686	380.44
550.899	381.44
551.112	375.44
551.325	396.44
551.538	379.44
551.751	370.44
551.964	361.44
552.177	376.44
552.39	374.44
552.603	369.44
552.816	375.44
553.029	381.44
553.242	390.44
553.455	373.44
553.667	394.44
553.88	413.44
554.093	386.44
554.306	378.44
554.519	395.44
554.732	379.44
554.944	344.44
555.157	378.44
555.37	366.44
555.583	379.44
555.795	344.44
556.008	352.44
556.221	332.44
556.433	348.44
556.646	359.44
556.859	346.44
557.071	345.44
557.284	332.44
557.496	319.44
557.709	349.44
557.921	348.44
558.134	367.44
558.346	347.44
558.559	334.44
558.771	313.44
558.984	313.44
559.196	340.44
559.409	339.44
559.621	340.44
559.833	333.44
560.046	329.44
560.258	324.44
560.47	320.44
560.683	318.44
560.895	340.44
561.107	314.44
561.32	332.44
561.532	344.44
561.744	326.44
561.956	350.44
562.168	342.44
562.381	346.44
562.593	353.44
562.805	349.44
563.017	345.44
563.229	330.44
563.441	344.44
563.653	334.44
563.865	342.44
564.077	333.44
564.289	343.44
564.501	344.44
564.713	361.44
564.925	378.44
565.137	365.44
565.349	364.44
565.561	373.44
565.773	373.44
565.985	404.44
566.197	379.44
566.408	376.44
566.62	437.44
566.832	430.44
567.044	450.44
567.255	451.44
567.467	436.44
567.679	458.44
567.891	473.44
568.102	466.44
568.314	458.44
568.526	429.44
568.737	414.44
568.949	387.44
569.161	388.44
569.372	363.44
569.584	349.44
569.795	341.44
570.007	344.44
570.218	362.44
570.43	366.44
570.641	340.44
570.853	332.44
571.064	326.44
571.276	343.44
571.487	328.44
571.698	309.44
571.91	320.44
572.121	312.44
572.333	319.44
572.544	313.44
572.755	310.44
572.966	290.44
573.178	295.44
573.389	311.44
573.6	290.44
573.811	280.44
574.023	298.44
574.234	283.44
574.445	285.44
574.656	281.44
574.867	280.44
575.078	281.44
575.289	293.44
575.501	291.44
575.712	294.44
575.923	288.44
576.134	284.44
576.345	283.44
576.556	295.44
576.767	289.44
576.978	286.44
577.188	287.44
577.399	284.44
577.61	277.44
577.821	274.44
578.032	279.44
578.243	311.44
578.454	425.44
578.665	357.44
578.875	304.44
579.086	287.44
579.297	277.44
579.508	282.44
579.718	254.44
579.929	271.44
580.14	259.44
580.35	260.44
580.561	271.44
580.772	270.44
580.982	251.44
581.193	286.44
581.403	288.44
581.614	278.44
581.825	271.44
582.035	267.44
582.246	263.44
582.456	262.44
582.667	249.44
582.877	282.44
583.087	286.44
583.298	248.44
583.508	265.44
583.719	265.44
583.929	253.44
584.139	256.44
584.35	245.44
584.56	259.44
584.77	246.44
584.981	253.44
585.191	253.44
585.401	280.44
585.611	253.44
585.821	261.44
586.032	251.44
586.242	276.44
586.452	261.44
586.662	261.44
586.872	268.44
587.082	268.44
587.292	250.44
587.502	264.44
587.713	258.44
587.923	259.44
588.133	235.44
588.343	261.44
588.553	257.44
588.762	257.44
588.972	235.44
589.182	267.44
589.392	271.44
589.602	249.44
589.812	268.44
590.022	258.44
590.232	254.44
590.441	266.44
590.651	246.44
590.861	257.44
591.071	246.44
591.281	241.44
591.49	271.44
591.7	283.44
591.91	263.44
592.119	263.44
592.329	272.44
592.539	284.44
592.748	275.44
592.958	274.44
593.167	296.44
593.377	277.44
593.587	284.44
593.796	297.44
594.006	288.44
594.215	289.44
594.424	281.44
594.634	246.44
594.843	282.44
595.053	269.44
595.262	266.44
595.472	266.44
595.681	243.44
595.89	270.44
596.1	260.44
596.309	261.44
596.518	256.44
596.727	251.44
596.937	232.44
597.146	231.44
597.355	234.44
597.564	224.44
597.774	204.44
597.983	230.44
598.192	234.44
598.401	225.44
598.61	225.44
598.819	218.44
599.028	233.44
599.237	235.44
599.446	238.44
599.655	232.44
599.864	228.44
600.073	228.44
600.282	213.44
600.491	240.44
600.7	227.44
600.909	215.44
601.118	226.44
601.327	223.44
601.536	233.44
601.745	221.44
601.953	226.44
602.162	231.44
602.371	219.44
602.58	233.44
602.789	224.44
602.997	212.44
603.206	220.44
603.415	210.44
603.623	207.44
603.832	220.44
604.041	217.44
604.249	215.44
604.458	215.44
604.666	212.44
604.875	207.44
605.084	205.44
605.292	214.44
605.501	214.44
605.709	210.44
605.918	218.44
606.126	215.44
606.334	223.44
606.543	213.44
606.751	203.44
606.96	204.44
607.168	209.44
607.376	220.44
607.585	210.44
607.793	206.44
608.001	215.44
608.21	220.44
608.418	203.44
608.626	203.44
608.834	210.44
609.043	198.44
609.251	204.44
609.459	193.44
609.667	210.44
609.875	220.44
610.083	196.44
610.291	222.44
610.499	217.44
610.707	211.44
610.916	200.44
611.124	208.44
611.332	202.44
611.54	212.44
611.748	205.44
611.955	222.44
612.163	218.44
612.371	209.44
612.579	212.44
612.787	203.44
612.995	201.44
613.203	223.44
613.411	215.44
613.618	211.44
613.826	210.44
614.034	202.44
614.242	208.44
614.449	219.44
614.657	201.44
614.865	205.44
615.072	205.44
615.28	211.44
615.488	198.44
615.695	209.44
615.903	197.44
616.111	198.44
616.318	223.44
616.526	223.44
616.733	210.44
616.941	222.44
617.148	205.44
617.356	206.44
617.563	200.44
617.771	196.44
617.978	197.44
618.185	197.44
618.393	197.44
618.6	203.44
618.807	184.44
619.015	206.44
619.222	195.44
619.429	195.44
619.637	204.44
619.844	187.44
620.051	194.44
620.258	198.44
620.466	213.44
620.673	199.44
620.88	184.44
621.087	189.44
621.294	184.44
621.501	195.44
621.708	208.44
621.915	176.44
622.122	192.44
622.329	199.44
622.536	197.44
622.743	200.44
622.95	195.44
623.157	177.44
623.364	193.44
623.571	184.44
623.778	185.44
623.985	182.44
624.192	173.44
624.399	188.44
624.606	193.44
624.812	194.44
625.019	194.44
625.226	174.44
625.433	201.44
625.639	178.44
625.846	187.44
626.053	181.44
626.259	209.44
626.466	195.44
626.673	188.44
626.879	181.44
627.086	192.44
627.293	178.44
627.499	180.44
627.706	174.44
627.912	185.44
628.119	169.44
628.325	170.44
628.532	176.44
628.738	185.44
628.945	185.44
629.151	179.44
629.357	155.44
629.564	175.44
629.77	191.44
629.976	182.44
630.183	177.44
630.389	181.44
630.595	171.44
630.802	181.44
631.008	170.44
631.214	173.44
631.42	175.44
631.627	167.44
631.833	178.44
632.039	180.44
632.245	180.44
632.451	180.44
632.657	171.44
632.863	166.44
633.069	169.44
633.275	168.44
633.481	154.44
633.688	169.44
633.893	169.44
634.099	166.44
634.305	171.44
634.511	165.44
634.717	169.44
634.923	162.44
635.129	169.44
635.335	160.44
635.541	170.44
635.747	168.44
635.952	161.44
636.158	185.44
636.364	161.44
636.57	180.44
636.775	152.44
636.981	169.44
637.187	158.44
637.392	157.44
637.598	183.44
637.804	185.44
638.009	163.44
638.215	137.44
638.421	157.44
638.626	169.44
638.832	160.44
639.037	148.44
639.243	143.44
639.448	158.44
639.654	160.44
639.859	172.44
640.065	143.44
640.27	178.44
640.475	149.44
640.681	163.44
640.886	148.44
641.091	143.44
641.297	152.44
641.502	165.44
641.707	153.44
641.913	149.44
642.118	143.44
642.323	153.44
642.528	154.44
642.733	164.44
642.939	139.44
643.144	149.44
643.349	161.44
643.554	155.44
643.759	161.44
643.964	156.44
644.169	166.44
644.374	153.44
644.579	161.44
644.784	158.44
644.989	159.44
645.194	158.44
645.399	139.44
645.604	144.44
645.809	143.44
646.014	144.44
646.219	145.44
646.423	152.44
646.628	150.44
646.833	166.44
647.038	169.44
647.243	162.44
647.447	149.44
647.652	162.44
647.857	149.44
648.062	143.44
648.266	163.44
648.471	184.44
648.676	163.44
648.88	157.44
649.085	159.44
649.289	158.44
649.494	145.44
649.698	157.44
649.903	137.44
650.107	150.44
650.312	153.44
650.516	147.44
650.721	149.44
650.925	159.44
651.13	147.44
651.334	147.44
651.539	148.44
651.743	153.44
651.947	131.44
652.152	142.44
652.356	154.44
652.56	136.44
652.764	127.44
652.969	129.44
653.173	133.44
653.377	126.44
653.581	134.44
653.785	126.44
653.99	136.44
654.194	143.44
654.398	122.44
654.602	124.44
654.806	120.44
655.01	135.44
655.214	140.44
655.418	128.44
655.622	120.44
655.826	129.44
656.03	131.44
656.234	150.44
656.438	125.44
656.642	137.44
656.846	134.44
657.049	115.44
657.253	125.44
657.457	111.44
657.661	112.44
657.865	104.44
658.068	102.44
658.272	106.44
658.476	109.44
658.68	118.44
658.883	117.44
659.087	113.44
659.291	101.44
659.494	98.44
659.698	108.44
659.901	100.44
660.105	106.44
660.309	99.44
660.512	93.44
660.716	86.44
660.919	86.44
661.123	83.44
661.326	88.44
661.53	91.44
661.733	78.44
661.936	94.44
662.14	72.44
662.343	71.44
662.546	83.44
662.75	89.44
662.953	97.44
663.156	85.44
663.36	76.44
663.563	77.44
663.766	72.44
663.969	93.44
664.173	75.44
664.376	91.44
664.579	76.44
664.782	71.44
664.985	87.44
665.188	93.44
665.391	91.44
665.594	97.44
665.797	90.44
666	79.44
666.203	77.44
666.406	91.44
666.609	80.44
666.812	84.44
667.015	82.44
667.218	72.44
667.421	104.44
667.624	79.44
667.827	76.44
668.03	67.44
668.232	97.44
668.435	81.44
668.638	83.44
668.841	85.44
669.043	81.44
669.246	91.44
669.449	85.44
669.651	89.44
669.854	73.44
670.057	79.44
670.259	73.44
670.462	84.44
670.665	95.44
670.867	91.44
671.07	80.44
671.272	87.44
671.475	79.44
671.677	84.44
671.88	81.44
672.082	81.44
672.284	83.44
672.487	85.44
672.689	87.44
672.892	82.44
