Data from 1977.PennyLincolnUp.Lamp.En5.5.200Scan.071719.P1_HRD10591_16-06-13-864.txt Node
Date: Thu Jul 18 16:06:13 EDT 2019
User: cochatt
Spectrometer: HR+D1059
Trigger mode: 1
Integration Time (sec): 1.000000E-1
Scans to average: 1
Electric dark correction enabled: true
Nonlinearity correction enabled: false
Boxcar width: 0
XAxis mode: Wavelengths
Number of Pixels in Spectrum: 2048
>>>>>Begin Spectral Data<<<<<
223.165	-7.44
223.4	-7.44
223.635	-7.44
223.869	-7.44
224.104	-7.44
224.338	-20.44
224.573	-24.44
224.808	-15.44
225.042	-5.44
225.277	-0.44
225.511	-6.44
225.746	4.56
225.98	5.56
226.215	16.56
226.449	19.56
226.683	9.56
226.918	13.56
227.152	25.56
227.387	27.56
227.621	33.56
227.856	43.56
228.09	40.56
228.324	56.56
228.559	51.56
228.793	54.56
229.027	96.56
229.262	93.56
229.496	101.56
229.73	128.56
229.964	141.56
230.199	129.56
230.433	115.56
230.667	110.56
230.901	94.56
231.136	105.56
231.37	107.56
231.604	104.56
231.838	110.56
232.072	121.56
232.306	107.56
232.541	113.56
232.775	101.56
233.009	110.56
233.243	104.56
233.477	94.56
233.711	122.56
233.945	127.56
234.179	106.56
234.413	95.56
234.647	123.56
234.881	129.56
235.115	135.56
235.349	135.56
235.583	116.56
235.817	115.56
236.051	122.56
236.285	124.56
236.519	106.56
236.753	117.56
236.987	127.56
237.221	160.56
237.455	199.56
237.689	159.56
237.922	137.56
238.156	121.56
238.39	128.56
238.624	125.56
238.858	123.56
239.091	131.56
239.325	120.56
239.559	109.56
239.793	131.56
240.027	141.56
240.26	136.56
240.494	149.56
240.728	142.56
240.961	128.56
241.195	136.56
241.429	132.56
241.662	117.56
241.896	130.56
242.13	133.56
242.363	131.56
242.597	119.56
242.83	127.56
243.064	124.56
243.298	133.56
243.531	134.56
243.765	141.56
243.998	155.56
244.232	157.56
244.465	143.56
244.699	155.56
244.932	137.56
245.166	131.56
245.399	143.56
245.633	148.56
245.866	143.56
246.099	130.56
246.333	144.56
246.566	145.56
246.8	156.56
247.033	154.56
247.266	157.56
247.5	152.56
247.733	153.56
247.966	180.56
248.2	158.56
248.433	172.56
248.666	165.56
248.899	175.56
249.133	182.56
249.366	203.56
249.599	187.56
249.832	167.56
250.066	174.56
250.299	202.56
250.532	193.56
250.765	190.56
250.998	215.56
251.231	215.56
251.465	195.56
251.698	185.56
251.931	196.56
252.164	177.56
252.397	206.56
252.63	188.56
252.863	202.56
253.096	190.56
253.329	223.56
253.562	198.56
253.795	198.56
254.028	209.56
254.261	187.56
254.494	215.56
254.727	243.56
254.96	259.56
255.193	262.56
255.426	213.56
255.659	221.56
255.892	234.56
256.124	209.56
256.357	217.56
256.59	228.56
256.823	211.56
257.056	218.56
257.289	179.56
257.521	176.56
257.754	204.56
257.987	211.56
258.22	181.56
258.452	199.56
258.685	205.56
258.918	229.56
259.151	215.56
259.383	215.56
259.616	202.56
259.849	223.56
260.081	235.56
260.314	248.56
260.547	235.56
260.779	257.56
261.012	239.56
261.244	225.56
261.477	216.56
261.71	208.56
261.942	208.56
262.175	231.56
262.407	240.56
262.64	200.56
262.872	226.56
263.105	213.56
263.337	219.56
263.57	204.56
263.802	229.56
264.035	235.56
264.267	229.56
264.499	204.56
264.732	206.56
264.964	203.56
265.197	219.56
265.429	233.56
265.661	209.56
265.894	209.56
266.126	217.56
266.358	212.56
266.591	213.56
266.823	233.56
267.055	228.56
267.287	230.56
267.52	230.56
267.752	231.56
267.984	236.56
268.216	236.56
268.448	229.56
268.681	234.56
268.913	237.56
269.145	267.56
269.377	268.56
269.609	269.56
269.841	283.56
270.073	286.56
270.306	320.56
270.538	272.56
270.77	299.56
271.002	289.56
271.234	289.56
271.466	302.56
271.698	308.56
271.93	308.56
272.162	300.56
272.394	298.56
272.626	290.56
272.858	292.56
273.09	284.56
273.322	270.56
273.553	278.56
273.785	253.56
274.017	268.56
274.249	277.56
274.481	279.56
274.713	262.56
274.945	277.56
275.176	261.56
275.408	272.56
275.64	273.56
275.872	268.56
276.104	264.56
276.335	289.56
276.567	262.56
276.799	289.56
277.031	304.56
277.262	314.56
277.494	319.56
277.726	311.56
277.957	293.56
278.189	280.56
278.421	282.56
278.652	296.56
278.884	283.56
279.115	278.56
279.347	272.56
279.579	265.56
279.81	271.56
280.042	274.56
280.273	302.56
280.505	283.56
280.736	284.56
280.968	277.56
281.199	258.56
281.431	272.56
281.662	280.56
281.894	273.56
282.125	287.56
282.356	309.56
282.588	307.56
282.819	295.56
283.051	287.56
283.282	296.56
283.513	303.56
283.745	297.56
283.976	288.56
284.207	309.56
284.439	283.56
284.67	288.56
284.901	280.56
285.132	287.56
285.364	293.56
285.595	292.56
285.826	311.56
286.057	299.56
286.288	289.56
286.52	316.56
286.751	300.56
286.982	298.56
287.213	319.56
287.444	296.56
287.675	305.56
287.906	302.56
288.138	319.56
288.369	307.56
288.6	338.56
288.831	280.56
289.062	316.56
289.293	300.56
289.524	312.56
289.755	297.56
289.986	310.56
290.217	294.56
290.448	310.56
290.679	320.56
290.91	328.56
291.141	313.56
291.371	296.56
291.602	306.56
291.833	309.56
292.064	295.56
292.295	328.56
292.526	307.56
292.757	309.56
292.987	296.56
293.218	312.56
293.449	315.56
293.68	311.56
293.91	321.56
294.141	306.56
294.372	307.56
294.603	313.56
294.833	320.56
295.064	328.56
295.295	316.56
295.525	302.56
295.756	323.56
295.987	319.56
296.217	336.56
296.448	333.56
296.679	309.56
296.909	310.56
297.14	328.56
297.37	332.56
297.601	321.56
297.831	318.56
298.062	321.56
298.292	336.56
298.523	336.56
298.753	340.56
298.984	331.56
299.214	324.56
299.445	332.56
299.675	319.56
299.905	336.56
300.136	331.56
300.366	333.56
300.597	336.56
300.827	345.56
301.057	335.56
301.288	362.56
301.518	332.56
301.748	319.56
301.979	338.56
302.209	331.56
302.439	339.56
302.669	352.56
302.9	346.56
303.13	342.56
303.36	332.56
303.59	345.56
303.82	365.56
304.051	360.56
304.281	351.56
304.511	341.56
304.741	331.56
304.971	334.56
305.201	361.56
305.431	348.56
305.661	348.56
305.891	337.56
306.121	333.56
306.352	356.56
306.582	355.56
306.812	343.56
307.042	353.56
307.272	346.56
307.502	344.56
307.731	335.56
307.961	343.56
308.191	348.56
308.421	364.56
308.651	373.56
308.881	351.56
309.111	342.56
309.341	350.56
309.571	371.56
309.8	357.56
310.03	376.56
310.26	377.56
310.49	393.56
310.72	374.56
310.949	390.56
311.179	376.56
311.409	383.56
311.639	383.56
311.868	367.56
312.098	384.56
312.328	397.56
312.557	388.56
312.787	392.56
313.017	398.56
313.246	407.56
313.476	380.56
313.706	389.56
313.935	396.56
314.165	384.56
314.394	398.56
314.624	391.56
314.853	384.56
315.083	366.56
315.312	381.56
315.542	387.56
315.771	403.56
316.001	377.56
316.23	371.56
316.46	372.56
316.689	392.56
316.919	386.56
317.148	385.56
317.377	388.56
317.607	402.56
317.836	387.56
318.065	399.56
318.295	398.56
318.524	401.56
318.753	372.56
318.983	401.56
319.212	375.56
319.441	391.56
319.67	402.56
319.9	397.56
320.129	392.56
320.358	371.56
320.587	406.56
320.816	419.56
321.046	411.56
321.275	413.56
321.504	399.56
321.733	401.56
321.962	418.56
322.191	422.56
322.42	430.56
322.649	444.56
322.878	429.56
323.108	423.56
323.337	439.56
323.566	471.56
323.795	481.56
324.024	544.56
324.253	604.56
324.482	805.56
324.71	1196.56
324.939	1638.56
325.168	1390.56
325.397	751.56
325.626	555.56
325.855	505.56
326.084	492.56
326.313	481.56
326.542	462.56
326.77	526.56
326.999	578.56
327.228	756.56
327.457	1059.56
327.686	1191.56
327.914	858.56
328.143	621.56
328.372	549.56
328.6	554.56
328.829	521.56
329.058	502.56
329.287	529.56
329.515	501.56
329.744	473.56
329.972	478.56
330.201	472.56
330.43	508.56
330.658	521.56
330.887	558.56
331.115	521.56
331.344	463.56
331.572	494.56
331.801	482.56
332.03	475.56
332.258	456.56
332.486	459.56
332.715	457.56
332.943	480.56
333.172	471.56
333.4	502.56
333.629	492.56
333.857	502.56
334.085	492.56
334.314	471.56
334.542	503.56
334.771	516.56
334.999	492.56
335.227	464.56
335.455	476.56
335.684	471.56
335.912	476.56
336.14	452.56
336.369	455.56
336.597	470.56
336.825	464.56
337.053	464.56
337.281	446.56
337.51	442.56
337.738	457.56
337.966	445.56
338.194	447.56
338.422	443.56
338.65	438.56
338.878	448.56
339.106	440.56
339.334	444.56
339.562	439.56
339.79	427.56
340.018	424.56
340.246	437.56
340.474	427.56
340.702	435.56
340.93	428.56
341.158	442.56
341.386	449.56
341.614	427.56
341.842	421.56
342.07	424.56
342.298	420.56
342.526	422.56
342.754	394.56
342.981	413.56
343.209	417.56
343.437	436.56
343.665	429.56
343.893	424.56
344.12	444.56
344.348	441.56
344.576	441.56
344.804	460.56
345.031	448.56
345.259	434.56
345.487	417.56
345.714	435.56
345.942	405.56
346.17	406.56
346.397	400.56
346.625	421.56
346.853	411.56
347.08	401.56
347.308	407.56
347.535	433.56
347.763	414.56
347.99	409.56
348.218	399.56
348.445	410.56
348.673	428.56
348.9	419.56
349.128	401.56
349.355	408.56
349.583	390.56
349.81	402.56
350.037	388.56
350.265	407.56
350.492	406.56
350.72	401.56
350.947	412.56
351.174	421.56
351.402	416.56
351.629	415.56
351.856	405.56
352.083	409.56
352.311	408.56
352.538	387.56
352.765	407.56
352.992	411.56
353.22	402.56
353.447	389.56
353.674	397.56
353.901	388.56
354.128	391.56
354.355	385.56
354.583	372.56
354.81	422.56
355.037	379.56
355.264	388.56
355.491	380.56
355.718	378.56
355.945	392.56
356.172	389.56
356.399	381.56
356.626	382.56
356.853	380.56
357.08	372.56
357.307	393.56
357.534	387.56
357.761	389.56
357.988	384.56
358.215	406.56
358.441	372.56
358.668	390.56
358.895	383.56
359.122	401.56
359.349	405.56
359.576	409.56
359.802	414.56
360.029	402.56
360.256	438.56
360.483	409.56
360.709	391.56
360.936	421.56
361.163	391.56
361.39	409.56
361.616	402.56
361.843	402.56
362.07	400.56
362.296	390.56
362.523	393.56
362.749	398.56
362.976	394.56
363.203	392.56
363.429	380.56
363.656	377.56
363.882	406.56
364.109	389.56
364.335	404.56
364.562	375.56
364.788	397.56
365.015	383.56
365.241	405.56
365.468	407.56
365.694	390.56
365.92	376.56
366.147	406.56
366.373	393.56
366.599	381.56
366.826	399.56
367.052	381.56
367.278	384.56
367.505	381.56
367.731	380.56
367.957	381.56
368.184	395.56
368.41	397.56
368.636	404.56
368.862	383.56
369.089	374.56
369.315	395.56
369.541	391.56
369.767	374.56
369.993	399.56
370.219	382.56
370.445	385.56
370.672	393.56
370.898	373.56
371.124	378.56
371.35	394.56
371.576	401.56
371.802	399.56
372.028	398.56
372.254	388.56
372.48	410.56
372.706	405.56
372.932	404.56
373.158	406.56
373.384	413.56
373.61	382.56
373.835	379.56
374.061	382.56
374.287	411.56
374.513	384.56
374.739	391.56
374.965	381.56
375.191	419.56
375.416	401.56
375.642	397.56
375.868	383.56
376.094	393.56
376.319	395.56
376.545	395.56
376.771	409.56
376.997	394.56
377.222	384.56
377.448	386.56
377.674	396.56
377.899	401.56
378.125	392.56
378.35	392.56
378.576	362.56
378.802	391.56
379.027	375.56
379.253	375.56
379.478	384.56
379.704	382.56
379.929	397.56
380.155	379.56
380.38	384.56
380.606	376.56
380.831	371.56
381.057	385.56
381.282	387.56
381.507	386.56
381.733	365.56
381.958	385.56
382.184	394.56
382.409	374.56
382.634	382.56
382.86	398.56
383.085	396.56
383.31	396.56
383.535	400.56
383.761	398.56
383.986	388.56
384.211	401.56
384.436	399.56
384.662	421.56
384.887	409.56
385.112	421.56
385.337	408.56
385.562	420.56
385.787	423.56
386.013	422.56
386.238	413.56
386.463	435.56
386.688	425.56
386.913	407.56
387.138	408.56
387.363	406.56
387.588	408.56
387.813	406.56
388.038	411.56
388.263	419.56
388.488	420.56
388.713	421.56
388.938	431.56
389.163	444.56
389.387	433.56
389.612	411.56
389.837	445.56
390.062	433.56
390.287	417.56
390.512	407.56
390.736	441.56
390.961	408.56
391.186	413.56
391.411	407.56
391.636	437.56
391.86	441.56
392.085	456.56
392.31	437.56
392.534	443.56
392.759	427.56
392.984	418.56
393.208	439.56
393.433	429.56
393.658	441.56
393.882	419.56
394.107	423.56
394.331	451.56
394.556	393.56
394.78	442.56
395.005	441.56
395.229	438.56
395.454	445.56
395.678	451.56
395.903	444.56
396.127	458.56
396.352	447.56
396.576	449.56
396.801	441.56
397.025	432.56
397.249	423.56
397.474	456.56
397.698	422.56
397.922	471.56
398.147	464.56
398.371	478.56
398.595	478.56
398.82	480.56
399.044	489.56
399.268	517.56
399.492	558.56
399.717	580.56
399.941	592.56
400.165	616.56
400.389	617.56
400.613	551.56
400.837	525.56
401.062	507.56
401.286	495.56
401.51	482.56
401.734	459.56
401.958	478.56
402.182	486.56
402.406	476.56
402.63	496.56
402.854	475.56
403.078	507.56
403.302	482.56
403.526	487.56
403.75	506.56
403.974	504.56
404.198	507.56
404.422	493.56
404.645	523.56
404.869	477.56
405.093	527.56
405.317	562.56
405.541	572.56
405.765	560.56
405.988	519.56
406.212	519.56
406.436	537.56
406.66	528.56
406.883	503.56
407.107	558.56
407.331	603.56
407.555	616.56
407.778	652.56
408.002	569.56
408.226	547.56
408.449	547.56
408.673	529.56
408.896	563.56
409.12	579.56
409.344	574.56
409.567	549.56
409.791	500.56
410.014	477.56
410.238	485.56
410.461	495.56
410.685	500.56
410.908	509.56
411.132	526.56
411.355	553.56
411.578	530.56
411.802	505.56
412.025	483.56
412.249	494.56
412.472	513.56
412.695	517.56
412.919	526.56
413.142	493.56
413.365	475.56
413.589	461.56
413.812	460.56
414.035	458.56
414.258	466.56
414.482	469.56
414.705	454.56
414.928	471.56
415.151	479.56
415.374	448.56
415.597	430.56
415.821	465.56
416.044	463.56
416.267	471.56
416.49	437.56
416.713	454.56
416.936	457.56
417.159	449.56
417.382	462.56
417.605	474.56
417.828	463.56
418.051	476.56
418.274	487.56
418.497	473.56
418.72	448.56
418.943	457.56
419.166	471.56
419.389	508.56
419.611	491.56
419.834	485.56
420.057	483.56
420.28	490.56
420.503	475.56
420.726	489.56
420.948	497.56
421.171	517.56
421.394	539.56
421.617	507.56
421.839	467.56
422.062	489.56
422.285	489.56
422.507	524.56
422.73	595.56
422.953	589.56
423.175	535.56
423.398	513.56
423.621	499.56
423.843	494.56
424.066	505.56
424.288	499.56
424.511	527.56
424.733	563.56
424.956	616.56
425.178	592.56
425.401	599.56
425.623	601.56
425.846	506.56
426.068	499.56
426.291	481.56
426.513	504.56
426.735	488.56
426.958	534.56
427.18	594.56
427.402	706.56
427.625	768.56
427.847	634.56
428.069	551.56
428.292	523.56
428.514	465.56
428.736	477.56
428.958	475.56
429.181	474.56
429.403	456.56
429.625	471.56
429.847	493.56
430.069	536.56
430.292	532.56
430.514	467.56
430.736	477.56
430.958	454.56
431.18	460.56
431.402	440.56
431.624	424.56
431.846	431.56
432.068	444.56
432.29	443.56
432.512	447.56
432.734	461.56
432.956	435.56
433.178	445.56
433.4	458.56
433.622	451.56
433.844	437.56
434.066	464.56
434.287	425.56
434.509	464.56
434.731	460.56
434.953	461.56
435.175	462.56
435.397	519.56
435.618	505.56
435.84	539.56
436.062	593.56
436.284	656.56
436.505	543.56
436.727	507.56
436.949	454.56
437.17	463.56
437.392	454.56
437.614	470.56
437.835	502.56
438.057	567.56
438.278	612.56
438.5	634.56
438.721	717.56
438.943	675.56
439.165	527.56
439.386	492.56
439.608	492.56
439.829	496.56
440.05	527.56
440.272	570.56
440.493	517.56
440.715	470.56
440.936	448.56
441.158	469.56
441.379	462.56
441.6	479.56
441.822	486.56
442.043	528.56
442.264	587.56
442.486	631.56
442.707	523.56
442.928	490.56
443.149	507.56
443.371	547.56
443.592	560.56
443.813	639.56
444.034	679.56
444.255	592.56
444.476	502.56
444.698	506.56
444.919	501.56
445.14	595.56
445.361	544.56
445.582	555.56
445.803	565.56
446.024	634.56
446.245	651.56
446.466	597.56
446.687	525.56
446.908	475.56
447.129	466.56
447.35	445.56
447.571	456.56
447.792	437.56
448.013	471.56
448.234	464.56
448.455	509.56
448.675	599.56
448.896	699.56
449.117	586.56
449.338	566.56
449.559	642.56
449.779	736.56
450	576.56
450.221	505.56
450.442	454.56
450.662	444.56
450.883	437.56
451.104	447.56
451.324	437.56
451.545	417.56
451.766	420.56
451.986	385.56
452.207	423.56
452.428	392.56
452.648	409.56
452.869	392.56
453.089	410.56
453.31	438.56
453.53	401.56
453.751	379.56
453.971	391.56
454.192	437.56
454.412	415.56
454.633	409.56
454.853	427.56
455.073	401.56
455.294	415.56
455.514	468.56
455.734	458.56
455.955	397.56
456.175	404.56
456.395	380.56
456.616	392.56
456.836	399.56
457.056	380.56
457.276	366.56
457.497	380.56
457.717	395.56
457.937	397.56
458.157	395.56
458.377	401.56
458.598	425.56
458.818	453.56
459.038	492.56
459.258	519.56
459.478	471.56
459.698	416.56
459.918	436.56
460.138	449.56
460.358	447.56
460.578	455.56
460.798	451.56
461.018	453.56
461.238	441.56
461.458	447.56
461.678	458.56
461.898	455.56
462.118	462.56
462.338	457.56
462.558	451.56
462.777	484.56
462.997	502.56
463.217	524.56
463.437	539.56
463.657	486.56
463.876	478.56
464.096	505.56
464.316	476.56
464.536	492.56
464.755	483.56
464.975	495.56
465.195	513.56
465.414	522.56
465.634	484.56
465.854	455.56
466.073	437.56
466.293	450.56
466.512	437.56
466.732	423.56
466.951	418.56
467.171	416.56
467.391	417.56
467.61	429.56
467.829	433.56
468.049	403.56
468.268	417.56
468.488	394.56
468.707	433.56
468.927	386.56
469.146	391.56
469.365	410.56
469.585	419.56
469.804	416.56
470.023	435.56
470.243	426.56
470.462	395.56
470.681	432.56
470.901	437.56
471.12	437.56
471.339	428.56
471.558	409.56
471.777	424.56
471.997	418.56
472.216	420.56
472.435	442.56
472.654	405.56
472.873	416.56
473.092	413.56
473.311	415.56
473.53	416.56
473.749	437.56
473.968	462.56
474.187	509.56
474.406	551.56
474.625	464.56
474.844	427.56
475.063	441.56
475.282	422.56
475.501	433.56
475.72	437.56
475.939	413.56
476.158	432.56
476.377	435.56
476.596	425.56
476.814	456.56
477.033	441.56
477.252	465.56
477.471	441.56
477.69	444.56
477.908	457.56
478.127	444.56
478.346	460.56
478.564	433.56
478.783	466.56
479.002	460.56
479.22	477.56
479.439	503.56
479.658	504.56
479.876	515.56
480.095	496.56
480.313	520.56
480.532	522.56
480.751	512.56
480.969	514.56
481.188	552.56
481.406	536.56
481.624	526.56
481.843	495.56
482.061	494.56
482.28	475.56
482.498	494.56
482.717	475.56
482.935	462.56
483.153	452.56
483.372	469.56
483.59	477.56
483.808	480.56
484.027	488.56
484.245	483.56
484.463	483.56
484.681	493.56
484.9	469.56
485.118	507.56
485.336	485.56
485.554	496.56
485.772	490.56
485.99	500.56
486.209	517.56
486.427	485.56
486.645	501.56
486.863	488.56
487.081	505.56
487.299	511.56
487.517	486.56
487.735	511.56
487.953	511.56
488.171	513.56
488.389	529.56
488.607	514.56
488.825	507.56
489.043	507.56
489.261	516.56
489.479	530.56
489.696	508.56
489.914	508.56
490.132	535.56
490.35	559.56
490.568	540.56
490.786	513.56
491.003	533.56
491.221	541.56
491.439	542.56
491.657	577.56
491.874	567.56
492.092	563.56
492.31	570.56
492.527	563.56
492.745	592.56
492.963	573.56
493.18	566.56
493.398	603.56
493.615	612.56
493.833	589.56
494.05	581.56
494.268	580.56
494.485	593.56
494.703	557.56
494.92	582.56
495.138	575.56
495.355	580.56
495.573	571.56
495.79	603.56
496.008	601.56
496.225	608.56
496.442	610.56
496.66	597.56
496.877	617.56
497.094	600.56
497.312	603.56
497.529	633.56
497.746	606.56
497.963	653.56
498.181	649.56
498.398	668.56
498.615	685.56
498.832	688.56
499.049	718.56
499.267	763.56
499.484	795.56
499.701	799.56
499.918	844.56
500.135	875.56
500.352	938.56
500.569	948.56
500.786	937.56
501.003	931.56
501.22	910.56
501.437	865.56
501.654	809.56
501.871	805.56
502.088	756.56
502.305	710.56
502.522	704.56
502.739	678.56
502.956	671.56
503.172	637.56
503.389	657.56
503.606	637.56
503.823	640.56
504.04	605.56
504.256	606.56
504.473	624.56
504.69	607.56
504.907	622.56
505.123	606.56
505.34	592.56
505.557	577.56
505.773	579.56
505.99	593.56
506.207	583.56
506.423	565.56
506.64	567.56
506.856	551.56
507.073	541.56
507.289	532.56
507.506	528.56
507.722	552.56
507.939	550.56
508.155	543.56
508.372	557.56
508.588	538.56
508.805	510.56
509.021	521.56
509.238	533.56
509.454	541.56
509.67	555.56
509.887	546.56
510.103	551.56
510.319	525.56
510.536	610.56
510.752	857.56
510.968	688.56
511.184	547.56
511.401	517.56
511.617	481.56
511.833	503.56
512.049	510.56
512.265	505.56
512.481	500.56
512.698	496.56
512.914	517.56
513.13	496.56
513.346	505.56
513.562	490.56
513.778	523.56
513.994	515.56
514.21	512.56
514.426	494.56
514.642	543.56
514.858	540.56
515.074	567.56
515.29	635.56
515.506	838.56
515.721	720.56
515.937	572.56
516.153	545.56
516.369	533.56
516.585	541.56
516.801	509.56
517.016	525.56
517.232	532.56
517.448	547.56
517.664	532.56
517.879	566.56
518.095	551.56
518.311	534.56
518.527	543.56
518.742	526.56
518.958	515.56
519.173	503.56
519.389	515.56
519.605	509.56
519.82	495.56
520.036	520.56
520.251	514.56
520.467	537.56
520.682	517.56
520.898	523.56
521.113	510.56
521.329	544.56
521.544	625.56
521.76	699.56
521.975	1028.56
522.19	980.56
522.406	600.56
522.621	536.56
522.836	508.56
523.052	472.56
523.267	486.56
523.482	454.56
523.698	465.56
523.913	454.56
524.128	441.56
524.343	424.56
524.559	439.56
524.774	451.56
524.989	447.56
525.204	446.56
525.419	438.56
525.634	437.56
525.849	441.56
526.064	419.56
526.28	431.56
526.495	421.56
526.71	410.56
526.925	429.56
527.14	405.56
527.355	430.56
527.57	430.56
527.785	414.56
527.999	414.56
528.214	428.56
528.429	419.56
528.644	433.56
528.859	415.56
529.074	395.56
529.289	427.56
529.503	463.56
529.718	455.56
529.933	441.56
530.148	438.56
530.363	415.56
530.577	427.56
530.792	425.56
531.007	415.56
531.221	411.56
531.436	423.56
531.651	417.56
531.865	401.56
532.08	385.56
532.295	411.56
532.509	418.56
532.724	410.56
532.938	418.56
533.153	412.56
533.367	424.56
533.582	402.56
533.796	404.56
534.011	401.56
534.225	417.56
534.44	409.56
534.654	406.56
534.868	416.56
535.083	397.56
535.297	407.56
535.511	402.56
535.726	405.56
535.94	399.56
536.154	415.56
536.369	405.56
536.583	405.56
536.797	408.56
537.011	393.56
537.225	363.56
537.44	396.56
537.654	379.56
537.868	389.56
538.082	391.56
538.296	394.56
538.51	379.56
538.724	384.56
538.938	390.56
539.153	401.56
539.367	411.56
539.581	399.56
539.795	396.56
540.009	397.56
540.222	402.56
540.436	385.56
540.65	397.56
540.864	376.56
541.078	395.56
541.292	391.56
541.506	361.56
541.72	408.56
541.934	393.56
542.147	383.56
542.361	385.56
542.575	389.56
542.789	397.56
543.002	386.56
543.216	395.56
543.43	384.56
543.644	369.56
543.857	375.56
544.071	387.56
544.285	392.56
544.498	371.56
544.712	379.56
544.925	389.56
545.139	393.56
545.352	383.56
545.566	397.56
545.779	370.56
545.993	400.56
546.206	397.56
546.42	399.56
546.633	371.56
546.847	361.56
547.06	358.56
547.274	375.56
547.487	383.56
547.7	374.56
547.914	374.56
548.127	368.56
548.34	389.56
548.554	397.56
548.767	364.56
548.98	389.56
549.193	369.56
549.407	365.56
549.62	386.56
549.833	382.56
550.046	376.56
550.259	367.56
550.473	356.56
550.686	379.56
550.899	361.56
551.112	381.56
551.325	374.56
551.538	376.56
551.751	357.56
551.964	385.56
552.177	387.56
552.39	361.56
552.603	380.56
552.816	391.56
553.029	371.56
553.242	371.56
553.455	391.56
553.667	412.56
553.88	368.56
554.093	379.56
554.306	381.56
554.519	382.56
554.732	377.56
554.944	364.56
555.157	371.56
555.37	367.56
555.583	355.56
555.795	360.56
556.008	348.56
556.221	333.56
556.433	358.56
556.646	347.56
556.859	346.56
557.071	339.56
557.284	342.56
557.496	341.56
557.709	330.56
557.921	327.56
558.134	326.56
558.346	334.56
558.559	336.56
558.771	335.56
558.984	337.56
559.196	320.56
559.409	343.56
559.621	337.56
559.833	326.56
560.046	332.56
560.258	333.56
560.47	337.56
560.683	333.56
560.895	312.56
561.107	311.56
561.32	329.56
561.532	330.56
561.744	322.56
561.956	345.56
562.168	345.56
562.381	356.56
562.593	333.56
562.805	324.56
563.017	342.56
563.229	332.56
563.441	343.56
563.653	332.56
563.865	354.56
564.077	344.56
564.289	336.56
564.501	357.56
564.713	352.56
564.925	351.56
565.137	361.56
565.349	351.56
565.561	360.56
565.773	350.56
565.985	395.56
566.197	378.56
566.408	414.56
566.62	435.56
566.832	421.56
567.044	431.56
567.255	420.56
567.467	449.56
567.679	438.56
567.891	452.56
568.102	449.56
568.314	451.56
568.526	430.56
568.737	423.56
568.949	385.56
569.161	395.56
569.372	373.56
569.584	375.56
569.795	350.56
570.007	338.56
570.218	385.56
570.43	351.56
570.641	324.56
570.853	321.56
571.064	334.56
571.276	317.56
571.487	324.56
571.698	318.56
571.91	331.56
572.121	331.56
572.333	332.56
572.544	319.56
572.755	304.56
572.966	307.56
573.178	292.56
573.389	293.56
573.6	317.56
573.811	279.56
574.023	305.56
574.234	313.56
574.445	305.56
574.656	291.56
574.867	302.56
575.078	311.56
575.289	304.56
575.501	290.56
575.712	294.56
575.923	307.56
576.134	286.56
576.345	291.56
576.556	291.56
576.767	275.56
576.978	294.56
577.188	291.56
577.399	279.56
577.61	287.56
577.821	278.56
578.032	279.56
578.243	292.56
578.454	388.56
578.665	359.56
578.875	278.56
579.086	264.56
579.297	274.56
579.508	282.56
579.718	273.56
579.929	261.56
580.14	271.56
580.35	282.56
580.561	255.56
580.772	265.56
580.982	270.56
581.193	258.56
581.403	278.56
581.614	260.56
581.825	273.56
582.035	273.56
582.246	283.56
582.456	266.56
582.667	269.56
582.877	265.56
583.087	235.56
583.298	253.56
583.508	263.56
583.719	263.56
583.929	260.56
584.139	264.56
584.35	264.56
584.56	253.56
584.77	259.56
584.981	271.56
585.191	262.56
585.401	280.56
585.611	271.56
585.821	254.56
586.032	244.56
586.242	263.56
586.452	264.56
586.662	265.56
586.872	247.56
587.082	255.56
587.292	249.56
587.502	270.56
587.713	271.56
587.923	259.56
588.133	273.56
588.343	272.56
588.553	268.56
588.762	264.56
588.972	247.56
589.182	250.56
589.392	265.56
589.602	255.56
589.812	259.56
590.022	246.56
590.232	273.56
590.441	268.56
590.651	259.56
590.861	265.56
591.071	251.56
591.281	271.56
591.49	252.56
591.7	262.56
591.91	253.56
592.119	271.56
592.329	278.56
592.539	281.56
592.748	295.56
592.958	257.56
593.167	278.56
593.377	280.56
593.587	309.56
593.796	284.56
594.006	274.56
594.215	284.56
594.424	281.56
594.634	265.56
594.843	270.56
595.053	267.56
595.262	242.56
595.472	245.56
595.681	254.56
595.89	279.56
596.1	264.56
596.309	257.56
596.518	241.56
596.727	259.56
596.937	258.56
597.146	250.56
597.355	258.56
597.564	241.56
597.774	257.56
597.983	216.56
598.192	239.56
598.401	248.56
598.61	233.56
598.819	225.56
599.028	219.56
599.237	217.56
599.446	220.56
599.655	220.56
599.864	211.56
600.073	214.56
600.282	215.56
600.491	235.56
600.7	225.56
600.909	214.56
601.118	237.56
601.327	221.56
601.536	230.56
601.745	221.56
601.953	223.56
602.162	226.56
602.371	234.56
602.58	233.56
602.789	230.56
602.997	235.56
603.206	224.56
603.415	214.56
603.623	219.56
603.832	215.56
604.041	229.56
604.249	230.56
604.458	233.56
604.666	224.56
604.875	218.56
605.084	213.56
605.292	216.56
605.501	217.56
605.709	220.56
605.918	203.56
606.126	210.56
606.334	213.56
606.543	219.56
606.751	225.56
606.96	214.56
607.168	208.56
607.376	220.56
607.585	224.56
607.793	230.56
608.001	217.56
608.21	208.56
608.418	212.56
608.626	206.56
608.834	214.56
609.043	217.56
609.251	217.56
609.459	221.56
609.667	226.56
609.875	198.56
610.083	210.56
610.291	205.56
610.499	220.56
610.707	228.56
610.916	211.56
611.124	224.56
611.332	229.56
611.54	224.56
611.748	214.56
611.955	229.56
612.163	207.56
612.371	211.56
612.579	203.56
612.787	209.56
612.995	200.56
613.203	207.56
613.411	217.56
613.618	189.56
613.826	208.56
614.034	210.56
614.242	215.56
614.449	187.56
614.657	195.56
614.865	207.56
615.072	201.56
615.28	216.56
615.488	207.56
615.695	189.56
615.903	208.56
616.111	209.56
616.318	216.56
616.526	221.56
616.733	211.56
616.941	198.56
617.148	194.56
617.356	211.56
617.563	208.56
617.771	209.56
617.978	191.56
618.185	204.56
618.393	208.56
618.6	211.56
618.807	205.56
619.015	203.56
619.222	203.56
619.429	208.56
619.637	207.56
619.844	205.56
620.051	211.56
620.258	213.56
620.466	204.56
620.673	195.56
620.88	203.56
621.087	215.56
621.294	195.56
621.501	196.56
621.708	194.56
621.915	196.56
622.122	187.56
622.329	208.56
622.536	198.56
622.743	183.56
622.95	191.56
623.157	193.56
623.364	200.56
623.571	194.56
623.778	177.56
623.985	183.56
624.192	184.56
624.399	190.56
624.606	193.56
624.812	200.56
625.019	202.56
625.226	182.56
625.433	179.56
625.639	182.56
625.846	187.56
626.053	174.56
626.259	190.56
626.466	197.56
626.673	173.56
626.879	183.56
627.086	185.56
627.293	175.56
627.499	178.56
627.706	192.56
627.912	186.56
628.119	181.56
628.325	183.56
628.532	175.56
628.738	185.56
628.945	183.56
629.151	188.56
629.357	168.56
629.564	182.56
629.77	177.56
629.976	185.56
630.183	177.56
630.389	173.56
630.595	182.56
630.802	167.56
631.008	160.56
631.214	164.56
631.42	191.56
631.627	180.56
631.833	156.56
632.039	163.56
632.245	166.56
632.451	179.56
632.657	194.56
632.863	180.56
633.069	182.56
633.275	163.56
633.481	165.56
633.688	165.56
633.893	179.56
634.099	175.56
634.305	163.56
634.511	169.56
634.717	174.56
634.923	173.56
635.129	179.56
635.335	165.56
635.541	171.56
635.747	166.56
635.952	172.56
636.158	158.56
636.364	150.56
636.57	173.56
636.775	158.56
636.981	173.56
637.187	162.56
637.392	169.56
637.598	172.56
637.804	161.56
638.009	163.56
638.215	163.56
638.421	171.56
638.626	159.56
638.832	150.56
639.037	171.56
639.243	172.56
639.448	151.56
639.654	163.56
639.859	167.56
640.065	161.56
640.27	174.56
640.475	180.56
640.681	161.56
640.886	168.56
641.091	158.56
641.297	173.56
641.502	163.56
641.707	162.56
641.913	157.56
642.118	154.56
642.323	155.56
642.528	153.56
642.733	156.56
642.939	160.56
643.144	166.56
643.349	151.56
643.554	158.56
643.759	157.56
643.964	145.56
644.169	161.56
644.374	144.56
644.579	152.56
644.784	161.56
644.989	149.56
645.194	159.56
645.399	157.56
645.604	145.56
645.809	148.56
646.014	151.56
646.219	142.56
646.423	140.56
646.628	155.56
646.833	155.56
647.038	149.56
647.243	150.56
647.447	147.56
647.652	151.56
647.857	154.56
648.062	164.56
648.266	158.56
648.471	146.56
648.676	144.56
648.88	143.56
649.085	154.56
649.289	164.56
649.494	167.56
649.698	185.56
649.903	183.56
650.107	175.56
650.312	145.56
650.516	145.56
650.721	143.56
650.925	134.56
651.13	146.56
651.334	143.56
651.539	142.56
651.743	135.56
651.947	144.56
652.152	145.56
652.356	134.56
652.56	149.56
652.764	131.56
652.969	139.56
653.173	135.56
653.377	144.56
653.581	127.56
653.785	135.56
653.99	134.56
654.194	138.56
654.398	131.56
654.602	137.56
654.806	135.56
655.01	144.56
655.214	149.56
655.418	131.56
655.622	135.56
655.826	124.56
656.03	125.56
656.234	123.56
656.438	134.56
656.642	139.56
656.846	125.56
657.049	120.56
657.253	138.56
657.457	119.56
657.661	115.56
657.865	115.56
658.068	108.56
658.272	116.56
658.476	106.56
658.68	105.56
658.883	118.56
659.087	96.56
659.291	105.56
659.494	99.56
659.698	96.56
659.901	95.56
660.105	94.56
660.309	99.56
660.512	97.56
660.716	102.56
660.919	97.56
661.123	83.56
661.326	95.56
661.53	88.56
661.733	92.56
661.936	92.56
662.14	103.56
662.343	88.56
662.546	96.56
662.75	75.56
662.953	90.56
663.156	89.56
663.36	94.56
663.563	81.56
663.766	76.56
663.969	89.56
664.173	86.56
664.376	89.56
664.579	76.56
664.782	68.56
664.985	93.56
665.188	81.56
665.391	100.56
665.594	92.56
665.797	81.56
666	71.56
666.203	81.56
666.406	85.56
666.609	96.56
666.812	72.56
667.015	93.56
667.218	96.56
667.421	96.56
667.624	84.56
667.827	97.56
668.03	85.56
668.232	77.56
668.435	84.56
668.638	81.56
668.841	76.56
669.043	78.56
669.246	72.56
669.449	84.56
669.651	86.56
669.854	84.56
670.057	90.56
670.259	79.56
670.462	85.56
670.665	96.56
670.867	91.56
671.07	93.56
671.272	89.56
671.475	97.56
671.677	101.56
671.88	76.56
672.082	77.56
672.284	80.56
672.487	84.56
672.689	89.56
672.892	84.56
