Data from 1977.PennyLincolnUp.Lamp.En5.5.200Scan.071719.P1_HRD10591_16-05-15-872.txt Node
Date: Thu Jul 18 16:05:15 EDT 2019
User: cochatt
Spectrometer: HR+D1059
Trigger mode: 1
Integration Time (sec): 1.000000E-1
Scans to average: 1
Electric dark correction enabled: true
Nonlinearity correction enabled: false
Boxcar width: 0
XAxis mode: Wavelengths
Number of Pixels in Spectrum: 2048
>>>>>Begin Spectral Data<<<<<
223.165	-21.06
223.4	-21.06
223.635	-21.06
223.869	-15.06
224.104	-12.06
224.338	-4.06
224.573	-15.06
224.808	-8.06
225.042	-8.06
225.277	-6.06
225.511	-6.06
225.746	-2.06
225.98	-2.06
226.215	3.94
226.449	27.94
226.683	16.94
226.918	26.94
227.152	23.94
227.387	28.94
227.621	32.94
227.856	35.94
228.09	40.94
228.324	47.94
228.559	61.94
228.793	80.94
229.027	92.94
229.262	103.94
229.496	107.94
229.73	110.94
229.964	120.94
230.199	95.94
230.433	125.94
230.667	115.94
230.901	105.94
231.136	115.94
231.37	92.94
231.604	93.94
231.838	100.94
232.072	102.94
232.306	98.94
232.541	99.94
232.775	106.94
233.009	120.94
233.243	113.94
233.477	117.94
233.711	108.94
233.945	108.94
234.179	115.94
234.413	101.94
234.647	108.94
234.881	112.94
235.115	127.94
235.349	105.94
235.583	120.94
235.817	126.94
236.051	111.94
236.285	119.94
236.519	107.94
236.753	101.94
236.987	130.94
237.221	150.94
237.455	181.94
237.689	147.94
237.922	125.94
238.156	116.94
238.39	127.94
238.624	100.94
238.858	129.94
239.091	114.94
239.325	120.94
239.559	123.94
239.793	129.94
240.027	119.94
240.26	131.94
240.494	135.94
240.728	127.94
240.961	143.94
241.195	125.94
241.429	125.94
241.662	134.94
241.896	149.94
242.13	123.94
242.363	137.94
242.597	126.94
242.83	121.94
243.064	132.94
243.298	123.94
243.531	110.94
243.765	142.94
243.998	124.94
244.232	139.94
244.465	131.94
244.699	142.94
244.932	142.94
245.166	142.94
245.399	153.94
245.633	131.94
245.866	135.94
246.099	139.94
246.333	131.94
246.566	142.94
246.8	147.94
247.033	149.94
247.266	141.94
247.5	149.94
247.733	149.94
247.966	157.94
248.2	163.94
248.433	163.94
248.666	160.94
248.899	185.94
249.133	184.94
249.366	194.94
249.599	162.94
249.832	169.94
250.066	175.94
250.299	175.94
250.532	157.94
250.765	180.94
250.998	181.94
251.231	203.94
251.465	176.94
251.698	193.94
251.931	172.94
252.164	189.94
252.397	163.94
252.63	177.94
252.863	189.94
253.096	192.94
253.329	187.94
253.562	188.94
253.795	188.94
254.028	198.94
254.261	188.94
254.494	209.94
254.727	222.94
254.96	247.94
255.193	241.94
255.426	223.94
255.659	198.94
255.892	225.94
256.124	212.94
256.357	212.94
256.59	206.94
256.823	190.94
257.056	189.94
257.289	185.94
257.521	183.94
257.754	190.94
257.987	205.94
258.22	211.94
258.452	207.94
258.685	212.94
258.918	184.94
259.151	188.94
259.383	200.94
259.616	215.94
259.849	213.94
260.081	196.94
260.314	231.94
260.547	207.94
260.779	217.94
261.012	211.94
261.244	196.94
261.477	211.94
261.71	220.94
261.942	189.94
262.175	207.94
262.407	202.94
262.64	200.94
262.872	206.94
263.105	195.94
263.337	215.94
263.57	212.94
263.802	201.94
264.035	209.94
264.267	219.94
264.499	196.94
264.732	200.94
264.964	209.94
265.197	196.94
265.429	199.94
265.661	208.94
265.894	219.94
266.126	201.94
266.358	197.94
266.591	209.94
266.823	213.94
267.055	204.94
267.287	214.94
267.52	212.94
267.752	221.94
267.984	208.94
268.216	223.94
268.448	215.94
268.681	215.94
268.913	242.94
269.145	253.94
269.377	252.94
269.609	250.94
269.841	230.94
270.073	246.94
270.306	263.94
270.538	274.94
270.77	261.94
271.002	253.94
271.234	255.94
271.466	270.94
271.698	277.94
271.93	259.94
272.162	293.94
272.394	276.94
272.626	260.94
272.858	266.94
273.09	249.94
273.322	242.94
273.553	253.94
273.785	247.94
274.017	250.94
274.249	247.94
274.481	261.94
274.713	252.94
274.945	259.94
275.176	268.94
275.408	248.94
275.64	262.94
275.872	255.94
276.104	264.94
276.335	243.94
276.567	258.94
276.799	267.94
277.031	280.94
277.262	287.94
277.494	278.94
277.726	282.94
277.957	270.94
278.189	251.94
278.421	276.94
278.652	256.94
278.884	257.94
279.115	257.94
279.347	273.94
279.579	258.94
279.81	245.94
280.042	268.94
280.273	255.94
280.505	258.94
280.736	243.94
280.968	251.94
281.199	277.94
281.431	268.94
281.662	267.94
281.894	251.94
282.125	259.94
282.356	280.94
282.588	282.94
282.819	302.94
283.051	276.94
283.282	274.94
283.513	271.94
283.745	297.94
283.976	271.94
284.207	268.94
284.439	267.94
284.67	278.94
284.901	271.94
285.132	265.94
285.364	264.94
285.595	284.94
285.826	273.94
286.057	289.94
286.288	272.94
286.52	292.94
286.751	279.94
286.982	258.94
287.213	271.94
287.444	279.94
287.675	288.94
287.906	296.94
288.138	300.94
288.369	288.94
288.6	291.94
288.831	299.94
289.062	282.94
289.293	283.94
289.524	287.94
289.755	276.94
289.986	294.94
290.217	275.94
290.448	301.94
290.679	298.94
290.91	282.94
291.141	293.94
291.371	283.94
291.602	291.94
291.833	289.94
292.064	281.94
292.295	302.94
292.526	304.94
292.757	289.94
292.987	264.94
293.218	307.94
293.449	297.94
293.68	309.94
293.91	286.94
294.141	279.94
294.372	303.94
294.603	274.94
294.833	314.94
295.064	295.94
295.295	303.94
295.525	310.94
295.756	301.94
295.987	279.94
296.217	290.94
296.448	309.94
296.679	297.94
296.909	286.94
297.14	307.94
297.37	300.94
297.601	287.94
297.831	284.94
298.062	297.94
298.292	303.94
298.523	303.94
298.753	287.94
298.984	302.94
299.214	316.94
299.445	304.94
299.675	308.94
299.905	309.94
300.136	315.94
300.366	307.94
300.597	302.94
300.827	312.94
301.057	302.94
301.288	311.94
301.518	320.94
301.748	317.94
301.979	306.94
302.209	342.94
302.439	328.94
302.669	302.94
302.9	325.94
303.13	311.94
303.36	335.94
303.59	322.94
303.82	316.94
304.051	323.94
304.281	315.94
304.511	324.94
304.741	326.94
304.971	341.94
305.201	313.94
305.431	309.94
305.661	329.94
305.891	331.94
306.121	319.94
306.352	313.94
306.582	317.94
306.812	330.94
307.042	340.94
307.272	321.94
307.502	322.94
307.731	323.94
307.961	330.94
308.191	332.94
308.421	326.94
308.651	330.94
308.881	337.94
309.111	336.94
309.341	314.94
309.571	353.94
309.8	337.94
310.03	345.94
310.26	347.94
310.49	346.94
310.72	347.94
310.949	366.94
311.179	351.94
311.409	367.94
311.639	351.94
311.868	356.94
312.098	352.94
312.328	357.94
312.557	363.94
312.787	372.94
313.017	369.94
313.246	364.94
313.476	368.94
313.706	348.94
313.935	351.94
314.165	367.94
314.394	380.94
314.624	391.94
314.853	359.94
315.083	357.94
315.312	354.94
315.542	353.94
315.771	346.94
316.001	364.94
316.23	360.94
316.46	339.94
316.689	351.94
316.919	374.94
317.148	360.94
317.377	362.94
317.607	384.94
317.836	375.94
318.065	387.94
318.295	356.94
318.524	348.94
318.753	367.94
318.983	365.94
319.212	373.94
319.441	372.94
319.67	369.94
319.9	350.94
320.129	369.94
320.358	377.94
320.587	392.94
320.816	371.94
321.046	374.94
321.275	380.94
321.504	365.94
321.733	378.94
321.962	373.94
322.191	381.94
322.42	390.94
322.649	398.94
322.878	402.94
323.108	384.94
323.337	424.94
323.566	420.94
323.795	441.94
324.024	473.94
324.253	524.94
324.482	679.94
324.71	984.94
324.939	1337.94
325.168	1144.94
325.397	638.94
325.626	506.94
325.855	439.94
326.084	437.94
326.313	417.94
326.542	451.94
326.77	457.94
326.999	519.94
327.228	669.94
327.457	898.94
327.686	1005.94
327.914	720.94
328.143	548.94
328.372	497.94
328.6	463.94
328.829	440.94
329.058	449.94
329.287	459.94
329.515	447.94
329.744	440.94
329.972	430.94
330.201	441.94
330.43	458.94
330.658	469.94
330.887	458.94
331.115	489.94
331.344	471.94
331.572	420.94
331.801	430.94
332.03	429.94
332.258	423.94
332.486	450.94
332.715	423.94
332.943	446.94
333.172	430.94
333.4	437.94
333.629	430.94
333.857	457.94
334.085	452.94
334.314	458.94
334.542	479.94
334.771	470.94
334.999	455.94
335.227	460.94
335.455	440.94
335.684	415.94
335.912	448.94
336.14	438.94
336.369	424.94
336.597	419.94
336.825	414.94
337.053	416.94
337.281	445.94
337.51	431.94
337.738	415.94
337.966	405.94
338.194	406.94
338.422	428.94
338.65	413.94
338.878	409.94
339.106	419.94
339.334	407.94
339.562	412.94
339.79	412.94
340.018	411.94
340.246	403.94
340.474	406.94
340.702	411.94
340.93	406.94
341.158	404.94
341.386	387.94
341.614	387.94
341.842	412.94
342.07	409.94
342.298	402.94
342.526	395.94
342.754	384.94
342.981	395.94
343.209	395.94
343.437	413.94
343.665	394.94
343.893	422.94
344.12	415.94
344.348	451.94
344.576	443.94
344.804	421.94
345.031	424.94
345.259	426.94
345.487	390.94
345.714	401.94
345.942	382.94
346.17	384.94
346.397	372.94
346.625	397.94
346.853	376.94
347.08	383.94
347.308	355.94
347.535	386.94
347.763	394.94
347.99	386.94
348.218	390.94
348.445	412.94
348.673	400.94
348.9	377.94
349.128	380.94
349.355	392.94
349.583	379.94
349.81	374.94
350.037	359.94
350.265	378.94
350.492	361.94
350.72	373.94
350.947	373.94
351.174	375.94
351.402	380.94
351.629	364.94
351.856	365.94
352.083	397.94
352.311	384.94
352.538	386.94
352.765	397.94
352.992	381.94
353.22	380.94
353.447	383.94
353.674	378.94
353.901	374.94
354.128	361.94
354.355	351.94
354.583	355.94
354.81	346.94
355.037	347.94
355.264	361.94
355.491	359.94
355.718	355.94
355.945	353.94
356.172	349.94
356.399	371.94
356.626	377.94
356.853	367.94
357.08	349.94
357.307	374.94
357.534	373.94
357.761	348.94
357.988	373.94
358.215	348.94
358.441	359.94
358.668	385.94
358.895	374.94
359.122	360.94
359.349	360.94
359.576	380.94
359.802	381.94
360.029	400.94
360.256	393.94
360.483	383.94
360.709	376.94
360.936	388.94
361.163	381.94
361.39	357.94
361.616	371.94
361.843	350.94
362.07	365.94
362.296	368.94
362.523	367.94
362.749	377.94
362.976	358.94
363.203	367.94
363.429	345.94
363.656	385.94
363.882	371.94
364.109	371.94
364.335	361.94
364.562	368.94
364.788	347.94
365.015	370.94
365.241	370.94
365.468	365.94
365.694	383.94
365.92	359.94
366.147	368.94
366.373	390.94
366.599	368.94
366.826	353.94
367.052	360.94
367.278	352.94
367.505	359.94
367.731	375.94
367.957	363.94
368.184	363.94
368.41	377.94
368.636	365.94
368.862	391.94
369.089	368.94
369.315	371.94
369.541	365.94
369.767	356.94
369.993	383.94
370.219	385.94
370.445	358.94
370.672	355.94
370.898	366.94
371.124	364.94
371.35	375.94
371.576	379.94
371.802	376.94
372.028	359.94
372.254	365.94
372.48	375.94
372.706	379.94
372.932	374.94
373.158	377.94
373.384	353.94
373.61	365.94
373.835	378.94
374.061	365.94
374.287	381.94
374.513	368.94
374.739	379.94
374.965	375.94
375.191	377.94
375.416	383.94
375.642	368.94
375.868	375.94
376.094	387.94
376.319	389.94
376.545	374.94
376.771	371.94
376.997	376.94
377.222	358.94
377.448	393.94
377.674	377.94
377.899	367.94
378.125	355.94
378.35	341.94
378.576	352.94
378.802	365.94
379.027	360.94
379.253	358.94
379.478	388.94
379.704	352.94
379.929	372.94
380.155	363.94
380.38	355.94
380.606	383.94
380.831	381.94
381.057	387.94
381.282	355.94
381.507	371.94
381.733	366.94
381.958	371.94
382.184	378.94
382.409	372.94
382.634	363.94
382.86	387.94
383.085	375.94
383.31	380.94
383.535	385.94
383.761	393.94
383.986	380.94
384.211	397.94
384.436	398.94
384.662	369.94
384.887	383.94
385.112	398.94
385.337	413.94
385.562	401.94
385.787	397.94
386.013	414.94
386.238	388.94
386.463	417.94
386.688	400.94
386.913	391.94
387.138	391.94
387.363	395.94
387.588	390.94
387.813	416.94
388.038	399.94
388.263	409.94
388.488	404.94
388.713	384.94
388.938	387.94
389.163	399.94
389.387	378.94
389.612	392.94
389.837	376.94
390.062	399.94
390.287	397.94
390.512	418.94
390.736	413.94
390.961	399.94
391.186	395.94
391.411	397.94
391.636	408.94
391.86	423.94
392.085	397.94
392.31	419.94
392.534	403.94
392.759	407.94
392.984	412.94
393.208	437.94
393.433	400.94
393.658	428.94
393.882	397.94
394.107	407.94
394.331	402.94
394.556	411.94
394.78	409.94
395.005	415.94
395.229	398.94
395.454	411.94
395.678	429.94
395.903	410.94
396.127	419.94
396.352	429.94
396.576	422.94
396.801	413.94
397.025	425.94
397.249	426.94
397.474	431.94
397.698	408.94
397.922	435.94
398.147	441.94
398.371	446.94
398.595	453.94
398.82	464.94
399.044	458.94
399.268	485.94
399.492	515.94
399.717	563.94
399.941	550.94
400.165	567.94
400.389	550.94
400.613	509.94
400.837	489.94
401.062	473.94
401.286	465.94
401.51	465.94
401.734	452.94
401.958	458.94
402.182	447.94
402.406	471.94
402.63	465.94
402.854	439.94
403.078	463.94
403.302	472.94
403.526	489.94
403.75	479.94
403.974	476.94
404.198	445.94
404.422	469.94
404.645	472.94
404.869	489.94
405.093	511.94
405.317	505.94
405.541	533.94
405.765	513.94
405.988	489.94
406.212	459.94
406.436	481.94
406.66	488.94
406.883	500.94
407.107	511.94
407.331	571.94
407.555	589.94
407.778	588.94
408.002	552.94
408.226	505.94
408.449	525.94
408.673	532.94
408.896	517.94
409.12	554.94
409.344	524.94
409.567	469.94
409.791	481.94
410.014	469.94
410.238	473.94
410.461	453.94
410.685	468.94
410.908	468.94
411.132	482.94
411.355	519.94
411.578	518.94
411.802	470.94
412.025	469.94
412.249	465.94
412.472	470.94
412.695	490.94
412.919	520.94
413.142	464.94
413.365	461.94
413.589	433.94
413.812	449.94
414.035	446.94
414.258	447.94
414.482	449.94
414.705	444.94
414.928	437.94
415.151	449.94
415.374	429.94
415.597	428.94
415.821	426.94
416.044	459.94
416.267	443.94
416.49	421.94
416.713	431.94
416.936	428.94
417.159	445.94
417.382	436.94
417.605	439.94
417.828	447.94
418.051	444.94
418.274	460.94
418.497	452.94
418.72	420.94
418.943	431.94
419.166	464.94
419.389	473.94
419.611	461.94
419.834	445.94
420.057	461.94
420.28	460.94
420.503	432.94
420.726	428.94
420.948	445.94
421.171	485.94
421.394	512.94
421.617	447.94
421.839	445.94
422.062	452.94
422.285	455.94
422.507	491.94
422.73	535.94
422.953	535.94
423.175	490.94
423.398	453.94
423.621	455.94
423.843	468.94
424.066	494.94
424.288	482.94
424.511	493.94
424.733	522.94
424.956	568.94
425.178	547.94
425.401	533.94
425.623	568.94
425.846	515.94
426.068	453.94
426.291	467.94
426.513	462.94
426.735	472.94
426.958	520.94
427.18	547.94
427.402	629.94
427.625	703.94
427.847	588.94
428.069	530.94
428.292	464.94
428.514	445.94
428.736	447.94
428.958	443.94
429.181	433.94
429.403	417.94
429.625	429.94
429.847	450.94
430.069	505.94
430.292	509.94
430.514	454.94
430.736	432.94
430.958	425.94
431.18	401.94
431.402	405.94
431.624	407.94
431.846	415.94
432.068	393.94
432.29	391.94
432.512	418.94
432.734	416.94
432.956	401.94
433.178	421.94
433.4	406.94
433.622	416.94
433.844	432.94
434.066	415.94
434.287	421.94
434.509	393.94
434.731	406.94
434.953	420.94
435.175	439.94
435.397	472.94
435.618	454.94
435.84	500.94
436.062	539.94
436.284	587.94
436.505	521.94
436.727	473.94
436.949	408.94
437.17	412.94
437.392	429.94
437.614	444.94
437.835	453.94
438.057	517.94
438.278	565.94
438.5	580.94
438.721	628.94
438.943	610.94
439.165	511.94
439.386	452.94
439.608	455.94
439.829	439.94
440.05	463.94
440.272	487.94
440.493	471.94
440.715	439.94
440.936	434.94
441.158	428.94
441.379	451.94
441.6	450.94
441.822	457.94
442.043	497.94
442.264	557.94
442.486	534.94
442.707	505.94
442.928	465.94
443.149	466.94
443.371	481.94
443.592	504.94
443.813	571.94
444.034	621.94
444.255	516.94
444.476	489.94
444.698	461.94
444.919	476.94
445.14	559.94
445.361	531.94
445.582	492.94
445.803	512.94
446.024	591.94
446.245	577.94
446.466	550.94
446.687	464.94
446.908	439.94
447.129	433.94
447.35	408.94
447.571	411.94
447.792	436.94
448.013	441.94
448.234	423.94
448.455	457.94
448.675	537.94
448.896	619.94
449.117	524.94
449.338	515.94
449.559	571.94
449.779	663.94
450	517.94
450.221	457.94
450.442	413.94
450.662	395.94
450.883	403.94
451.104	406.94
451.324	404.94
451.545	407.94
451.766	405.94
451.986	376.94
452.207	380.94
452.428	360.94
452.648	357.94
452.869	391.94
453.089	378.94
453.31	376.94
453.53	368.94
453.751	369.94
453.971	360.94
454.192	376.94
454.412	363.94
454.633	359.94
454.853	374.94
455.073	385.94
455.294	387.94
455.514	420.94
455.734	401.94
455.955	365.94
456.175	350.94
456.395	365.94
456.616	371.94
456.836	359.94
457.056	360.94
457.276	344.94
457.497	346.94
457.717	375.94
457.937	375.94
458.157	367.94
458.377	387.94
458.598	396.94
458.818	402.94
459.038	446.94
459.258	471.94
459.478	404.94
459.698	413.94
459.918	396.94
460.138	393.94
460.358	416.94
460.578	429.94
460.798	415.94
461.018	419.94
461.238	435.94
461.458	431.94
461.678	424.94
461.898	437.94
462.118	411.94
462.338	433.94
462.558	447.94
462.777	449.94
462.997	462.94
463.217	495.94
463.437	469.94
463.657	468.94
463.876	453.94
464.096	472.94
464.316	445.94
464.536	474.94
464.755	438.94
464.975	470.94
465.195	461.94
465.414	455.94
465.634	430.94
465.854	437.94
466.073	429.94
466.293	414.94
466.512	401.94
466.732	393.94
466.951	382.94
467.171	394.94
467.391	396.94
467.61	386.94
467.829	400.94
468.049	395.94
468.268	378.94
468.488	379.94
468.707	400.94
468.927	392.94
469.146	378.94
469.365	363.94
469.585	382.94
469.804	371.94
470.023	393.94
470.243	378.94
470.462	387.94
470.681	395.94
470.901	409.94
471.12	416.94
471.339	398.94
471.558	401.94
471.777	409.94
471.997	405.94
472.216	403.94
472.435	395.94
472.654	383.94
472.873	395.94
473.092	367.94
473.311	399.94
473.53	389.94
473.749	400.94
473.968	396.94
474.187	447.94
474.406	460.94
474.625	415.94
474.844	383.94
475.063	395.94
475.282	386.94
475.501	396.94
475.72	397.94
475.939	383.94
476.158	392.94
476.377	414.94
476.596	395.94
476.814	402.94
477.033	393.94
477.252	413.94
477.471	406.94
477.69	400.94
477.908	408.94
478.127	435.94
478.346	431.94
478.564	423.94
478.783	439.94
479.002	439.94
479.22	441.94
479.439	451.94
479.658	462.94
479.876	465.94
480.095	478.94
480.313	483.94
480.532	490.94
480.751	488.94
480.969	474.94
481.188	501.94
481.406	487.94
481.624	461.94
481.843	455.94
482.061	443.94
482.28	448.94
482.498	438.94
482.717	443.94
482.935	444.94
483.153	442.94
483.372	428.94
483.59	453.94
483.808	461.94
484.027	446.94
484.245	445.94
484.463	449.94
484.681	480.94
484.9	458.94
485.118	425.94
485.336	460.94
485.554	455.94
485.772	446.94
485.99	462.94
486.209	462.94
486.427	462.94
486.645	463.94
486.863	481.94
487.081	464.94
487.299	465.94
487.517	499.94
487.735	451.94
487.953	468.94
488.171	471.94
488.389	483.94
488.607	463.94
488.825	488.94
489.043	478.94
489.261	480.94
489.479	479.94
489.696	479.94
489.914	486.94
490.132	473.94
490.35	505.94
490.568	492.94
490.786	479.94
491.003	496.94
491.221	486.94
491.439	516.94
491.657	505.94
491.874	499.94
492.092	520.94
492.31	529.94
492.527	532.94
492.745	523.94
492.963	534.94
493.18	551.94
493.398	531.94
493.615	540.94
493.833	523.94
494.05	523.94
494.268	540.94
494.485	548.94
494.703	554.94
494.92	556.94
495.138	553.94
495.355	551.94
495.573	550.94
495.79	548.94
496.008	551.94
496.225	532.94
496.442	553.94
496.66	565.94
496.877	560.94
497.094	557.94
497.312	568.94
497.529	563.94
497.746	584.94
497.963	606.94
498.181	618.94
498.398	614.94
498.615	636.94
498.832	651.94
499.049	661.94
499.267	682.94
499.484	713.94
499.701	726.94
499.918	786.94
500.135	858.94
500.352	860.94
500.569	885.94
500.786	874.94
501.003	870.94
501.22	845.94
501.437	792.94
501.654	742.94
501.871	734.94
502.088	701.94
502.305	672.94
502.522	646.94
502.739	631.94
502.956	614.94
503.172	584.94
503.389	592.94
503.606	581.94
503.823	573.94
504.04	589.94
504.256	569.94
504.473	577.94
504.69	544.94
504.907	565.94
505.123	557.94
505.34	552.94
505.557	524.94
505.773	540.94
505.99	522.94
506.207	529.94
506.423	514.94
506.64	525.94
506.856	516.94
507.073	502.94
507.289	500.94
507.506	518.94
507.722	506.94
507.939	511.94
508.155	522.94
508.372	483.94
508.588	492.94
508.805	485.94
509.021	481.94
509.238	481.94
509.454	484.94
509.67	477.94
509.887	512.94
510.103	466.94
510.319	476.94
510.536	530.94
510.752	714.94
510.968	600.94
511.184	465.94
511.401	475.94
511.617	466.94
511.833	452.94
512.049	465.94
512.265	454.94
512.481	467.94
512.698	449.94
512.914	463.94
513.13	465.94
513.346	453.94
513.562	453.94
513.778	445.94
513.994	470.94
514.21	467.94
514.426	450.94
514.642	473.94
514.858	522.94
515.074	491.94
515.29	550.94
515.506	713.94
515.721	616.94
515.937	525.94
516.153	475.94
516.369	463.94
516.585	463.94
516.801	501.94
517.016	486.94
517.232	480.94
517.448	490.94
517.664	482.94
517.879	492.94
518.095	505.94
518.311	500.94
518.527	485.94
518.742	492.94
518.958	465.94
519.173	481.94
519.389	469.94
519.605	463.94
519.82	470.94
520.036	476.94
520.251	483.94
520.467	475.94
520.682	494.94
520.898	479.94
521.113	479.94
521.329	476.94
521.544	520.94
521.76	591.94
521.975	815.94
522.19	779.94
522.406	549.94
522.621	468.94
522.836	451.94
523.052	428.94
523.267	419.94
523.482	413.94
523.698	418.94
523.913	424.94
524.128	405.94
524.343	419.94
524.559	422.94
524.774	401.94
524.989	420.94
525.204	402.94
525.419	423.94
525.634	413.94
525.849	405.94
526.064	397.94
526.28	406.94
526.495	385.94
526.71	395.94
526.925	390.94
527.14	401.94
527.355	404.94
527.57	396.94
527.785	387.94
527.999	389.94
528.214	392.94
528.429	383.94
528.644	407.94
528.859	404.94
529.074	397.94
529.289	402.94
529.503	438.94
529.718	416.94
529.933	412.94
530.148	395.94
530.363	394.94
530.577	385.94
530.792	363.94
531.007	383.94
531.221	387.94
531.436	398.94
531.651	400.94
531.865	381.94
532.08	388.94
532.295	405.94
532.509	392.94
532.724	391.94
532.938	401.94
533.153	375.94
533.367	394.94
533.582	381.94
533.796	367.94
534.011	366.94
534.225	375.94
534.44	366.94
534.654	381.94
534.868	355.94
535.083	365.94
535.297	372.94
535.511	369.94
535.726	379.94
535.94	368.94
536.154	363.94
536.369	351.94
536.583	375.94
536.797	361.94
537.011	351.94
537.225	373.94
537.44	371.94
537.654	371.94
537.868	361.94
538.082	373.94
538.296	376.94
538.51	373.94
538.724	371.94
538.938	371.94
539.153	372.94
539.367	369.94
539.581	356.94
539.795	365.94
540.009	357.94
540.222	373.94
540.436	349.94
540.65	355.94
540.864	366.94
541.078	370.94
541.292	358.94
541.506	356.94
541.72	358.94
541.934	363.94
542.147	355.94
542.361	359.94
542.575	376.94
542.789	367.94
543.002	375.94
543.216	366.94
543.43	363.94
543.644	369.94
543.857	386.94
544.071	368.94
544.285	379.94
544.498	379.94
544.712	343.94
544.925	357.94
545.139	379.94
545.352	360.94
545.566	332.94
545.779	353.94
545.993	385.94
546.206	383.94
546.42	368.94
546.633	342.94
546.847	346.94
547.06	377.94
547.274	365.94
547.487	359.94
547.7	359.94
547.914	351.94
548.127	355.94
548.34	355.94
548.554	352.94
548.767	358.94
548.98	364.94
549.193	337.94
549.407	349.94
549.62	341.94
549.833	357.94
550.046	371.94
550.259	345.94
550.473	363.94
550.686	331.94
550.899	355.94
551.112	326.94
551.325	350.94
551.538	367.94
551.751	382.94
551.964	344.94
552.177	349.94
552.39	379.94
552.603	342.94
552.816	370.94
553.029	362.94
553.242	371.94
553.455	364.94
553.667	363.94
553.88	357.94
554.093	359.94
554.306	351.94
554.519	357.94
554.732	356.94
554.944	346.94
555.157	336.94
555.37	348.94
555.583	341.94
555.795	332.94
556.008	331.94
556.221	335.94
556.433	325.94
556.646	317.94
556.859	325.94
557.071	326.94
557.284	311.94
557.496	329.94
557.709	327.94
557.921	325.94
558.134	299.94
558.346	301.94
558.559	318.94
558.771	311.94
558.984	319.94
559.196	307.94
559.409	322.94
559.621	312.94
559.833	323.94
560.046	321.94
560.258	319.94
560.47	309.94
560.683	308.94
560.895	290.94
561.107	342.94
561.32	313.94
561.532	331.94
561.744	326.94
561.956	319.94
562.168	322.94
562.381	321.94
562.593	323.94
562.805	340.94
563.017	321.94
563.229	304.94
563.441	324.94
563.653	320.94
563.865	311.94
564.077	338.94
564.289	319.94
564.501	341.94
564.713	335.94
564.925	339.94
565.137	348.94
565.349	347.94
565.561	331.94
565.773	368.94
565.985	363.94
566.197	383.94
566.408	390.94
566.62	371.94
566.832	397.94
567.044	408.94
567.255	443.94
567.467	402.94
567.679	414.94
567.891	443.94
568.102	425.94
568.314	432.94
568.526	406.94
568.737	385.94
568.949	368.94
569.161	366.94
569.372	358.94
569.584	338.94
569.795	352.94
570.007	336.94
570.218	344.94
570.43	320.94
570.641	299.94
570.853	304.94
571.064	320.94
571.276	319.94
571.487	317.94
571.698	309.94
571.91	300.94
572.121	300.94
572.333	309.94
572.544	271.94
572.755	286.94
572.966	269.94
573.178	287.94
573.389	267.94
573.6	297.94
573.811	275.94
574.023	294.94
574.234	280.94
574.445	289.94
574.656	287.94
574.867	291.94
575.078	270.94
575.289	265.94
575.501	271.94
575.712	281.94
575.923	263.94
576.134	277.94
576.345	276.94
576.556	271.94
576.767	276.94
576.978	257.94
577.188	256.94
577.399	277.94
577.61	280.94
577.821	276.94
578.032	270.94
578.243	281.94
578.454	373.94
578.665	289.94
578.875	271.94
579.086	249.94
579.297	251.94
579.508	275.94
579.718	270.94
579.929	252.94
580.14	266.94
580.35	254.94
580.561	251.94
580.772	263.94
580.982	257.94
581.193	265.94
581.403	237.94
581.614	276.94
581.825	273.94
582.035	254.94
582.246	243.94
582.456	227.94
582.667	248.94
582.877	263.94
583.087	240.94
583.298	237.94
583.508	236.94
583.719	243.94
583.929	245.94
584.139	260.94
584.35	264.94
584.56	267.94
584.77	241.94
584.981	235.94
585.191	234.94
585.401	232.94
585.611	239.94
585.821	249.94
586.032	252.94
586.242	232.94
586.452	241.94
586.662	246.94
586.872	234.94
587.082	255.94
587.292	237.94
587.502	238.94
587.713	247.94
587.923	243.94
588.133	240.94
588.343	247.94
588.553	240.94
588.762	250.94
588.972	249.94
589.182	256.94
589.392	257.94
589.602	244.94
589.812	235.94
590.022	257.94
590.232	252.94
590.441	237.94
590.651	258.94
590.861	223.94
591.071	231.94
591.281	243.94
591.49	254.94
591.7	249.94
591.91	248.94
592.119	257.94
592.329	266.94
592.539	263.94
592.748	265.94
592.958	268.94
593.167	258.94
593.377	275.94
593.587	280.94
593.796	277.94
594.006	264.94
594.215	270.94
594.424	259.94
594.634	257.94
594.843	271.94
595.053	248.94
595.262	268.94
595.472	249.94
595.681	233.94
595.89	241.94
596.1	260.94
596.309	259.94
596.518	229.94
596.727	236.94
596.937	226.94
597.146	219.94
597.355	236.94
597.564	224.94
597.774	216.94
597.983	213.94
598.192	200.94
598.401	223.94
598.61	213.94
598.819	229.94
599.028	224.94
599.237	217.94
599.446	215.94
599.655	224.94
599.864	229.94
600.073	217.94
600.282	216.94
600.491	213.94
600.7	212.94
600.909	221.94
601.118	211.94
601.327	217.94
601.536	197.94
601.745	201.94
601.953	216.94
602.162	208.94
602.371	212.94
602.58	202.94
602.789	201.94
602.997	228.94
603.206	207.94
603.415	219.94
603.623	195.94
603.832	220.94
604.041	200.94
604.249	205.94
604.458	196.94
604.666	196.94
604.875	210.94
605.084	206.94
605.292	215.94
605.501	189.94
605.709	191.94
605.918	197.94
606.126	204.94
606.334	210.94
606.543	221.94
606.751	199.94
606.96	203.94
607.168	203.94
607.376	189.94
607.585	187.94
607.793	199.94
608.001	186.94
608.21	190.94
608.418	207.94
608.626	196.94
608.834	208.94
609.043	198.94
609.251	188.94
609.459	209.94
609.667	188.94
609.875	200.94
610.083	192.94
610.291	209.94
610.499	199.94
610.707	207.94
610.916	197.94
611.124	196.94
611.332	204.94
611.54	211.94
611.748	201.94
611.955	209.94
612.163	193.94
612.371	186.94
612.579	184.94
612.787	197.94
612.995	200.94
613.203	219.94
613.411	201.94
613.618	193.94
613.826	195.94
614.034	192.94
614.242	208.94
614.449	205.94
614.657	188.94
614.865	208.94
615.072	203.94
615.28	195.94
615.488	201.94
615.695	197.94
615.903	184.94
616.111	203.94
616.318	200.94
616.526	193.94
616.733	216.94
616.941	204.94
617.148	189.94
617.356	201.94
617.563	219.94
617.771	201.94
617.978	193.94
618.185	197.94
618.393	176.94
618.6	187.94
618.807	193.94
619.015	210.94
619.222	194.94
619.429	191.94
619.637	194.94
619.844	186.94
620.051	185.94
620.258	189.94
620.466	182.94
620.673	183.94
620.88	194.94
621.087	190.94
621.294	192.94
621.501	199.94
621.708	193.94
621.915	180.94
622.122	171.94
622.329	185.94
622.536	175.94
622.743	177.94
622.95	181.94
623.157	191.94
623.364	200.94
623.571	193.94
623.778	169.94
623.985	191.94
624.192	174.94
624.399	191.94
624.606	170.94
624.812	180.94
625.019	183.94
625.226	188.94
625.433	185.94
625.639	181.94
625.846	180.94
626.053	168.94
626.259	185.94
626.466	174.94
626.673	165.94
626.879	163.94
627.086	159.94
627.293	184.94
627.499	165.94
627.706	178.94
627.912	183.94
628.119	166.94
628.325	184.94
628.532	176.94
628.738	185.94
628.945	154.94
629.151	158.94
629.357	167.94
629.564	169.94
629.77	176.94
629.976	170.94
630.183	159.94
630.389	176.94
630.595	167.94
630.802	172.94
631.008	181.94
631.214	170.94
631.42	159.94
631.627	183.94
631.833	153.94
632.039	171.94
632.245	165.94
632.451	152.94
632.657	187.94
632.863	165.94
633.069	155.94
633.275	175.94
633.481	143.94
633.688	161.94
633.893	157.94
634.099	165.94
634.305	163.94
634.511	161.94
634.717	160.94
634.923	161.94
635.129	175.94
635.335	160.94
635.541	157.94
635.747	170.94
635.952	172.94
636.158	161.94
636.364	160.94
636.57	164.94
636.775	174.94
636.981	165.94
637.187	165.94
637.392	165.94
637.598	168.94
637.804	158.94
638.009	159.94
638.215	167.94
638.421	159.94
638.626	155.94
638.832	146.94
639.037	163.94
639.243	166.94
639.448	158.94
639.654	156.94
639.859	149.94
640.065	145.94
640.27	159.94
640.475	137.94
640.681	143.94
640.886	154.94
641.091	157.94
641.297	157.94
641.502	146.94
641.707	134.94
641.913	151.94
642.118	162.94
642.323	156.94
642.528	144.94
642.733	151.94
642.939	164.94
643.144	152.94
643.349	155.94
643.554	158.94
643.759	143.94
643.964	145.94
644.169	143.94
644.374	139.94
644.579	146.94
644.784	147.94
644.989	144.94
645.194	153.94
645.399	160.94
645.604	144.94
645.809	153.94
646.014	151.94
646.219	158.94
646.423	156.94
646.628	152.94
646.833	144.94
647.038	151.94
647.243	149.94
647.447	165.94
647.652	144.94
647.857	148.94
648.062	145.94
648.266	153.94
648.471	162.94
648.676	163.94
648.88	174.94
649.085	153.94
649.289	144.94
649.494	157.94
649.698	181.94
649.903	158.94
650.107	161.94
650.312	151.94
650.516	146.94
650.721	149.94
650.925	140.94
651.13	135.94
651.334	128.94
651.539	142.94
651.743	128.94
651.947	148.94
652.152	135.94
652.356	141.94
652.56	125.94
652.764	134.94
652.969	127.94
653.173	144.94
653.377	122.94
653.581	125.94
653.785	122.94
653.99	116.94
654.194	126.94
654.398	129.94
654.602	127.94
654.806	135.94
655.01	139.94
655.214	145.94
655.418	128.94
655.622	136.94
655.826	132.94
656.03	132.94
656.234	124.94
656.438	129.94
656.642	131.94
656.846	122.94
657.049	127.94
657.253	127.94
657.457	124.94
657.661	122.94
657.865	122.94
658.068	107.94
658.272	92.94
658.476	125.94
658.68	103.94
658.883	103.94
659.087	104.94
659.291	106.94
659.494	113.94
659.698	95.94
659.901	91.94
660.105	86.94
660.309	79.94
660.512	99.94
660.716	99.94
660.919	95.94
661.123	85.94
661.326	96.94
661.53	89.94
661.733	102.94
661.936	100.94
662.14	90.94
662.343	83.94
662.546	97.94
662.75	95.94
662.953	86.94
663.156	72.94
663.36	83.94
663.563	92.94
663.766	89.94
663.969	95.94
664.173	97.94
664.376	87.94
664.579	87.94
664.782	86.94
664.985	89.94
665.188	89.94
665.391	77.94
665.594	87.94
665.797	91.94
666	90.94
666.203	79.94
666.406	86.94
666.609	92.94
666.812	88.94
667.015	83.94
667.218	87.94
667.421	76.94
667.624	80.94
667.827	80.94
668.03	93.94
668.232	79.94
668.435	71.94
668.638	86.94
668.841	87.94
669.043	77.94
669.246	96.94
669.449	72.94
669.651	88.94
669.854	75.94
670.057	76.94
670.259	72.94
670.462	82.94
670.665	84.94
670.867	90.94
671.07	89.94
671.272	80.94
671.475	91.94
671.677	85.94
671.88	85.94
672.082	80.94
672.284	95.94
672.487	77.94
672.689	78.94
672.892	83.94
