Data from 1977.PennyLincolnUp.Lamp.En5.5.200Scan.071719.P1_HRD10591_16-06-35-864.txt Node
Date: Thu Jul 18 16:06:35 EDT 2019
User: cochatt
Spectrometer: HR+D1059
Trigger mode: 1
Integration Time (sec): 1.000000E-1
Scans to average: 1
Electric dark correction enabled: true
Nonlinearity correction enabled: false
Boxcar width: 0
XAxis mode: Wavelengths
Number of Pixels in Spectrum: 2048
>>>>>Begin Spectral Data<<<<<
223.165	-23.38
223.4	-23.38
223.635	-23.38
223.869	-24.38
224.104	-0.38
224.338	-15.38
224.573	-20.38
224.808	-12.38
225.042	-1.38
225.277	-4.38
225.511	-4.38
225.746	-2.38
225.98	14.62
226.215	-1.38
226.449	14.62
226.683	20.62
226.918	23.62
227.152	36.62
227.387	27.62
227.621	44.62
227.856	44.62
228.09	51.62
228.324	55.62
228.559	55.62
228.793	54.62
229.027	78.62
229.262	81.62
229.496	103.62
229.73	118.62
229.964	129.62
230.199	119.62
230.433	113.62
230.667	95.62
230.901	115.62
231.136	104.62
231.37	95.62
231.604	97.62
231.838	108.62
232.072	108.62
232.306	119.62
232.541	121.62
232.775	106.62
233.009	111.62
233.243	119.62
233.477	112.62
233.711	114.62
233.945	128.62
234.179	120.62
234.413	114.62
234.647	111.62
234.881	103.62
235.115	127.62
235.349	101.62
235.583	117.62
235.817	113.62
236.051	136.62
236.285	122.62
236.519	115.62
236.753	131.62
236.987	140.62
237.221	160.62
237.455	200.62
237.689	161.62
237.922	135.62
238.156	122.62
238.39	121.62
238.624	112.62
238.858	136.62
239.091	124.62
239.325	119.62
239.559	122.62
239.793	121.62
240.027	116.62
240.26	140.62
240.494	143.62
240.728	140.62
240.961	149.62
241.195	143.62
241.429	130.62
241.662	128.62
241.896	129.62
242.13	132.62
242.363	138.62
242.597	121.62
242.83	129.62
243.064	122.62
243.298	140.62
243.531	145.62
243.765	147.62
243.998	145.62
244.232	135.62
244.465	129.62
244.699	151.62
244.932	132.62
245.166	146.62
245.399	132.62
245.633	137.62
245.866	162.62
246.099	151.62
246.333	145.62
246.566	137.62
246.8	145.62
247.033	154.62
247.266	133.62
247.5	151.62
247.733	168.62
247.966	159.62
248.2	163.62
248.433	161.62
248.666	172.62
248.899	181.62
249.133	188.62
249.366	189.62
249.599	180.62
249.832	176.62
250.066	188.62
250.299	193.62
250.532	196.62
250.765	185.62
250.998	188.62
251.231	215.62
251.465	197.62
251.698	191.62
251.931	191.62
252.164	198.62
252.397	192.62
252.63	198.62
252.863	204.62
253.096	209.62
253.329	214.62
253.562	214.62
253.795	198.62
254.028	198.62
254.261	208.62
254.494	223.62
254.727	235.62
254.96	248.62
255.193	245.62
255.426	231.62
255.659	216.62
255.892	213.62
256.124	223.62
256.357	231.62
256.59	215.62
256.823	215.62
257.056	218.62
257.289	203.62
257.521	211.62
257.754	206.62
257.987	207.62
258.22	213.62
258.452	191.62
258.685	193.62
258.918	211.62
259.151	211.62
259.383	217.62
259.616	209.62
259.849	213.62
260.081	216.62
260.314	245.62
260.547	240.62
260.779	228.62
261.012	243.62
261.244	222.62
261.477	224.62
261.71	230.62
261.942	233.62
262.175	226.62
262.407	217.62
262.64	215.62
262.872	232.62
263.105	199.62
263.337	204.62
263.57	220.62
263.802	221.62
264.035	209.62
264.267	216.62
264.499	221.62
264.732	222.62
264.964	212.62
265.197	219.62
265.429	211.62
265.661	221.62
265.894	217.62
266.126	213.62
266.358	215.62
266.591	223.62
266.823	229.62
267.055	219.62
267.287	232.62
267.52	226.62
267.752	229.62
267.984	228.62
268.216	248.62
268.448	222.62
268.681	240.62
268.913	259.62
269.145	270.62
269.377	276.62
269.609	281.62
269.841	280.62
270.073	288.62
270.306	291.62
270.538	309.62
270.77	315.62
271.002	306.62
271.234	277.62
271.466	302.62
271.698	312.62
271.93	323.62
272.162	315.62
272.394	297.62
272.626	290.62
272.858	307.62
273.09	281.62
273.322	275.62
273.553	276.62
273.785	263.62
274.017	269.62
274.249	265.62
274.481	264.62
274.713	262.62
274.945	276.62
275.176	273.62
275.408	273.62
275.64	271.62
275.872	262.62
276.104	280.62
276.335	289.62
276.567	287.62
276.799	287.62
277.031	299.62
277.262	320.62
277.494	313.62
277.726	294.62
277.957	301.62
278.189	276.62
278.421	287.62
278.652	275.62
278.884	286.62
279.115	284.62
279.347	273.62
279.579	274.62
279.81	297.62
280.042	264.62
280.273	290.62
280.505	277.62
280.736	256.62
280.968	268.62
281.199	279.62
281.431	292.62
281.662	286.62
281.894	258.62
282.125	280.62
282.356	309.62
282.588	310.62
282.819	310.62
283.051	290.62
283.282	287.62
283.513	296.62
283.745	289.62
283.976	296.62
284.207	298.62
284.439	295.62
284.67	291.62
284.901	301.62
285.132	291.62
285.364	287.62
285.595	298.62
285.826	277.62
286.057	300.62
286.288	292.62
286.52	293.62
286.751	300.62
286.982	322.62
287.213	302.62
287.444	315.62
287.675	308.62
287.906	321.62
288.138	341.62
288.369	315.62
288.6	327.62
288.831	305.62
289.062	306.62
289.293	293.62
289.524	305.62
289.755	321.62
289.986	306.62
290.217	311.62
290.448	305.62
290.679	314.62
290.91	308.62
291.141	317.62
291.371	312.62
291.602	321.62
291.833	325.62
292.064	316.62
292.295	300.62
292.526	308.62
292.757	305.62
292.987	315.62
293.218	328.62
293.449	328.62
293.68	303.62
293.91	321.62
294.141	329.62
294.372	328.62
294.603	323.62
294.833	321.62
295.064	309.62
295.295	329.62
295.525	302.62
295.756	313.62
295.987	303.62
296.217	334.62
296.448	335.62
296.679	323.62
296.909	321.62
297.14	328.62
297.37	315.62
297.601	331.62
297.831	317.62
298.062	327.62
298.292	313.62
298.523	332.62
298.753	332.62
298.984	335.62
299.214	316.62
299.445	333.62
299.675	339.62
299.905	347.62
300.136	338.62
300.366	342.62
300.597	338.62
300.827	342.62
301.057	341.62
301.288	360.62
301.518	338.62
301.748	359.62
301.979	359.62
302.209	349.62
302.439	340.62
302.669	356.62
302.9	335.62
303.13	346.62
303.36	345.62
303.59	363.62
303.82	357.62
304.051	356.62
304.281	350.62
304.511	353.62
304.741	357.62
304.971	361.62
305.201	347.62
305.431	348.62
305.661	351.62
305.891	352.62
306.121	368.62
306.352	366.62
306.582	338.62
306.812	367.62
307.042	329.62
307.272	343.62
307.502	341.62
307.731	363.62
307.961	360.62
308.191	365.62
308.421	370.62
308.651	375.62
308.881	365.62
309.111	353.62
309.341	347.62
309.571	360.62
309.8	375.62
310.03	377.62
310.26	410.62
310.49	378.62
310.72	381.62
310.949	384.62
311.179	392.62
311.409	384.62
311.639	377.62
311.868	389.62
312.098	393.62
312.328	391.62
312.557	405.62
312.787	412.62
313.017	401.62
313.246	405.62
313.476	398.62
313.706	391.62
313.935	391.62
314.165	396.62
314.394	419.62
314.624	380.62
314.853	369.62
315.083	394.62
315.312	402.62
315.542	375.62
315.771	395.62
316.001	388.62
316.23	356.62
316.46	391.62
316.689	395.62
316.919	390.62
317.148	409.62
317.377	413.62
317.607	394.62
317.836	391.62
318.065	392.62
318.295	377.62
318.524	376.62
318.753	389.62
318.983	393.62
319.212	393.62
319.441	384.62
319.67	406.62
319.9	395.62
320.129	399.62
320.358	393.62
320.587	391.62
320.816	375.62
321.046	410.62
321.275	408.62
321.504	407.62
321.733	392.62
321.962	418.62
322.191	424.62
322.42	445.62
322.649	432.62
322.878	425.62
323.108	472.62
323.337	442.62
323.566	472.62
323.795	490.62
324.024	543.62
324.253	605.62
324.482	843.62
324.71	1228.62
324.939	1699.62
325.168	1453.62
325.397	805.62
325.626	588.62
325.855	511.62
326.084	492.62
326.313	490.62
326.542	475.62
326.77	504.62
326.999	602.62
327.228	770.62
327.457	1123.62
327.686	1281.62
327.914	891.62
328.143	635.62
328.372	539.62
328.6	541.62
328.829	522.62
329.058	541.62
329.287	497.62
329.515	502.62
329.744	496.62
329.972	497.62
330.201	532.62
330.43	520.62
330.658	530.62
330.887	565.62
331.115	536.62
331.344	495.62
331.572	480.62
331.801	477.62
332.03	489.62
332.258	478.62
332.486	464.62
332.715	470.62
332.943	463.62
333.172	476.62
333.4	484.62
333.629	489.62
333.857	505.62
334.085	484.62
334.314	521.62
334.542	541.62
334.771	510.62
334.999	513.62
335.227	516.62
335.455	471.62
335.684	472.62
335.912	471.62
336.14	469.62
336.369	483.62
336.597	480.62
336.825	463.62
337.053	476.62
337.281	471.62
337.51	470.62
337.738	458.62
337.966	480.62
338.194	451.62
338.422	450.62
338.65	450.62
338.878	448.62
339.106	463.62
339.334	460.62
339.562	448.62
339.79	445.62
340.018	464.62
340.246	452.62
340.474	445.62
340.702	440.62
340.93	445.62
341.158	443.62
341.386	450.62
341.614	445.62
341.842	444.62
342.07	457.62
342.298	436.62
342.526	435.62
342.754	434.62
342.981	420.62
343.209	441.62
343.437	450.62
343.665	450.62
343.893	452.62
344.12	467.62
344.348	455.62
344.576	468.62
344.804	474.62
345.031	444.62
345.259	460.62
345.487	439.62
345.714	431.62
345.942	432.62
346.17	419.62
346.397	413.62
346.625	427.62
346.853	408.62
347.08	409.62
347.308	434.62
347.535	431.62
347.763	444.62
347.99	438.62
348.218	418.62
348.445	425.62
348.673	409.62
348.9	421.62
349.128	390.62
349.355	389.62
349.583	408.62
349.81	407.62
350.037	401.62
350.265	399.62
350.492	405.62
350.72	395.62
350.947	392.62
351.174	403.62
351.402	415.62
351.629	431.62
351.856	409.62
352.083	410.62
352.311	426.62
352.538	411.62
352.765	422.62
352.992	409.62
353.22	394.62
353.447	401.62
353.674	403.62
353.901	397.62
354.128	401.62
354.355	395.62
354.583	396.62
354.81	378.62
355.037	399.62
355.264	379.62
355.491	388.62
355.718	376.62
355.945	408.62
356.172	393.62
356.399	404.62
356.626	376.62
356.853	383.62
357.08	393.62
357.307	388.62
357.534	380.62
357.761	384.62
357.988	407.62
358.215	391.62
358.441	397.62
358.668	408.62
358.895	392.62
359.122	385.62
359.349	387.62
359.576	407.62
359.802	433.62
360.029	430.62
360.256	437.62
360.483	423.62
360.709	407.62
360.936	401.62
361.163	412.62
361.39	415.62
361.616	401.62
361.843	409.62
362.07	395.62
362.296	416.62
362.523	418.62
362.749	401.62
362.976	402.62
363.203	409.62
363.429	376.62
363.656	388.62
363.882	407.62
364.109	392.62
364.335	375.62
364.562	391.62
364.788	381.62
365.015	398.62
365.241	405.62
365.468	383.62
365.694	380.62
365.92	393.62
366.147	392.62
366.373	380.62
366.599	403.62
366.826	393.62
367.052	372.62
367.278	378.62
367.505	398.62
367.731	393.62
367.957	385.62
368.184	374.62
368.41	385.62
368.636	389.62
368.862	408.62
369.089	392.62
369.315	396.62
369.541	398.62
369.767	381.62
369.993	383.62
370.219	393.62
370.445	382.62
370.672	376.62
370.898	395.62
371.124	386.62
371.35	392.62
371.576	401.62
371.802	383.62
372.028	386.62
372.254	384.62
372.48	380.62
372.706	387.62
372.932	383.62
373.158	393.62
373.384	415.62
373.61	387.62
373.835	402.62
374.061	392.62
374.287	392.62
374.513	409.62
374.739	418.62
374.965	400.62
375.191	404.62
375.416	403.62
375.642	382.62
375.868	413.62
376.094	385.62
376.319	385.62
376.545	379.62
376.771	392.62
376.997	395.62
377.222	409.62
377.448	393.62
377.674	395.62
377.899	380.62
378.125	389.62
378.35	379.62
378.576	396.62
378.802	382.62
379.027	405.62
379.253	387.62
379.478	368.62
379.704	374.62
379.929	387.62
380.155	379.62
380.38	377.62
380.606	377.62
380.831	407.62
381.057	386.62
381.282	379.62
381.507	380.62
381.733	403.62
381.958	411.62
382.184	403.62
382.409	389.62
382.634	397.62
382.86	386.62
383.085	403.62
383.31	396.62
383.535	405.62
383.761	395.62
383.986	397.62
384.211	396.62
384.436	428.62
384.662	421.62
384.887	447.62
385.112	420.62
385.337	424.62
385.562	410.62
385.787	413.62
386.013	421.62
386.238	444.62
386.463	433.62
386.688	424.62
386.913	428.62
387.138	411.62
387.363	422.62
387.588	417.62
387.813	430.62
388.038	440.62
388.263	435.62
388.488	433.62
388.713	446.62
388.938	423.62
389.163	409.62
389.387	416.62
389.612	427.62
389.837	436.62
390.062	419.62
390.287	415.62
390.512	407.62
390.736	395.62
390.961	437.62
391.186	425.62
391.411	421.62
391.636	436.62
391.86	445.62
392.085	472.62
392.31	467.62
392.534	442.62
392.759	437.62
392.984	428.62
393.208	413.62
393.433	440.62
393.658	450.62
393.882	429.62
394.107	423.62
394.331	421.62
394.556	443.62
394.78	423.62
395.005	420.62
395.229	443.62
395.454	459.62
395.678	441.62
395.903	443.62
396.127	479.62
396.352	473.62
396.576	451.62
396.801	443.62
397.025	454.62
397.249	459.62
397.474	453.62
397.698	443.62
397.922	488.62
398.147	483.62
398.371	481.62
398.595	492.62
398.82	504.62
399.044	501.62
399.268	547.62
399.492	540.62
399.717	603.62
399.941	601.62
400.165	609.62
400.389	608.62
400.613	544.62
400.837	501.62
401.062	520.62
401.286	493.62
401.51	470.62
401.734	506.62
401.958	468.62
402.182	497.62
402.406	506.62
402.63	488.62
402.854	505.62
403.078	502.62
403.302	496.62
403.526	517.62
403.75	514.62
403.974	499.62
404.198	489.62
404.422	541.62
404.645	514.62
404.869	526.62
405.093	545.62
405.317	592.62
405.541	597.62
405.765	574.62
405.988	540.62
406.212	517.62
406.436	543.62
406.66	557.62
406.883	539.62
407.107	561.62
407.331	614.62
407.555	650.62
407.778	635.62
408.002	605.62
408.226	542.62
408.449	547.62
408.673	548.62
408.896	561.62
409.12	592.62
409.344	584.62
409.567	535.62
409.791	502.62
410.014	521.62
410.238	495.62
410.461	492.62
410.685	516.62
410.908	503.62
411.132	555.62
411.355	585.62
411.578	556.62
411.802	512.62
412.025	491.62
412.249	520.62
412.472	499.62
412.695	561.62
412.919	533.62
413.142	495.62
413.365	506.62
413.589	472.62
413.812	490.62
414.035	489.62
414.258	469.62
414.482	475.62
414.705	475.62
414.928	472.62
415.151	468.62
415.374	465.62
415.597	473.62
415.821	470.62
416.044	449.62
416.267	474.62
416.49	470.62
416.713	437.62
416.936	471.62
417.159	460.62
417.382	467.62
417.605	492.62
417.828	499.62
418.051	498.62
418.274	476.62
418.497	475.62
418.72	467.62
418.943	468.62
419.166	482.62
419.389	494.62
419.611	489.62
419.834	500.62
420.057	492.62
420.28	499.62
420.503	511.62
420.726	472.62
420.948	490.62
421.171	515.62
421.394	538.62
421.617	504.62
421.839	487.62
422.062	480.62
422.285	483.62
422.507	568.62
422.73	617.62
422.953	585.62
423.175	538.62
423.398	521.62
423.621	501.62
423.843	531.62
424.066	533.62
424.288	536.62
424.511	544.62
424.733	574.62
424.956	641.62
425.178	621.62
425.401	593.62
425.623	613.62
425.846	544.62
426.068	517.62
426.291	498.62
426.513	515.62
426.735	506.62
426.958	552.62
427.18	596.62
427.402	692.62
427.625	774.62
427.847	659.62
428.069	575.62
428.292	541.62
428.514	498.62
428.736	480.62
428.958	477.62
429.181	471.62
429.403	461.62
429.625	497.62
429.847	500.62
430.069	557.62
430.292	547.62
430.514	471.62
430.736	470.62
430.958	465.62
431.18	476.62
431.402	463.62
431.624	429.62
431.846	427.62
432.068	423.62
432.29	461.62
432.512	454.62
432.734	461.62
432.956	446.62
433.178	457.62
433.4	444.62
433.622	423.62
433.844	457.62
434.066	427.62
434.287	440.62
434.509	442.62
434.731	444.62
434.953	459.62
435.175	503.62
435.397	517.62
435.618	491.62
435.84	552.62
436.062	621.62
436.284	660.62
436.505	559.62
436.727	480.62
436.949	489.62
437.17	477.62
437.392	465.62
437.614	490.62
437.835	485.62
438.057	545.62
438.278	665.62
438.5	641.62
438.721	703.62
438.943	691.62
439.165	543.62
439.386	518.62
439.608	509.62
439.829	487.62
440.05	517.62
440.272	544.62
440.493	525.62
440.715	485.62
440.936	476.62
441.158	457.62
441.379	466.62
441.6	479.62
441.822	513.62
442.043	524.62
442.264	617.62
442.486	627.62
442.707	543.62
442.928	511.62
443.149	511.62
443.371	490.62
443.592	555.62
443.813	620.62
444.034	666.62
444.255	593.62
444.476	531.62
444.698	514.62
444.919	517.62
445.14	601.62
445.361	553.62
445.582	532.62
445.803	587.62
446.024	663.62
446.245	675.62
446.466	610.62
446.687	521.62
446.908	506.62
447.129	488.62
447.35	477.62
447.571	477.62
447.792	439.62
448.013	467.62
448.234	457.62
448.455	535.62
448.675	594.62
448.896	700.62
449.117	584.62
449.338	570.62
449.559	652.62
449.779	708.62
450	595.62
450.221	481.62
450.442	474.62
450.662	437.62
450.883	444.62
451.104	456.62
451.324	445.62
451.545	447.62
451.766	419.62
451.986	383.62
452.207	398.62
452.428	399.62
452.648	404.62
452.869	415.62
453.089	428.62
453.31	419.62
453.53	403.62
453.751	412.62
453.971	419.62
454.192	422.62
454.412	404.62
454.633	414.62
454.853	424.62
455.073	409.62
455.294	439.62
455.514	488.62
455.734	467.62
455.955	402.62
456.175	418.62
456.395	395.62
456.616	401.62
456.836	379.62
457.056	393.62
457.276	392.62
457.497	386.62
457.717	390.62
457.937	398.62
458.157	385.62
458.377	411.62
458.598	441.62
458.818	440.62
459.038	523.62
459.258	540.62
459.478	473.62
459.698	446.62
459.918	449.62
460.138	463.62
460.358	467.62
460.578	480.62
460.798	468.62
461.018	457.62
461.238	459.62
461.458	476.62
461.678	455.62
461.898	474.62
462.118	468.62
462.338	477.62
462.558	474.62
462.777	477.62
462.997	540.62
463.217	546.62
463.437	533.62
463.657	497.62
463.876	495.62
464.096	491.62
464.316	502.62
464.536	481.62
464.755	498.62
464.975	495.62
465.195	499.62
465.414	527.62
465.634	476.62
465.854	473.62
466.073	441.62
466.293	435.62
466.512	438.62
466.732	433.62
466.951	413.62
467.171	426.62
467.391	440.62
467.61	452.62
467.829	423.62
468.049	410.62
468.268	415.62
468.488	424.62
468.707	405.62
468.927	404.62
469.146	410.62
469.365	408.62
469.585	413.62
469.804	420.62
470.023	434.62
470.243	443.62
470.462	422.62
470.681	449.62
470.901	433.62
471.12	449.62
471.339	427.62
471.558	443.62
471.777	414.62
471.997	412.62
472.216	438.62
472.435	456.62
472.654	428.62
472.873	414.62
473.092	409.62
473.311	402.62
473.53	437.62
473.749	417.62
473.968	452.62
474.187	554.62
474.406	547.62
474.625	460.62
474.844	445.62
475.063	420.62
475.282	422.62
475.501	427.62
475.72	435.62
475.939	441.62
476.158	436.62
476.377	441.62
476.596	449.62
476.814	438.62
477.033	424.62
477.252	441.62
477.471	463.62
477.69	461.62
477.908	471.62
478.127	451.62
478.346	469.62
478.564	465.62
478.783	475.62
479.002	495.62
479.22	488.62
479.439	491.62
479.658	497.62
479.876	517.62
480.095	508.62
480.313	556.62
480.532	528.62
480.751	522.62
480.969	507.62
481.188	530.62
481.406	566.62
481.624	518.62
481.843	506.62
482.061	508.62
482.28	507.62
482.498	488.62
482.717	492.62
482.935	472.62
483.153	488.62
483.372	500.62
483.59	487.62
483.808	511.62
484.027	496.62
484.245	501.62
484.463	509.62
484.681	507.62
484.9	494.62
485.118	512.62
485.336	482.62
485.554	499.62
485.772	515.62
485.99	490.62
486.209	519.62
486.427	511.62
486.645	509.62
486.863	503.62
487.081	512.62
487.299	519.62
487.517	536.62
487.735	507.62
487.953	514.62
488.171	544.62
488.389	516.62
488.607	511.62
488.825	505.62
489.043	530.62
489.261	539.62
489.479	533.62
489.696	528.62
489.914	519.62
490.132	531.62
490.35	540.62
490.568	526.62
490.786	555.62
491.003	547.62
491.221	552.62
491.439	583.62
491.657	581.62
491.874	600.62
492.092	579.62
492.31	596.62
492.527	568.62
492.745	594.62
492.963	585.62
493.18	591.62
493.398	580.62
493.615	596.62
493.833	610.62
494.05	597.62
494.268	612.62
494.485	597.62
494.703	579.62
494.92	608.62
495.138	605.62
495.355	606.62
495.573	618.62
495.79	615.62
496.008	641.62
496.225	614.62
496.442	616.62
496.66	632.62
496.877	613.62
497.094	631.62
497.312	613.62
497.529	624.62
497.746	663.62
497.963	644.62
498.181	667.62
498.398	682.62
498.615	703.62
498.832	736.62
499.049	744.62
499.267	756.62
499.484	793.62
499.701	834.62
499.918	872.62
500.135	909.62
500.352	943.62
500.569	963.62
500.786	959.62
501.003	952.62
501.22	911.62
501.437	874.62
501.654	855.62
501.871	797.62
502.088	754.62
502.305	747.62
502.522	711.62
502.739	704.62
502.956	691.62
503.172	689.62
503.389	647.62
503.606	659.62
503.823	641.62
504.04	650.62
504.256	623.62
504.473	628.62
504.69	624.62
504.907	605.62
505.123	610.62
505.34	611.62
505.557	610.62
505.773	607.62
505.99	604.62
506.207	595.62
506.423	588.62
506.64	563.62
506.856	578.62
507.073	567.62
507.289	567.62
507.506	544.62
507.722	580.62
507.939	550.62
508.155	527.62
508.372	536.62
508.588	550.62
508.805	547.62
509.021	550.62
509.238	573.62
509.454	563.62
509.67	561.62
509.887	533.62
510.103	561.62
510.319	563.62
510.536	585.62
510.752	894.62
510.968	719.62
511.184	548.62
511.401	529.62
511.617	523.62
511.833	515.62
512.049	519.62
512.265	509.62
512.481	532.62
512.698	505.62
512.914	511.62
513.13	535.62
513.346	489.62
513.562	496.62
513.778	504.62
513.994	507.62
514.21	523.62
514.426	522.62
514.642	534.62
514.858	568.62
515.074	595.62
515.29	664.62
515.506	874.62
515.721	754.62
515.937	559.62
516.153	558.62
516.369	540.62
516.585	548.62
516.801	566.62
517.016	540.62
517.232	567.62
517.448	551.62
517.664	573.62
517.879	549.62
518.095	566.62
518.311	556.62
518.527	564.62
518.742	543.62
518.958	534.62
519.173	535.62
519.389	528.62
519.605	523.62
519.82	525.62
520.036	528.62
520.251	531.62
520.467	535.62
520.682	549.62
520.898	538.62
521.113	565.62
521.329	551.62
521.544	632.62
521.76	693.62
521.975	1069.62
522.19	1025.62
522.406	661.62
522.621	535.62
522.836	504.62
523.052	487.62
523.267	475.62
523.482	456.62
523.698	476.62
523.913	478.62
524.128	463.62
524.343	457.62
524.559	443.62
524.774	455.62
524.989	439.62
525.204	474.62
525.419	479.62
525.634	465.62
525.849	451.62
526.064	443.62
526.28	435.62
526.495	427.62
526.71	464.62
526.925	415.62
527.14	421.62
527.355	417.62
527.57	429.62
527.785	439.62
527.999	434.62
528.214	417.62
528.429	433.62
528.644	421.62
528.859	424.62
529.074	427.62
529.289	449.62
529.503	464.62
529.718	465.62
529.933	449.62
530.148	422.62
530.363	440.62
530.577	427.62
530.792	412.62
531.007	418.62
531.221	424.62
531.436	414.62
531.651	429.62
531.865	441.62
532.08	406.62
532.295	411.62
532.509	422.62
532.724	431.62
532.938	413.62
533.153	405.62
533.367	411.62
533.582	403.62
533.796	415.62
534.011	413.62
534.225	419.62
534.44	387.62
534.654	408.62
534.868	390.62
535.083	411.62
535.297	415.62
535.511	390.62
535.726	406.62
535.94	417.62
536.154	415.62
536.369	384.62
536.583	404.62
536.797	404.62
537.011	405.62
537.225	393.62
537.44	403.62
537.654	400.62
537.868	388.62
538.082	378.62
538.296	395.62
538.51	413.62
538.724	391.62
538.938	415.62
539.153	392.62
539.367	401.62
539.581	409.62
539.795	395.62
540.009	379.62
540.222	394.62
540.436	388.62
540.65	397.62
540.864	405.62
541.078	395.62
541.292	407.62
541.506	402.62
541.72	382.62
541.934	402.62
542.147	403.62
542.361	381.62
542.575	382.62
542.789	400.62
543.002	399.62
543.216	398.62
543.43	400.62
543.644	392.62
543.857	399.62
544.071	395.62
544.285	392.62
544.498	408.62
544.712	398.62
544.925	381.62
545.139	393.62
545.352	356.62
545.566	371.62
545.779	385.62
545.993	369.62
546.206	396.62
546.42	401.62
546.633	371.62
546.847	350.62
547.06	385.62
547.274	378.62
547.487	407.62
547.7	387.62
547.914	386.62
548.127	393.62
548.34	376.62
548.554	371.62
548.767	361.62
548.98	387.62
549.193	401.62
549.407	377.62
549.62	391.62
549.833	392.62
550.046	362.62
550.259	381.62
550.473	371.62
550.686	376.62
550.899	373.62
551.112	375.62
551.325	385.62
551.538	393.62
551.751	368.62
551.964	386.62
552.177	367.62
552.39	371.62
552.603	387.62
552.816	377.62
553.029	393.62
553.242	395.62
553.455	387.62
553.667	416.62
553.88	398.62
554.093	389.62
554.306	386.62
554.519	389.62
554.732	379.62
554.944	363.62
555.157	385.62
555.37	369.62
555.583	359.62
555.795	365.62
556.008	370.62
556.221	351.62
556.433	361.62
556.646	342.62
556.859	338.62
557.071	333.62
557.284	358.62
557.496	349.62
557.709	347.62
557.921	345.62
558.134	345.62
558.346	333.62
558.559	348.62
558.771	340.62
558.984	336.62
559.196	339.62
559.409	342.62
559.621	337.62
559.833	319.62
560.046	328.62
560.258	322.62
560.47	339.62
560.683	351.62
560.895	333.62
561.107	353.62
561.32	330.62
561.532	341.62
561.744	330.62
561.956	324.62
562.168	346.62
562.381	356.62
562.593	335.62
562.805	343.62
563.017	339.62
563.229	345.62
563.441	350.62
563.653	346.62
563.865	358.62
564.077	346.62
564.289	347.62
564.501	370.62
564.713	351.62
564.925	367.62
565.137	372.62
565.349	379.62
565.561	363.62
565.773	374.62
565.985	387.62
566.197	373.62
566.408	399.62
566.62	419.62
566.832	427.62
567.044	443.62
567.255	421.62
567.467	466.62
567.679	457.62
567.891	470.62
568.102	491.62
568.314	463.62
568.526	433.62
568.737	414.62
568.949	426.62
569.161	392.62
569.372	378.62
569.584	361.62
569.795	369.62
570.007	357.62
570.218	370.62
570.43	357.62
570.641	356.62
570.853	334.62
571.064	338.62
571.276	346.62
571.487	320.62
571.698	305.62
571.91	331.62
572.121	311.62
572.333	325.62
572.544	319.62
572.755	308.62
572.966	319.62
573.178	297.62
573.389	306.62
573.6	305.62
573.811	311.62
574.023	295.62
574.234	282.62
574.445	306.62
574.656	287.62
574.867	282.62
575.078	280.62
575.289	277.62
575.501	296.62
575.712	287.62
575.923	272.62
576.134	290.62
576.345	281.62
576.556	276.62
576.767	283.62
576.978	299.62
577.188	300.62
577.399	304.62
577.61	288.62
577.821	301.62
578.032	281.62
578.243	301.62
578.454	413.62
578.665	331.62
578.875	285.62
579.086	250.62
579.297	279.62
579.508	264.62
579.718	289.62
579.929	293.62
580.14	286.62
580.35	252.62
580.561	267.62
580.772	270.62
580.982	278.62
581.193	262.62
581.403	261.62
581.614	273.62
581.825	274.62
582.035	258.62
582.246	272.62
582.456	260.62
582.667	272.62
582.877	259.62
583.087	265.62
583.298	258.62
583.508	270.62
583.719	273.62
583.929	267.62
584.139	273.62
584.35	285.62
584.56	283.62
584.77	254.62
584.981	255.62
585.191	253.62
585.401	260.62
585.611	258.62
585.821	284.62
586.032	250.62
586.242	257.62
586.452	269.62
586.662	267.62
586.872	261.62
587.082	267.62
587.292	258.62
587.502	252.62
587.713	266.62
587.923	256.62
588.133	245.62
588.343	267.62
588.553	242.62
588.762	243.62
588.972	257.62
589.182	245.62
589.392	267.62
589.602	261.62
589.812	261.62
590.022	256.62
590.232	261.62
590.441	265.62
590.651	271.62
590.861	257.62
591.071	261.62
591.281	261.62
591.49	268.62
591.7	272.62
591.91	261.62
592.119	259.62
592.329	263.62
592.539	265.62
592.748	273.62
592.958	273.62
593.167	273.62
593.377	280.62
593.587	283.62
593.796	290.62
594.006	281.62
594.215	280.62
594.424	278.62
594.634	270.62
594.843	288.62
595.053	262.62
595.262	276.62
595.472	275.62
595.681	243.62
595.89	267.62
596.1	261.62
596.309	257.62
596.518	236.62
596.727	245.62
596.937	260.62
597.146	251.62
597.355	237.62
597.564	239.62
597.774	228.62
597.983	241.62
598.192	247.62
598.401	234.62
598.61	222.62
598.819	216.62
599.028	227.62
599.237	245.62
599.446	235.62
599.655	235.62
599.864	232.62
600.073	235.62
600.282	232.62
600.491	223.62
600.7	222.62
600.909	235.62
601.118	226.62
601.327	227.62
601.536	216.62
601.745	231.62
601.953	219.62
602.162	224.62
602.371	229.62
602.58	215.62
602.789	211.62
602.997	227.62
603.206	233.62
603.415	204.62
603.623	211.62
603.832	215.62
604.041	239.62
604.249	221.62
604.458	215.62
604.666	220.62
604.875	210.62
605.084	203.62
605.292	217.62
605.501	221.62
605.709	214.62
605.918	230.62
606.126	205.62
606.334	194.62
606.543	211.62
606.751	204.62
606.96	207.62
607.168	195.62
607.376	210.62
607.585	205.62
607.793	215.62
608.001	213.62
608.21	213.62
608.418	220.62
608.626	207.62
608.834	212.62
609.043	215.62
609.251	209.62
609.459	214.62
609.667	224.62
609.875	213.62
610.083	228.62
610.291	217.62
610.499	213.62
610.707	207.62
610.916	193.62
611.124	214.62
611.332	224.62
611.54	218.62
611.748	228.62
611.955	215.62
612.163	206.62
612.371	199.62
612.579	187.62
612.787	203.62
612.995	200.62
613.203	201.62
613.411	219.62
613.618	208.62
613.826	194.62
614.034	207.62
614.242	213.62
614.449	200.62
614.657	200.62
614.865	195.62
615.072	203.62
615.28	214.62
615.488	211.62
615.695	205.62
615.903	202.62
616.111	207.62
616.318	218.62
616.526	203.62
616.733	209.62
616.941	224.62
617.148	191.62
617.356	197.62
617.563	203.62
617.771	200.62
617.978	204.62
618.185	210.62
618.393	208.62
618.6	224.62
618.807	199.62
619.015	176.62
619.222	197.62
619.429	175.62
619.637	185.62
619.844	207.62
620.051	202.62
620.258	211.62
620.466	210.62
620.673	207.62
620.88	215.62
621.087	189.62
621.294	194.62
621.501	189.62
621.708	189.62
621.915	194.62
622.122	190.62
622.329	201.62
622.536	186.62
622.743	209.62
622.95	195.62
623.157	181.62
623.364	193.62
623.571	195.62
623.778	186.62
623.985	181.62
624.192	179.62
624.399	188.62
624.606	178.62
624.812	183.62
625.019	196.62
625.226	183.62
625.433	191.62
625.639	185.62
625.846	185.62
626.053	194.62
626.259	177.62
626.466	202.62
626.673	191.62
626.879	173.62
627.086	186.62
627.293	183.62
627.499	179.62
627.706	199.62
627.912	170.62
628.119	188.62
628.325	194.62
628.532	191.62
628.738	184.62
628.945	192.62
629.151	176.62
629.357	167.62
629.564	159.62
629.77	175.62
629.976	168.62
630.183	183.62
630.389	188.62
630.595	179.62
630.802	180.62
631.008	182.62
631.214	180.62
631.42	159.62
631.627	163.62
631.833	155.62
632.039	149.62
632.245	179.62
632.451	152.62
632.657	169.62
632.863	183.62
633.069	159.62
633.275	153.62
633.481	156.62
633.688	161.62
633.893	177.62
634.099	185.62
634.305	168.62
634.511	166.62
634.717	161.62
634.923	149.62
635.129	162.62
635.335	187.62
635.541	175.62
635.747	156.62
635.952	157.62
636.158	167.62
636.364	147.62
636.57	173.62
636.775	168.62
636.981	159.62
637.187	149.62
637.392	154.62
637.598	152.62
637.804	159.62
638.009	151.62
638.215	167.62
638.421	168.62
638.626	154.62
638.832	148.62
639.037	164.62
639.243	161.62
639.448	157.62
639.654	164.62
639.859	147.62
640.065	158.62
640.27	166.62
640.475	144.62
640.681	135.62
640.886	143.62
641.091	160.62
641.297	153.62
641.502	155.62
641.707	156.62
641.913	143.62
642.118	147.62
642.323	164.62
642.528	170.62
642.733	160.62
642.939	142.62
643.144	161.62
643.349	155.62
643.554	152.62
643.759	148.62
643.964	146.62
644.169	148.62
644.374	152.62
644.579	142.62
644.784	147.62
644.989	149.62
645.194	141.62
645.399	148.62
645.604	157.62
645.809	175.62
646.014	158.62
646.219	148.62
646.423	146.62
646.628	148.62
646.833	152.62
647.038	159.62
647.243	137.62
647.447	155.62
647.652	132.62
647.857	147.62
648.062	161.62
648.266	156.62
648.471	153.62
648.676	165.62
648.88	167.62
649.085	154.62
649.289	156.62
649.494	147.62
649.698	160.62
649.903	172.62
650.107	154.62
650.312	149.62
650.516	155.62
650.721	151.62
650.925	149.62
651.13	138.62
651.334	147.62
651.539	142.62
651.743	126.62
651.947	142.62
652.152	142.62
652.356	141.62
652.56	121.62
652.764	122.62
652.969	138.62
653.173	140.62
653.377	134.62
653.581	137.62
653.785	131.62
653.99	118.62
654.194	140.62
654.398	140.62
654.602	119.62
654.806	140.62
655.01	134.62
655.214	126.62
655.418	128.62
655.622	124.62
655.826	138.62
656.03	122.62
656.234	119.62
656.438	134.62
656.642	128.62
656.846	111.62
657.049	116.62
657.253	110.62
657.457	112.62
657.661	115.62
657.865	109.62
658.068	122.62
658.272	106.62
658.476	96.62
658.68	111.62
658.883	86.62
659.087	99.62
659.291	90.62
659.494	95.62
659.698	96.62
659.901	96.62
660.105	82.62
660.309	73.62
660.512	83.62
660.716	84.62
660.919	90.62
661.123	85.62
661.326	91.62
661.53	76.62
661.733	84.62
661.936	82.62
662.14	87.62
662.343	90.62
662.546	88.62
662.75	89.62
662.953	95.62
663.156	87.62
663.36	91.62
663.563	84.62
663.766	87.62
663.969	92.62
664.173	80.62
664.376	74.62
664.579	68.62
664.782	88.62
664.985	82.62
665.188	93.62
665.391	84.62
665.594	84.62
665.797	71.62
666	76.62
666.203	80.62
666.406	93.62
666.609	90.62
666.812	85.62
667.015	85.62
667.218	66.62
667.421	69.62
667.624	81.62
667.827	95.62
668.03	78.62
668.232	91.62
668.435	67.62
668.638	81.62
668.841	77.62
669.043	87.62
669.246	93.62
669.449	87.62
669.651	80.62
669.854	84.62
670.057	89.62
670.259	85.62
670.462	78.62
670.665	73.62
670.867	79.62
671.07	87.62
671.272	85.62
671.475	84.62
671.677	81.62
671.88	86.62
672.082	68.62
672.284	90.62
672.487	81.62
672.689	89.62
672.892	74.62
