Data from 1977.PennyLincolnUp.Lamp.En5.5.200Scan.071719.P1_HRD10591_16-08-01-864.txt Node
Date: Thu Jul 18 16:08:01 EDT 2019
User: cochatt
Spectrometer: HR+D1059
Trigger mode: 1
Integration Time (sec): 1.000000E-1
Scans to average: 1
Electric dark correction enabled: true
Nonlinearity correction enabled: false
Boxcar width: 0
XAxis mode: Wavelengths
Number of Pixels in Spectrum: 2048
>>>>>Begin Spectral Data<<<<<
223.165	-19.81
223.4	-19.81
223.635	-19.81
223.869	-21.81
224.104	-17.81
224.338	-14.81
224.573	-3.81
224.808	-11.81
225.042	-23.81
225.277	-15.81
225.511	-2.81
225.746	6.19
225.98	10.19
226.215	5.19
226.449	25.19
226.683	26.19
226.918	25.19
227.152	34.19
227.387	35.19
227.621	40.19
227.856	54.19
228.09	48.19
228.324	48.19
228.559	70.19
228.793	57.19
229.027	102.19
229.262	118.19
229.496	105.19
229.73	136.19
229.964	156.19
230.199	123.19
230.433	104.19
230.667	119.19
230.901	102.19
231.136	119.19
231.37	104.19
231.604	105.19
231.838	101.19
232.072	129.19
232.306	122.19
232.541	120.19
232.775	109.19
233.009	118.19
233.243	110.19
233.477	120.19
233.711	113.19
233.945	120.19
234.179	118.19
234.413	108.19
234.647	116.19
234.881	108.19
235.115	116.19
235.349	128.19
235.583	126.19
235.817	120.19
236.051	125.19
236.285	135.19
236.519	129.19
236.753	137.19
236.987	140.19
237.221	176.19
237.455	222.19
237.689	198.19
237.922	147.19
238.156	140.19
238.39	140.19
238.624	138.19
238.858	128.19
239.091	130.19
239.325	126.19
239.559	125.19
239.793	128.19
240.027	134.19
240.26	132.19
240.494	154.19
240.728	142.19
240.961	153.19
241.195	142.19
241.429	136.19
241.662	144.19
241.896	142.19
242.13	136.19
242.363	135.19
242.597	145.19
242.83	144.19
243.064	128.19
243.298	168.19
243.531	151.19
243.765	127.19
243.998	144.19
244.232	158.19
244.465	157.19
244.699	135.19
244.932	132.19
245.166	153.19
245.399	146.19
245.633	153.19
245.866	150.19
246.099	157.19
246.333	148.19
246.566	162.19
246.8	167.19
247.033	152.19
247.266	159.19
247.5	163.19
247.733	176.19
247.966	168.19
248.2	176.19
248.433	159.19
248.666	161.19
248.899	178.19
249.133	195.19
249.366	206.19
249.599	188.19
249.832	185.19
250.066	178.19
250.299	186.19
250.532	193.19
250.765	182.19
250.998	217.19
251.231	244.19
251.465	229.19
251.698	201.19
251.931	193.19
252.164	197.19
252.397	186.19
252.63	207.19
252.863	217.19
253.096	209.19
253.329	234.19
253.562	225.19
253.795	218.19
254.028	226.19
254.261	221.19
254.494	213.19
254.727	242.19
254.96	264.19
255.193	269.19
255.426	253.19
255.659	236.19
255.892	244.19
256.124	236.19
256.357	228.19
256.59	232.19
256.823	214.19
257.056	215.19
257.289	216.19
257.521	219.19
257.754	224.19
257.987	217.19
258.22	218.19
258.452	210.19
258.685	220.19
258.918	215.19
259.151	208.19
259.383	234.19
259.616	224.19
259.849	238.19
260.081	252.19
260.314	269.19
260.547	273.19
260.779	255.19
261.012	251.19
261.244	226.19
261.477	244.19
261.71	229.19
261.942	246.19
262.175	244.19
262.407	244.19
262.64	218.19
262.872	239.19
263.105	237.19
263.337	232.19
263.57	230.19
263.802	232.19
264.035	216.19
264.267	229.19
264.499	225.19
264.732	234.19
264.964	243.19
265.197	228.19
265.429	228.19
265.661	243.19
265.894	233.19
266.126	221.19
266.358	237.19
266.591	221.19
266.823	245.19
267.055	235.19
267.287	241.19
267.52	246.19
267.752	236.19
267.984	245.19
268.216	244.19
268.448	260.19
268.681	258.19
268.913	255.19
269.145	272.19
269.377	296.19
269.609	296.19
269.841	290.19
270.073	299.19
270.306	325.19
270.538	343.19
270.77	348.19
271.002	313.19
271.234	289.19
271.466	317.19
271.698	313.19
271.93	338.19
272.162	335.19
272.394	330.19
272.626	302.19
272.858	313.19
273.09	314.19
273.322	291.19
273.553	292.19
273.785	290.19
274.017	284.19
274.249	287.19
274.481	290.19
274.713	279.19
274.945	298.19
275.176	283.19
275.408	282.19
275.64	295.19
275.872	284.19
276.104	285.19
276.335	299.19
276.567	295.19
276.799	296.19
277.031	329.19
277.262	315.19
277.494	331.19
277.726	316.19
277.957	302.19
278.189	313.19
278.421	281.19
278.652	273.19
278.884	289.19
279.115	277.19
279.347	284.19
279.579	292.19
279.81	290.19
280.042	301.19
280.273	298.19
280.505	296.19
280.736	296.19
280.968	303.19
281.199	285.19
281.431	301.19
281.662	316.19
281.894	285.19
282.125	302.19
282.356	321.19
282.588	314.19
282.819	319.19
283.051	305.19
283.282	300.19
283.513	320.19
283.745	310.19
283.976	310.19
284.207	335.19
284.439	291.19
284.67	290.19
284.901	300.19
285.132	307.19
285.364	326.19
285.595	314.19
285.826	305.19
286.057	316.19
286.288	324.19
286.52	296.19
286.751	320.19
286.982	320.19
287.213	309.19
287.444	320.19
287.675	308.19
287.906	327.19
288.138	339.19
288.369	356.19
288.6	334.19
288.831	327.19
289.062	325.19
289.293	329.19
289.524	321.19
289.755	319.19
289.986	327.19
290.217	323.19
290.448	314.19
290.679	322.19
290.91	315.19
291.141	333.19
291.371	319.19
291.602	329.19
291.833	342.19
292.064	322.19
292.295	334.19
292.526	321.19
292.757	296.19
292.987	308.19
293.218	329.19
293.449	333.19
293.68	335.19
293.91	335.19
294.141	291.19
294.372	309.19
294.603	328.19
294.833	317.19
295.064	341.19
295.295	327.19
295.525	310.19
295.756	344.19
295.987	348.19
296.217	344.19
296.448	340.19
296.679	349.19
296.909	327.19
297.14	323.19
297.37	328.19
297.601	336.19
297.831	337.19
298.062	339.19
298.292	337.19
298.523	342.19
298.753	348.19
298.984	367.19
299.214	349.19
299.445	350.19
299.675	338.19
299.905	339.19
300.136	347.19
300.366	359.19
300.597	332.19
300.827	362.19
301.057	344.19
301.288	371.19
301.518	365.19
301.748	364.19
301.979	368.19
302.209	362.19
302.439	357.19
302.669	352.19
302.9	362.19
303.13	363.19
303.36	379.19
303.59	368.19
303.82	356.19
304.051	381.19
304.281	374.19
304.511	362.19
304.741	356.19
304.971	356.19
305.201	348.19
305.431	360.19
305.661	361.19
305.891	348.19
306.121	359.19
306.352	372.19
306.582	374.19
306.812	363.19
307.042	380.19
307.272	382.19
307.502	381.19
307.731	368.19
307.961	373.19
308.191	353.19
308.421	379.19
308.651	376.19
308.881	364.19
309.111	362.19
309.341	380.19
309.571	377.19
309.8	392.19
310.03	410.19
310.26	412.19
310.49	390.19
310.72	403.19
310.949	411.19
311.179	405.19
311.409	403.19
311.639	383.19
311.868	390.19
312.098	405.19
312.328	412.19
312.557	433.19
312.787	420.19
313.017	427.19
313.246	422.19
313.476	416.19
313.706	404.19
313.935	401.19
314.165	421.19
314.394	414.19
314.624	407.19
314.853	419.19
315.083	405.19
315.312	408.19
315.542	405.19
315.771	401.19
316.001	414.19
316.23	387.19
316.46	408.19
316.689	396.19
316.919	440.19
317.148	420.19
317.377	418.19
317.607	422.19
317.836	411.19
318.065	413.19
318.295	416.19
318.524	399.19
318.753	396.19
318.983	401.19
319.212	393.19
319.441	410.19
319.67	405.19
319.9	397.19
320.129	416.19
320.358	412.19
320.587	414.19
320.816	400.19
321.046	437.19
321.275	422.19
321.504	425.19
321.733	440.19
321.962	432.19
322.191	429.19
322.42	433.19
322.649	448.19
322.878	470.19
323.108	449.19
323.337	482.19
323.566	523.19
323.795	531.19
324.024	561.19
324.253	662.19
324.482	926.19
324.71	1369.19
324.939	1893.19
325.168	1624.19
325.397	870.19
325.626	628.19
325.855	530.19
326.084	530.19
326.313	481.19
326.542	500.19
326.77	548.19
326.999	644.19
327.228	837.19
327.457	1210.19
327.686	1463.19
327.914	964.19
328.143	656.19
328.372	611.19
328.6	560.19
328.829	554.19
329.058	549.19
329.287	574.19
329.515	549.19
329.744	511.19
329.972	504.19
330.201	529.19
330.43	552.19
330.658	588.19
330.887	576.19
331.115	567.19
331.344	516.19
331.572	505.19
331.801	505.19
332.03	497.19
332.258	508.19
332.486	485.19
332.715	502.19
332.943	466.19
333.172	489.19
333.4	494.19
333.629	516.19
333.857	520.19
334.085	541.19
334.314	535.19
334.542	546.19
334.771	559.19
334.999	546.19
335.227	511.19
335.455	519.19
335.684	482.19
335.912	502.19
336.14	500.19
336.369	481.19
336.597	497.19
336.825	466.19
337.053	468.19
337.281	464.19
337.51	468.19
337.738	470.19
337.966	478.19
338.194	467.19
338.422	471.19
338.65	467.19
338.878	471.19
339.106	445.19
339.334	453.19
339.562	469.19
339.79	456.19
340.018	446.19
340.246	469.19
340.474	464.19
340.702	469.19
340.93	462.19
341.158	443.19
341.386	462.19
341.614	441.19
341.842	464.19
342.07	448.19
342.298	452.19
342.526	446.19
342.754	440.19
342.981	451.19
343.209	458.19
343.437	466.19
343.665	463.19
343.893	458.19
344.12	474.19
344.348	463.19
344.576	464.19
344.804	476.19
345.031	468.19
345.259	473.19
345.487	457.19
345.714	440.19
345.942	437.19
346.17	425.19
346.397	430.19
346.625	446.19
346.853	424.19
347.08	420.19
347.308	444.19
347.535	444.19
347.763	454.19
347.99	450.19
348.218	425.19
348.445	444.19
348.673	444.19
348.9	427.19
349.128	444.19
349.355	408.19
349.583	414.19
349.81	424.19
350.037	420.19
350.265	405.19
350.492	416.19
350.72	413.19
350.947	407.19
351.174	432.19
351.402	450.19
351.629	447.19
351.856	431.19
352.083	449.19
352.311	438.19
352.538	440.19
352.765	437.19
352.992	411.19
353.22	421.19
353.447	414.19
353.674	414.19
353.901	407.19
354.128	404.19
354.355	413.19
354.583	419.19
354.81	420.19
355.037	402.19
355.264	409.19
355.491	387.19
355.718	420.19
355.945	416.19
356.172	384.19
356.399	379.19
356.626	418.19
356.853	417.19
357.08	412.19
357.307	396.19
357.534	390.19
357.761	408.19
357.988	408.19
358.215	406.19
358.441	416.19
358.668	401.19
358.895	433.19
359.122	402.19
359.349	415.19
359.576	401.19
359.802	430.19
360.029	474.19
360.256	464.19
360.483	453.19
360.709	434.19
360.936	420.19
361.163	413.19
361.39	408.19
361.616	423.19
361.843	422.19
362.07	413.19
362.296	444.19
362.523	422.19
362.749	424.19
362.976	417.19
363.203	424.19
363.429	404.19
363.656	410.19
363.882	396.19
364.109	393.19
364.335	405.19
364.562	391.19
364.788	395.19
365.015	412.19
365.241	390.19
365.468	399.19
365.694	378.19
365.92	413.19
366.147	414.19
366.373	405.19
366.599	383.19
366.826	399.19
367.052	384.19
367.278	406.19
367.505	411.19
367.731	401.19
367.957	421.19
368.184	413.19
368.41	397.19
368.636	417.19
368.862	408.19
369.089	404.19
369.315	383.19
369.541	412.19
369.767	419.19
369.993	397.19
370.219	418.19
370.445	384.19
370.672	402.19
370.898	422.19
371.124	399.19
371.35	412.19
371.576	400.19
371.802	390.19
372.028	390.19
372.254	413.19
372.48	403.19
372.706	424.19
372.932	409.19
373.158	415.19
373.384	429.19
373.61	411.19
373.835	388.19
374.061	423.19
374.287	429.19
374.513	420.19
374.739	438.19
374.965	428.19
375.191	425.19
375.416	430.19
375.642	418.19
375.868	420.19
376.094	400.19
376.319	392.19
376.545	411.19
376.771	387.19
376.997	395.19
377.222	386.19
377.448	390.19
377.674	390.19
377.899	387.19
378.125	388.19
378.35	401.19
378.576	381.19
378.802	381.19
379.027	396.19
379.253	397.19
379.478	376.19
379.704	395.19
379.929	385.19
380.155	390.19
380.38	402.19
380.606	402.19
380.831	399.19
381.057	409.19
381.282	410.19
381.507	384.19
381.733	406.19
381.958	396.19
382.184	400.19
382.409	409.19
382.634	432.19
382.86	436.19
383.085	405.19
383.31	410.19
383.535	427.19
383.761	389.19
383.986	409.19
384.211	425.19
384.436	436.19
384.662	430.19
384.887	433.19
385.112	436.19
385.337	433.19
385.562	456.19
385.787	429.19
386.013	438.19
386.238	440.19
386.463	429.19
386.688	460.19
386.913	444.19
387.138	441.19
387.363	421.19
387.588	432.19
387.813	438.19
388.038	447.19
388.263	432.19
388.488	440.19
388.713	450.19
388.938	431.19
389.163	418.19
389.387	441.19
389.612	443.19
389.837	440.19
390.062	434.19
390.287	431.19
390.512	425.19
390.736	456.19
390.961	430.19
391.186	421.19
391.411	423.19
391.636	457.19
391.86	459.19
392.085	460.19
392.31	463.19
392.534	449.19
392.759	446.19
392.984	461.19
393.208	460.19
393.433	450.19
393.658	454.19
393.882	443.19
394.107	450.19
394.331	469.19
394.556	423.19
394.78	446.19
395.005	440.19
395.229	437.19
395.454	460.19
395.678	448.19
395.903	480.19
396.127	471.19
396.352	494.19
396.576	450.19
396.801	454.19
397.025	466.19
397.249	477.19
397.474	455.19
397.698	477.19
397.922	478.19
398.147	484.19
398.371	490.19
398.595	477.19
398.82	479.19
399.044	516.19
399.268	526.19
399.492	571.19
399.717	610.19
399.941	629.19
400.165	652.19
400.389	617.19
400.613	581.19
400.837	540.19
401.062	513.19
401.286	488.19
401.51	478.19
401.734	496.19
401.958	524.19
402.182	518.19
402.406	540.19
402.63	519.19
402.854	511.19
403.078	534.19
403.302	532.19
403.526	539.19
403.75	546.19
403.974	526.19
404.198	490.19
404.422	524.19
404.645	528.19
404.869	526.19
405.093	560.19
405.317	593.19
405.541	605.19
405.765	584.19
405.988	560.19
406.212	567.19
406.436	547.19
406.66	570.19
406.883	557.19
407.107	594.19
407.331	642.19
407.555	679.19
407.778	669.19
408.002	620.19
408.226	577.19
408.449	560.19
408.673	584.19
408.896	576.19
409.12	623.19
409.344	598.19
409.567	541.19
409.791	516.19
410.014	525.19
410.238	534.19
410.461	522.19
410.685	508.19
410.908	536.19
411.132	545.19
411.355	584.19
411.578	575.19
411.802	518.19
412.025	516.19
412.249	513.19
412.472	538.19
412.695	548.19
412.919	551.19
413.142	522.19
413.365	502.19
413.589	517.19
413.812	501.19
414.035	489.19
414.258	491.19
414.482	467.19
414.705	459.19
414.928	495.19
415.151	492.19
415.374	476.19
415.597	486.19
415.821	482.19
416.044	482.19
416.267	464.19
416.49	478.19
416.713	473.19
416.936	460.19
417.159	471.19
417.382	470.19
417.605	478.19
417.828	501.19
418.051	500.19
418.274	502.19
418.497	499.19
418.72	476.19
418.943	495.19
419.166	494.19
419.389	522.19
419.611	509.19
419.834	502.19
420.057	532.19
420.28	526.19
420.503	502.19
420.726	495.19
420.948	522.19
421.171	542.19
421.394	594.19
421.617	536.19
421.839	493.19
422.062	508.19
422.285	520.19
422.507	568.19
422.73	618.19
422.953	598.19
423.175	565.19
423.398	525.19
423.621	520.19
423.843	541.19
424.066	532.19
424.288	526.19
424.511	534.19
424.733	567.19
424.956	676.19
425.178	642.19
425.401	621.19
425.623	625.19
425.846	549.19
426.068	522.19
426.291	530.19
426.513	532.19
426.735	528.19
426.958	574.19
427.18	638.19
427.402	749.19
427.625	810.19
427.847	692.19
428.069	638.19
428.292	572.19
428.514	527.19
428.736	496.19
428.958	491.19
429.181	485.19
429.403	484.19
429.625	475.19
429.847	506.19
430.069	584.19
430.292	573.19
430.514	495.19
430.736	480.19
430.958	490.19
431.18	468.19
431.402	463.19
431.624	448.19
431.846	464.19
432.068	459.19
432.29	448.19
432.512	461.19
432.734	465.19
432.956	463.19
433.178	472.19
433.4	502.19
433.622	464.19
433.844	475.19
434.066	472.19
434.287	465.19
434.509	472.19
434.731	475.19
434.953	477.19
435.175	500.19
435.397	497.19
435.618	538.19
435.84	572.19
436.062	640.19
436.284	708.19
436.505	579.19
436.727	527.19
436.949	494.19
437.17	480.19
437.392	483.19
437.614	486.19
437.835	519.19
438.057	608.19
438.278	670.19
438.5	690.19
438.721	752.19
438.943	725.19
439.165	609.19
439.386	522.19
439.608	552.19
439.829	525.19
440.05	549.19
440.272	567.19
440.493	552.19
440.715	532.19
440.936	489.19
441.158	476.19
441.379	481.19
441.6	494.19
441.822	513.19
442.043	552.19
442.264	613.19
442.486	649.19
442.707	574.19
442.928	536.19
443.149	536.19
443.371	560.19
443.592	611.19
443.813	680.19
444.034	732.19
444.255	608.19
444.476	552.19
444.698	538.19
444.919	534.19
445.14	640.19
445.361	599.19
445.582	550.19
445.803	630.19
446.024	705.19
446.245	706.19
446.466	652.19
446.687	550.19
446.908	510.19
447.129	482.19
447.35	460.19
447.571	462.19
447.792	461.19
448.013	500.19
448.234	500.19
448.455	533.19
448.675	620.19
448.896	735.19
449.117	628.19
449.338	584.19
449.559	696.19
449.779	782.19
450	638.19
450.221	519.19
450.442	484.19
450.662	458.19
450.883	472.19
451.104	478.19
451.324	461.19
451.545	445.19
451.766	447.19
451.986	418.19
452.207	431.19
452.428	415.19
452.648	433.19
452.869	426.19
453.089	425.19
453.31	440.19
453.53	431.19
453.751	406.19
453.971	405.19
454.192	431.19
454.412	437.19
454.633	432.19
454.853	425.19
455.073	416.19
455.294	436.19
455.514	500.19
455.734	470.19
455.955	430.19
456.175	430.19
456.395	397.19
456.616	409.19
456.836	420.19
457.056	415.19
457.276	397.19
457.497	393.19
457.717	405.19
457.937	408.19
458.157	421.19
458.377	435.19
458.598	429.19
458.818	478.19
459.038	540.19
459.258	554.19
459.478	481.19
459.698	470.19
459.918	465.19
460.138	464.19
460.358	463.19
460.578	466.19
460.798	481.19
461.018	486.19
461.238	477.19
461.458	470.19
461.678	464.19
461.898	461.19
462.118	470.19
462.338	486.19
462.558	482.19
462.777	503.19
462.997	519.19
463.217	522.19
463.437	554.19
463.657	519.19
463.876	496.19
464.096	522.19
464.316	524.19
464.536	503.19
464.755	503.19
464.975	493.19
465.195	514.19
465.414	552.19
465.634	517.19
465.854	477.19
466.073	468.19
466.293	472.19
466.512	445.19
466.732	432.19
466.951	420.19
467.171	421.19
467.391	444.19
467.61	422.19
467.829	446.19
468.049	432.19
468.268	434.19
468.488	442.19
468.707	414.19
468.927	414.19
469.146	434.19
469.365	457.19
469.585	446.19
469.804	422.19
470.023	430.19
470.243	431.19
470.462	453.19
470.681	469.19
470.901	448.19
471.12	456.19
471.339	425.19
471.558	434.19
471.777	448.19
471.997	424.19
472.216	433.19
472.435	474.19
472.654	439.19
472.873	425.19
473.092	426.19
473.311	453.19
473.53	433.19
473.749	453.19
473.968	485.19
474.187	574.19
474.406	587.19
474.625	484.19
474.844	461.19
475.063	470.19
475.282	437.19
475.501	431.19
475.72	453.19
475.939	429.19
476.158	448.19
476.377	470.19
476.596	441.19
476.814	442.19
477.033	470.19
477.252	459.19
477.471	458.19
477.69	484.19
477.908	477.19
478.127	489.19
478.346	481.19
478.564	484.19
478.783	493.19
479.002	493.19
479.22	489.19
479.439	513.19
479.658	541.19
479.876	527.19
480.095	539.19
480.313	584.19
480.532	556.19
480.751	535.19
480.969	519.19
481.188	568.19
481.406	578.19
481.624	573.19
481.843	529.19
482.061	520.19
482.28	525.19
482.498	500.19
482.717	517.19
482.935	490.19
483.153	506.19
483.372	487.19
483.59	491.19
483.808	504.19
484.027	504.19
484.245	505.19
484.463	500.19
484.681	513.19
484.9	506.19
485.118	488.19
485.336	512.19
485.554	518.19
485.772	506.19
485.99	530.19
486.209	546.19
486.427	542.19
486.645	544.19
486.863	551.19
487.081	564.19
487.299	531.19
487.517	517.19
487.735	513.19
487.953	513.19
488.171	542.19
488.389	536.19
488.607	537.19
488.825	514.19
489.043	538.19
489.261	544.19
489.479	540.19
489.696	535.19
489.914	544.19
490.132	555.19
490.35	561.19
490.568	551.19
490.786	558.19
491.003	577.19
491.221	583.19
491.439	598.19
491.657	597.19
491.874	596.19
492.092	619.19
492.31	630.19
492.527	611.19
492.745	605.19
492.963	615.19
493.18	618.19
493.398	633.19
493.615	620.19
493.833	623.19
494.05	629.19
494.268	605.19
494.485	623.19
494.703	640.19
494.92	625.19
495.138	611.19
495.355	644.19
495.573	639.19
495.79	614.19
496.008	638.19
496.225	622.19
496.442	631.19
496.66	641.19
496.877	621.19
497.094	630.19
497.312	671.19
497.529	647.19
497.746	701.19
497.963	668.19
498.181	689.19
498.398	700.19
498.615	706.19
498.832	748.19
499.049	758.19
499.267	769.19
499.484	808.19
499.701	841.19
499.918	860.19
500.135	932.19
500.352	965.19
500.569	990.19
500.786	973.19
501.003	988.19
501.22	932.19
501.437	890.19
501.654	844.19
501.871	822.19
502.088	801.19
502.305	771.19
502.522	744.19
502.739	743.19
502.956	704.19
503.172	692.19
503.389	673.19
503.606	664.19
503.823	682.19
504.04	649.19
504.256	630.19
504.473	657.19
504.69	622.19
504.907	663.19
505.123	644.19
505.34	624.19
505.557	602.19
505.773	628.19
505.99	622.19
506.207	620.19
506.423	600.19
506.64	600.19
506.856	597.19
507.073	569.19
507.289	580.19
507.506	568.19
507.722	590.19
507.939	588.19
508.155	567.19
508.372	599.19
508.588	561.19
508.805	570.19
509.021	570.19
509.238	574.19
509.454	585.19
509.67	558.19
509.887	568.19
510.103	570.19
510.319	584.19
510.536	625.19
510.752	905.19
510.968	751.19
511.184	561.19
511.401	545.19
511.617	534.19
511.833	536.19
512.049	551.19
512.265	529.19
512.481	524.19
512.698	532.19
512.914	550.19
513.13	522.19
513.346	516.19
513.562	534.19
513.778	540.19
513.994	543.19
514.21	534.19
514.426	540.19
514.642	596.19
514.858	606.19
515.074	617.19
515.29	686.19
515.506	894.19
515.721	778.19
515.937	600.19
516.153	573.19
516.369	565.19
516.585	546.19
516.801	584.19
517.016	552.19
517.232	562.19
517.448	562.19
517.664	540.19
517.879	564.19
518.095	571.19
518.311	567.19
518.527	567.19
518.742	566.19
518.958	541.19
519.173	580.19
519.389	551.19
519.605	542.19
519.82	528.19
520.036	559.19
520.251	536.19
520.467	559.19
520.682	556.19
520.898	580.19
521.113	597.19
521.329	583.19
521.544	644.19
521.76	747.19
521.975	1133.19
522.19	1081.19
522.406	668.19
522.621	561.19
522.836	508.19
523.052	531.19
523.267	491.19
523.482	502.19
523.698	492.19
523.913	484.19
524.128	477.19
524.343	486.19
524.559	439.19
524.774	467.19
524.989	474.19
525.204	467.19
525.419	465.19
525.634	461.19
525.849	445.19
526.064	447.19
526.28	439.19
526.495	449.19
526.71	455.19
526.925	432.19
527.14	438.19
527.355	450.19
527.57	470.19
527.785	428.19
527.999	451.19
528.214	428.19
528.429	445.19
528.644	432.19
528.859	451.19
529.074	442.19
529.289	449.19
529.503	486.19
529.718	487.19
529.933	469.19
530.148	433.19
530.363	454.19
530.577	422.19
530.792	436.19
531.007	428.19
531.221	422.19
531.436	436.19
531.651	439.19
531.865	437.19
532.08	430.19
532.295	408.19
532.509	420.19
532.724	390.19
532.938	410.19
533.153	420.19
533.367	418.19
533.582	400.19
533.796	406.19
534.011	416.19
534.225	430.19
534.44	420.19
534.654	420.19
534.868	402.19
535.083	425.19
535.297	417.19
535.511	430.19
535.726	432.19
535.94	422.19
536.154	408.19
536.369	421.19
536.583	413.19
536.797	411.19
537.011	405.19
537.225	401.19
537.44	399.19
537.654	418.19
537.868	415.19
538.082	412.19
538.296	416.19
538.51	420.19
538.724	433.19
538.938	407.19
539.153	412.19
539.367	410.19
539.581	425.19
539.795	409.19
540.009	405.19
540.222	397.19
540.436	399.19
540.65	390.19
540.864	378.19
541.078	415.19
541.292	412.19
541.506	410.19
541.72	402.19
541.934	407.19
542.147	392.19
542.361	407.19
542.575	389.19
542.789	393.19
543.002	388.19
543.216	414.19
543.43	390.19
543.644	413.19
543.857	388.19
544.071	398.19
544.285	409.19
544.498	413.19
544.712	402.19
544.925	411.19
545.139	386.19
545.352	400.19
545.566	402.19
545.779	406.19
545.993	403.19
546.206	395.19
546.42	400.19
546.633	406.19
546.847	394.19
547.06	372.19
547.274	389.19
547.487	380.19
547.7	395.19
547.914	391.19
548.127	389.19
548.34	406.19
548.554	410.19
548.767	389.19
548.98	385.19
549.193	388.19
549.407	374.19
549.62	402.19
549.833	388.19
550.046	403.19
550.259	396.19
550.473	383.19
550.686	401.19
550.899	380.19
551.112	392.19
551.325	382.19
551.538	387.19
551.751	380.19
551.964	388.19
552.177	392.19
552.39	406.19
552.603	399.19
552.816	400.19
553.029	391.19
553.242	400.19
553.455	407.19
553.667	421.19
553.88	426.19
554.093	409.19
554.306	413.19
554.519	387.19
554.732	380.19
554.944	388.19
555.157	397.19
555.37	384.19
555.583	384.19
555.795	389.19
556.008	361.19
556.221	344.19
556.433	362.19
556.646	377.19
556.859	358.19
557.071	366.19
557.284	366.19
557.496	347.19
557.709	336.19
557.921	347.19
558.134	357.19
558.346	350.19
558.559	339.19
558.771	357.19
558.984	351.19
559.196	350.19
559.409	356.19
559.621	342.19
559.833	353.19
560.046	348.19
560.258	337.19
560.47	357.19
560.683	345.19
560.895	337.19
561.107	346.19
561.32	363.19
561.532	336.19
561.744	353.19
561.956	349.19
562.168	338.19
562.381	342.19
562.593	347.19
562.805	347.19
563.017	333.19
563.229	340.19
563.441	374.19
563.653	344.19
563.865	361.19
564.077	347.19
564.289	360.19
564.501	365.19
564.713	367.19
564.925	369.19
565.137	383.19
565.349	375.19
565.561	390.19
565.773	374.19
565.985	385.19
566.197	414.19
566.408	405.19
566.62	427.19
566.832	443.19
567.044	442.19
567.255	442.19
567.467	446.19
567.679	454.19
567.891	474.19
568.102	488.19
568.314	474.19
568.526	460.19
568.737	421.19
568.949	421.19
569.161	411.19
569.372	373.19
569.584	357.19
569.795	359.19
570.007	349.19
570.218	370.19
570.43	378.19
570.641	346.19
570.853	368.19
571.064	335.19
571.276	338.19
571.487	337.19
571.698	342.19
571.91	317.19
572.121	315.19
572.333	321.19
572.544	307.19
572.755	320.19
572.966	307.19
573.178	318.19
573.389	317.19
573.6	304.19
573.811	284.19
574.023	305.19
574.234	294.19
574.445	322.19
574.656	309.19
574.867	310.19
575.078	296.19
575.289	305.19
575.501	298.19
575.712	294.19
575.923	284.19
576.134	292.19
576.345	291.19
576.556	298.19
576.767	288.19
576.978	305.19
577.188	286.19
577.399	286.19
577.61	289.19
577.821	284.19
578.032	311.19
578.243	316.19
578.454	423.19
578.665	324.19
578.875	308.19
579.086	284.19
579.297	295.19
579.508	277.19
579.718	292.19
579.929	279.19
580.14	266.19
580.35	290.19
580.561	295.19
580.772	272.19
580.982	249.19
581.193	282.19
581.403	282.19
581.614	280.19
581.825	284.19
582.035	274.19
582.246	283.19
582.456	274.19
582.667	268.19
582.877	290.19
583.087	295.19
583.298	286.19
583.508	297.19
583.719	273.19
583.929	277.19
584.139	276.19
584.35	282.19
584.56	267.19
584.77	271.19
584.981	275.19
585.191	274.19
585.401	264.19
585.611	269.19
585.821	276.19
586.032	265.19
586.242	276.19
586.452	268.19
586.662	269.19
586.872	259.19
587.082	256.19
587.292	262.19
587.502	272.19
587.713	274.19
587.923	269.19
588.133	250.19
588.343	266.19
588.553	267.19
588.762	261.19
588.972	270.19
589.182	275.19
589.392	266.19
589.602	284.19
589.812	278.19
590.022	271.19
590.232	266.19
590.441	244.19
590.651	263.19
590.861	271.19
591.071	264.19
591.281	271.19
591.49	271.19
591.7	272.19
591.91	274.19
592.119	265.19
592.329	275.19
592.539	300.19
592.748	287.19
592.958	284.19
593.167	285.19
593.377	271.19
593.587	310.19
593.796	284.19
594.006	282.19
594.215	295.19
594.424	280.19
594.634	294.19
594.843	292.19
595.053	283.19
595.262	273.19
595.472	264.19
595.681	265.19
595.89	265.19
596.1	279.19
596.309	272.19
596.518	252.19
596.727	252.19
596.937	250.19
597.146	250.19
597.355	253.19
597.564	239.19
597.774	236.19
597.983	244.19
598.192	227.19
598.401	239.19
598.61	238.19
598.819	248.19
599.028	242.19
599.237	232.19
599.446	217.19
599.655	231.19
599.864	256.19
600.073	233.19
600.282	214.19
600.491	246.19
600.7	233.19
600.909	230.19
601.118	240.19
601.327	227.19
601.536	204.19
601.745	225.19
601.953	243.19
602.162	222.19
602.371	237.19
602.58	250.19
602.789	242.19
602.997	216.19
603.206	228.19
603.415	227.19
603.623	230.19
603.832	241.19
604.041	240.19
604.249	222.19
604.458	238.19
604.666	222.19
604.875	225.19
605.084	201.19
605.292	209.19
605.501	228.19
605.709	208.19
605.918	225.19
606.126	217.19
606.334	208.19
606.543	223.19
606.751	224.19
606.96	217.19
607.168	212.19
607.376	217.19
607.585	218.19
607.793	208.19
608.001	212.19
608.21	214.19
608.418	222.19
608.626	213.19
608.834	221.19
609.043	214.19
609.251	229.19
609.459	209.19
609.667	206.19
609.875	217.19
610.083	231.19
610.291	206.19
610.499	230.19
610.707	246.19
610.916	216.19
611.124	216.19
611.332	220.19
611.54	225.19
611.748	224.19
611.955	219.19
612.163	223.19
612.371	217.19
612.579	226.19
612.787	221.19
612.995	224.19
613.203	234.19
613.411	212.19
613.618	199.19
613.826	204.19
614.034	201.19
614.242	235.19
614.449	212.19
614.657	222.19
614.865	209.19
615.072	202.19
615.28	213.19
615.488	198.19
615.695	214.19
615.903	206.19
616.111	220.19
616.318	207.19
616.526	207.19
616.733	215.19
616.941	220.19
617.148	205.19
617.356	204.19
617.563	211.19
617.771	211.19
617.978	207.19
618.185	201.19
618.393	220.19
618.6	208.19
618.807	210.19
619.015	206.19
619.222	217.19
619.429	196.19
619.637	214.19
619.844	205.19
620.051	214.19
620.258	188.19
620.466	190.19
620.673	213.19
620.88	208.19
621.087	202.19
621.294	204.19
621.501	207.19
621.708	197.19
621.915	201.19
622.122	216.19
622.329	193.19
622.536	204.19
622.743	191.19
622.95	204.19
623.157	191.19
623.364	180.19
623.571	217.19
623.778	198.19
623.985	180.19
624.192	194.19
624.399	191.19
624.606	193.19
624.812	205.19
625.019	188.19
625.226	182.19
625.433	185.19
625.639	196.19
625.846	198.19
626.053	206.19
626.259	197.19
626.466	186.19
626.673	180.19
626.879	184.19
627.086	181.19
627.293	196.19
627.499	192.19
627.706	183.19
627.912	190.19
628.119	185.19
628.325	190.19
628.532	169.19
628.738	180.19
628.945	177.19
629.151	206.19
629.357	190.19
629.564	178.19
629.77	182.19
629.976	165.19
630.183	186.19
630.389	183.19
630.595	182.19
630.802	178.19
631.008	190.19
631.214	195.19
631.42	187.19
631.627	174.19
631.833	173.19
632.039	170.19
632.245	160.19
632.451	148.19
632.657	186.19
632.863	171.19
633.069	186.19
633.275	172.19
633.481	169.19
633.688	160.19
633.893	168.19
634.099	175.19
634.305	160.19
634.511	184.19
634.717	160.19
634.923	159.19
635.129	156.19
635.335	165.19
635.541	172.19
635.747	160.19
635.952	171.19
636.158	181.19
636.364	167.19
636.57	163.19
636.775	155.19
636.981	167.19
637.187	168.19
637.392	157.19
637.598	149.19
637.804	165.19
638.009	157.19
638.215	166.19
638.421	156.19
638.626	166.19
638.832	156.19
639.037	176.19
639.243	170.19
639.448	172.19
639.654	154.19
639.859	169.19
640.065	145.19
640.27	169.19
640.475	157.19
640.681	146.19
640.886	160.19
641.091	150.19
641.297	165.19
641.502	154.19
641.707	155.19
641.913	164.19
642.118	148.19
642.323	173.19
642.528	161.19
642.733	167.19
642.939	151.19
643.144	159.19
643.349	154.19
643.554	166.19
643.759	171.19
643.964	145.19
644.169	170.19
644.374	152.19
644.579	148.19
644.784	158.19
644.989	146.19
645.194	149.19
645.399	151.19
645.604	152.19
645.809	143.19
646.014	150.19
646.219	149.19
646.423	142.19
646.628	156.19
646.833	152.19
647.038	146.19
647.243	145.19
647.447	165.19
647.652	158.19
647.857	149.19
648.062	155.19
648.266	165.19
648.471	151.19
648.676	166.19
648.88	164.19
649.085	166.19
649.289	169.19
649.494	157.19
649.698	172.19
649.903	161.19
650.107	161.19
650.312	166.19
650.516	144.19
650.721	146.19
650.925	145.19
651.13	146.19
651.334	149.19
651.539	148.19
651.743	148.19
651.947	137.19
652.152	144.19
652.356	129.19
652.56	131.19
652.764	130.19
652.969	136.19
653.173	141.19
653.377	144.19
653.581	125.19
653.785	130.19
653.99	124.19
654.194	134.19
654.398	125.19
654.602	120.19
654.806	127.19
655.01	134.19
655.214	134.19
655.418	143.19
655.622	142.19
655.826	141.19
656.03	129.19
656.234	143.19
656.438	144.19
656.642	137.19
656.846	132.19
657.049	134.19
657.253	129.19
657.457	125.19
657.661	129.19
657.865	121.19
658.068	110.19
658.272	108.19
658.476	112.19
658.68	118.19
658.883	101.19
659.087	108.19
659.291	104.19
659.494	88.19
659.698	82.19
659.901	88.19
660.105	97.19
660.309	91.19
660.512	81.19
660.716	97.19
660.919	98.19
661.123	92.19
661.326	73.19
661.53	98.19
661.733	92.19
661.936	93.19
662.14	95.19
662.343	96.19
662.546	107.19
662.75	98.19
662.953	87.19
663.156	86.19
663.36	80.19
663.563	78.19
663.766	80.19
663.969	80.19
664.173	74.19
664.376	93.19
664.579	89.19
664.782	82.19
664.985	85.19
665.188	79.19
665.391	70.19
665.594	90.19
665.797	94.19
666	88.19
666.203	95.19
666.406	81.19
666.609	76.19
666.812	92.19
667.015	89.19
667.218	81.19
667.421	87.19
667.624	95.19
667.827	94.19
668.03	88.19
668.232	78.19
668.435	101.19
668.638	98.19
668.841	75.19
669.043	75.19
669.246	85.19
669.449	80.19
669.651	87.19
669.854	82.19
670.057	71.19
670.259	66.19
670.462	91.19
670.665	91.19
670.867	80.19
671.07	73.19
671.272	85.19
671.475	86.19
671.677	83.19
671.88	77.19
672.082	85.19
672.284	85.19
672.487	91.19
672.689	92.19
672.892	83.19
