Data from 1977.PennyLincolnUp.Lamp.En5.5.200Scan.071719.P1_HRD10591_16-05-03-863.txt Node
Date: Thu Jul 18 16:05:03 EDT 2019
User: cochatt
Spectrometer: HR+D1059
Trigger mode: 1
Integration Time (sec): 1.000000E-1
Scans to average: 1
Electric dark correction enabled: true
Nonlinearity correction enabled: false
Boxcar width: 0
XAxis mode: Wavelengths
Number of Pixels in Spectrum: 2048
>>>>>Begin Spectral Data<<<<<
223.165	-21.5
223.4	-21.5
223.635	-21.5
223.869	-26.5
224.104	-15.5
224.338	-2.5
224.573	-20.5
224.808	-14.5
225.042	-11.5
225.277	-2.5
225.511	-6.5
225.746	3.5
225.98	10.5
226.215	17.5
226.449	16.5
226.683	14.5
226.918	22.5
227.152	36.5
227.387	40.5
227.621	29.5
227.856	59.5
228.09	35.5
228.324	58.5
228.559	60.5
228.793	75.5
229.027	83.5
229.262	96.5
229.496	108.5
229.73	113.5
229.964	112.5
230.199	124.5
230.433	98.5
230.667	117.5
230.901	101.5
231.136	99.5
231.37	108.5
231.604	108.5
231.838	114.5
232.072	116.5
232.306	109.5
232.541	116.5
232.775	108.5
233.009	100.5
233.243	101.5
233.477	115.5
233.711	109.5
233.945	107.5
234.179	120.5
234.413	107.5
234.647	114.5
234.881	120.5
235.115	108.5
235.349	122.5
235.583	116.5
235.817	129.5
236.051	123.5
236.285	125.5
236.519	125.5
236.753	114.5
236.987	132.5
237.221	142.5
237.455	169.5
237.689	138.5
237.922	134.5
238.156	125.5
238.39	107.5
238.624	114.5
238.858	113.5
239.091	123.5
239.325	124.5
239.559	136.5
239.793	129.5
240.027	132.5
240.26	132.5
240.494	117.5
240.728	128.5
240.961	130.5
241.195	140.5
241.429	132.5
241.662	128.5
241.896	124.5
242.13	127.5
242.363	131.5
242.597	125.5
242.83	128.5
243.064	134.5
243.298	154.5
243.531	139.5
243.765	128.5
243.998	129.5
244.232	123.5
244.465	130.5
244.699	136.5
244.932	150.5
245.166	137.5
245.399	126.5
245.633	146.5
245.866	153.5
246.099	134.5
246.333	139.5
246.566	156.5
246.8	150.5
247.033	152.5
247.266	140.5
247.5	143.5
247.733	157.5
247.966	163.5
248.2	155.5
248.433	159.5
248.666	155.5
248.899	175.5
249.133	166.5
249.366	173.5
249.599	147.5
249.832	157.5
250.066	164.5
250.299	165.5
250.532	178.5
250.765	184.5
250.998	184.5
251.231	195.5
251.465	193.5
251.698	175.5
251.931	175.5
252.164	190.5
252.397	174.5
252.63	172.5
252.863	199.5
253.096	194.5
253.329	203.5
253.562	181.5
253.795	182.5
254.028	197.5
254.261	181.5
254.494	186.5
254.727	206.5
254.96	218.5
255.193	224.5
255.426	216.5
255.659	207.5
255.892	213.5
256.124	200.5
256.357	199.5
256.59	204.5
256.823	178.5
257.056	211.5
257.289	188.5
257.521	191.5
257.754	191.5
257.987	189.5
258.22	180.5
258.452	183.5
258.685	178.5
258.918	177.5
259.151	196.5
259.383	196.5
259.616	205.5
259.849	187.5
260.081	218.5
260.314	212.5
260.547	233.5
260.779	221.5
261.012	220.5
261.244	202.5
261.477	209.5
261.71	203.5
261.942	203.5
262.175	203.5
262.407	212.5
262.64	192.5
262.872	199.5
263.105	194.5
263.337	193.5
263.57	209.5
263.802	193.5
264.035	186.5
264.267	209.5
264.499	213.5
264.732	197.5
264.964	201.5
265.197	201.5
265.429	186.5
265.661	203.5
265.894	206.5
266.126	220.5
266.358	208.5
266.591	201.5
266.823	196.5
267.055	223.5
267.287	212.5
267.52	222.5
267.752	213.5
267.984	217.5
268.216	233.5
268.448	226.5
268.681	214.5
268.913	226.5
269.145	228.5
269.377	238.5
269.609	254.5
269.841	257.5
270.073	239.5
270.306	260.5
270.538	260.5
270.77	250.5
271.002	261.5
271.234	264.5
271.466	273.5
271.698	276.5
271.93	285.5
272.162	261.5
272.394	273.5
272.626	248.5
272.858	281.5
273.09	272.5
273.322	262.5
273.553	244.5
273.785	236.5
274.017	241.5
274.249	238.5
274.481	255.5
274.713	242.5
274.945	250.5
275.176	241.5
275.408	271.5
275.64	256.5
275.872	261.5
276.104	261.5
276.335	260.5
276.567	260.5
276.799	255.5
277.031	273.5
277.262	266.5
277.494	280.5
277.726	275.5
277.957	277.5
278.189	244.5
278.421	251.5
278.652	264.5
278.884	264.5
279.115	265.5
279.347	261.5
279.579	256.5
279.81	270.5
280.042	256.5
280.273	251.5
280.505	279.5
280.736	264.5
280.968	256.5
281.199	261.5
281.431	256.5
281.662	274.5
281.894	245.5
282.125	266.5
282.356	273.5
282.588	283.5
282.819	273.5
283.051	269.5
283.282	265.5
283.513	293.5
283.745	284.5
283.976	279.5
284.207	280.5
284.439	269.5
284.67	280.5
284.901	272.5
285.132	289.5
285.364	285.5
285.595	273.5
285.826	287.5
286.057	279.5
286.288	281.5
286.52	285.5
286.751	269.5
286.982	268.5
287.213	277.5
287.444	279.5
287.675	282.5
287.906	305.5
288.138	291.5
288.369	293.5
288.6	286.5
288.831	293.5
289.062	281.5
289.293	288.5
289.524	280.5
289.755	293.5
289.986	272.5
290.217	280.5
290.448	303.5
290.679	271.5
290.91	282.5
291.141	286.5
291.371	296.5
291.602	284.5
291.833	284.5
292.064	290.5
292.295	281.5
292.526	300.5
292.757	269.5
292.987	289.5
293.218	275.5
293.449	293.5
293.68	286.5
293.91	277.5
294.141	287.5
294.372	290.5
294.603	293.5
294.833	297.5
295.064	291.5
295.295	300.5
295.525	286.5
295.756	301.5
295.987	294.5
296.217	297.5
296.448	311.5
296.679	314.5
296.909	297.5
297.14	279.5
297.37	297.5
297.601	296.5
297.831	309.5
298.062	300.5
298.292	309.5
298.523	293.5
298.753	299.5
298.984	282.5
299.214	300.5
299.445	302.5
299.675	306.5
299.905	303.5
300.136	312.5
300.366	312.5
300.597	318.5
300.827	306.5
301.057	315.5
301.288	311.5
301.518	321.5
301.748	322.5
301.979	319.5
302.209	320.5
302.439	321.5
302.669	320.5
302.9	325.5
303.13	302.5
303.36	327.5
303.59	338.5
303.82	349.5
304.051	331.5
304.281	315.5
304.511	310.5
304.741	305.5
304.971	319.5
305.201	328.5
305.431	324.5
305.661	326.5
305.891	328.5
306.121	325.5
306.352	322.5
306.582	336.5
306.812	335.5
307.042	319.5
307.272	321.5
307.502	309.5
307.731	321.5
307.961	334.5
308.191	318.5
308.421	328.5
308.651	332.5
308.881	322.5
309.111	337.5
309.341	318.5
309.571	337.5
309.8	337.5
310.03	344.5
310.26	341.5
310.49	350.5
310.72	356.5
310.949	340.5
311.179	347.5
311.409	342.5
311.639	336.5
311.868	349.5
312.098	350.5
312.328	338.5
312.557	355.5
312.787	350.5
313.017	350.5
313.246	366.5
313.476	369.5
313.706	362.5
313.935	351.5
314.165	357.5
314.394	354.5
314.624	359.5
314.853	351.5
315.083	364.5
315.312	368.5
315.542	347.5
315.771	356.5
316.001	329.5
316.23	335.5
316.46	351.5
316.689	357.5
316.919	342.5
317.148	359.5
317.377	350.5
317.607	349.5
317.836	362.5
318.065	357.5
318.295	380.5
318.524	339.5
318.753	349.5
318.983	363.5
319.212	363.5
319.441	361.5
319.67	353.5
319.9	372.5
320.129	372.5
320.358	374.5
320.587	366.5
320.816	343.5
321.046	360.5
321.275	371.5
321.504	362.5
321.733	349.5
321.962	363.5
322.191	383.5
322.42	365.5
322.649	395.5
322.878	387.5
323.108	409.5
323.337	411.5
323.566	406.5
323.795	416.5
324.024	454.5
324.253	514.5
324.482	645.5
324.71	929.5
324.939	1258.5
325.168	1047.5
325.397	600.5
325.626	461.5
325.855	426.5
326.084	409.5
326.313	419.5
326.542	397.5
326.77	433.5
326.999	492.5
327.228	605.5
327.457	812.5
327.686	914.5
327.914	650.5
328.143	471.5
328.372	452.5
328.6	450.5
328.829	431.5
329.058	434.5
329.287	439.5
329.515	421.5
329.744	412.5
329.972	419.5
330.201	421.5
330.43	445.5
330.658	436.5
330.887	460.5
331.115	440.5
331.344	429.5
331.572	434.5
331.801	417.5
332.03	422.5
332.258	396.5
332.486	411.5
332.715	397.5
332.943	405.5
333.172	415.5
333.4	440.5
333.629	454.5
333.857	449.5
334.085	438.5
334.314	434.5
334.542	468.5
334.771	448.5
334.999	425.5
335.227	444.5
335.455	430.5
335.684	427.5
335.912	428.5
336.14	417.5
336.369	413.5
336.597	442.5
336.825	408.5
337.053	424.5
337.281	410.5
337.51	425.5
337.738	420.5
337.966	400.5
338.194	383.5
338.422	428.5
338.65	424.5
338.878	414.5
339.106	396.5
339.334	427.5
339.562	408.5
339.79	418.5
340.018	414.5
340.246	400.5
340.474	409.5
340.702	396.5
340.93	406.5
341.158	392.5
341.386	389.5
341.614	392.5
341.842	380.5
342.07	384.5
342.298	398.5
342.526	394.5
342.754	397.5
342.981	372.5
343.209	375.5
343.437	399.5
343.665	411.5
343.893	427.5
344.12	430.5
344.348	420.5
344.576	424.5
344.804	415.5
345.031	430.5
345.259	401.5
345.487	385.5
345.714	398.5
345.942	404.5
346.17	382.5
346.397	387.5
346.625	372.5
346.853	385.5
347.08	387.5
347.308	393.5
347.535	377.5
347.763	359.5
347.99	373.5
348.218	395.5
348.445	378.5
348.673	372.5
348.9	374.5
349.128	378.5
349.355	364.5
349.583	376.5
349.81	365.5
350.037	357.5
350.265	365.5
350.492	375.5
350.72	380.5
350.947	356.5
351.174	378.5
351.402	376.5
351.629	379.5
351.856	384.5
352.083	385.5
352.311	391.5
352.538	372.5
352.765	385.5
352.992	375.5
353.22	367.5
353.447	378.5
353.674	382.5
353.901	385.5
354.128	357.5
354.355	361.5
354.583	351.5
354.81	354.5
355.037	367.5
355.264	360.5
355.491	359.5
355.718	350.5
355.945	353.5
356.172	372.5
356.399	359.5
356.626	336.5
356.853	350.5
357.08	353.5
357.307	360.5
357.534	367.5
357.761	361.5
357.988	357.5
358.215	372.5
358.441	358.5
358.668	352.5
358.895	374.5
359.122	342.5
359.349	372.5
359.576	365.5
359.802	361.5
360.029	394.5
360.256	386.5
360.483	382.5
360.709	364.5
360.936	354.5
361.163	365.5
361.39	392.5
361.616	367.5
361.843	384.5
362.07	352.5
362.296	369.5
362.523	367.5
362.749	385.5
362.976	356.5
363.203	380.5
363.429	353.5
363.656	345.5
363.882	368.5
364.109	358.5
364.335	373.5
364.562	356.5
364.788	376.5
365.015	357.5
365.241	362.5
365.468	359.5
365.694	359.5
365.92	369.5
366.147	364.5
366.373	372.5
366.599	370.5
366.826	363.5
367.052	336.5
367.278	367.5
367.505	368.5
367.731	346.5
367.957	343.5
368.184	358.5
368.41	379.5
368.636	350.5
368.862	380.5
369.089	372.5
369.315	352.5
369.541	367.5
369.767	372.5
369.993	374.5
370.219	357.5
370.445	365.5
370.672	356.5
370.898	356.5
371.124	389.5
371.35	378.5
371.576	362.5
371.802	356.5
372.028	356.5
372.254	365.5
372.48	366.5
372.706	352.5
372.932	375.5
373.158	385.5
373.384	371.5
373.61	362.5
373.835	374.5
374.061	374.5
374.287	376.5
374.513	365.5
374.739	365.5
374.965	387.5
375.191	364.5
375.416	388.5
375.642	360.5
375.868	364.5
376.094	357.5
376.319	364.5
376.545	362.5
376.771	391.5
376.997	364.5
377.222	354.5
377.448	350.5
377.674	366.5
377.899	357.5
378.125	348.5
378.35	350.5
378.576	344.5
378.802	360.5
379.027	362.5
379.253	348.5
379.478	374.5
379.704	368.5
379.929	369.5
380.155	379.5
380.38	370.5
380.606	368.5
380.831	358.5
381.057	366.5
381.282	364.5
381.507	375.5
381.733	356.5
381.958	361.5
382.184	360.5
382.409	389.5
382.634	381.5
382.86	385.5
383.085	391.5
383.31	362.5
383.535	365.5
383.761	380.5
383.986	379.5
384.211	376.5
384.436	392.5
384.662	389.5
384.887	401.5
385.112	411.5
385.337	426.5
385.562	406.5
385.787	388.5
386.013	398.5
386.238	400.5
386.463	404.5
386.688	417.5
386.913	392.5
387.138	411.5
387.363	396.5
387.588	408.5
387.813	399.5
388.038	402.5
388.263	403.5
388.488	408.5
388.713	410.5
388.938	382.5
389.163	393.5
389.387	418.5
389.612	388.5
389.837	402.5
390.062	381.5
390.287	392.5
390.512	385.5
390.736	409.5
390.961	409.5
391.186	394.5
391.411	417.5
391.636	419.5
391.86	411.5
392.085	429.5
392.31	419.5
392.534	435.5
392.759	412.5
392.984	400.5
393.208	420.5
393.433	403.5
393.658	429.5
393.882	391.5
394.107	390.5
394.331	392.5
394.556	402.5
394.78	396.5
395.005	416.5
395.229	416.5
395.454	440.5
395.678	429.5
395.903	406.5
396.127	428.5
396.352	413.5
396.576	407.5
396.801	398.5
397.025	419.5
397.249	410.5
397.474	434.5
397.698	424.5
397.922	459.5
398.147	432.5
398.371	459.5
398.595	427.5
398.82	455.5
399.044	455.5
399.268	479.5
399.492	522.5
399.717	524.5
399.941	564.5
400.165	561.5
400.389	552.5
400.613	508.5
400.837	479.5
401.062	481.5
401.286	480.5
401.51	463.5
401.734	446.5
401.958	476.5
402.182	449.5
402.406	458.5
402.63	447.5
402.854	471.5
403.078	472.5
403.302	475.5
403.526	474.5
403.75	474.5
403.974	447.5
404.198	465.5
404.422	462.5
404.645	471.5
404.869	483.5
405.093	488.5
405.317	510.5
405.541	538.5
405.765	496.5
405.988	484.5
406.212	469.5
406.436	494.5
406.66	497.5
406.883	503.5
407.107	510.5
407.331	545.5
407.555	596.5
407.778	577.5
408.002	580.5
408.226	491.5
408.449	509.5
408.673	497.5
408.896	511.5
409.12	529.5
409.344	533.5
409.567	474.5
409.791	477.5
410.014	455.5
410.238	461.5
410.461	449.5
410.685	430.5
410.908	479.5
411.132	480.5
411.355	512.5
411.578	482.5
411.802	478.5
412.025	465.5
412.249	463.5
412.472	456.5
412.695	493.5
412.919	473.5
413.142	455.5
413.365	472.5
413.589	468.5
413.812	439.5
414.035	438.5
414.258	434.5
414.482	452.5
414.705	443.5
414.928	432.5
415.151	438.5
415.374	437.5
415.597	428.5
415.821	422.5
416.044	424.5
416.267	444.5
416.49	444.5
416.713	425.5
416.936	424.5
417.159	430.5
417.382	427.5
417.605	437.5
417.828	440.5
418.051	452.5
418.274	458.5
418.497	448.5
418.72	436.5
418.943	427.5
419.166	456.5
419.389	478.5
419.611	455.5
419.834	447.5
420.057	471.5
420.28	446.5
420.503	452.5
420.726	448.5
420.948	434.5
421.171	472.5
421.394	497.5
421.617	464.5
421.839	441.5
422.062	461.5
422.285	460.5
422.507	511.5
422.73	524.5
422.953	546.5
423.175	478.5
423.398	459.5
423.621	462.5
423.843	454.5
424.066	464.5
424.288	475.5
424.511	441.5
424.733	500.5
424.956	548.5
425.178	557.5
425.401	542.5
425.623	561.5
425.846	474.5
426.068	471.5
426.291	449.5
426.513	462.5
426.735	466.5
426.958	486.5
427.18	543.5
427.402	644.5
427.625	691.5
427.847	567.5
428.069	518.5
428.292	464.5
428.514	464.5
428.736	438.5
428.958	436.5
429.181	437.5
429.403	420.5
429.625	422.5
429.847	451.5
430.069	465.5
430.292	509.5
430.514	419.5
430.736	417.5
430.958	409.5
431.18	417.5
431.402	401.5
431.624	393.5
431.846	418.5
432.068	402.5
432.29	428.5
432.512	397.5
432.734	416.5
432.956	430.5
433.178	436.5
433.4	431.5
433.622	415.5
433.844	422.5
434.066	401.5
434.287	400.5
434.509	423.5
434.731	434.5
434.953	438.5
435.175	431.5
435.397	433.5
435.618	440.5
435.84	470.5
436.062	539.5
436.284	581.5
436.505	501.5
436.727	456.5
436.949	446.5
437.17	432.5
437.392	426.5
437.614	428.5
437.835	456.5
438.057	516.5
438.278	542.5
438.5	566.5
438.721	628.5
438.943	618.5
439.165	468.5
439.386	466.5
439.608	443.5
439.829	457.5
440.05	458.5
440.272	481.5
440.493	446.5
440.715	414.5
440.936	431.5
441.158	436.5
441.379	436.5
441.6	427.5
441.822	440.5
442.043	463.5
442.264	510.5
442.486	534.5
442.707	485.5
442.928	440.5
443.149	454.5
443.371	464.5
443.592	501.5
443.813	568.5
444.034	620.5
444.255	496.5
444.476	474.5
444.698	486.5
444.919	472.5
445.14	580.5
445.361	519.5
445.582	486.5
445.803	493.5
446.024	565.5
446.245	577.5
446.466	534.5
446.687	448.5
446.908	436.5
447.129	441.5
447.35	404.5
447.571	403.5
447.792	420.5
448.013	418.5
448.234	409.5
448.455	459.5
448.675	526.5
448.896	589.5
449.117	531.5
449.338	506.5
449.559	576.5
449.779	642.5
450	505.5
450.221	448.5
450.442	411.5
450.662	414.5
450.883	392.5
451.104	411.5
451.324	391.5
451.545	374.5
451.766	385.5
451.986	373.5
452.207	376.5
452.428	372.5
452.648	360.5
452.869	347.5
453.089	381.5
453.31	370.5
453.53	378.5
453.751	367.5
453.971	374.5
454.192	358.5
454.412	368.5
454.633	357.5
454.853	364.5
455.073	362.5
455.294	400.5
455.514	439.5
455.734	402.5
455.955	406.5
456.175	368.5
456.395	357.5
456.616	345.5
456.836	334.5
457.056	361.5
457.276	359.5
457.497	362.5
457.717	369.5
457.937	395.5
458.157	362.5
458.377	367.5
458.598	391.5
458.818	401.5
459.038	421.5
459.258	452.5
459.478	422.5
459.698	380.5
459.918	430.5
460.138	398.5
460.358	390.5
460.578	407.5
460.798	439.5
461.018	423.5
461.238	402.5
461.458	419.5
461.678	427.5
461.898	441.5
462.118	426.5
462.338	440.5
462.558	422.5
462.777	472.5
462.997	464.5
463.217	483.5
463.437	492.5
463.657	465.5
463.876	465.5
464.096	455.5
464.316	446.5
464.536	461.5
464.755	476.5
464.975	473.5
465.195	465.5
465.414	458.5
465.634	436.5
465.854	436.5
466.073	426.5
466.293	400.5
466.512	402.5
466.732	394.5
466.951	401.5
467.171	419.5
467.391	390.5
467.61	393.5
467.829	380.5
468.049	384.5
468.268	392.5
468.488	367.5
468.707	380.5
468.927	390.5
469.146	380.5
469.365	384.5
469.585	381.5
469.804	383.5
470.023	411.5
470.243	386.5
470.462	398.5
470.681	410.5
470.901	384.5
471.12	379.5
471.339	391.5
471.558	402.5
471.777	384.5
471.997	377.5
472.216	388.5
472.435	370.5
472.654	384.5
472.873	375.5
473.092	378.5
473.311	376.5
473.53	395.5
473.749	406.5
473.968	407.5
474.187	457.5
474.406	481.5
474.625	408.5
474.844	382.5
475.063	398.5
475.282	398.5
475.501	408.5
475.72	411.5
475.939	402.5
476.158	398.5
476.377	423.5
476.596	405.5
476.814	403.5
477.033	401.5
477.252	413.5
477.471	410.5
477.69	434.5
477.908	427.5
478.127	429.5
478.346	423.5
478.564	422.5
478.783	460.5
479.002	450.5
479.22	438.5
479.439	453.5
479.658	475.5
479.876	456.5
480.095	464.5
480.313	475.5
480.532	465.5
480.751	471.5
480.969	467.5
481.188	508.5
481.406	475.5
481.624	461.5
481.843	452.5
482.061	463.5
482.28	450.5
482.498	443.5
482.717	458.5
482.935	454.5
483.153	426.5
483.372	440.5
483.59	454.5
483.808	446.5
484.027	443.5
484.245	466.5
484.463	441.5
484.681	458.5
484.9	460.5
485.118	466.5
485.336	470.5
485.554	474.5
485.772	473.5
485.99	465.5
486.209	463.5
486.427	465.5
486.645	456.5
486.863	473.5
487.081	472.5
487.299	476.5
487.517	482.5
487.735	461.5
487.953	476.5
488.171	483.5
488.389	465.5
488.607	464.5
488.825	492.5
489.043	461.5
489.261	454.5
489.479	469.5
489.696	464.5
489.914	480.5
490.132	502.5
490.35	491.5
490.568	486.5
490.786	481.5
491.003	504.5
491.221	494.5
491.439	501.5
491.657	514.5
491.874	521.5
492.092	497.5
492.31	527.5
492.527	499.5
492.745	524.5
492.963	518.5
493.18	540.5
493.398	514.5
493.615	537.5
493.833	518.5
494.05	530.5
494.268	525.5
494.485	537.5
494.703	559.5
494.92	530.5
495.138	520.5
495.355	549.5
495.573	554.5
495.79	555.5
496.008	542.5
496.225	542.5
496.442	535.5
496.66	536.5
496.877	541.5
497.094	566.5
497.312	549.5
497.529	548.5
497.746	576.5
497.963	551.5
498.181	571.5
498.398	622.5
498.615	625.5
498.832	643.5
499.049	660.5
499.267	677.5
499.484	705.5
499.701	765.5
499.918	795.5
500.135	842.5
500.352	879.5
500.569	874.5
500.786	885.5
501.003	856.5
501.22	809.5
501.437	793.5
501.654	781.5
501.871	711.5
502.088	694.5
502.305	712.5
502.522	658.5
502.739	659.5
502.956	608.5
503.172	607.5
503.389	596.5
503.606	591.5
503.823	557.5
504.04	559.5
504.256	560.5
504.473	569.5
504.69	568.5
504.907	549.5
505.123	550.5
505.34	555.5
505.557	546.5
505.773	540.5
505.99	533.5
506.207	510.5
506.423	491.5
506.64	512.5
506.856	512.5
507.073	494.5
507.289	501.5
507.506	492.5
507.722	510.5
507.939	484.5
508.155	488.5
508.372	475.5
508.588	467.5
508.805	446.5
509.021	484.5
509.238	468.5
509.454	476.5
509.67	481.5
509.887	462.5
510.103	478.5
510.319	486.5
510.536	500.5
510.752	650.5
510.968	566.5
511.184	452.5
511.401	462.5
511.617	454.5
511.833	483.5
512.049	458.5
512.265	452.5
512.481	440.5
512.698	455.5
512.914	434.5
513.13	445.5
513.346	432.5
513.562	442.5
513.778	451.5
513.994	455.5
514.21	441.5
514.426	475.5
514.642	462.5
514.858	483.5
515.074	524.5
515.29	534.5
515.506	646.5
515.721	598.5
515.937	502.5
516.153	465.5
516.369	461.5
516.585	471.5
516.801	476.5
517.016	484.5
517.232	472.5
517.448	511.5
517.664	497.5
517.879	492.5
518.095	506.5
518.311	504.5
518.527	491.5
518.742	473.5
518.958	472.5
519.173	466.5
519.389	458.5
519.605	461.5
519.82	453.5
520.036	469.5
520.251	445.5
520.467	458.5
520.682	464.5
520.898	489.5
521.113	491.5
521.329	485.5
521.544	491.5
521.76	554.5
521.975	737.5
522.19	745.5
522.406	534.5
522.621	465.5
522.836	444.5
523.052	442.5
523.267	433.5
523.482	413.5
523.698	419.5
523.913	415.5
524.128	419.5
524.343	416.5
524.559	400.5
524.774	403.5
524.989	405.5
525.204	417.5
525.419	396.5
525.634	418.5
525.849	410.5
526.064	377.5
526.28	391.5
526.495	385.5
526.71	380.5
526.925	376.5
527.14	385.5
527.355	396.5
527.57	386.5
527.785	408.5
527.999	373.5
528.214	388.5
528.429	381.5
528.644	392.5
528.859	385.5
529.074	380.5
529.289	391.5
529.503	426.5
529.718	398.5
529.933	415.5
530.148	401.5
530.363	413.5
530.577	394.5
530.792	392.5
531.007	384.5
531.221	411.5
531.436	357.5
531.651	391.5
531.865	389.5
532.08	392.5
532.295	383.5
532.509	369.5
532.724	369.5
532.938	396.5
533.153	382.5
533.367	389.5
533.582	374.5
533.796	384.5
534.011	370.5
534.225	370.5
534.44	364.5
534.654	380.5
534.868	372.5
535.083	352.5
535.297	355.5
535.511	380.5
535.726	402.5
535.94	392.5
536.154	375.5
536.369	383.5
536.583	355.5
536.797	366.5
537.011	359.5
537.225	370.5
537.44	383.5
537.654	367.5
537.868	366.5
538.082	377.5
538.296	360.5
538.51	360.5
538.724	358.5
538.938	354.5
539.153	370.5
539.367	370.5
539.581	368.5
539.795	373.5
540.009	350.5
540.222	362.5
540.436	370.5
540.65	365.5
540.864	351.5
541.078	358.5
541.292	343.5
541.506	364.5
541.72	368.5
541.934	352.5
542.147	345.5
542.361	332.5
542.575	337.5
542.789	372.5
543.002	369.5
543.216	358.5
543.43	383.5
543.644	359.5
543.857	358.5
544.071	365.5
544.285	350.5
544.498	376.5
544.712	356.5
544.925	356.5
545.139	385.5
545.352	371.5
545.566	384.5
545.779	356.5
545.993	362.5
546.206	359.5
546.42	383.5
546.633	361.5
546.847	353.5
547.06	362.5
547.274	385.5
547.487	350.5
547.7	369.5
547.914	337.5
548.127	351.5
548.34	343.5
548.554	350.5
548.767	364.5
548.98	365.5
549.193	352.5
549.407	363.5
549.62	374.5
549.833	375.5
550.046	347.5
550.259	342.5
550.473	368.5
550.686	362.5
550.899	357.5
551.112	361.5
551.325	339.5
551.538	329.5
551.751	352.5
551.964	364.5
552.177	360.5
552.39	355.5
552.603	366.5
552.816	361.5
553.029	365.5
553.242	367.5
553.455	359.5
553.667	381.5
553.88	376.5
554.093	363.5
554.306	366.5
554.519	346.5
554.732	349.5
554.944	328.5
555.157	364.5
555.37	349.5
555.583	325.5
555.795	343.5
556.008	338.5
556.221	316.5
556.433	324.5
556.646	346.5
556.859	335.5
557.071	310.5
557.284	314.5
557.496	326.5
557.709	318.5
557.921	331.5
558.134	335.5
558.346	325.5
558.559	315.5
558.771	321.5
558.984	299.5
559.196	316.5
559.409	330.5
559.621	316.5
559.833	324.5
560.046	325.5
560.258	325.5
560.47	325.5
560.683	309.5
560.895	299.5
561.107	321.5
561.32	328.5
561.532	332.5
561.744	327.5
561.956	312.5
562.168	310.5
562.381	319.5
562.593	341.5
562.805	334.5
563.017	317.5
563.229	314.5
563.441	324.5
563.653	334.5
563.865	312.5
564.077	317.5
564.289	311.5
564.501	335.5
564.713	343.5
564.925	340.5
565.137	330.5
565.349	357.5
565.561	347.5
565.773	360.5
565.985	375.5
566.197	378.5
566.408	398.5
566.62	400.5
566.832	433.5
567.044	418.5
567.255	421.5
567.467	421.5
567.679	420.5
567.891	445.5
568.102	433.5
568.314	437.5
568.526	400.5
568.737	396.5
568.949	383.5
569.161	367.5
569.372	382.5
569.584	346.5
569.795	326.5
570.007	342.5
570.218	346.5
570.43	340.5
570.641	329.5
570.853	319.5
571.064	319.5
571.276	311.5
571.487	316.5
571.698	301.5
571.91	306.5
572.121	293.5
572.333	279.5
572.544	292.5
572.755	275.5
572.966	284.5
573.178	297.5
573.389	294.5
573.6	302.5
573.811	278.5
574.023	304.5
574.234	286.5
574.445	287.5
574.656	280.5
574.867	289.5
575.078	300.5
575.289	284.5
575.501	272.5
575.712	274.5
575.923	277.5
576.134	252.5
576.345	255.5
576.556	265.5
576.767	273.5
576.978	280.5
577.188	276.5
577.399	286.5
577.61	274.5
577.821	271.5
578.032	284.5
578.243	274.5
578.454	333.5
578.665	293.5
578.875	265.5
579.086	258.5
579.297	260.5
579.508	248.5
579.718	251.5
579.929	249.5
580.14	241.5
580.35	242.5
580.561	242.5
580.772	250.5
580.982	249.5
581.193	257.5
581.403	258.5
581.614	248.5
581.825	247.5
582.035	270.5
582.246	266.5
582.456	260.5
582.667	261.5
582.877	256.5
583.087	249.5
583.298	247.5
583.508	263.5
583.719	261.5
583.929	267.5
584.139	237.5
584.35	244.5
584.56	262.5
584.77	259.5
584.981	254.5
585.191	248.5
585.401	262.5
585.611	249.5
585.821	240.5
586.032	248.5
586.242	249.5
586.452	231.5
586.662	235.5
586.872	247.5
587.082	248.5
587.292	248.5
587.502	244.5
587.713	236.5
587.923	253.5
588.133	251.5
588.343	233.5
588.553	258.5
588.762	256.5
588.972	255.5
589.182	257.5
589.392	262.5
589.602	236.5
589.812	240.5
590.022	239.5
590.232	246.5
590.441	256.5
590.651	253.5
590.861	244.5
591.071	248.5
591.281	238.5
591.49	248.5
591.7	255.5
591.91	244.5
592.119	257.5
592.329	255.5
592.539	283.5
592.748	268.5
592.958	271.5
593.167	281.5
593.377	271.5
593.587	270.5
593.796	263.5
594.006	272.5
594.215	293.5
594.424	254.5
594.634	270.5
594.843	251.5
595.053	268.5
595.262	252.5
595.472	267.5
595.681	250.5
595.89	256.5
596.1	259.5
596.309	255.5
596.518	250.5
596.727	246.5
596.937	251.5
597.146	234.5
597.355	235.5
597.564	205.5
597.774	236.5
597.983	221.5
598.192	220.5
598.401	243.5
598.61	230.5
598.819	237.5
599.028	221.5
599.237	224.5
599.446	228.5
599.655	223.5
599.864	236.5
600.073	217.5
600.282	217.5
600.491	210.5
600.7	222.5
600.909	231.5
601.118	230.5
601.327	225.5
601.536	203.5
601.745	212.5
601.953	213.5
602.162	220.5
602.371	214.5
602.58	214.5
602.789	213.5
602.997	211.5
603.206	225.5
603.415	216.5
603.623	208.5
603.832	234.5
604.041	206.5
604.249	225.5
604.458	202.5
604.666	216.5
604.875	188.5
605.084	214.5
605.292	220.5
605.501	209.5
605.709	206.5
605.918	208.5
606.126	209.5
606.334	204.5
606.543	221.5
606.751	206.5
606.96	196.5
607.168	198.5
607.376	199.5
607.585	221.5
607.793	202.5
608.001	213.5
608.21	214.5
608.418	205.5
608.626	204.5
608.834	215.5
609.043	196.5
609.251	223.5
609.459	207.5
609.667	213.5
609.875	191.5
610.083	188.5
610.291	202.5
610.499	201.5
610.707	194.5
610.916	205.5
611.124	210.5
611.332	192.5
611.54	207.5
611.748	217.5
611.955	201.5
612.163	194.5
612.371	200.5
612.579	208.5
612.787	193.5
612.995	215.5
613.203	202.5
613.411	196.5
613.618	216.5
613.826	196.5
614.034	188.5
614.242	192.5
614.449	204.5
614.657	200.5
614.865	199.5
615.072	189.5
615.28	215.5
615.488	197.5
615.695	177.5
615.903	210.5
616.111	208.5
616.318	200.5
616.526	191.5
616.733	217.5
616.941	203.5
617.148	203.5
617.356	194.5
617.563	204.5
617.771	203.5
617.978	186.5
618.185	195.5
618.393	191.5
618.6	203.5
618.807	208.5
619.015	205.5
619.222	206.5
619.429	200.5
619.637	186.5
619.844	191.5
620.051	190.5
620.258	192.5
620.466	189.5
620.673	193.5
620.88	189.5
621.087	197.5
621.294	182.5
621.501	202.5
621.708	191.5
621.915	195.5
622.122	164.5
622.329	194.5
622.536	210.5
622.743	198.5
622.95	196.5
623.157	187.5
623.364	177.5
623.571	196.5
623.778	183.5
623.985	185.5
624.192	195.5
624.399	183.5
624.606	192.5
624.812	170.5
625.019	168.5
625.226	170.5
625.433	188.5
625.639	170.5
625.846	182.5
626.053	197.5
626.259	203.5
626.466	171.5
626.673	191.5
626.879	182.5
627.086	182.5
627.293	171.5
627.499	193.5
627.706	176.5
627.912	162.5
628.119	171.5
628.325	190.5
628.532	184.5
628.738	185.5
628.945	174.5
629.151	167.5
629.357	196.5
629.564	174.5
629.77	169.5
629.976	169.5
630.183	183.5
630.389	173.5
630.595	175.5
630.802	184.5
631.008	167.5
631.214	177.5
631.42	174.5
631.627	164.5
631.833	171.5
632.039	163.5
632.245	178.5
632.451	186.5
632.657	176.5
632.863	170.5
633.069	159.5
633.275	145.5
633.481	172.5
633.688	152.5
633.893	154.5
634.099	159.5
634.305	169.5
634.511	158.5
634.717	148.5
634.923	169.5
635.129	167.5
635.335	162.5
635.541	170.5
635.747	158.5
635.952	165.5
636.158	162.5
636.364	159.5
636.57	165.5
636.775	160.5
636.981	164.5
637.187	166.5
637.392	154.5
637.598	173.5
637.804	166.5
638.009	157.5
638.215	160.5
638.421	144.5
638.626	156.5
638.832	171.5
639.037	150.5
639.243	155.5
639.448	156.5
639.654	172.5
639.859	150.5
640.065	144.5
640.27	156.5
640.475	154.5
640.681	150.5
640.886	156.5
641.091	159.5
641.297	160.5
641.502	143.5
641.707	153.5
641.913	151.5
642.118	140.5
642.323	152.5
642.528	169.5
642.733	154.5
642.939	169.5
643.144	161.5
643.349	161.5
643.554	154.5
643.759	159.5
643.964	150.5
644.169	141.5
644.374	154.5
644.579	140.5
644.784	156.5
644.989	136.5
645.194	146.5
645.399	156.5
645.604	156.5
645.809	151.5
646.014	144.5
646.219	156.5
646.423	142.5
646.628	158.5
646.833	150.5
647.038	144.5
647.243	160.5
647.447	148.5
647.652	174.5
647.857	153.5
648.062	157.5
648.266	166.5
648.471	169.5
648.676	141.5
648.88	156.5
649.085	157.5
649.289	159.5
649.494	142.5
649.698	170.5
649.903	174.5
650.107	163.5
650.312	137.5
650.516	128.5
650.721	146.5
650.925	133.5
651.13	152.5
651.334	136.5
651.539	136.5
651.743	135.5
651.947	137.5
652.152	137.5
652.356	139.5
652.56	136.5
652.764	124.5
652.969	128.5
653.173	138.5
653.377	126.5
653.581	141.5
653.785	136.5
653.99	138.5
654.194	135.5
654.398	145.5
654.602	129.5
654.806	129.5
655.01	146.5
655.214	133.5
655.418	125.5
655.622	121.5
655.826	128.5
656.03	141.5
656.234	145.5
656.438	128.5
656.642	120.5
656.846	131.5
657.049	142.5
657.253	133.5
657.457	114.5
657.661	129.5
657.865	106.5
658.068	116.5
658.272	119.5
658.476	109.5
658.68	92.5
658.883	96.5
659.087	89.5
659.291	100.5
659.494	102.5
659.698	102.5
659.901	103.5
660.105	102.5
660.309	90.5
660.512	87.5
660.716	101.5
660.919	100.5
661.123	87.5
661.326	89.5
661.53	93.5
661.733	103.5
661.936	97.5
662.14	87.5
662.343	79.5
662.546	95.5
662.75	97.5
662.953	85.5
663.156	92.5
663.36	83.5
663.563	89.5
663.766	83.5
663.969	86.5
664.173	97.5
664.376	96.5
664.579	85.5
664.782	90.5
664.985	88.5
665.188	83.5
665.391	73.5
665.594	101.5
665.797	92.5
666	82.5
666.203	87.5
666.406	85.5
666.609	89.5
666.812	80.5
667.015	91.5
667.218	81.5
667.421	94.5
667.624	76.5
667.827	87.5
668.03	83.5
668.232	82.5
668.435	75.5
668.638	83.5
668.841	86.5
669.043	84.5
669.246	82.5
669.449	86.5
669.651	83.5
669.854	93.5
670.057	90.5
670.259	89.5
670.462	81.5
670.665	84.5
670.867	99.5
671.07	96.5
671.272	90.5
671.475	84.5
671.677	86.5
671.88	83.5
672.082	93.5
672.284	90.5
672.487	76.5
672.689	86.5
672.892	95.5
