Data from 1977.PennyLincolnUp.Lamp.En5.5.200Scan.071719.P1_HRD10591_16-07-59-865.txt Node
Date: Thu Jul 18 16:07:59 EDT 2019
User: cochatt
Spectrometer: HR+D1059
Trigger mode: 1
Integration Time (sec): 1.000000E-1
Scans to average: 1
Electric dark correction enabled: true
Nonlinearity correction enabled: false
Boxcar width: 0
XAxis mode: Wavelengths
Number of Pixels in Spectrum: 2048
>>>>>Begin Spectral Data<<<<<
223.165	-24
223.4	-24
223.635	-24
223.869	-13
224.104	-7
224.338	-18
224.573	-24
224.808	-23
225.042	0
225.277	-18
225.511	-3
225.746	9
225.98	7
226.215	-2
226.449	22
226.683	19
226.918	31
227.152	44
227.387	40
227.621	47
227.856	32
228.09	37
228.324	41
228.559	45
228.793	64
229.027	83
229.262	98
229.496	118
229.73	115
229.964	141
230.199	112
230.433	106
230.667	104
230.901	112
231.136	110
231.37	108
231.604	112
231.838	120
232.072	91
232.306	106
232.541	119
232.775	115
233.009	98
233.243	111
233.477	105
233.711	126
233.945	125
234.179	125
234.413	133
234.647	123
234.881	125
235.115	120
235.349	125
235.583	117
235.817	118
236.051	116
236.285	135
236.519	127
236.753	120
236.987	144
237.221	171
237.455	219
237.689	171
237.922	143
238.156	130
238.39	131
238.624	116
238.858	121
239.091	134
239.325	119
239.559	120
239.793	131
240.027	119
240.26	125
240.494	138
240.728	137
240.961	140
241.195	131
241.429	135
241.662	140
241.896	130
242.13	137
242.363	135
242.597	122
242.83	137
243.064	133
243.298	128
243.531	147
243.765	147
243.998	149
244.232	131
244.465	143
244.699	150
244.932	131
245.166	147
245.399	147
245.633	140
245.866	139
246.099	144
246.333	160
246.566	142
246.8	146
247.033	155
247.266	165
247.5	153
247.733	172
247.966	173
248.2	183
248.433	192
248.666	188
248.899	179
249.133	196
249.366	216
249.599	197
249.832	186
250.066	185
250.299	192
250.532	177
250.765	198
250.998	221
251.231	204
251.465	210
251.698	213
251.931	210
252.164	180
252.397	200
252.63	207
252.863	197
253.096	213
253.329	218
253.562	217
253.795	212
254.028	208
254.261	223
254.494	230
254.727	251
254.96	278
255.193	264
255.426	254
255.659	247
255.892	220
256.124	213
256.357	224
256.59	229
256.823	212
257.056	207
257.289	204
257.521	188
257.754	213
257.987	221
258.22	209
258.452	208
258.685	199
258.918	212
259.151	211
259.383	209
259.616	223
259.849	207
260.081	261
260.314	268
260.547	249
260.779	260
261.012	245
261.244	235
261.477	238
261.71	245
261.942	236
262.175	237
262.407	223
262.64	229
262.872	229
263.105	210
263.337	213
263.57	237
263.802	223
264.035	217
264.267	234
264.499	222
264.732	228
264.964	217
265.197	229
265.429	206
265.661	221
265.894	228
266.126	209
266.358	232
266.591	234
266.823	243
267.055	256
267.287	266
267.52	228
267.752	209
267.984	234
268.216	233
268.448	229
268.681	253
268.913	265
269.145	281
269.377	281
269.609	271
269.841	289
270.073	288
270.306	312
270.538	320
270.77	308
271.002	315
271.234	307
271.466	301
271.698	313
271.93	324
272.162	325
272.394	319
272.626	307
272.858	288
273.09	275
273.322	300
273.553	267
273.785	268
274.017	264
274.249	272
274.481	269
274.713	264
274.945	297
275.176	281
275.408	289
275.64	280
275.872	270
276.104	270
276.335	283
276.567	284
276.799	286
277.031	319
277.262	328
277.494	335
277.726	328
277.957	293
278.189	280
278.421	294
278.652	311
278.884	275
279.115	275
279.347	287
279.579	305
279.81	293
280.042	287
280.273	279
280.505	278
280.736	272
280.968	289
281.199	289
281.431	276
281.662	299
281.894	299
282.125	288
282.356	317
282.588	303
282.819	319
283.051	303
283.282	284
283.513	285
283.745	300
283.976	298
284.207	298
284.439	308
284.67	313
284.901	311
285.132	286
285.364	313
285.595	301
285.826	300
286.057	292
286.288	289
286.52	306
286.751	304
286.982	312
287.213	315
287.444	305
287.675	321
287.906	300
288.138	300
288.369	343
288.6	338
288.831	314
289.062	319
289.293	329
289.524	312
289.755	307
289.986	319
290.217	328
290.448	304
290.679	310
290.91	299
291.141	332
291.371	310
291.602	298
291.833	301
292.064	300
292.295	301
292.526	308
292.757	318
292.987	304
293.218	308
293.449	313
293.68	315
293.91	316
294.141	309
294.372	312
294.603	319
294.833	313
295.064	333
295.295	302
295.525	328
295.756	336
295.987	323
296.217	360
296.448	342
296.679	333
296.909	331
297.14	319
297.37	331
297.601	318
297.831	313
298.062	329
298.292	322
298.523	353
298.753	336
298.984	319
299.214	325
299.445	329
299.675	320
299.905	327
300.136	333
300.366	352
300.597	323
300.827	331
301.057	343
301.288	366
301.518	348
301.748	356
301.979	354
302.209	362
302.439	356
302.669	346
302.9	343
303.13	351
303.36	367
303.59	355
303.82	355
304.051	352
304.281	354
304.511	344
304.741	369
304.971	352
305.201	352
305.431	341
305.661	351
305.891	353
306.121	362
306.352	352
306.582	356
306.812	352
307.042	350
307.272	344
307.502	349
307.731	354
307.961	353
308.191	383
308.421	356
308.651	343
308.881	348
309.111	364
309.341	377
309.571	370
309.8	389
310.03	400
310.26	381
310.49	391
310.72	393
310.949	424
311.179	412
311.409	407
311.639	403
311.868	389
312.098	408
312.328	393
312.557	411
312.787	409
313.017	405
313.246	409
313.476	393
313.706	412
313.935	395
314.165	413
314.394	410
314.624	411
314.853	400
315.083	393
315.312	405
315.542	398
315.771	389
316.001	373
316.23	411
316.46	385
316.689	407
316.919	397
317.148	384
317.377	411
317.607	407
317.836	392
318.065	394
318.295	390
318.524	392
318.753	378
318.983	398
319.212	397
319.441	415
319.67	393
319.9	414
320.129	396
320.358	373
320.587	400
320.816	409
321.046	424
321.275	410
321.504	418
321.733	427
321.962	452
322.191	440
322.42	431
322.649	446
322.878	458
323.108	459
323.337	477
323.566	481
323.795	508
324.024	554
324.253	623
324.482	883
324.71	1323
324.939	1849
325.168	1601
325.397	852
325.626	611
325.855	517
326.084	491
326.313	483
326.542	492
326.77	544
326.999	605
327.228	804
327.457	1195
327.686	1397
327.914	927
328.143	657
328.372	569
328.6	559
328.829	543
329.058	548
329.287	542
329.515	523
329.744	506
329.972	505
330.201	511
330.43	540
330.658	551
330.887	571
331.115	556
331.344	509
331.572	499
331.801	503
332.03	496
332.258	490
332.486	459
332.715	483
332.943	462
333.172	490
333.4	491
333.629	491
333.857	519
334.085	504
334.314	506
334.542	520
334.771	521
334.999	519
335.227	505
335.455	477
335.684	478
335.912	470
336.14	455
336.369	453
336.597	472
336.825	477
337.053	465
337.281	471
337.51	470
337.738	465
337.966	451
338.194	459
338.422	448
338.65	436
338.878	433
339.106	451
339.334	451
339.562	431
339.79	438
340.018	438
340.246	440
340.474	436
340.702	451
340.93	456
341.158	440
341.386	456
341.614	445
341.842	441
342.07	430
342.298	427
342.526	435
342.754	430
342.981	435
343.209	406
343.437	439
343.665	430
343.893	460
344.12	473
344.348	455
344.576	441
344.804	467
345.031	463
345.259	466
345.487	454
345.714	434
345.942	433
346.17	439
346.397	427
346.625	428
346.853	405
347.08	424
347.308	410
347.535	433
347.763	441
347.99	441
348.218	428
348.445	443
348.673	424
348.9	430
349.128	424
349.355	393
349.583	427
349.81	401
350.037	397
350.265	402
350.492	424
350.72	425
350.947	422
351.174	405
351.402	427
351.629	414
351.856	405
352.083	420
352.311	432
352.538	429
352.765	441
352.992	426
353.22	406
353.447	418
353.674	433
353.901	391
354.128	397
354.355	393
354.583	395
354.81	395
355.037	389
355.264	412
355.491	393
355.718	388
355.945	393
356.172	382
356.399	395
356.626	395
356.853	396
357.08	404
357.307	391
357.534	379
357.761	381
357.988	401
358.215	408
358.441	384
358.668	378
358.895	388
359.122	398
359.349	386
359.576	417
359.802	421
360.029	410
360.256	426
360.483	440
360.709	401
360.936	411
361.163	448
361.39	411
361.616	407
361.843	412
362.07	405
362.296	415
362.523	407
362.749	400
362.976	420
363.203	390
363.429	402
363.656	385
363.882	400
364.109	397
364.335	373
364.562	368
364.788	389
365.015	389
365.241	402
365.468	388
365.694	411
365.92	380
366.147	381
366.373	417
366.599	402
366.826	383
367.052	390
367.278	388
367.505	373
367.731	393
367.957	374
368.184	400
368.41	400
368.636	412
368.862	408
369.089	395
369.315	381
369.541	399
369.767	411
369.993	384
370.219	392
370.445	383
370.672	385
370.898	395
371.124	399
371.35	411
371.576	383
371.802	394
372.028	397
372.254	392
372.48	388
372.706	408
372.932	413
373.158	393
373.384	385
373.61	389
373.835	402
374.061	418
374.287	408
374.513	381
374.739	400
374.965	382
375.191	400
375.416	407
375.642	403
375.868	396
376.094	402
376.319	396
376.545	393
376.771	389
376.997	388
377.222	410
377.448	397
377.674	387
377.899	400
378.125	391
378.35	389
378.576	368
378.802	392
379.027	375
379.253	391
379.478	399
379.704	384
379.929	399
380.155	375
380.38	383
380.606	412
380.831	390
381.057	405
381.282	405
381.507	390
381.733	414
381.958	416
382.184	396
382.409	405
382.634	383
382.86	397
383.085	407
383.31	398
383.535	391
383.761	396
383.986	411
384.211	427
384.436	407
384.662	415
384.887	398
385.112	420
385.337	417
385.562	407
385.787	400
386.013	428
386.238	415
386.463	438
386.688	419
386.913	441
387.138	442
387.363	419
387.588	405
387.813	435
388.038	423
388.263	417
388.488	422
388.713	432
388.938	420
389.163	441
389.387	435
389.612	432
389.837	409
390.062	431
390.287	436
390.512	433
390.736	450
390.961	431
391.186	431
391.411	431
391.636	441
391.86	430
392.085	447
392.31	446
392.534	445
392.759	424
392.984	440
393.208	425
393.433	431
393.658	438
393.882	439
394.107	436
394.331	432
394.556	445
394.78	421
395.005	439
395.229	434
395.454	444
395.678	459
395.903	461
396.127	475
396.352	465
396.576	444
396.801	438
397.025	440
397.249	487
397.474	461
397.698	453
397.922	446
398.147	480
398.371	488
398.595	472
398.82	479
399.044	480
399.268	516
399.492	563
399.717	573
399.941	605
400.165	631
400.389	610
400.613	555
400.837	511
401.062	490
401.286	486
401.51	486
401.734	477
401.958	507
402.182	474
402.406	501
402.63	489
402.854	489
403.078	501
403.302	489
403.526	503
403.75	501
403.974	499
404.198	507
404.422	532
404.645	522
404.869	530
405.093	533
405.317	560
405.541	600
405.765	553
405.988	531
406.212	545
406.436	532
406.66	544
406.883	541
407.107	549
407.331	602
407.555	655
407.778	623
408.002	589
408.226	565
408.449	554
408.673	549
408.896	552
409.12	616
409.344	569
409.567	528
409.791	496
410.014	507
410.238	484
410.461	482
410.685	504
410.908	522
411.132	547
411.355	574
411.578	554
411.802	510
412.025	505
412.249	539
412.472	523
412.695	549
412.919	558
413.142	511
413.365	483
413.589	479
413.812	465
414.035	480
414.258	473
414.482	469
414.705	470
414.928	471
415.151	472
415.374	469
415.597	466
415.821	456
416.044	459
416.267	448
416.49	460
416.713	454
416.936	455
417.159	471
417.382	452
417.605	476
417.828	492
418.051	473
418.274	504
418.497	460
418.72	451
418.943	466
419.166	488
419.389	504
419.611	499
419.834	463
420.057	502
420.28	509
420.503	465
420.726	482
420.948	494
421.171	550
421.394	556
421.617	533
421.839	487
422.062	463
422.285	495
422.507	539
422.73	624
422.953	608
423.175	512
423.398	511
423.621	505
423.843	553
424.066	511
424.288	525
424.511	527
424.733	577
424.956	649
425.178	605
425.401	620
425.623	637
425.846	529
426.068	504
426.291	494
426.513	493
426.735	508
426.958	551
427.18	604
427.402	704
427.625	819
427.847	692
428.069	581
428.292	555
428.514	523
428.736	476
428.958	464
429.181	462
429.403	463
429.625	482
429.847	505
430.069	579
430.292	565
430.514	492
430.736	463
430.958	455
431.18	459
431.402	443
431.624	439
431.846	446
432.068	447
432.29	452
432.512	453
432.734	454
432.956	455
433.178	459
433.4	444
433.622	464
433.844	454
434.066	444
434.287	463
434.509	453
434.731	449
434.953	475
435.175	475
435.397	494
435.618	517
435.84	535
436.062	613
436.284	691
436.505	577
436.727	517
436.949	473
437.17	463
437.392	480
437.614	479
437.835	525
438.057	586
438.278	663
438.5	685
438.721	712
438.943	719
439.165	568
439.386	533
439.608	516
439.829	506
440.05	547
440.272	574
440.493	517
440.715	516
440.936	483
441.158	473
441.379	464
441.6	474
441.822	501
442.043	548
442.264	631
442.486	621
442.707	543
442.928	524
443.149	509
443.371	520
443.592	560
443.813	660
444.034	709
444.255	597
444.476	529
444.698	534
444.919	504
445.14	652
445.361	576
445.582	555
445.803	595
446.024	662
446.245	690
446.466	622
446.687	527
446.908	504
447.129	483
447.35	465
447.571	450
447.792	461
448.013	481
448.234	448
448.455	511
448.675	622
448.896	719
449.117	611
449.338	551
449.559	670
449.779	777
450	608
450.221	506
450.442	465
450.662	445
450.883	454
451.104	459
451.324	442
451.545	438
451.766	430
451.986	429
452.207	415
452.428	409
452.648	419
452.869	421
453.089	413
453.31	435
453.53	396
453.751	417
453.971	431
454.192	421
454.412	402
454.633	415
454.853	385
455.073	401
455.294	417
455.514	482
455.734	456
455.955	417
456.175	411
456.395	406
456.616	399
456.836	403
457.056	384
457.276	373
457.497	391
457.717	390
457.937	404
458.157	404
458.377	406
458.598	408
458.818	466
459.038	529
459.258	557
459.478	466
459.698	457
459.918	444
460.138	458
460.358	462
460.578	490
460.798	465
461.018	453
461.238	462
461.458	449
461.678	462
461.898	477
462.118	457
462.338	476
462.558	453
462.777	487
462.997	503
463.217	506
463.437	503
463.657	507
463.876	483
464.096	526
464.316	468
464.536	494
464.755	494
464.975	485
465.195	504
465.414	524
465.634	483
465.854	459
466.073	436
466.293	424
466.512	419
466.732	426
466.951	442
467.171	405
467.391	427
467.61	416
467.829	437
468.049	433
468.268	420
468.488	417
468.707	403
468.927	431
469.146	406
469.365	411
469.585	419
469.804	420
470.023	432
470.243	423
470.462	431
470.681	442
470.901	467
471.12	441
471.339	424
471.558	428
471.777	438
471.997	439
472.216	427
472.435	443
472.654	425
472.873	421
473.092	413
473.311	428
473.53	413
473.749	436
473.968	474
474.187	549
474.406	579
474.625	480
474.844	433
475.063	438
475.282	408
475.501	429
475.72	421
475.939	454
476.158	435
476.377	437
476.596	428
476.814	452
477.033	422
477.252	444
477.471	443
477.69	460
477.908	465
478.127	487
478.346	458
478.564	470
478.783	475
479.002	472
479.22	476
479.439	503
479.658	489
479.876	521
480.095	525
480.313	552
480.532	535
480.751	511
480.969	529
481.188	568
481.406	566
481.624	541
481.843	528
482.061	535
482.28	491
482.498	469
482.717	489
482.935	486
483.153	481
483.372	502
483.59	485
483.808	493
484.027	504
484.245	523
484.463	499
484.681	505
484.9	509
485.118	487
485.336	490
485.554	496
485.772	505
485.99	498
486.209	526
486.427	513
486.645	545
486.863	532
487.081	496
487.299	501
487.517	526
487.735	534
487.953	530
488.171	528
488.389	528
488.607	526
488.825	524
489.043	526
489.261	509
489.479	525
489.696	538
489.914	507
490.132	538
490.35	565
490.568	554
490.786	532
491.003	552
491.221	568
491.439	573
491.657	585
491.874	568
492.092	563
492.31	588
492.527	597
492.745	587
492.963	572
493.18	581
493.398	611
493.615	598
493.833	597
494.05	600
494.268	601
494.485	616
494.703	592
494.92	596
495.138	602
495.355	595
495.573	591
495.79	613
496.008	616
496.225	589
496.442	609
496.66	601
496.877	603
497.094	629
497.312	642
497.529	638
497.746	632
497.963	669
498.181	666
498.398	679
498.615	695
498.832	721
499.049	729
499.267	751
499.484	790
499.701	825
499.918	854
500.135	868
500.352	930
500.569	949
500.786	972
501.003	935
501.22	894
501.437	853
501.654	827
501.871	810
502.088	764
502.305	747
502.522	727
502.739	684
502.956	669
503.172	693
503.389	654
503.606	656
503.823	647
504.04	640
504.256	649
504.473	631
504.69	635
504.907	627
505.123	633
505.34	618
505.557	636
505.773	600
505.99	592
506.207	589
506.423	590
506.64	595
506.856	563
507.073	569
507.289	539
507.506	574
507.722	566
507.939	564
508.155	549
508.372	535
508.588	538
508.805	541
509.021	548
509.238	549
509.454	561
509.67	564
509.887	533
510.103	559
510.319	541
510.536	599
510.752	876
510.968	724
511.184	563
511.401	521
511.617	509
511.833	520
512.049	529
512.265	541
512.481	508
512.698	520
512.914	503
513.13	491
513.346	515
513.562	515
513.778	526
513.994	520
514.21	533
514.426	521
514.642	538
514.858	563
515.074	574
515.29	655
515.506	853
515.721	767
515.937	571
516.153	544
516.369	542
516.585	538
516.801	534
517.016	534
517.232	565
517.448	544
517.664	542
517.879	545
518.095	538
518.311	568
518.527	541
518.742	545
518.958	537
519.173	529
519.389	518
519.605	530
519.82	533
520.036	524
520.251	545
520.467	557
520.682	551
520.898	549
521.113	535
521.329	592
521.544	612
521.76	743
521.975	1073
522.19	1035
522.406	659
522.621	517
522.836	507
523.052	511
523.267	476
523.482	463
523.698	471
523.913	465
524.128	459
524.343	479
524.559	438
524.774	449
524.989	436
525.204	478
525.419	450
525.634	443
525.849	455
526.064	432
526.28	435
526.495	427
526.71	419
526.925	438
527.14	425
527.355	433
527.57	431
527.785	430
527.999	421
528.214	421
528.429	439
528.644	430
528.859	416
529.074	433
529.289	444
529.503	459
529.718	456
529.933	432
530.148	413
530.363	433
530.577	435
530.792	407
531.007	413
531.221	404
531.436	409
531.651	414
531.865	423
532.08	402
532.295	407
532.509	414
532.724	397
532.938	412
533.153	419
533.367	435
533.582	419
533.796	406
534.011	432
534.225	409
534.44	394
534.654	392
534.868	405
535.083	402
535.297	391
535.511	412
535.726	409
535.94	410
536.154	387
536.369	391
536.583	386
536.797	388
537.011	375
537.225	395
537.44	376
537.654	382
537.868	405
538.082	385
538.296	410
538.51	385
538.724	400
538.938	381
539.153	384
539.367	407
539.581	385
539.795	375
540.009	408
540.222	388
540.436	393
540.65	385
540.864	386
541.078	415
541.292	390
541.506	404
541.72	400
541.934	376
542.147	383
542.361	383
542.575	373
542.789	379
543.002	393
543.216	397
543.43	392
543.644	388
543.857	390
544.071	421
544.285	403
544.498	390
544.712	382
544.925	373
545.139	394
545.352	377
545.566	398
545.779	391
545.993	400
546.206	401
546.42	381
546.633	396
546.847	384
547.06	374
547.274	374
547.487	361
547.7	383
547.914	377
548.127	367
548.34	354
548.554	374
548.767	394
548.98	378
549.193	381
549.407	369
549.62	383
549.833	376
550.046	383
550.259	391
550.473	393
550.686	362
550.899	371
551.112	393
551.325	379
551.538	360
551.751	363
551.964	355
552.177	387
552.39	382
552.603	382
552.816	390
553.029	387
553.242	389
553.455	394
553.667	383
553.88	389
554.093	394
554.306	394
554.519	374
554.732	376
554.944	378
555.157	362
555.37	374
555.583	367
555.795	352
556.008	343
556.221	341
556.433	348
556.646	348
556.859	356
557.071	339
557.284	345
557.496	334
557.709	350
557.921	329
558.134	330
558.346	326
558.559	359
558.771	341
558.984	351
559.196	333
559.409	336
559.621	362
559.833	324
560.046	339
560.258	313
560.47	345
560.683	333
560.895	345
561.107	328
561.32	315
561.532	340
561.744	325
561.956	338
562.168	336
562.381	343
562.593	345
562.805	332
563.017	331
563.229	333
563.441	339
563.653	335
563.865	341
564.077	324
564.289	331
564.501	372
564.713	336
564.925	357
565.137	376
565.349	352
565.561	371
565.773	378
565.985	386
566.197	371
566.408	399
566.62	412
566.832	412
567.044	440
567.255	432
567.467	460
567.679	447
567.891	453
568.102	452
568.314	455
568.526	435
568.737	396
568.949	407
569.161	373
569.372	385
569.584	381
569.795	365
570.007	366
570.218	376
570.43	357
570.641	343
570.853	352
571.064	337
571.276	340
571.487	327
571.698	333
571.91	327
572.121	315
572.333	310
572.544	307
572.755	299
572.966	320
573.178	317
573.389	312
573.6	304
573.811	303
574.023	303
574.234	298
574.445	304
574.656	299
574.867	292
575.078	294
575.289	281
575.501	288
575.712	296
575.923	297
576.134	290
576.345	300
576.556	301
576.767	287
576.978	281
577.188	261
577.399	265
577.61	281
577.821	286
578.032	288
578.243	311
578.454	392
578.665	333
578.875	273
579.086	287
579.297	269
579.508	276
579.718	279
579.929	279
580.14	286
580.35	279
580.561	258
580.772	285
580.982	263
581.193	285
581.403	267
581.614	277
581.825	253
582.035	269
582.246	248
582.456	266
582.667	263
582.877	279
583.087	283
583.298	263
583.508	262
583.719	254
583.929	263
584.139	272
584.35	267
584.56	264
584.77	262
584.981	257
585.191	265
585.401	264
585.611	252
585.821	264
586.032	263
586.242	275
586.452	253
586.662	271
586.872	242
587.082	240
587.292	241
587.502	259
587.713	251
587.923	264
588.133	266
588.343	251
588.553	258
588.762	270
588.972	256
589.182	266
589.392	260
589.602	253
589.812	267
590.022	278
590.232	265
590.441	283
590.651	268
590.861	251
591.071	270
591.281	251
591.49	257
591.7	255
591.91	269
592.119	255
592.329	262
592.539	272
592.748	287
592.958	274
593.167	271
593.377	296
593.587	282
593.796	287
594.006	285
594.215	295
594.424	271
594.634	266
594.843	280
595.053	277
595.262	278
595.472	260
595.681	261
595.89	268
596.1	246
596.309	246
596.518	237
596.727	238
596.937	253
597.146	236
597.355	234
597.564	244
597.774	244
597.983	227
598.192	225
598.401	249
598.61	223
598.819	237
599.028	230
599.237	245
599.446	226
599.655	221
599.864	229
600.073	232
600.282	227
600.491	223
600.7	219
600.909	227
601.118	240
601.327	220
601.536	223
601.745	224
601.953	214
602.162	211
602.371	238
602.58	236
602.789	202
602.997	225
603.206	230
603.415	229
603.623	219
603.832	217
604.041	218
604.249	208
604.458	212
604.666	221
604.875	208
605.084	204
605.292	220
605.501	210
605.709	214
605.918	233
606.126	208
606.334	189
606.543	220
606.751	230
606.96	222
607.168	214
607.376	220
607.585	208
607.793	224
608.001	211
608.21	232
608.418	213
608.626	207
608.834	194
609.043	209
609.251	226
609.459	206
609.667	215
609.875	212
610.083	209
610.291	204
610.499	217
610.707	206
610.916	205
611.124	221
611.332	216
611.54	222
611.748	213
611.955	224
612.163	191
612.371	210
612.579	204
612.787	206
612.995	205
613.203	206
613.411	205
613.618	218
613.826	211
614.034	207
614.242	206
614.449	202
614.657	212
614.865	218
615.072	215
615.28	212
615.488	192
615.695	181
615.903	205
616.111	204
616.318	202
616.526	201
616.733	193
616.941	206
617.148	209
617.356	208
617.563	205
617.771	218
617.978	209
618.185	183
618.393	192
618.6	204
618.807	198
619.015	200
619.222	193
619.429	202
619.637	191
619.844	208
620.051	204
620.258	204
620.466	184
620.673	185
620.88	188
621.087	201
621.294	213
621.501	184
621.708	181
621.915	200
622.122	201
622.329	200
622.536	200
622.743	187
622.95	186
623.157	186
623.364	203
623.571	185
623.778	191
623.985	198
624.192	193
624.399	187
624.606	177
624.812	173
625.019	186
625.226	183
625.433	181
625.639	183
625.846	170
626.053	174
626.259	178
626.466	193
626.673	173
626.879	176
627.086	179
627.293	191
627.499	175
627.706	181
627.912	187
628.119	186
628.325	200
628.532	183
628.738	181
628.945	179
629.151	191
629.357	179
629.564	169
629.77	177
629.976	154
630.183	164
630.389	173
630.595	179
630.802	167
631.008	158
631.214	155
631.42	172
631.627	168
631.833	174
632.039	177
632.245	189
632.451	159
632.657	173
632.863	173
633.069	168
633.275	176
633.481	183
633.688	149
633.893	176
634.099	174
634.305	166
634.511	169
634.717	160
634.923	152
635.129	159
635.335	157
635.541	153
635.747	165
635.952	171
636.158	158
636.364	176
636.57	162
636.775	168
636.981	164
637.187	157
637.392	164
637.598	150
637.804	171
638.009	170
638.215	161
638.421	160
638.626	164
638.832	168
639.037	145
639.243	153
639.448	148
639.654	146
639.859	149
640.065	162
640.27	151
640.475	164
640.681	158
640.886	164
641.091	169
641.297	172
641.502	172
641.707	169
641.913	156
642.118	149
642.323	161
642.528	154
642.733	171
642.939	154
643.144	163
643.349	150
643.554	149
643.759	141
643.964	165
644.169	142
644.374	138
644.579	140
644.784	150
644.989	155
645.194	150
645.399	139
645.604	157
645.809	166
646.014	156
646.219	151
646.423	142
646.628	146
646.833	142
647.038	150
647.243	164
647.447	155
647.652	166
647.857	150
648.062	167
648.266	175
648.471	169
648.676	159
648.88	159
649.085	174
649.289	150
649.494	165
649.698	173
649.903	171
650.107	158
650.312	156
650.516	156
650.721	166
650.925	151
651.13	129
651.334	151
651.539	145
651.743	140
651.947	140
652.152	127
652.356	138
652.56	145
652.764	142
652.969	136
653.173	138
653.377	129
653.581	132
653.785	132
653.99	132
654.194	135
654.398	131
654.602	135
654.806	138
655.01	124
655.214	121
655.418	142
655.622	143
655.826	122
656.03	136
656.234	138
656.438	131
656.642	116
656.846	129
657.049	126
657.253	116
657.457	103
657.661	116
657.865	126
658.068	105
658.272	113
658.476	119
658.68	100
658.883	100
659.087	112
659.291	102
659.494	113
659.698	95
659.901	89
660.105	104
660.309	91
660.512	93
660.716	99
660.919	97
661.123	94
661.326	89
661.53	105
661.733	90
661.936	86
662.14	85
662.343	89
662.546	86
662.75	93
662.953	88
663.156	91
663.36	82
663.563	93
663.766	93
663.969	79
664.173	80
664.376	85
664.579	92
664.782	84
664.985	86
665.188	87
665.391	99
665.594	85
665.797	88
666	87
666.203	84
666.406	77
666.609	78
666.812	89
667.015	101
667.218	80
667.421	79
667.624	79
667.827	88
668.03	79
668.232	94
668.435	89
668.638	86
668.841	80
669.043	87
669.246	77
669.449	73
669.651	72
669.854	83
670.057	77
670.259	84
670.462	91
670.665	93
670.867	102
671.07	96
671.272	77
671.475	94
671.677	90
671.88	84
672.082	103
672.284	85
672.487	100
672.689	104
672.892	96
