Data from 1977.PennyLincolnUp.Lamp.En5.5.200Scan.071719.P1_HRD10591_16-05-07-864.txt Node
Date: Thu Jul 18 16:05:07 EDT 2019
User: cochatt
Spectrometer: HR+D1059
Trigger mode: 1
Integration Time (sec): 1.000000E-1
Scans to average: 1
Electric dark correction enabled: true
Nonlinearity correction enabled: false
Boxcar width: 0
XAxis mode: Wavelengths
Number of Pixels in Spectrum: 2048
>>>>>Begin Spectral Data<<<<<
223.165	-9.75
223.4	-9.75
223.635	-9.75
223.869	-18.75
224.104	-23.75
224.338	-13.75
224.573	-26.75
224.808	-15.75
225.042	-9.75
225.277	-5.75
225.511	-0.75
225.746	12.25
225.98	-4.75
226.215	6.25
226.449	26.25
226.683	18.25
226.918	26.25
227.152	40.25
227.387	33.25
227.621	38.25
227.856	42.25
228.09	43.25
228.324	39.25
228.559	57.25
228.793	75.25
229.027	82.25
229.262	96.25
229.496	83.25
229.73	110.25
229.964	122.25
230.199	111.25
230.433	84.25
230.667	89.25
230.901	105.25
231.136	102.25
231.37	101.25
231.604	103.25
231.838	89.25
232.072	99.25
232.306	102.25
232.541	100.25
232.775	99.25
233.009	106.25
233.243	96.25
233.477	114.25
233.711	105.25
233.945	109.25
234.179	101.25
234.413	105.25
234.647	116.25
234.881	96.25
235.115	116.25
235.349	114.25
235.583	93.25
235.817	105.25
236.051	111.25
236.285	121.25
236.519	106.25
236.753	119.25
236.987	115.25
237.221	140.25
237.455	170.25
237.689	150.25
237.922	126.25
238.156	132.25
238.39	118.25
238.624	114.25
238.858	121.25
239.091	96.25
239.325	120.25
239.559	108.25
239.793	121.25
240.027	115.25
240.26	126.25
240.494	123.25
240.728	130.25
240.961	139.25
241.195	120.25
241.429	125.25
241.662	130.25
241.896	132.25
242.13	128.25
242.363	119.25
242.597	119.25
242.83	130.25
243.064	125.25
243.298	118.25
243.531	131.25
243.765	115.25
243.998	125.25
244.232	111.25
244.465	132.25
244.699	149.25
244.932	137.25
245.166	141.25
245.399	130.25
245.633	143.25
245.866	138.25
246.099	141.25
246.333	147.25
246.566	119.25
246.8	135.25
247.033	145.25
247.266	130.25
247.5	151.25
247.733	135.25
247.966	137.25
248.2	145.25
248.433	148.25
248.666	161.25
248.899	180.25
249.133	174.25
249.366	151.25
249.599	174.25
249.832	174.25
250.066	185.25
250.299	164.25
250.532	158.25
250.765	174.25
250.998	179.25
251.231	182.25
251.465	185.25
251.698	160.25
251.931	163.25
252.164	177.25
252.397	159.25
252.63	170.25
252.863	193.25
253.096	194.25
253.329	201.25
253.562	206.25
253.795	202.25
254.028	185.25
254.261	211.25
254.494	180.25
254.727	228.25
254.96	220.25
255.193	195.25
255.426	181.25
255.659	186.25
255.892	205.25
256.124	183.25
256.357	178.25
256.59	185.25
256.823	193.25
257.056	193.25
257.289	183.25
257.521	187.25
257.754	178.25
257.987	187.25
258.22	190.25
258.452	195.25
258.685	191.25
258.918	191.25
259.151	185.25
259.383	216.25
259.616	205.25
259.849	200.25
260.081	192.25
260.314	218.25
260.547	239.25
260.779	219.25
261.012	205.25
261.244	187.25
261.477	190.25
261.71	200.25
261.942	211.25
262.175	204.25
262.407	204.25
262.64	196.25
262.872	198.25
263.105	198.25
263.337	205.25
263.57	210.25
263.802	217.25
264.035	192.25
264.267	203.25
264.499	204.25
264.732	208.25
264.964	201.25
265.197	207.25
265.429	193.25
265.661	200.25
265.894	199.25
266.126	214.25
266.358	212.25
266.591	211.25
266.823	195.25
267.055	209.25
267.287	232.25
267.52	220.25
267.752	205.25
267.984	233.25
268.216	211.25
268.448	224.25
268.681	210.25
268.913	230.25
269.145	250.25
269.377	240.25
269.609	239.25
269.841	250.25
270.073	230.25
270.306	252.25
270.538	247.25
270.77	267.25
271.002	275.25
271.234	245.25
271.466	256.25
271.698	279.25
271.93	262.25
272.162	278.25
272.394	263.25
272.626	270.25
272.858	256.25
273.09	260.25
273.322	255.25
273.553	225.25
273.785	254.25
274.017	238.25
274.249	243.25
274.481	266.25
274.713	228.25
274.945	240.25
275.176	256.25
275.408	242.25
275.64	237.25
275.872	238.25
276.104	237.25
276.335	266.25
276.567	262.25
276.799	259.25
277.031	266.25
277.262	272.25
277.494	292.25
277.726	267.25
277.957	245.25
278.189	256.25
278.421	258.25
278.652	266.25
278.884	251.25
279.115	242.25
279.347	254.25
279.579	266.25
279.81	250.25
280.042	250.25
280.273	252.25
280.505	251.25
280.736	269.25
280.968	266.25
281.199	262.25
281.431	257.25
281.662	262.25
281.894	271.25
282.125	270.25
282.356	264.25
282.588	282.25
282.819	284.25
283.051	268.25
283.282	262.25
283.513	263.25
283.745	268.25
283.976	245.25
284.207	258.25
284.439	282.25
284.67	275.25
284.901	276.25
285.132	271.25
285.364	252.25
285.595	272.25
285.826	270.25
286.057	275.25
286.288	276.25
286.52	290.25
286.751	270.25
286.982	298.25
287.213	284.25
287.444	276.25
287.675	278.25
287.906	291.25
288.138	289.25
288.369	280.25
288.6	284.25
288.831	281.25
289.062	272.25
289.293	272.25
289.524	281.25
289.755	295.25
289.986	290.25
290.217	289.25
290.448	280.25
290.679	284.25
290.91	282.25
291.141	286.25
291.371	280.25
291.602	295.25
291.833	275.25
292.064	293.25
292.295	284.25
292.526	273.25
292.757	278.25
292.987	290.25
293.218	268.25
293.449	290.25
293.68	282.25
293.91	285.25
294.141	294.25
294.372	284.25
294.603	284.25
294.833	271.25
295.064	275.25
295.295	292.25
295.525	288.25
295.756	289.25
295.987	284.25
296.217	290.25
296.448	317.25
296.679	308.25
296.909	277.25
297.14	298.25
297.37	300.25
297.601	311.25
297.831	286.25
298.062	308.25
298.292	290.25
298.523	288.25
298.753	288.25
298.984	320.25
299.214	314.25
299.445	310.25
299.675	303.25
299.905	281.25
300.136	296.25
300.366	309.25
300.597	302.25
300.827	318.25
301.057	315.25
301.288	307.25
301.518	304.25
301.748	307.25
301.979	307.25
302.209	320.25
302.439	317.25
302.669	314.25
302.9	299.25
303.13	329.25
303.36	335.25
303.59	336.25
303.82	319.25
304.051	326.25
304.281	326.25
304.511	328.25
304.741	335.25
304.971	314.25
305.201	317.25
305.431	325.25
305.661	322.25
305.891	324.25
306.121	316.25
306.352	323.25
306.582	342.25
306.812	305.25
307.042	318.25
307.272	315.25
307.502	320.25
307.731	333.25
307.961	321.25
308.191	318.25
308.421	326.25
308.651	323.25
308.881	320.25
309.111	331.25
309.341	331.25
309.571	350.25
309.8	358.25
310.03	335.25
310.26	344.25
310.49	341.25
310.72	344.25
310.949	351.25
311.179	334.25
311.409	348.25
311.639	367.25
311.868	350.25
312.098	338.25
312.328	354.25
312.557	375.25
312.787	366.25
313.017	376.25
313.246	368.25
313.476	353.25
313.706	334.25
313.935	360.25
314.165	363.25
314.394	371.25
314.624	383.25
314.853	357.25
315.083	375.25
315.312	370.25
315.542	348.25
315.771	362.25
316.001	354.25
316.23	350.25
316.46	342.25
316.689	343.25
316.919	355.25
317.148	355.25
317.377	362.25
317.607	351.25
317.836	361.25
318.065	369.25
318.295	348.25
318.524	378.25
318.753	362.25
318.983	343.25
319.212	342.25
319.441	374.25
319.67	367.25
319.9	363.25
320.129	378.25
320.358	358.25
320.587	352.25
320.816	367.25
321.046	362.25
321.275	363.25
321.504	366.25
321.733	354.25
321.962	373.25
322.191	380.25
322.42	399.25
322.649	375.25
322.878	384.25
323.108	386.25
323.337	416.25
323.566	399.25
323.795	409.25
324.024	441.25
324.253	525.25
324.482	648.25
324.71	942.25
324.939	1266.25
325.168	1087.25
325.397	630.25
325.626	478.25
325.855	420.25
326.084	411.25
326.313	417.25
326.542	421.25
326.77	442.25
326.999	502.25
327.228	638.25
327.457	856.25
327.686	950.25
327.914	680.25
328.143	486.25
328.372	471.25
328.6	448.25
328.829	424.25
329.058	452.25
329.287	427.25
329.515	421.25
329.744	411.25
329.972	435.25
330.201	428.25
330.43	443.25
330.658	462.25
330.887	446.25
331.115	453.25
331.344	438.25
331.572	418.25
331.801	438.25
332.03	432.25
332.258	412.25
332.486	436.25
332.715	432.25
332.943	413.25
333.172	422.25
333.4	426.25
333.629	461.25
333.857	454.25
334.085	434.25
334.314	424.25
334.542	440.25
334.771	481.25
334.999	448.25
335.227	427.25
335.455	432.25
335.684	425.25
335.912	440.25
336.14	440.25
336.369	434.25
336.597	420.25
336.825	408.25
337.053	430.25
337.281	414.25
337.51	427.25
337.738	426.25
337.966	419.25
338.194	423.25
338.422	387.25
338.65	408.25
338.878	396.25
339.106	409.25
339.334	408.25
339.562	404.25
339.79	388.25
340.018	390.25
340.246	390.25
340.474	393.25
340.702	397.25
340.93	392.25
341.158	397.25
341.386	397.25
341.614	390.25
341.842	402.25
342.07	380.25
342.298	366.25
342.526	395.25
342.754	401.25
342.981	405.25
343.209	400.25
343.437	407.25
343.665	406.25
343.893	417.25
344.12	427.25
344.348	415.25
344.576	422.25
344.804	408.25
345.031	418.25
345.259	408.25
345.487	394.25
345.714	388.25
345.942	392.25
346.17	400.25
346.397	382.25
346.625	395.25
346.853	392.25
347.08	376.25
347.308	374.25
347.535	402.25
347.763	388.25
347.99	376.25
348.218	403.25
348.445	385.25
348.673	367.25
348.9	386.25
349.128	395.25
349.355	378.25
349.583	374.25
349.81	385.25
350.037	368.25
350.265	366.25
350.492	382.25
350.72	370.25
350.947	380.25
351.174	387.25
351.402	355.25
351.629	368.25
351.856	382.25
352.083	380.25
352.311	393.25
352.538	368.25
352.765	393.25
352.992	346.25
353.22	364.25
353.447	377.25
353.674	378.25
353.901	364.25
354.128	372.25
354.355	354.25
354.583	372.25
354.81	362.25
355.037	354.25
355.264	352.25
355.491	344.25
355.718	355.25
355.945	361.25
356.172	355.25
356.399	348.25
356.626	369.25
356.853	347.25
357.08	348.25
357.307	357.25
357.534	368.25
357.761	368.25
357.988	372.25
358.215	355.25
358.441	364.25
358.668	356.25
358.895	356.25
359.122	396.25
359.349	366.25
359.576	360.25
359.802	371.25
360.029	372.25
360.256	402.25
360.483	381.25
360.709	368.25
360.936	362.25
361.163	359.25
361.39	369.25
361.616	353.25
361.843	356.25
362.07	358.25
362.296	370.25
362.523	373.25
362.749	357.25
362.976	356.25
363.203	351.25
363.429	348.25
363.656	350.25
363.882	354.25
364.109	368.25
364.335	356.25
364.562	368.25
364.788	354.25
365.015	359.25
365.241	366.25
365.468	366.25
365.694	378.25
365.92	350.25
366.147	342.25
366.373	358.25
366.599	341.25
366.826	342.25
367.052	376.25
367.278	352.25
367.505	359.25
367.731	359.25
367.957	345.25
368.184	363.25
368.41	347.25
368.636	372.25
368.862	370.25
369.089	374.25
369.315	359.25
369.541	368.25
369.767	371.25
369.993	367.25
370.219	353.25
370.445	370.25
370.672	369.25
370.898	351.25
371.124	368.25
371.35	368.25
371.576	372.25
371.802	342.25
372.028	358.25
372.254	353.25
372.48	350.25
372.706	364.25
372.932	352.25
373.158	364.25
373.384	377.25
373.61	373.25
373.835	373.25
374.061	378.25
374.287	350.25
374.513	336.25
374.739	395.25
374.965	368.25
375.191	372.25
375.416	372.25
375.642	384.25
375.868	385.25
376.094	364.25
376.319	380.25
376.545	372.25
376.771	373.25
376.997	352.25
377.222	345.25
377.448	362.25
377.674	360.25
377.899	363.25
378.125	374.25
378.35	344.25
378.576	350.25
378.802	351.25
379.027	342.25
379.253	359.25
379.478	352.25
379.704	330.25
379.929	366.25
380.155	377.25
380.38	372.25
380.606	358.25
380.831	364.25
381.057	369.25
381.282	381.25
381.507	376.25
381.733	353.25
381.958	358.25
382.184	374.25
382.409	346.25
382.634	374.25
382.86	372.25
383.085	371.25
383.31	371.25
383.535	387.25
383.761	386.25
383.986	383.25
384.211	386.25
384.436	379.25
384.662	396.25
384.887	368.25
385.112	388.25
385.337	419.25
385.562	400.25
385.787	397.25
386.013	404.25
386.238	408.25
386.463	403.25
386.688	400.25
386.913	409.25
387.138	399.25
387.363	399.25
387.588	391.25
387.813	400.25
388.038	392.25
388.263	420.25
388.488	400.25
388.713	391.25
388.938	401.25
389.163	404.25
389.387	390.25
389.612	400.25
389.837	386.25
390.062	379.25
390.287	394.25
390.512	390.25
390.736	372.25
390.961	394.25
391.186	397.25
391.411	403.25
391.636	401.25
391.86	418.25
392.085	430.25
392.31	416.25
392.534	400.25
392.759	389.25
392.984	404.25
393.208	420.25
393.433	400.25
393.658	408.25
393.882	388.25
394.107	388.25
394.331	413.25
394.556	405.25
394.78	422.25
395.005	389.25
395.229	410.25
395.454	417.25
395.678	421.25
395.903	421.25
396.127	414.25
396.352	426.25
396.576	433.25
396.801	430.25
397.025	427.25
397.249	419.25
397.474	423.25
397.698	437.25
397.922	423.25
398.147	462.25
398.371	442.25
398.595	451.25
398.82	431.25
399.044	474.25
399.268	466.25
399.492	498.25
399.717	530.25
399.941	561.25
400.165	555.25
400.389	574.25
400.613	542.25
400.837	505.25
401.062	490.25
401.286	451.25
401.51	439.25
401.734	444.25
401.958	443.25
402.182	459.25
402.406	448.25
402.63	451.25
402.854	452.25
403.078	434.25
403.302	447.25
403.526	464.25
403.75	466.25
403.974	463.25
404.198	462.25
404.422	457.25
404.645	463.25
404.869	499.25
405.093	484.25
405.317	507.25
405.541	544.25
405.765	525.25
405.988	483.25
406.212	488.25
406.436	494.25
406.66	519.25
406.883	490.25
407.107	522.25
407.331	538.25
407.555	577.25
407.778	583.25
408.002	551.25
408.226	523.25
408.449	507.25
408.673	488.25
408.896	506.25
409.12	528.25
409.344	511.25
409.567	464.25
409.791	462.25
410.014	458.25
410.238	461.25
410.461	448.25
410.685	450.25
410.908	482.25
411.132	483.25
411.355	512.25
411.578	475.25
411.802	456.25
412.025	471.25
412.249	488.25
412.472	483.25
412.695	488.25
412.919	461.25
413.142	442.25
413.365	442.25
413.589	460.25
413.812	440.25
414.035	447.25
414.258	453.25
414.482	435.25
414.705	424.25
414.928	449.25
415.151	423.25
415.374	434.25
415.597	427.25
415.821	418.25
416.044	432.25
416.267	446.25
416.49	419.25
416.713	419.25
416.936	449.25
417.159	423.25
417.382	429.25
417.605	426.25
417.828	450.25
418.051	445.25
418.274	427.25
418.497	417.25
418.72	407.25
418.943	427.25
419.166	451.25
419.389	473.25
419.611	469.25
419.834	460.25
420.057	465.25
420.28	429.25
420.503	435.25
420.726	442.25
420.948	437.25
421.171	461.25
421.394	500.25
421.617	434.25
421.839	443.25
422.062	428.25
422.285	457.25
422.507	491.25
422.73	546.25
422.953	520.25
423.175	444.25
423.398	464.25
423.621	455.25
423.843	454.25
424.066	484.25
424.288	463.25
424.511	448.25
424.733	510.25
424.956	569.25
425.178	529.25
425.401	546.25
425.623	566.25
425.846	464.25
426.068	446.25
426.291	447.25
426.513	455.25
426.735	453.25
426.958	496.25
427.18	534.25
427.402	636.25
427.625	699.25
427.847	586.25
428.069	508.25
428.292	472.25
428.514	428.25
428.736	431.25
428.958	420.25
429.181	436.25
429.403	423.25
429.625	430.25
429.847	459.25
430.069	476.25
430.292	474.25
430.514	418.25
430.736	430.25
430.958	411.25
431.18	417.25
431.402	405.25
431.624	420.25
431.846	430.25
432.068	419.25
432.29	414.25
432.512	402.25
432.734	406.25
432.956	386.25
433.178	406.25
433.4	394.25
433.622	424.25
433.844	412.25
434.066	412.25
434.287	418.25
434.509	420.25
434.731	430.25
434.953	418.25
435.175	438.25
435.397	470.25
435.618	460.25
435.84	470.25
436.062	521.25
436.284	611.25
436.505	474.25
436.727	427.25
436.949	421.25
437.17	427.25
437.392	423.25
437.614	423.25
437.835	442.25
438.057	503.25
438.278	578.25
438.5	570.25
438.721	637.25
438.943	621.25
439.165	466.25
439.386	471.25
439.608	446.25
439.829	460.25
440.05	450.25
440.272	482.25
440.493	454.25
440.715	439.25
440.936	434.25
441.158	417.25
441.379	428.25
441.6	454.25
441.822	453.25
442.043	470.25
442.264	537.25
442.486	560.25
442.707	504.25
442.928	460.25
443.149	460.25
443.371	478.25
443.592	498.25
443.813	576.25
444.034	616.25
444.255	527.25
444.476	481.25
444.698	467.25
444.919	473.25
445.14	566.25
445.361	499.25
445.582	483.25
445.803	502.25
446.024	587.25
446.245	567.25
446.466	517.25
446.687	487.25
446.908	427.25
447.129	412.25
447.35	418.25
447.571	395.25
447.792	403.25
448.013	393.25
448.234	443.25
448.455	464.25
448.675	534.25
448.896	611.25
449.117	544.25
449.338	497.25
449.559	568.25
449.779	647.25
450	510.25
450.221	434.25
450.442	396.25
450.662	390.25
450.883	391.25
451.104	392.25
451.324	378.25
451.545	364.25
451.766	361.25
451.986	384.25
452.207	374.25
452.428	369.25
452.648	383.25
452.869	374.25
453.089	378.25
453.31	399.25
453.53	381.25
453.751	363.25
453.971	386.25
454.192	376.25
454.412	380.25
454.633	367.25
454.853	379.25
455.073	368.25
455.294	383.25
455.514	408.25
455.734	426.25
455.955	378.25
456.175	370.25
456.395	337.25
456.616	332.25
456.836	343.25
457.056	347.25
457.276	365.25
457.497	363.25
457.717	346.25
457.937	381.25
458.157	366.25
458.377	357.25
458.598	384.25
458.818	421.25
459.038	457.25
459.258	471.25
459.478	445.25
459.698	388.25
459.918	398.25
460.138	411.25
460.358	417.25
460.578	414.25
460.798	434.25
461.018	422.25
461.238	397.25
461.458	414.25
461.678	414.25
461.898	431.25
462.118	432.25
462.338	428.25
462.558	432.25
462.777	440.25
462.997	448.25
463.217	482.25
463.437	486.25
463.657	466.25
463.876	462.25
464.096	462.25
464.316	450.25
464.536	473.25
464.755	489.25
464.975	467.25
465.195	458.25
465.414	459.25
465.634	435.25
465.854	409.25
466.073	406.25
466.293	404.25
466.512	377.25
466.732	376.25
466.951	403.25
467.171	384.25
467.391	386.25
467.61	380.25
467.829	382.25
468.049	397.25
468.268	384.25
468.488	371.25
468.707	370.25
468.927	379.25
469.146	381.25
469.365	377.25
469.585	381.25
469.804	391.25
470.023	407.25
470.243	386.25
470.462	391.25
470.681	402.25
470.901	415.25
471.12	379.25
471.339	380.25
471.558	402.25
471.777	390.25
471.997	380.25
472.216	396.25
472.435	379.25
472.654	406.25
472.873	378.25
473.092	378.25
473.311	375.25
473.53	384.25
473.749	394.25
473.968	417.25
474.187	489.25
474.406	493.25
474.625	406.25
474.844	400.25
475.063	379.25
475.282	372.25
475.501	371.25
475.72	394.25
475.939	378.25
476.158	388.25
476.377	400.25
476.596	386.25
476.814	406.25
477.033	395.25
477.252	416.25
477.471	423.25
477.69	438.25
477.908	412.25
478.127	417.25
478.346	419.25
478.564	421.25
478.783	431.25
479.002	449.25
479.22	456.25
479.439	456.25
479.658	460.25
479.876	458.25
480.095	480.25
480.313	478.25
480.532	459.25
480.751	472.25
480.969	468.25
481.188	492.25
481.406	507.25
481.624	467.25
481.843	476.25
482.061	427.25
482.28	454.25
482.498	456.25
482.717	459.25
482.935	441.25
483.153	426.25
483.372	459.25
483.59	451.25
483.808	451.25
484.027	477.25
484.245	435.25
484.463	445.25
484.681	465.25
484.9	467.25
485.118	453.25
485.336	448.25
485.554	440.25
485.772	461.25
485.99	458.25
486.209	477.25
486.427	461.25
486.645	465.25
486.863	482.25
487.081	467.25
487.299	475.25
487.517	466.25
487.735	472.25
487.953	462.25
488.171	491.25
488.389	460.25
488.607	473.25
488.825	471.25
489.043	469.25
489.261	455.25
489.479	467.25
489.696	476.25
489.914	458.25
490.132	467.25
490.35	479.25
490.568	478.25
490.786	498.25
491.003	485.25
491.221	501.25
491.439	496.25
491.657	514.25
491.874	517.25
492.092	506.25
492.31	506.25
492.527	506.25
492.745	530.25
492.963	546.25
493.18	533.25
493.398	526.25
493.615	536.25
493.833	528.25
494.05	548.25
494.268	549.25
494.485	539.25
494.703	531.25
494.92	538.25
495.138	534.25
495.355	538.25
495.573	532.25
495.79	545.25
496.008	554.25
496.225	538.25
496.442	550.25
496.66	559.25
496.877	554.25
497.094	572.25
497.312	554.25
497.529	558.25
497.746	580.25
497.963	617.25
498.181	615.25
498.398	640.25
498.615	594.25
498.832	648.25
499.049	681.25
499.267	694.25
499.484	709.25
499.701	767.25
499.918	774.25
500.135	827.25
500.352	857.25
500.569	877.25
500.786	889.25
501.003	859.25
501.22	845.25
501.437	784.25
501.654	767.25
501.871	739.25
502.088	720.25
502.305	656.25
502.522	662.25
502.739	640.25
502.956	633.25
503.172	588.25
503.389	596.25
503.606	578.25
503.823	563.25
504.04	568.25
504.256	581.25
504.473	554.25
504.69	569.25
504.907	580.25
505.123	546.25
505.34	516.25
505.557	530.25
505.773	521.25
505.99	530.25
506.207	538.25
506.423	514.25
506.64	500.25
506.856	506.25
507.073	508.25
507.289	506.25
507.506	488.25
507.722	483.25
507.939	494.25
508.155	499.25
508.372	486.25
508.588	486.25
508.805	475.25
509.021	480.25
509.238	484.25
509.454	483.25
509.67	475.25
509.887	473.25
510.103	487.25
510.319	500.25
510.536	506.25
510.752	657.25
510.968	570.25
511.184	476.25
511.401	451.25
511.617	469.25
511.833	447.25
512.049	461.25
512.265	450.25
512.481	441.25
512.698	436.25
512.914	454.25
513.13	451.25
513.346	457.25
513.562	447.25
513.778	447.25
513.994	468.25
514.21	460.25
514.426	468.25
514.642	483.25
514.858	511.25
515.074	483.25
515.29	527.25
515.506	668.25
515.721	594.25
515.937	482.25
516.153	483.25
516.369	460.25
516.585	485.25
516.801	475.25
517.016	478.25
517.232	493.25
517.448	516.25
517.664	500.25
517.879	497.25
518.095	499.25
518.311	491.25
518.527	494.25
518.742	476.25
518.958	497.25
519.173	475.25
519.389	466.25
519.605	450.25
519.82	477.25
520.036	460.25
520.251	453.25
520.467	477.25
520.682	483.25
520.898	470.25
521.113	466.25
521.329	494.25
521.544	497.25
521.76	588.25
521.975	744.25
522.19	734.25
522.406	521.25
522.621	475.25
522.836	446.25
523.052	438.25
523.267	425.25
523.482	409.25
523.698	393.25
523.913	422.25
524.128	414.25
524.343	422.25
524.559	392.25
524.774	402.25
524.989	393.25
525.204	408.25
525.419	421.25
525.634	384.25
525.849	393.25
526.064	398.25
526.28	393.25
526.495	391.25
526.71	407.25
526.925	396.25
527.14	376.25
527.355	390.25
527.57	397.25
527.785	386.25
527.999	368.25
528.214	402.25
528.429	388.25
528.644	387.25
528.859	371.25
529.074	386.25
529.289	410.25
529.503	415.25
529.718	405.25
529.933	400.25
530.148	386.25
530.363	410.25
530.577	382.25
530.792	392.25
531.007	370.25
531.221	373.25
531.436	381.25
531.651	378.25
531.865	375.25
532.08	379.25
532.295	378.25
532.509	363.25
532.724	353.25
532.938	377.25
533.153	378.25
533.367	389.25
533.582	376.25
533.796	393.25
534.011	389.25
534.225	387.25
534.44	388.25
534.654	364.25
534.868	384.25
535.083	380.25
535.297	357.25
535.511	369.25
535.726	382.25
535.94	341.25
536.154	351.25
536.369	371.25
536.583	375.25
536.797	366.25
537.011	362.25
537.225	355.25
537.44	357.25
537.654	365.25
537.868	370.25
538.082	372.25
538.296	360.25
538.51	354.25
538.724	356.25
538.938	349.25
539.153	356.25
539.367	362.25
539.581	363.25
539.795	370.25
540.009	360.25
540.222	359.25
540.436	344.25
540.65	362.25
540.864	379.25
541.078	361.25
541.292	369.25
541.506	362.25
541.72	354.25
541.934	347.25
542.147	356.25
542.361	340.25
542.575	363.25
542.789	357.25
543.002	350.25
543.216	342.25
543.43	362.25
543.644	361.25
543.857	351.25
544.071	372.25
544.285	387.25
544.498	342.25
544.712	365.25
544.925	370.25
545.139	355.25
545.352	368.25
545.566	348.25
545.779	363.25
545.993	365.25
546.206	356.25
546.42	361.25
546.633	351.25
546.847	360.25
547.06	350.25
547.274	338.25
547.487	350.25
547.7	358.25
547.914	356.25
548.127	347.25
548.34	367.25
548.554	357.25
548.767	374.25
548.98	354.25
549.193	343.25
549.407	362.25
549.62	362.25
549.833	361.25
550.046	344.25
550.259	351.25
550.473	366.25
550.686	350.25
550.899	340.25
551.112	354.25
551.325	360.25
551.538	363.25
551.751	325.25
551.964	349.25
552.177	340.25
552.39	371.25
552.603	350.25
552.816	359.25
553.029	358.25
553.242	345.25
553.455	363.25
553.667	363.25
553.88	360.25
554.093	361.25
554.306	348.25
554.519	329.25
554.732	352.25
554.944	333.25
555.157	355.25
555.37	329.25
555.583	317.25
555.795	348.25
556.008	334.25
556.221	342.25
556.433	323.25
556.646	334.25
556.859	330.25
557.071	314.25
557.284	299.25
557.496	313.25
557.709	316.25
557.921	315.25
558.134	329.25
558.346	321.25
558.559	329.25
558.771	309.25
558.984	303.25
559.196	316.25
559.409	329.25
559.621	312.25
559.833	319.25
560.046	315.25
560.258	319.25
560.47	313.25
560.683	288.25
560.895	288.25
561.107	321.25
561.32	304.25
561.532	323.25
561.744	297.25
561.956	307.25
562.168	325.25
562.381	314.25
562.593	322.25
562.805	311.25
563.017	332.25
563.229	328.25
563.441	311.25
563.653	321.25
563.865	324.25
564.077	311.25
564.289	327.25
564.501	322.25
564.713	342.25
564.925	331.25
565.137	333.25
565.349	339.25
565.561	357.25
565.773	350.25
565.985	356.25
566.197	371.25
566.408	380.25
566.62	385.25
566.832	390.25
567.044	412.25
567.255	415.25
567.467	414.25
567.679	434.25
567.891	434.25
568.102	433.25
568.314	412.25
568.526	417.25
568.737	392.25
568.949	374.25
569.161	370.25
569.372	348.25
569.584	344.25
569.795	343.25
570.007	317.25
570.218	342.25
570.43	350.25
570.641	314.25
570.853	308.25
571.064	323.25
571.276	311.25
571.487	318.25
571.698	302.25
571.91	285.25
572.121	291.25
572.333	307.25
572.544	287.25
572.755	285.25
572.966	290.25
573.178	283.25
573.389	305.25
573.6	287.25
573.811	270.25
574.023	266.25
574.234	280.25
574.445	275.25
574.656	268.25
574.867	275.25
575.078	289.25
575.289	299.25
575.501	268.25
575.712	269.25
575.923	282.25
576.134	265.25
576.345	264.25
576.556	295.25
576.767	283.25
576.978	262.25
577.188	266.25
577.399	260.25
577.61	256.25
577.821	268.25
578.032	266.25
578.243	269.25
578.454	344.25
578.665	292.25
578.875	248.25
579.086	251.25
579.297	256.25
579.508	258.25
579.718	266.25
579.929	251.25
580.14	245.25
580.35	261.25
580.561	260.25
580.772	258.25
580.982	246.25
581.193	268.25
581.403	245.25
581.614	262.25
581.825	240.25
582.035	246.25
582.246	244.25
582.456	240.25
582.667	233.25
582.877	256.25
583.087	247.25
583.298	231.25
583.508	234.25
583.719	249.25
583.929	272.25
584.139	249.25
584.35	252.25
584.56	268.25
584.77	255.25
584.981	243.25
585.191	245.25
585.401	245.25
585.611	255.25
585.821	250.25
586.032	254.25
586.242	256.25
586.452	255.25
586.662	243.25
586.872	243.25
587.082	240.25
587.292	242.25
587.502	240.25
587.713	236.25
587.923	263.25
588.133	232.25
588.343	246.25
588.553	247.25
588.762	247.25
588.972	243.25
589.182	254.25
589.392	233.25
589.602	237.25
589.812	235.25
590.022	254.25
590.232	242.25
590.441	234.25
590.651	248.25
590.861	220.25
591.071	241.25
591.281	262.25
591.49	255.25
591.7	242.25
591.91	257.25
592.119	259.25
592.329	259.25
592.539	255.25
592.748	271.25
592.958	244.25
593.167	275.25
593.377	266.25
593.587	252.25
593.796	277.25
594.006	272.25
594.215	275.25
594.424	267.25
594.634	274.25
594.843	254.25
595.053	259.25
595.262	262.25
595.472	262.25
595.681	253.25
595.89	247.25
596.1	229.25
596.309	232.25
596.518	225.25
596.727	226.25
596.937	229.25
597.146	224.25
597.355	243.25
597.564	232.25
597.774	255.25
597.983	220.25
598.192	229.25
598.401	207.25
598.61	229.25
598.819	233.25
599.028	204.25
599.237	214.25
599.446	212.25
599.655	220.25
599.864	219.25
600.073	212.25
600.282	202.25
600.491	234.25
600.7	224.25
600.909	203.25
601.118	233.25
601.327	215.25
601.536	203.25
601.745	214.25
601.953	205.25
602.162	212.25
602.371	196.25
602.58	223.25
602.789	219.25
602.997	226.25
603.206	199.25
603.415	203.25
603.623	209.25
603.832	216.25
604.041	204.25
604.249	215.25
604.458	234.25
604.666	199.25
604.875	216.25
605.084	199.25
605.292	201.25
605.501	205.25
605.709	200.25
605.918	199.25
606.126	209.25
606.334	213.25
606.543	218.25
606.751	211.25
606.96	206.25
607.168	186.25
607.376	203.25
607.585	206.25
607.793	203.25
608.001	207.25
608.21	202.25
608.418	192.25
608.626	202.25
608.834	192.25
609.043	185.25
609.251	199.25
609.459	195.25
609.667	192.25
609.875	193.25
610.083	199.25
610.291	201.25
610.499	207.25
610.707	205.25
610.916	186.25
611.124	196.25
611.332	203.25
611.54	187.25
611.748	201.25
611.955	188.25
612.163	210.25
612.371	188.25
612.579	203.25
612.787	202.25
612.995	197.25
613.203	186.25
613.411	214.25
613.618	205.25
613.826	192.25
614.034	203.25
614.242	215.25
614.449	216.25
614.657	193.25
614.865	207.25
615.072	200.25
615.28	201.25
615.488	207.25
615.695	200.25
615.903	194.25
616.111	193.25
616.318	195.25
616.526	198.25
616.733	196.25
616.941	194.25
617.148	198.25
617.356	201.25
617.563	202.25
617.771	196.25
617.978	194.25
618.185	192.25
618.393	190.25
618.6	167.25
618.807	187.25
619.015	190.25
619.222	189.25
619.429	192.25
619.637	168.25
619.844	182.25
620.051	210.25
620.258	202.25
620.466	187.25
620.673	180.25
620.88	180.25
621.087	186.25
621.294	199.25
621.501	184.25
621.708	190.25
621.915	192.25
622.122	197.25
622.329	187.25
622.536	182.25
622.743	186.25
622.95	181.25
623.157	182.25
623.364	185.25
623.571	183.25
623.778	184.25
623.985	183.25
624.192	183.25
624.399	176.25
624.606	182.25
624.812	195.25
625.019	179.25
625.226	182.25
625.433	167.25
625.639	179.25
625.846	178.25
626.053	171.25
626.259	188.25
626.466	174.25
626.673	174.25
626.879	171.25
627.086	162.25
627.293	169.25
627.499	170.25
627.706	180.25
627.912	159.25
628.119	192.25
628.325	174.25
628.532	181.25
628.738	179.25
628.945	164.25
629.151	186.25
629.357	166.25
629.564	180.25
629.77	174.25
629.976	152.25
630.183	157.25
630.389	165.25
630.595	158.25
630.802	160.25
631.008	180.25
631.214	148.25
631.42	164.25
631.627	164.25
631.833	170.25
632.039	169.25
632.245	163.25
632.451	153.25
632.657	169.25
632.863	171.25
633.069	164.25
633.275	158.25
633.481	154.25
633.688	159.25
633.893	165.25
634.099	165.25
634.305	153.25
634.511	158.25
634.717	154.25
634.923	155.25
635.129	158.25
635.335	155.25
635.541	160.25
635.747	151.25
635.952	154.25
636.158	160.25
636.364	161.25
636.57	151.25
636.775	156.25
636.981	157.25
637.187	160.25
637.392	154.25
637.598	145.25
637.804	157.25
638.009	150.25
638.215	140.25
638.421	139.25
638.626	152.25
638.832	148.25
639.037	140.25
639.243	148.25
639.448	146.25
639.654	167.25
639.859	145.25
640.065	154.25
640.27	157.25
640.475	159.25
640.681	143.25
640.886	155.25
641.091	144.25
641.297	148.25
641.502	153.25
641.707	145.25
641.913	137.25
642.118	146.25
642.323	150.25
642.528	155.25
642.733	142.25
642.939	157.25
643.144	167.25
643.349	149.25
643.554	137.25
643.759	140.25
643.964	139.25
644.169	157.25
644.374	142.25
644.579	152.25
644.784	141.25
644.989	148.25
645.194	134.25
645.399	134.25
645.604	137.25
645.809	143.25
646.014	150.25
646.219	148.25
646.423	133.25
646.628	135.25
646.833	144.25
647.038	136.25
647.243	146.25
647.447	126.25
647.652	157.25
647.857	129.25
648.062	148.25
648.266	158.25
648.471	148.25
648.676	150.25
648.88	141.25
649.085	149.25
649.289	154.25
649.494	147.25
649.698	165.25
649.903	159.25
650.107	138.25
650.312	149.25
650.516	131.25
650.721	146.25
650.925	142.25
651.13	136.25
651.334	142.25
651.539	132.25
651.743	131.25
651.947	153.25
652.152	149.25
652.356	130.25
652.56	134.25
652.764	140.25
652.969	128.25
653.173	131.25
653.377	128.25
653.581	111.25
653.785	125.25
653.99	122.25
654.194	124.25
654.398	116.25
654.602	128.25
654.806	114.25
655.01	127.25
655.214	138.25
655.418	136.25
655.622	127.25
655.826	124.25
656.03	127.25
656.234	112.25
656.438	124.25
656.642	122.25
656.846	127.25
657.049	132.25
657.253	123.25
657.457	113.25
657.661	107.25
657.865	102.25
658.068	97.25
658.272	101.25
658.476	103.25
658.68	111.25
658.883	91.25
659.087	102.25
659.291	95.25
659.494	107.25
659.698	101.25
659.901	86.25
660.105	90.25
660.309	89.25
660.512	80.25
660.716	88.25
660.919	104.25
661.123	76.25
661.326	88.25
661.53	91.25
661.733	104.25
661.936	90.25
662.14	86.25
662.343	74.25
662.546	90.25
662.75	80.25
662.953	85.25
663.156	72.25
663.36	74.25
663.563	81.25
663.766	89.25
663.969	89.25
664.173	68.25
664.376	83.25
664.579	63.25
664.782	66.25
664.985	63.25
665.188	79.25
665.391	72.25
665.594	81.25
665.797	84.25
666	87.25
666.203	87.25
666.406	84.25
666.609	69.25
666.812	79.25
667.015	84.25
667.218	89.25
667.421	78.25
667.624	80.25
667.827	76.25
668.03	71.25
668.232	70.25
668.435	63.25
668.638	74.25
668.841	70.25
669.043	56.25
669.246	87.25
669.449	74.25
669.651	89.25
669.854	85.25
670.057	87.25
670.259	71.25
670.462	88.25
670.665	82.25
670.867	75.25
671.07	72.25
671.272	76.25
671.475	66.25
671.677	72.25
671.88	77.25
672.082	79.25
672.284	82.25
672.487	79.25
672.689	82.25
672.892	90.25
