Data from 1978.PennyLincolnUp.Lamp.En5.5.200Scan.071719.P1_HRD10591_16-14-29-864.txt Node
Date: Thu Jul 18 16:14:29 EDT 2019
User: cochatt
Spectrometer: HR+D1059
Trigger mode: 1
Integration Time (sec): 1.000000E-1
Scans to average: 1
Electric dark correction enabled: true
Nonlinearity correction enabled: false
Boxcar width: 0
XAxis mode: Wavelengths
Number of Pixels in Spectrum: 2048
>>>>>Begin Spectral Data<<<<<
223.165	-21
223.4	-21
223.635	-21
223.869	-15
224.104	-23
224.338	-7
224.573	-12
224.808	-21
225.042	-2
225.277	0
225.511	11
225.746	2
225.98	-4
226.215	2
226.449	17
226.683	18
226.918	23
227.152	32
227.387	35
227.621	42
227.856	46
228.09	46
228.324	43
228.559	43
228.793	77
229.027	91
229.262	108
229.496	115
229.73	124
229.964	160
230.199	138
230.433	129
230.667	137
230.901	128
231.136	114
231.37	113
231.604	118
231.838	120
232.072	130
232.306	118
232.541	125
232.775	113
233.009	126
233.243	120
233.477	118
233.711	126
233.945	109
234.179	122
234.413	121
234.647	107
234.881	108
235.115	112
235.349	124
235.583	145
235.817	127
236.051	128
236.285	122
236.519	118
236.753	124
236.987	141
237.221	179
237.455	213
237.689	188
237.922	147
238.156	130
238.39	128
238.624	119
238.858	124
239.091	133
239.325	128
239.559	125
239.793	118
240.027	120
240.26	133
240.494	163
240.728	155
240.961	141
241.195	138
241.429	139
241.662	140
241.896	122
242.13	136
242.363	144
242.597	141
242.83	137
243.064	134
243.298	135
243.531	132
243.765	128
243.998	151
244.232	145
244.465	130
244.699	136
244.932	142
245.166	144
245.399	130
245.633	134
245.866	156
246.099	132
246.333	153
246.566	148
246.8	138
247.033	138
247.266	144
247.5	158
247.733	184
247.966	172
248.2	172
248.433	154
248.666	170
248.899	177
249.133	186
249.366	210
249.599	199
249.832	165
250.066	170
250.299	162
250.532	176
250.765	206
250.998	206
251.231	217
251.465	210
251.698	192
251.931	182
252.164	188
252.397	187
252.63	208
252.863	196
253.096	180
253.329	227
253.562	208
253.795	206
254.028	216
254.261	209
254.494	221
254.727	232
254.96	264
255.193	256
255.426	224
255.659	208
255.892	210
256.124	205
256.357	208
256.59	229
256.823	210
257.056	220
257.289	206
257.521	197
257.754	200
257.987	209
258.22	214
258.452	189
258.685	202
258.918	192
259.151	193
259.383	215
259.616	202
259.849	215
260.081	229
260.314	247
260.547	247
260.779	230
261.012	226
261.244	213
261.477	214
261.71	200
261.942	221
262.175	220
262.407	236
262.64	196
262.872	212
263.105	215
263.337	200
263.57	200
263.802	185
264.035	210
264.267	202
264.499	221
264.732	200
264.964	206
265.197	209
265.429	209
265.661	212
265.894	222
266.126	215
266.358	206
266.591	206
266.823	231
267.055	219
267.287	220
267.52	217
267.752	225
267.984	217
268.216	237
268.448	231
268.681	226
268.913	234
269.145	271
269.377	280
269.609	268
269.841	265
270.073	266
270.306	278
270.538	312
270.77	294
271.002	287
271.234	278
271.466	281
271.698	285
271.93	282
272.162	294
272.394	280
272.626	274
272.858	278
273.09	260
273.322	265
273.553	248
273.785	260
274.017	257
274.249	257
274.481	242
274.713	240
274.945	269
275.176	261
275.408	263
275.64	241
275.872	246
276.104	259
276.335	250
276.567	263
276.799	278
277.031	283
277.262	305
277.494	296
277.726	310
277.957	268
278.189	270
278.421	246
278.652	259
278.884	235
279.115	263
279.347	251
279.579	228
279.81	257
280.042	271
280.273	270
280.505	256
280.736	266
280.968	266
281.199	255
281.431	262
281.662	281
281.894	276
282.125	256
282.356	274
282.588	304
282.819	296
283.051	285
283.282	286
283.513	250
283.745	231
283.976	274
284.207	270
284.439	276
284.67	262
284.901	271
285.132	271
285.364	280
285.595	288
285.826	264
286.057	295
286.288	272
286.52	281
286.751	271
286.982	295
287.213	280
287.444	279
287.675	287
287.906	291
288.138	296
288.369	312
288.6	280
288.831	293
289.062	281
289.293	282
289.524	291
289.755	277
289.986	294
290.217	285
290.448	280
290.679	263
290.91	296
291.141	270
291.371	266
291.602	279
291.833	285
292.064	290
292.295	294
292.526	293
292.757	292
292.987	282
293.218	273
293.449	294
293.68	302
293.91	281
294.141	292
294.372	287
294.603	298
294.833	281
295.064	308
295.295	298
295.525	297
295.756	302
295.987	302
296.217	326
296.448	329
296.679	311
296.909	292
297.14	277
297.37	292
297.601	285
297.831	305
298.062	312
298.292	300
298.523	308
298.753	314
298.984	309
299.214	308
299.445	297
299.675	294
299.905	316
300.136	304
300.366	304
300.597	313
300.827	322
301.057	300
301.288	328
301.518	331
301.748	310
301.979	324
302.209	305
302.439	314
302.669	326
302.9	330
303.13	309
303.36	343
303.59	359
303.82	325
304.051	333
304.281	320
304.511	346
304.741	338
304.971	325
305.201	331
305.431	306
305.661	310
305.891	316
306.121	324
306.352	348
306.582	337
306.812	328
307.042	314
307.272	316
307.502	326
307.731	329
307.961	339
308.191	327
308.421	321
308.651	341
308.881	335
309.111	325
309.341	329
309.571	344
309.8	348
310.03	359
310.26	361
310.49	356
310.72	377
310.949	386
311.179	378
311.409	364
311.639	372
311.868	372
312.098	378
312.328	379
312.557	393
312.787	393
313.017	390
313.246	386
313.476	370
313.706	361
313.935	378
314.165	392
314.394	393
314.624	415
314.853	367
315.083	374
315.312	373
315.542	377
315.771	360
316.001	374
316.23	374
316.46	383
316.689	365
316.919	379
317.148	382
317.377	378
317.607	375
317.836	363
318.065	380
318.295	380
318.524	376
318.753	384
318.983	374
319.212	359
319.441	372
319.67	392
319.9	376
320.129	384
320.358	383
320.587	379
320.816	375
321.046	402
321.275	381
321.504	378
321.733	383
321.962	392
322.191	415
322.42	415
322.649	439
322.878	446
323.108	444
323.337	468
323.566	493
323.795	537
324.024	563
324.253	698
324.482	967
324.71	1558
324.939	2448
325.168	2066
325.397	1019
325.626	663
325.855	552
326.084	501
326.313	484
326.542	493
326.77	531
326.999	640
327.228	900
327.457	1392
327.686	1784
327.914	1158
328.143	710
328.372	623
328.6	588
328.829	526
329.058	549
329.287	564
329.515	545
329.744	521
329.972	486
330.201	546
330.43	556
330.658	572
330.887	603
331.115	575
331.344	522
331.572	506
331.801	496
332.03	503
332.258	466
332.486	472
332.715	423
332.943	448
333.172	461
333.4	465
333.629	475
333.857	485
334.085	502
334.314	500
334.542	508
334.771	562
334.999	524
335.227	474
335.455	458
335.684	461
335.912	439
336.14	444
336.369	468
336.597	451
336.825	468
337.053	458
337.281	443
337.51	443
337.738	429
337.966	427
338.194	473
338.422	455
338.65	425
338.878	431
339.106	442
339.334	440
339.562	417
339.79	442
340.018	422
340.246	431
340.474	458
340.702	431
340.93	449
341.158	448
341.386	437
341.614	429
341.842	448
342.07	417
342.298	440
342.526	412
342.754	436
342.981	411
343.209	407
343.437	422
343.665	426
343.893	428
344.12	445
344.348	455
344.576	463
344.804	447
345.031	456
345.259	456
345.487	447
345.714	432
345.942	419
346.17	424
346.397	421
346.625	427
346.853	412
347.08	424
347.308	434
347.535	437
347.763	430
347.99	429
348.218	411
348.445	445
348.673	439
348.9	433
349.128	397
349.355	413
349.583	406
349.81	416
350.037	411
350.265	427
350.492	419
350.72	431
350.947	405
351.174	440
351.402	428
351.629	426
351.856	421
352.083	433
352.311	428
352.538	436
352.765	427
352.992	439
353.22	400
353.447	436
353.674	426
353.901	412
354.128	392
354.355	396
354.583	398
354.81	402
355.037	393
355.264	381
355.491	384
355.718	394
355.945	394
356.172	398
356.399	390
356.626	384
356.853	390
357.08	413
357.307	402
357.534	390
357.761	413
357.988	405
358.215	422
358.441	386
358.668	385
358.895	412
359.122	402
359.349	408
359.576	434
359.802	428
360.029	480
360.256	466
360.483	454
360.709	448
360.936	424
361.163	423
361.39	441
361.616	439
361.843	428
362.07	419
362.296	430
362.523	420
362.749	423
362.976	424
363.203	408
363.429	408
363.656	414
363.882	414
364.109	421
364.335	401
364.562	410
364.788	414
365.015	408
365.241	401
365.468	405
365.694	409
365.92	413
366.147	407
366.373	415
366.599	398
366.826	399
367.052	405
367.278	412
367.505	426
367.731	396
367.957	408
368.184	422
368.41	412
368.636	392
368.862	433
369.089	415
369.315	421
369.541	410
369.767	402
369.993	394
370.219	398
370.445	406
370.672	406
370.898	411
371.124	425
371.35	404
371.576	416
371.802	420
372.028	402
372.254	410
372.48	414
372.706	405
372.932	408
373.158	444
373.384	399
373.61	408
373.835	417
374.061	417
374.287	425
374.513	438
374.739	416
374.965	416
375.191	429
375.416	438
375.642	424
375.868	439
376.094	414
376.319	403
376.545	398
376.771	402
376.997	400
377.222	415
377.448	447
377.674	417
377.899	403
378.125	418
378.35	400
378.576	408
378.802	402
379.027	408
379.253	413
379.478	414
379.704	401
379.929	432
380.155	431
380.38	426
380.606	425
380.831	406
381.057	434
381.282	417
381.507	405
381.733	410
381.958	413
382.184	431
382.409	414
382.634	446
382.86	430
383.085	428
383.31	433
383.535	412
383.761	425
383.986	442
384.211	436
384.436	429
384.662	417
384.887	457
385.112	455
385.337	448
385.562	436
385.787	436
386.013	465
386.238	472
386.463	467
386.688	451
386.913	446
387.138	469
387.363	459
387.588	442
387.813	476
388.038	448
388.263	457
388.488	466
388.713	473
388.938	466
389.163	471
389.387	477
389.612	453
389.837	470
390.062	457
390.287	454
390.512	482
390.736	461
390.961	468
391.186	467
391.411	461
391.636	469
391.86	447
392.085	462
392.31	463
392.534	493
392.759	488
392.984	473
393.208	476
393.433	475
393.658	469
393.882	484
394.107	472
394.331	465
394.556	462
394.78	465
395.005	484
395.229	472
395.454	486
395.678	491
395.903	493
396.127	506
396.352	529
396.576	487
396.801	485
397.025	502
397.249	504
397.474	489
397.698	506
397.922	536
398.147	546
398.371	541
398.595	533
398.82	535
399.044	555
399.268	546
399.492	586
399.717	601
399.941	638
400.165	652
400.389	694
400.613	638
400.837	577
401.062	565
401.286	562
401.51	520
401.734	570
401.958	545
402.182	548
402.406	546
402.63	557
402.854	546
403.078	546
403.302	568
403.526	590
403.75	560
403.974	572
404.198	553
404.422	563
404.645	584
404.869	580
405.093	607
405.317	641
405.541	707
405.765	623
405.988	581
406.212	589
406.436	608
406.66	625
406.883	604
407.107	632
407.331	662
407.555	724
407.778	761
408.002	695
408.226	631
408.449	636
408.673	624
408.896	664
409.12	696
409.344	658
409.567	605
409.791	560
410.014	575
410.238	574
410.461	569
410.685	571
410.908	605
411.132	644
411.355	648
411.578	620
411.802	567
412.025	556
412.249	572
412.472	596
412.695	638
412.919	619
413.142	566
413.365	558
413.589	558
413.812	577
414.035	545
414.258	568
414.482	545
414.705	536
414.928	548
415.151	534
415.374	541
415.597	524
415.821	556
416.044	522
416.267	549
416.49	520
416.713	516
416.936	553
417.159	523
417.382	546
417.605	530
417.828	541
418.051	559
418.274	558
418.497	537
418.72	540
418.943	538
419.166	535
419.389	567
419.611	597
419.834	571
420.057	550
420.28	570
420.503	556
420.726	566
420.948	587
421.171	612
421.394	647
421.617	584
421.839	538
422.062	554
422.285	591
422.507	630
422.73	720
422.953	674
423.175	591
423.398	564
423.621	582
423.843	590
424.066	618
424.288	605
424.511	612
424.733	669
424.956	748
425.178	727
425.401	728
425.623	759
425.846	639
426.068	578
426.291	587
426.513	610
426.735	612
426.958	665
427.18	738
427.402	926
427.625	978
427.847	844
428.069	705
428.292	645
428.514	585
428.736	582
428.958	596
429.181	583
429.403	556
429.625	558
429.847	590
430.069	661
430.292	645
430.514	597
430.736	534
430.958	537
431.18	512
431.402	546
431.624	521
431.846	527
432.068	524
432.29	528
432.512	533
432.734	524
432.956	518
433.178	527
433.4	538
433.622	498
433.844	516
434.066	532
434.287	527
434.509	529
434.731	564
434.953	538
435.175	542
435.397	565
435.618	615
435.84	647
436.062	763
436.284	843
436.505	682
436.727	594
436.949	607
437.17	567
437.392	559
437.614	566
437.835	584
438.057	724
438.278	822
438.5	812
438.721	921
438.943	874
439.165	668
439.386	611
439.608	619
439.829	610
440.05	637
440.272	688
440.493	631
440.715	576
440.936	577
441.158	552
441.379	551
441.6	563
441.822	569
442.043	647
442.264	728
442.486	783
442.707	650
442.928	610
443.149	623
443.371	635
443.592	677
443.813	812
444.034	902
444.255	699
444.476	630
444.698	606
444.919	598
445.14	708
445.361	666
445.582	656
445.803	722
446.024	849
446.245	862
446.466	760
446.687	660
446.908	588
447.129	550
447.35	569
447.571	548
447.792	536
448.013	552
448.234	586
448.455	620
448.675	747
448.896	879
449.117	738
449.338	694
449.559	828
449.779	936
450	751
450.221	617
450.442	564
450.662	542
450.883	540
451.104	559
451.324	534
451.545	528
451.766	508
451.986	509
452.207	505
452.428	486
452.648	504
452.869	488
453.089	520
453.31	511
453.53	525
453.751	503
453.971	491
454.192	531
454.412	511
454.633	487
454.853	492
455.073	500
455.294	520
455.514	580
455.734	593
455.955	505
456.175	465
456.395	467
456.616	459
456.836	469
457.056	473
457.276	465
457.497	458
457.717	482
457.937	474
458.157	482
458.377	494
458.598	525
458.818	557
459.038	662
459.258	658
459.478	588
459.698	567
459.918	540
460.138	532
460.358	538
460.578	539
460.798	551
461.018	552
461.238	528
461.458	547
461.678	536
461.898	569
462.118	572
462.338	558
462.558	564
462.777	575
462.997	575
463.217	607
463.437	586
463.657	582
463.876	578
464.096	588
464.316	570
464.536	578
464.755	574
464.975	580
465.195	635
465.414	668
465.634	613
465.854	584
466.073	541
466.293	538
466.512	538
466.732	534
466.951	502
467.171	493
467.391	500
467.61	518
467.829	532
468.049	539
468.268	533
468.488	491
468.707	498
468.927	497
469.146	506
469.365	506
469.585	478
469.804	507
470.023	555
470.243	514
470.462	532
470.681	536
470.901	552
471.12	530
471.339	514
471.558	533
471.777	517
471.997	509
472.216	494
472.435	565
472.654	549
472.873	535
473.092	527
473.311	492
473.53	520
473.749	520
473.968	559
474.187	673
474.406	709
474.625	592
474.844	532
475.063	554
475.282	523
475.501	522
475.72	526
475.939	525
476.158	523
476.377	545
476.596	530
476.814	530
477.033	546
477.252	555
477.471	548
477.69	557
477.908	572
478.127	557
478.346	587
478.564	590
478.783	566
479.002	580
479.22	587
479.439	590
479.658	618
479.876	657
480.095	624
480.313	678
480.532	658
480.751	660
480.969	633
481.188	674
481.406	733
481.624	640
481.843	620
482.061	639
482.28	618
482.498	592
482.717	595
482.935	615
483.153	578
483.372	645
483.59	588
483.808	594
484.027	605
484.245	607
484.463	615
484.681	623
484.9	591
485.118	635
485.336	614
485.554	630
485.772	592
485.99	610
486.209	600
486.427	639
486.645	639
486.863	630
487.081	661
487.299	656
487.517	637
487.735	662
487.953	637
488.171	661
488.389	638
488.607	637
488.825	648
489.043	636
489.261	655
489.479	672
489.696	653
489.914	659
490.132	663
490.35	656
490.568	662
490.786	687
491.003	703
491.221	717
491.439	725
491.657	723
491.874	709
492.092	731
492.31	728
492.527	729
492.745	728
492.963	730
493.18	760
493.398	751
493.615	753
493.833	740
494.05	750
494.268	759
494.485	764
494.703	777
494.92	762
495.138	753
495.355	764
495.573	762
495.79	772
496.008	777
496.225	752
496.442	776
496.66	778
496.877	771
497.094	763
497.312	776
497.529	803
497.746	813
497.963	824
498.181	848
498.398	852
498.615	862
498.832	887
499.049	869
499.267	895
499.484	945
499.701	966
499.918	971
500.135	1051
500.352	1072
500.569	1085
500.786	1133
501.003	1095
501.22	1073
501.437	1047
501.654	992
501.871	991
502.088	952
502.305	900
502.522	889
502.739	857
502.956	850
503.172	855
503.389	821
503.606	824
503.823	813
504.04	792
504.256	784
504.473	784
504.69	773
504.907	782
505.123	779
505.34	746
505.557	758
505.773	756
505.99	750
506.207	742
506.423	753
506.64	720
506.856	716
507.073	731
507.289	710
507.506	693
507.722	721
507.939	740
508.155	698
508.372	722
508.588	693
508.805	678
509.021	697
509.238	708
509.454	725
509.67	698
509.887	698
510.103	682
510.319	694
510.536	778
510.752	1208
510.968	1028
511.184	696
511.401	709
511.617	668
511.833	642
512.049	659
512.265	671
512.481	657
512.698	663
512.914	628
513.13	665
513.346	648
513.562	650
513.778	644
513.994	674
514.21	662
514.426	716
514.642	737
514.858	746
515.074	764
515.29	879
515.506	1286
515.721	1090
515.937	753
516.153	743
516.369	720
516.585	708
516.801	697
517.016	688
517.232	680
517.448	684
517.664	689
517.879	705
518.095	722
518.311	694
518.527	689
518.742	664
518.958	663
519.173	636
519.389	650
519.605	646
519.82	663
520.036	676
520.251	710
520.467	710
520.682	717
520.898	721
521.113	734
521.329	769
521.544	831
521.76	1030
521.975	1594
522.19	1560
522.406	918
522.621	750
522.836	690
523.052	652
523.267	636
523.482	589
523.698	627
523.913	608
524.128	579
524.343	590
524.559	595
524.774	570
524.989	589
525.204	580
525.419	591
525.634	598
525.849	564
526.064	555
526.28	568
526.495	559
526.71	575
526.925	545
527.14	544
527.355	549
527.57	566
527.785	553
527.999	529
528.214	541
528.429	555
528.644	545
528.859	540
529.074	556
529.289	571
529.503	634
529.718	621
529.933	612
530.148	573
530.363	557
530.577	556
530.792	559
531.007	553
531.221	541
531.436	536
531.651	550
531.865	521
532.08	545
532.295	542
532.509	529
532.724	538
532.938	543
533.153	533
533.367	547
533.582	521
533.796	520
534.011	532
534.225	521
534.44	521
534.654	528
534.868	525
535.083	518
535.297	505
535.511	520
535.726	527
535.94	535
536.154	527
536.369	526
536.583	506
536.797	522
537.011	506
537.225	517
537.44	487
537.654	510
537.868	492
538.082	492
538.296	487
538.51	512
538.724	510
538.938	525
539.153	500
539.367	514
539.581	525
539.795	495
540.009	500
540.222	506
540.436	505
540.65	507
540.864	476
541.078	481
541.292	501
541.506	518
541.72	495
541.934	469
542.147	494
542.361	497
542.575	492
542.789	491
543.002	495
543.216	487
543.43	498
543.644	490
543.857	494
544.071	490
544.285	490
544.498	497
544.712	493
544.925	494
545.139	514
545.352	497
545.566	477
545.779	485
545.993	481
546.206	474
546.42	463
546.633	489
546.847	496
547.06	493
547.274	488
547.487	482
547.7	476
547.914	463
548.127	466
548.34	468
548.554	470
548.767	489
548.98	490
549.193	476
549.407	472
549.62	472
549.833	475
550.046	484
550.259	478
550.473	442
550.686	466
550.899	484
551.112	474
551.325	470
551.538	468
551.751	477
551.964	491
552.177	498
552.39	482
552.603	499
552.816	457
553.029	486
553.242	485
553.455	485
553.667	496
553.88	495
554.093	477
554.306	494
554.519	477
554.732	473
554.944	460
555.157	455
555.37	473
555.583	462
555.795	463
556.008	464
556.221	450
556.433	443
556.646	445
556.859	446
557.071	440
557.284	431
557.496	425
557.709	427
557.921	452
558.134	417
558.346	440
558.559	448
558.771	448
558.984	447
559.196	440
559.409	430
559.621	401
559.833	406
560.046	420
560.258	434
560.47	428
560.683	438
560.895	438
561.107	427
561.32	433
561.532	440
561.744	426
561.956	426
562.168	421
562.381	436
562.593	412
562.805	424
563.017	446
563.229	433
563.441	432
563.653	440
563.865	461
564.077	451
564.289	439
564.501	434
564.713	443
564.925	436
565.137	470
565.349	477
565.561	448
565.773	488
565.985	495
566.197	500
566.408	500
566.62	498
566.832	541
567.044	513
567.255	527
567.467	524
567.679	546
567.891	566
568.102	526
568.314	541
568.526	510
568.737	524
568.949	493
569.161	464
569.372	458
569.584	454
569.795	461
570.007	459
570.218	481
570.43	479
570.641	436
570.853	419
571.064	414
571.276	416
571.487	424
571.698	430
571.91	390
572.121	408
572.333	396
572.544	398
572.755	379
572.966	404
573.178	380
573.389	368
573.6	387
573.811	397
574.023	379
574.234	380
574.445	397
574.656	369
574.867	377
575.078	383
575.289	360
575.501	362
575.712	372
575.923	342
576.134	363
576.345	358
576.556	350
576.767	361
576.978	360
577.188	383
577.399	366
577.61	364
577.821	360
578.032	373
578.243	367
578.454	580
578.665	458
578.875	340
579.086	372
579.297	360
579.508	353
579.718	346
579.929	351
580.14	330
580.35	329
580.561	345
580.772	359
580.982	326
581.193	329
581.403	344
581.614	362
581.825	320
582.035	326
582.246	343
582.456	344
582.667	326
582.877	346
583.087	322
583.298	338
583.508	337
583.719	334
583.929	341
584.139	323
584.35	312
584.56	312
584.77	322
584.981	336
585.191	325
585.401	317
585.611	325
585.821	340
586.032	330
586.242	333
586.452	323
586.662	327
586.872	313
587.082	318
587.292	315
587.502	320
587.713	334
587.923	328
588.133	327
588.343	325
588.553	320
588.762	328
588.972	324
589.182	330
589.392	311
589.602	315
589.812	315
590.022	352
590.232	328
590.441	318
590.651	321
590.861	335
591.071	322
591.281	325
591.49	323
591.7	342
591.91	330
592.119	312
592.329	336
592.539	338
592.748	332
592.958	330
593.167	351
593.377	347
593.587	349
593.796	330
594.006	365
594.215	341
594.424	343
594.634	345
594.843	333
595.053	321
595.262	337
595.472	319
595.681	326
595.89	329
596.1	319
596.309	306
596.518	312
596.727	312
596.937	305
597.146	320
597.355	308
597.564	294
597.774	296
597.983	311
598.192	301
598.401	304
598.61	288
598.819	295
599.028	285
599.237	274
599.446	300
599.655	302
599.864	293
600.073	286
600.282	288
600.491	305
600.7	288
600.909	288
601.118	292
601.327	278
601.536	268
601.745	282
601.953	281
602.162	286
602.371	268
602.58	280
602.789	272
602.997	292
603.206	289
603.415	268
603.623	273
603.832	260
604.041	273
604.249	271
604.458	267
604.666	261
604.875	247
605.084	272
605.292	276
605.501	260
605.709	269
605.918	276
606.126	278
606.334	264
606.543	274
606.751	267
606.96	264
607.168	256
607.376	272
607.585	268
607.793	264
608.001	275
608.21	268
608.418	264
608.626	268
608.834	255
609.043	249
609.251	279
609.459	253
609.667	264
609.875	263
610.083	264
610.291	270
610.499	246
610.707	261
610.916	264
611.124	257
611.332	264
611.54	274
611.748	262
611.955	279
612.163	253
612.371	255
612.579	260
612.787	262
612.995	237
613.203	265
613.411	275
613.618	264
613.826	235
614.034	261
614.242	257
614.449	237
614.657	256
614.865	256
615.072	252
615.28	249
615.488	257
615.695	250
615.903	240
616.111	265
616.318	258
616.526	263
616.733	256
616.941	268
617.148	252
617.356	264
617.563	241
617.771	252
617.978	226
618.185	246
618.393	237
618.6	251
618.807	249
619.015	231
619.222	261
619.429	244
619.637	265
619.844	253
620.051	240
620.258	246
620.466	226
620.673	232
620.88	234
621.087	239
621.294	245
621.501	252
621.708	239
621.915	237
622.122	227
622.329	242
622.536	233
622.743	232
622.95	235
623.157	228
623.364	228
623.571	242
623.778	237
623.985	215
624.192	228
624.399	234
624.606	238
624.812	237
625.019	221
625.226	223
625.433	210
625.639	252
625.846	232
626.053	238
626.259	220
626.466	240
626.673	228
626.879	227
627.086	210
627.293	212
627.499	237
627.706	222
627.912	228
628.119	238
628.325	222
628.532	224
628.738	210
628.945	224
629.151	206
629.357	199
629.564	203
629.77	206
629.976	204
630.183	220
630.389	204
630.595	215
630.802	229
631.008	205
631.214	204
631.42	208
631.627	214
631.833	204
632.039	204
632.245	201
632.451	208
632.657	218
632.863	198
633.069	215
633.275	215
633.481	199
633.688	211
633.893	216
634.099	195
634.305	209
634.511	204
634.717	204
634.923	198
635.129	194
635.335	195
635.541	206
635.747	186
635.952	205
636.158	212
636.364	177
636.57	196
636.775	185
636.981	180
637.187	198
637.392	197
637.598	189
637.804	197
638.009	198
638.215	184
638.421	200
638.626	183
638.832	188
639.037	184
639.243	203
639.448	198
639.654	192
639.859	177
640.065	175
640.27	189
640.475	161
640.681	196
640.886	188
641.091	199
641.297	198
641.502	181
641.707	196
641.913	183
642.118	185
642.323	186
642.528	175
642.733	177
642.939	174
643.144	190
643.349	176
643.554	186
643.759	184
643.964	186
644.169	185
644.374	174
644.579	188
644.784	174
644.989	173
645.194	170
645.399	182
645.604	175
645.809	182
646.014	196
646.219	198
646.423	179
646.628	182
646.833	174
647.038	182
647.243	178
647.447	182
647.652	185
647.857	191
648.062	184
648.266	184
648.471	184
648.676	173
648.88	171
649.085	174
649.289	175
649.494	184
649.698	219
649.903	207
650.107	194
650.312	165
650.516	173
650.721	153
650.925	168
651.13	166
651.334	171
651.539	156
651.743	165
651.947	166
652.152	144
652.356	150
652.56	157
652.764	148
652.969	156
653.173	155
653.377	144
653.581	138
653.785	168
653.99	149
654.194	157
654.398	157
654.602	137
654.806	149
655.01	168
655.214	160
655.418	144
655.622	139
655.826	135
656.03	137
656.234	134
656.438	141
656.642	142
656.846	134
657.049	147
657.253	123
657.457	118
657.661	117
657.865	121
658.068	125
658.272	114
658.476	120
658.68	106
658.883	108
659.087	115
659.291	109
659.494	108
659.698	90
659.901	103
660.105	91
660.309	102
660.512	89
660.716	77
660.919	93
661.123	95
661.326	94
661.53	88
661.733	96
661.936	90
662.14	90
662.343	96
662.546	95
662.75	82
662.953	89
663.156	73
663.36	95
663.563	89
663.766	91
663.969	89
664.173	76
664.376	80
664.579	90
664.782	98
664.985	90
665.188	82
665.391	87
665.594	82
665.797	95
666	77
666.203	74
666.406	81
666.609	90
666.812	78
667.015	90
667.218	82
667.421	82
667.624	98
667.827	98
668.03	66
668.232	85
668.435	85
668.638	89
668.841	91
669.043	65
669.246	96
669.449	72
669.651	86
669.854	82
670.057	90
670.259	88
670.462	75
670.665	88
670.867	84
671.07	71
671.272	79
671.475	84
671.677	81
671.88	77
672.082	80
672.284	103
672.487	87
672.689	72
672.892	90
