Data from 1978.PennyLincolnUp.Lamp.En5.5.200Scan.071719.P1_HRD10591_16-14-13-863.txt Node
Date: Thu Jul 18 16:14:13 EDT 2019
User: cochatt
Spectrometer: HR+D1059
Trigger mode: 1
Integration Time (sec): 1.000000E-1
Scans to average: 1
Electric dark correction enabled: true
Nonlinearity correction enabled: false
Boxcar width: 0
XAxis mode: Wavelengths
Number of Pixels in Spectrum: 2048
>>>>>Begin Spectral Data<<<<<
223.165	-9.88
223.4	-9.88
223.635	-9.88
223.869	-29.88
224.104	-15.88
224.338	-20.88
224.573	3.12
224.808	-17.88
225.042	-7.88
225.277	-3.88
225.511	7.12
225.746	5.12
225.98	-2.88
226.215	10.12
226.449	17.12
226.683	31.12
226.918	10.12
227.152	25.12
227.387	18.12
227.621	47.12
227.856	39.12
228.09	36.12
228.324	57.12
228.559	61.12
228.793	68.12
229.027	84.12
229.262	90.12
229.496	105.12
229.73	145.12
229.964	156.12
230.199	128.12
230.433	104.12
230.667	126.12
230.901	117.12
231.136	112.12
231.37	114.12
231.604	112.12
231.838	117.12
232.072	120.12
232.306	108.12
232.541	116.12
232.775	118.12
233.009	111.12
233.243	116.12
233.477	111.12
233.711	129.12
233.945	114.12
234.179	140.12
234.413	120.12
234.647	120.12
234.881	128.12
235.115	121.12
235.349	132.12
235.583	136.12
235.817	127.12
236.051	121.12
236.285	134.12
236.519	129.12
236.753	141.12
236.987	145.12
237.221	187.12
237.455	244.12
237.689	177.12
237.922	152.12
238.156	124.12
238.39	119.12
238.624	120.12
238.858	125.12
239.091	134.12
239.325	136.12
239.559	120.12
239.793	132.12
240.027	138.12
240.26	129.12
240.494	149.12
240.728	166.12
240.961	154.12
241.195	147.12
241.429	139.12
241.662	136.12
241.896	143.12
242.13	141.12
242.363	134.12
242.597	139.12
242.83	142.12
243.064	128.12
243.298	137.12
243.531	134.12
243.765	154.12
243.998	135.12
244.232	147.12
244.465	141.12
244.699	136.12
244.932	150.12
245.166	152.12
245.399	140.12
245.633	138.12
245.866	145.12
246.099	151.12
246.333	158.12
246.566	149.12
246.8	133.12
247.033	149.12
247.266	151.12
247.5	155.12
247.733	169.12
247.966	172.12
248.2	176.12
248.433	166.12
248.666	179.12
248.899	176.12
249.133	182.12
249.366	207.12
249.599	194.12
249.832	180.12
250.066	177.12
250.299	190.12
250.532	182.12
250.765	212.12
250.998	208.12
251.231	217.12
251.465	199.12
251.698	207.12
251.931	183.12
252.164	201.12
252.397	202.12
252.63	197.12
252.863	208.12
253.096	210.12
253.329	216.12
253.562	230.12
253.795	193.12
254.028	210.12
254.261	202.12
254.494	226.12
254.727	223.12
254.96	273.12
255.193	267.12
255.426	245.12
255.659	220.12
255.892	226.12
256.124	221.12
256.357	231.12
256.59	215.12
256.823	199.12
257.056	197.12
257.289	202.12
257.521	210.12
257.754	207.12
257.987	199.12
258.22	203.12
258.452	188.12
258.685	192.12
258.918	208.12
259.151	207.12
259.383	210.12
259.616	202.12
259.849	218.12
260.081	220.12
260.314	234.12
260.547	241.12
260.779	247.12
261.012	241.12
261.244	230.12
261.477	217.12
261.71	209.12
261.942	206.12
262.175	223.12
262.407	227.12
262.64	204.12
262.872	209.12
263.105	205.12
263.337	210.12
263.57	229.12
263.802	209.12
264.035	220.12
264.267	209.12
264.499	223.12
264.732	219.12
264.964	213.12
265.197	222.12
265.429	220.12
265.661	210.12
265.894	222.12
266.126	217.12
266.358	216.12
266.591	203.12
266.823	228.12
267.055	233.12
267.287	239.12
267.52	219.12
267.752	229.12
267.984	222.12
268.216	222.12
268.448	232.12
268.681	237.12
268.913	247.12
269.145	251.12
269.377	268.12
269.609	264.12
269.841	270.12
270.073	268.12
270.306	288.12
270.538	312.12
270.77	297.12
271.002	287.12
271.234	287.12
271.466	268.12
271.698	290.12
271.93	306.12
272.162	299.12
272.394	308.12
272.626	285.12
272.858	282.12
273.09	267.12
273.322	268.12
273.553	248.12
273.785	246.12
274.017	246.12
274.249	265.12
274.481	264.12
274.713	266.12
274.945	295.12
275.176	258.12
275.408	287.12
275.64	284.12
275.872	269.12
276.104	269.12
276.335	253.12
276.567	263.12
276.799	273.12
277.031	298.12
277.262	313.12
277.494	308.12
277.726	292.12
277.957	297.12
278.189	269.12
278.421	262.12
278.652	263.12
278.884	269.12
279.115	274.12
279.347	267.12
279.579	284.12
279.81	272.12
280.042	248.12
280.273	266.12
280.505	264.12
280.736	253.12
280.968	267.12
281.199	280.12
281.431	266.12
281.662	283.12
281.894	266.12
282.125	272.12
282.356	285.12
282.588	310.12
282.819	331.12
283.051	282.12
283.282	284.12
283.513	267.12
283.745	292.12
283.976	281.12
284.207	275.12
284.439	280.12
284.67	293.12
284.901	273.12
285.132	274.12
285.364	269.12
285.595	285.12
285.826	301.12
286.057	289.12
286.288	279.12
286.52	278.12
286.751	272.12
286.982	282.12
287.213	280.12
287.444	279.12
287.675	287.12
287.906	288.12
288.138	294.12
288.369	314.12
288.6	297.12
288.831	309.12
289.062	289.12
289.293	264.12
289.524	294.12
289.755	296.12
289.986	303.12
290.217	290.12
290.448	292.12
290.679	289.12
290.91	302.12
291.141	290.12
291.371	291.12
291.602	294.12
291.833	282.12
292.064	296.12
292.295	284.12
292.526	280.12
292.757	296.12
292.987	283.12
293.218	289.12
293.449	285.12
293.68	277.12
293.91	283.12
294.141	304.12
294.372	297.12
294.603	294.12
294.833	298.12
295.064	310.12
295.295	299.12
295.525	296.12
295.756	311.12
295.987	306.12
296.217	342.12
296.448	342.12
296.679	308.12
296.909	302.12
297.14	325.12
297.37	306.12
297.601	302.12
297.831	312.12
298.062	316.12
298.292	316.12
298.523	320.12
298.753	306.12
298.984	324.12
299.214	316.12
299.445	303.12
299.675	319.12
299.905	312.12
300.136	297.12
300.366	310.12
300.597	317.12
300.827	333.12
301.057	324.12
301.288	341.12
301.518	339.12
301.748	334.12
301.979	319.12
302.209	341.12
302.439	342.12
302.669	330.12
302.9	329.12
303.13	349.12
303.36	339.12
303.59	336.12
303.82	349.12
304.051	355.12
304.281	319.12
304.511	330.12
304.741	335.12
304.971	335.12
305.201	321.12
305.431	335.12
305.661	325.12
305.891	332.12
306.121	333.12
306.352	362.12
306.582	339.12
306.812	322.12
307.042	361.12
307.272	339.12
307.502	350.12
307.731	338.12
307.961	348.12
308.191	333.12
308.421	342.12
308.651	342.12
308.881	345.12
309.111	349.12
309.341	359.12
309.571	356.12
309.8	356.12
310.03	355.12
310.26	366.12
310.49	394.12
310.72	376.12
310.949	406.12
311.179	403.12
311.409	363.12
311.639	390.12
311.868	384.12
312.098	396.12
312.328	397.12
312.557	397.12
312.787	417.12
313.017	403.12
313.246	390.12
313.476	377.12
313.706	382.12
313.935	387.12
314.165	395.12
314.394	387.12
314.624	386.12
314.853	384.12
315.083	386.12
315.312	403.12
315.542	382.12
315.771	363.12
316.001	370.12
316.23	370.12
316.46	381.12
316.689	383.12
316.919	364.12
317.148	410.12
317.377	387.12
317.607	385.12
317.836	381.12
318.065	384.12
318.295	390.12
318.524	376.12
318.753	396.12
318.983	390.12
319.212	395.12
319.441	404.12
319.67	396.12
319.9	388.12
320.129	397.12
320.358	384.12
320.587	394.12
320.816	400.12
321.046	407.12
321.275	408.12
321.504	398.12
321.733	408.12
321.962	427.12
322.191	438.12
322.42	440.12
322.649	452.12
322.878	472.12
323.108	439.12
323.337	484.12
323.566	506.12
323.795	538.12
324.024	591.12
324.253	704.12
324.482	985.12
324.71	1634.12
324.939	2479.12
325.168	2153.12
325.397	1009.12
325.626	676.12
325.855	553.12
326.084	541.12
326.313	492.12
326.542	528.12
326.77	573.12
326.999	679.12
327.228	936.12
327.457	1456.12
327.686	1870.12
327.914	1196.12
328.143	748.12
328.372	665.12
328.6	605.12
328.829	572.12
329.058	588.12
329.287	592.12
329.515	554.12
329.744	543.12
329.972	540.12
330.201	526.12
330.43	574.12
330.658	572.12
330.887	610.12
331.115	623.12
331.344	548.12
331.572	525.12
331.801	520.12
332.03	511.12
332.258	468.12
332.486	475.12
332.715	462.12
332.943	476.12
333.172	465.12
333.4	476.12
333.629	472.12
333.857	489.12
334.085	496.12
334.314	530.12
334.542	540.12
334.771	562.12
334.999	522.12
335.227	491.12
335.455	480.12
335.684	480.12
335.912	465.12
336.14	462.12
336.369	455.12
336.597	481.12
336.825	484.12
337.053	447.12
337.281	448.12
337.51	467.12
337.738	468.12
337.966	438.12
338.194	467.12
338.422	456.12
338.65	459.12
338.878	461.12
339.106	447.12
339.334	429.12
339.562	452.12
339.79	449.12
340.018	448.12
340.246	455.12
340.474	454.12
340.702	457.12
340.93	444.12
341.158	455.12
341.386	454.12
341.614	464.12
341.842	450.12
342.07	446.12
342.298	424.12
342.526	455.12
342.754	421.12
342.981	433.12
343.209	419.12
343.437	443.12
343.665	444.12
343.893	442.12
344.12	448.12
344.348	450.12
344.576	478.12
344.804	473.12
345.031	466.12
345.259	484.12
345.487	464.12
345.714	439.12
345.942	426.12
346.17	453.12
346.397	448.12
346.625	428.12
346.853	441.12
347.08	461.12
347.308	448.12
347.535	464.12
347.763	441.12
347.99	464.12
348.218	451.12
348.445	460.12
348.673	475.12
348.9	438.12
349.128	421.12
349.355	437.12
349.583	425.12
349.81	417.12
350.037	420.12
350.265	438.12
350.492	419.12
350.72	425.12
350.947	418.12
351.174	436.12
351.402	440.12
351.629	429.12
351.856	423.12
352.083	447.12
352.311	464.12
352.538	443.12
352.765	463.12
352.992	453.12
353.22	452.12
353.447	432.12
353.674	401.12
353.901	407.12
354.128	420.12
354.355	421.12
354.583	415.12
354.81	421.12
355.037	405.12
355.264	428.12
355.491	420.12
355.718	394.12
355.945	419.12
356.172	422.12
356.399	397.12
356.626	388.12
356.853	392.12
357.08	384.12
357.307	418.12
357.534	393.12
357.761	418.12
357.988	423.12
358.215	429.12
358.441	418.12
358.668	422.12
358.895	414.12
359.122	417.12
359.349	446.12
359.576	436.12
359.802	475.12
360.029	491.12
360.256	501.12
360.483	493.12
360.709	442.12
360.936	452.12
361.163	446.12
361.39	458.12
361.616	456.12
361.843	442.12
362.07	430.12
362.296	428.12
362.523	431.12
362.749	452.12
362.976	426.12
363.203	440.12
363.429	436.12
363.656	429.12
363.882	439.12
364.109	418.12
364.335	418.12
364.562	415.12
364.788	426.12
365.015	411.12
365.241	438.12
365.468	418.12
365.694	456.12
365.92	423.12
366.147	446.12
366.373	432.12
366.599	401.12
366.826	406.12
367.052	430.12
367.278	414.12
367.505	438.12
367.731	422.12
367.957	432.12
368.184	430.12
368.41	422.12
368.636	437.12
368.862	460.12
369.089	447.12
369.315	427.12
369.541	447.12
369.767	431.12
369.993	430.12
370.219	434.12
370.445	429.12
370.672	431.12
370.898	423.12
371.124	421.12
371.35	436.12
371.576	438.12
371.802	428.12
372.028	415.12
372.254	434.12
372.48	420.12
372.706	442.12
372.932	426.12
373.158	434.12
373.384	438.12
373.61	440.12
373.835	429.12
374.061	429.12
374.287	426.12
374.513	434.12
374.739	414.12
374.965	438.12
375.191	436.12
375.416	437.12
375.642	414.12
375.868	440.12
376.094	414.12
376.319	417.12
376.545	431.12
376.771	422.12
376.997	433.12
377.222	416.12
377.448	429.12
377.674	430.12
377.899	415.12
378.125	424.12
378.35	414.12
378.576	440.12
378.802	425.12
379.027	434.12
379.253	447.12
379.478	441.12
379.704	445.12
379.929	408.12
380.155	442.12
380.38	418.12
380.606	425.12
380.831	427.12
381.057	432.12
381.282	418.12
381.507	422.12
381.733	436.12
381.958	444.12
382.184	416.12
382.409	430.12
382.634	430.12
382.86	465.12
383.085	440.12
383.31	442.12
383.535	428.12
383.761	436.12
383.986	448.12
384.211	460.12
384.436	459.12
384.662	454.12
384.887	438.12
385.112	472.12
385.337	460.12
385.562	464.12
385.787	472.12
386.013	489.12
386.238	472.12
386.463	464.12
386.688	476.12
386.913	474.12
387.138	473.12
387.363	470.12
387.588	472.12
387.813	477.12
388.038	493.12
388.263	476.12
388.488	488.12
388.713	469.12
388.938	476.12
389.163	481.12
389.387	486.12
389.612	476.12
389.837	474.12
390.062	491.12
390.287	472.12
390.512	463.12
390.736	463.12
390.961	479.12
391.186	469.12
391.411	485.12
391.636	519.12
391.86	494.12
392.085	484.12
392.31	482.12
392.534	493.12
392.759	473.12
392.984	479.12
393.208	480.12
393.433	486.12
393.658	466.12
393.882	473.12
394.107	466.12
394.331	502.12
394.556	484.12
394.78	495.12
395.005	489.12
395.229	473.12
395.454	490.12
395.678	496.12
395.903	516.12
396.127	525.12
396.352	543.12
396.576	508.12
396.801	501.12
397.025	509.12
397.249	528.12
397.474	523.12
397.698	515.12
397.922	536.12
398.147	545.12
398.371	572.12
398.595	560.12
398.82	562.12
399.044	577.12
399.268	596.12
399.492	598.12
399.717	662.12
399.941	673.12
400.165	698.12
400.389	705.12
400.613	631.12
400.837	607.12
401.062	593.12
401.286	585.12
401.51	562.12
401.734	559.12
401.958	571.12
402.182	556.12
402.406	560.12
402.63	594.12
402.854	580.12
403.078	587.12
403.302	597.12
403.526	569.12
403.75	578.12
403.974	586.12
404.198	576.12
404.422	582.12
404.645	600.12
404.869	613.12
405.093	598.12
405.317	677.12
405.541	690.12
405.765	626.12
405.988	638.12
406.212	618.12
406.436	644.12
406.66	640.12
406.883	629.12
407.107	669.12
407.331	715.12
407.555	751.12
407.778	790.12
408.002	700.12
408.226	658.12
408.449	641.12
408.673	630.12
408.896	682.12
409.12	741.12
409.344	683.12
409.567	604.12
409.791	604.12
410.014	598.12
410.238	607.12
410.461	591.12
410.685	600.12
410.908	640.12
411.132	639.12
411.355	712.12
411.578	624.12
411.802	577.12
412.025	587.12
412.249	595.12
412.472	618.12
412.695	646.12
412.919	637.12
413.142	597.12
413.365	592.12
413.589	557.12
413.812	580.12
414.035	570.12
414.258	560.12
414.482	527.12
414.705	552.12
414.928	568.12
415.151	545.12
415.374	553.12
415.597	551.12
415.821	543.12
416.044	540.12
416.267	542.12
416.49	546.12
416.713	558.12
416.936	557.12
417.159	540.12
417.382	571.12
417.605	560.12
417.828	563.12
418.051	569.12
418.274	586.12
418.497	555.12
418.72	552.12
418.943	553.12
419.166	583.12
419.389	602.12
419.611	597.12
419.834	595.12
420.057	572.12
420.28	600.12
420.503	563.12
420.726	571.12
420.948	582.12
421.171	642.12
421.394	657.12
421.617	603.12
421.839	593.12
422.062	570.12
422.285	586.12
422.507	650.12
422.73	748.12
422.953	732.12
423.175	634.12
423.398	624.12
423.621	602.12
423.843	602.12
424.066	607.12
424.288	609.12
424.511	630.12
424.733	680.12
424.956	796.12
425.178	760.12
425.401	738.12
425.623	783.12
425.846	680.12
426.068	625.12
426.291	626.12
426.513	599.12
426.735	626.12
426.958	674.12
427.18	752.12
427.402	881.12
427.625	1014.12
427.847	880.12
428.069	772.12
428.292	663.12
428.514	600.12
428.736	564.12
428.958	584.12
429.181	564.12
429.403	561.12
429.625	553.12
429.847	609.12
430.069	671.12
430.292	674.12
430.514	618.12
430.736	580.12
430.958	568.12
431.18	557.12
431.402	561.12
431.624	527.12
431.846	549.12
432.068	530.12
432.29	540.12
432.512	547.12
432.734	568.12
432.956	538.12
433.178	563.12
433.4	566.12
433.622	554.12
433.844	547.12
434.066	572.12
434.287	556.12
434.509	573.12
434.731	568.12
434.953	562.12
435.175	581.12
435.397	616.12
435.618	632.12
435.84	664.12
436.062	779.12
436.284	873.12
436.505	692.12
436.727	623.12
436.949	598.12
437.17	556.12
437.392	590.12
437.614	588.12
437.835	601.12
438.057	740.12
438.278	823.12
438.5	853.12
438.721	935.12
438.943	895.12
439.165	716.12
439.386	650.12
439.608	636.12
439.829	612.12
440.05	652.12
440.272	685.12
440.493	668.12
440.715	623.12
440.936	586.12
441.158	576.12
441.379	570.12
441.6	595.12
441.822	608.12
442.043	655.12
442.264	760.12
442.486	812.12
442.707	667.12
442.928	614.12
443.149	646.12
443.371	676.12
443.592	684.12
443.813	825.12
444.034	890.12
444.255	740.12
444.476	650.12
444.698	635.12
444.919	617.12
445.14	737.12
445.361	680.12
445.582	673.12
445.803	765.12
446.024	868.12
446.245	876.12
446.466	790.12
446.687	666.12
446.908	608.12
447.129	606.12
447.35	557.12
447.571	584.12
447.792	561.12
448.013	539.12
448.234	576.12
448.455	632.12
448.675	784.12
448.896	922.12
449.117	776.12
449.338	734.12
449.559	869.12
449.779	986.12
450	780.12
450.221	655.12
450.442	583.12
450.662	557.12
450.883	545.12
451.104	558.12
451.324	549.12
451.545	521.12
451.766	528.12
451.986	495.12
452.207	525.12
452.428	505.12
452.648	501.12
452.869	520.12
453.089	519.12
453.31	527.12
453.53	511.12
453.751	513.12
453.971	513.12
454.192	531.12
454.412	534.12
454.633	511.12
454.853	495.12
455.073	506.12
455.294	538.12
455.514	585.12
455.734	592.12
455.955	508.12
456.175	502.12
456.395	484.12
456.616	484.12
456.836	490.12
457.056	475.12
457.276	479.12
457.497	494.12
457.717	468.12
457.937	502.12
458.157	502.12
458.377	492.12
458.598	541.12
458.818	592.12
459.038	661.12
459.258	677.12
459.478	589.12
459.698	567.12
459.918	527.12
460.138	564.12
460.358	559.12
460.578	569.12
460.798	577.12
461.018	567.12
461.238	558.12
461.458	572.12
461.678	558.12
461.898	561.12
462.118	560.12
462.338	580.12
462.558	568.12
462.777	588.12
462.997	624.12
463.217	612.12
463.437	623.12
463.657	601.12
463.876	609.12
464.096	604.12
464.316	597.12
464.536	617.12
464.755	615.12
464.975	597.12
465.195	635.12
465.414	694.12
465.634	630.12
465.854	592.12
466.073	572.12
466.293	545.12
466.512	554.12
466.732	548.12
466.951	547.12
467.171	522.12
467.391	531.12
467.61	530.12
467.829	534.12
468.049	555.12
468.268	523.12
468.488	537.12
468.707	518.12
468.927	506.12
469.146	517.12
469.365	503.12
469.585	522.12
469.804	533.12
470.023	554.12
470.243	512.12
470.462	538.12
470.681	569.12
470.901	553.12
471.12	556.12
471.339	544.12
471.558	522.12
471.777	549.12
471.997	505.12
472.216	524.12
472.435	580.12
472.654	565.12
472.873	556.12
473.092	526.12
473.311	525.12
473.53	523.12
473.749	528.12
473.968	594.12
474.187	689.12
474.406	684.12
474.625	584.12
474.844	548.12
475.063	544.12
475.282	542.12
475.501	526.12
475.72	544.12
475.939	567.12
476.158	556.12
476.377	559.12
476.596	550.12
476.814	554.12
477.033	556.12
477.252	564.12
477.471	576.12
477.69	583.12
477.908	592.12
478.127	588.12
478.346	572.12
478.564	599.12
478.783	610.12
479.002	606.12
479.22	605.12
479.439	624.12
479.658	612.12
479.876	680.12
480.095	664.12
480.313	674.12
480.532	679.12
480.751	660.12
480.969	658.12
481.188	717.12
481.406	728.12
481.624	670.12
481.843	666.12
482.061	659.12
482.28	646.12
482.498	613.12
482.717	618.12
482.935	633.12
483.153	635.12
483.372	628.12
483.59	636.12
483.808	618.12
484.027	599.12
484.245	629.12
484.463	622.12
484.681	640.12
484.9	650.12
485.118	637.12
485.336	634.12
485.554	654.12
485.772	630.12
485.99	629.12
486.209	621.12
486.427	637.12
486.645	669.12
486.863	697.12
487.081	675.12
487.299	702.12
487.517	669.12
487.735	638.12
487.953	645.12
488.171	666.12
488.389	670.12
488.607	670.12
488.825	675.12
489.043	662.12
489.261	685.12
489.479	671.12
489.696	657.12
489.914	688.12
490.132	691.12
490.35	688.12
490.568	716.12
490.786	700.12
491.003	703.12
491.221	700.12
491.439	725.12
491.657	734.12
491.874	743.12
492.092	752.12
492.31	762.12
492.527	780.12
492.745	749.12
492.963	774.12
493.18	774.12
493.398	756.12
493.615	776.12
493.833	777.12
494.05	742.12
494.268	780.12
494.485	763.12
494.703	775.12
494.92	764.12
495.138	792.12
495.355	807.12
495.573	784.12
495.79	785.12
496.008	802.12
496.225	800.12
496.442	762.12
496.66	772.12
496.877	762.12
497.094	787.12
497.312	813.12
497.529	824.12
497.746	812.12
497.963	865.12
498.181	892.12
498.398	892.12
498.615	912.12
498.832	919.12
499.049	926.12
499.267	938.12
499.484	951.12
499.701	995.12
499.918	1040.12
500.135	1056.12
500.352	1124.12
500.569	1126.12
500.786	1149.12
501.003	1136.12
501.22	1096.12
501.437	1094.12
501.654	1049.12
501.871	1001.12
502.088	959.12
502.305	940.12
502.522	896.12
502.739	877.12
502.956	891.12
503.172	861.12
503.389	835.12
503.606	856.12
503.823	821.12
504.04	786.12
504.256	826.12
504.473	828.12
504.69	814.12
504.907	800.12
505.123	794.12
505.34	778.12
505.557	759.12
505.773	778.12
505.99	768.12
506.207	776.12
506.423	783.12
506.64	756.12
506.856	737.12
507.073	734.12
507.289	727.12
507.506	722.12
507.722	741.12
507.939	738.12
508.155	712.12
508.372	728.12
508.588	710.12
508.805	722.12
509.021	713.12
509.238	733.12
509.454	721.12
509.67	714.12
509.887	695.12
510.103	713.12
510.319	712.12
510.536	806.12
510.752	1223.12
510.968	1028.12
511.184	750.12
511.401	697.12
511.617	688.12
511.833	690.12
512.049	689.12
512.265	692.12
512.481	679.12
512.698	655.12
512.914	661.12
513.13	684.12
513.346	666.12
513.562	660.12
513.778	697.12
513.994	688.12
514.21	701.12
514.426	714.12
514.642	756.12
514.858	766.12
515.074	801.12
515.29	936.12
515.506	1291.12
515.721	1088.12
515.937	809.12
516.153	734.12
516.369	737.12
516.585	724.12
516.801	717.12
517.016	704.12
517.232	727.12
517.448	696.12
517.664	721.12
517.879	702.12
518.095	727.12
518.311	709.12
518.527	702.12
518.742	704.12
518.958	698.12
519.173	671.12
519.389	690.12
519.605	706.12
519.82	684.12
520.036	715.12
520.251	715.12
520.467	725.12
520.682	728.12
520.898	752.12
521.113	717.12
521.329	798.12
521.544	852.12
521.76	1064.12
521.975	1659.12
522.19	1618.12
522.406	956.12
522.621	774.12
522.836	704.12
523.052	676.12
523.267	659.12
523.482	662.12
523.698	636.12
523.913	640.12
524.128	633.12
524.343	624.12
524.559	611.12
524.774	602.12
524.989	616.12
525.204	619.12
525.419	616.12
525.634	607.12
525.849	556.12
526.064	582.12
526.28	586.12
526.495	571.12
526.71	560.12
526.925	571.12
527.14	560.12
527.355	557.12
527.57	577.12
527.785	557.12
527.999	566.12
528.214	558.12
528.429	568.12
528.644	574.12
528.859	562.12
529.074	568.12
529.289	589.12
529.503	648.12
529.718	640.12
529.933	618.12
530.148	562.12
530.363	571.12
530.577	557.12
530.792	559.12
531.007	557.12
531.221	551.12
531.436	574.12
531.651	556.12
531.865	555.12
532.08	549.12
532.295	542.12
532.509	572.12
532.724	545.12
532.938	551.12
533.153	542.12
533.367	551.12
533.582	528.12
533.796	522.12
534.011	537.12
534.225	516.12
534.44	542.12
534.654	549.12
534.868	518.12
535.083	547.12
535.297	550.12
535.511	527.12
535.726	536.12
535.94	539.12
536.154	537.12
536.369	528.12
536.583	531.12
536.797	546.12
537.011	527.12
537.225	512.12
537.44	518.12
537.654	516.12
537.868	537.12
538.082	526.12
538.296	523.12
538.51	534.12
538.724	529.12
538.938	504.12
539.153	526.12
539.367	542.12
539.581	522.12
539.795	498.12
540.009	508.12
540.222	526.12
540.436	504.12
540.65	509.12
540.864	512.12
541.078	527.12
541.292	531.12
541.506	522.12
541.72	514.12
541.934	524.12
542.147	527.12
542.361	527.12
542.575	502.12
542.789	523.12
543.002	543.12
543.216	518.12
543.43	492.12
543.644	520.12
543.857	531.12
544.071	534.12
544.285	514.12
544.498	513.12
544.712	517.12
544.925	528.12
545.139	507.12
545.352	513.12
545.566	495.12
545.779	504.12
545.993	497.12
546.206	518.12
546.42	504.12
546.633	502.12
546.847	512.12
547.06	502.12
547.274	517.12
547.487	490.12
547.7	510.12
547.914	492.12
548.127	487.12
548.34	488.12
548.554	482.12
548.767	488.12
548.98	509.12
549.193	488.12
549.407	504.12
549.62	496.12
549.833	498.12
550.046	496.12
550.259	489.12
550.473	504.12
550.686	484.12
550.899	485.12
551.112	469.12
551.325	502.12
551.538	485.12
551.751	486.12
551.964	487.12
552.177	500.12
552.39	465.12
552.603	508.12
552.816	514.12
553.029	492.12
553.242	505.12
553.455	483.12
553.667	529.12
553.88	523.12
554.093	518.12
554.306	489.12
554.519	490.12
554.732	471.12
554.944	482.12
555.157	476.12
555.37	477.12
555.583	471.12
555.795	481.12
556.008	479.12
556.221	441.12
556.433	448.12
556.646	452.12
556.859	451.12
557.071	432.12
557.284	459.12
557.496	464.12
557.709	447.12
557.921	460.12
558.134	426.12
558.346	447.12
558.559	443.12
558.771	442.12
558.984	440.12
559.196	427.12
559.409	465.12
559.621	460.12
559.833	430.12
560.046	422.12
560.258	428.12
560.47	429.12
560.683	444.12
560.895	446.12
561.107	437.12
561.32	447.12
561.532	439.12
561.744	432.12
561.956	442.12
562.168	436.12
562.381	425.12
562.593	452.12
562.805	442.12
563.017	454.12
563.229	441.12
563.441	444.12
563.653	454.12
563.865	469.12
564.077	441.12
564.289	452.12
564.501	455.12
564.713	453.12
564.925	472.12
565.137	470.12
565.349	495.12
565.561	473.12
565.773	500.12
565.985	497.12
566.197	504.12
566.408	505.12
566.62	546.12
566.832	540.12
567.044	550.12
567.255	553.12
567.467	540.12
567.679	554.12
567.891	562.12
568.102	566.12
568.314	558.12
568.526	540.12
568.737	527.12
568.949	494.12
569.161	482.12
569.372	506.12
569.584	461.12
569.795	445.12
570.007	461.12
570.218	490.12
570.43	474.12
570.641	445.12
570.853	448.12
571.064	426.12
571.276	446.12
571.487	440.12
571.698	414.12
571.91	413.12
572.121	425.12
572.333	426.12
572.544	398.12
572.755	409.12
572.966	406.12
573.178	389.12
573.389	400.12
573.6	399.12
573.811	410.12
574.023	378.12
574.234	387.12
574.445	392.12
574.656	389.12
574.867	370.12
575.078	390.12
575.289	390.12
575.501	381.12
575.712	371.12
575.923	362.12
576.134	375.12
576.345	370.12
576.556	380.12
576.767	380.12
576.978	389.12
577.188	390.12
577.399	384.12
577.61	364.12
577.821	351.12
578.032	376.12
578.243	399.12
578.454	602.12
578.665	470.12
578.875	385.12
579.086	353.12
579.297	369.12
579.508	365.12
579.718	376.12
579.929	350.12
580.14	366.12
580.35	361.12
580.561	352.12
580.772	338.12
580.982	345.12
581.193	341.12
581.403	362.12
581.614	350.12
581.825	345.12
582.035	343.12
582.246	344.12
582.456	344.12
582.667	375.12
582.877	339.12
583.087	349.12
583.298	340.12
583.508	338.12
583.719	340.12
583.929	351.12
584.139	352.12
584.35	335.12
584.56	346.12
584.77	335.12
584.981	330.12
585.191	355.12
585.401	356.12
585.611	352.12
585.821	343.12
586.032	337.12
586.242	335.12
586.452	336.12
586.662	332.12
586.872	338.12
587.082	350.12
587.292	345.12
587.502	347.12
587.713	322.12
587.923	331.12
588.133	330.12
588.343	331.12
588.553	329.12
588.762	330.12
588.972	322.12
589.182	365.12
589.392	350.12
589.602	318.12
589.812	334.12
590.022	329.12
590.232	340.12
590.441	321.12
590.651	338.12
590.861	338.12
591.071	333.12
591.281	356.12
591.49	326.12
591.7	332.12
591.91	329.12
592.119	341.12
592.329	349.12
592.539	360.12
592.748	356.12
592.958	349.12
593.167	336.12
593.377	342.12
593.587	365.12
593.796	366.12
594.006	349.12
594.215	349.12
594.424	347.12
594.634	341.12
594.843	353.12
595.053	374.12
595.262	348.12
595.472	322.12
595.681	347.12
595.89	301.12
596.1	345.12
596.309	328.12
596.518	316.12
596.727	317.12
596.937	320.12
597.146	324.12
597.355	313.12
597.564	310.12
597.774	312.12
597.983	305.12
598.192	303.12
598.401	298.12
598.61	289.12
598.819	300.12
599.028	300.12
599.237	307.12
599.446	297.12
599.655	299.12
599.864	294.12
600.073	294.12
600.282	281.12
600.491	295.12
600.7	296.12
600.909	280.12
601.118	291.12
601.327	295.12
601.536	278.12
601.745	283.12
601.953	284.12
602.162	276.12
602.371	297.12
602.58	294.12
602.789	288.12
602.997	275.12
603.206	270.12
603.415	287.12
603.623	303.12
603.832	272.12
604.041	274.12
604.249	284.12
604.458	279.12
604.666	266.12
604.875	265.12
605.084	278.12
605.292	282.12
605.501	302.12
605.709	265.12
605.918	301.12
606.126	269.12
606.334	277.12
606.543	281.12
606.751	276.12
606.96	287.12
607.168	265.12
607.376	263.12
607.585	257.12
607.793	288.12
608.001	278.12
608.21	264.12
608.418	263.12
608.626	279.12
608.834	272.12
609.043	266.12
609.251	281.12
609.459	273.12
609.667	257.12
609.875	284.12
610.083	267.12
610.291	277.12
610.499	288.12
610.707	258.12
610.916	273.12
611.124	262.12
611.332	270.12
611.54	262.12
611.748	266.12
611.955	270.12
612.163	279.12
612.371	257.12
612.579	264.12
612.787	255.12
612.995	261.12
613.203	258.12
613.411	263.12
613.618	254.12
613.826	256.12
614.034	240.12
614.242	267.12
614.449	269.12
614.657	255.12
614.865	265.12
615.072	264.12
615.28	266.12
615.488	238.12
615.695	254.12
615.903	244.12
616.111	257.12
616.318	262.12
616.526	263.12
616.733	244.12
616.941	241.12
617.148	248.12
617.356	258.12
617.563	257.12
617.771	273.12
617.978	248.12
618.185	264.12
618.393	254.12
618.6	250.12
618.807	245.12
619.015	252.12
619.222	252.12
619.429	250.12
619.637	267.12
619.844	243.12
620.051	249.12
620.258	251.12
620.466	232.12
620.673	234.12
620.88	221.12
621.087	232.12
621.294	238.12
621.501	246.12
621.708	252.12
621.915	249.12
622.122	238.12
622.329	244.12
622.536	241.12
622.743	253.12
622.95	231.12
623.157	239.12
623.364	239.12
623.571	248.12
623.778	232.12
623.985	225.12
624.192	238.12
624.399	224.12
624.606	232.12
624.812	229.12
625.019	244.12
625.226	225.12
625.433	218.12
625.639	234.12
625.846	224.12
626.053	215.12
626.259	221.12
626.466	228.12
626.673	227.12
626.879	234.12
627.086	237.12
627.293	236.12
627.499	230.12
627.706	215.12
627.912	229.12
628.119	213.12
628.325	225.12
628.532	236.12
628.738	233.12
628.945	216.12
629.151	216.12
629.357	216.12
629.564	223.12
629.77	210.12
629.976	213.12
630.183	232.12
630.389	219.12
630.595	220.12
630.802	212.12
631.008	213.12
631.214	212.12
631.42	209.12
631.627	218.12
631.833	216.12
632.039	218.12
632.245	209.12
632.451	201.12
632.657	203.12
632.863	200.12
633.069	186.12
633.275	210.12
633.481	204.12
633.688	219.12
633.893	211.12
634.099	207.12
634.305	206.12
634.511	193.12
634.717	196.12
634.923	177.12
635.129	199.12
635.335	198.12
635.541	188.12
635.747	194.12
635.952	210.12
636.158	200.12
636.364	212.12
636.57	200.12
636.775	186.12
636.981	191.12
637.187	191.12
637.392	200.12
637.598	203.12
637.804	204.12
638.009	195.12
638.215	201.12
638.421	204.12
638.626	204.12
638.832	204.12
639.037	209.12
639.243	191.12
639.448	179.12
639.654	202.12
639.859	194.12
640.065	188.12
640.27	209.12
640.475	194.12
640.681	196.12
640.886	190.12
641.091	189.12
641.297	181.12
641.502	189.12
641.707	184.12
641.913	167.12
642.118	174.12
642.323	173.12
642.528	184.12
642.733	185.12
642.939	191.12
643.144	173.12
643.349	184.12
643.554	191.12
643.759	187.12
643.964	186.12
644.169	178.12
644.374	182.12
644.579	176.12
644.784	184.12
644.989	180.12
645.194	176.12
645.399	166.12
645.604	162.12
645.809	186.12
646.014	180.12
646.219	177.12
646.423	168.12
646.628	209.12
646.833	184.12
647.038	180.12
647.243	174.12
647.447	184.12
647.652	174.12
647.857	201.12
648.062	169.12
648.266	189.12
648.471	173.12
648.676	196.12
648.88	198.12
649.085	183.12
649.289	197.12
649.494	183.12
649.698	209.12
649.903	200.12
650.107	183.12
650.312	190.12
650.516	175.12
650.721	164.12
650.925	156.12
651.13	153.12
651.334	140.12
651.539	167.12
651.743	164.12
651.947	158.12
652.152	156.12
652.356	175.12
652.56	152.12
652.764	152.12
652.969	143.12
653.173	156.12
653.377	146.12
653.581	147.12
653.785	156.12
653.99	142.12
654.194	128.12
654.398	160.12
654.602	157.12
654.806	158.12
655.01	156.12
655.214	169.12
655.418	152.12
655.622	149.12
655.826	144.12
656.03	120.12
656.234	128.12
656.438	144.12
656.642	142.12
656.846	147.12
657.049	136.12
657.253	136.12
657.457	139.12
657.661	131.12
657.865	135.12
658.068	125.12
658.272	122.12
658.476	118.12
658.68	107.12
658.883	92.12
659.087	99.12
659.291	114.12
659.494	109.12
659.698	106.12
659.901	95.12
660.105	105.12
660.309	101.12
660.512	94.12
660.716	114.12
660.919	101.12
661.123	100.12
661.326	95.12
661.53	104.12
661.733	91.12
661.936	97.12
662.14	88.12
662.343	98.12
662.546	89.12
662.75	112.12
662.953	99.12
663.156	93.12
663.36	97.12
663.563	94.12
663.766	86.12
663.969	96.12
664.173	83.12
664.376	93.12
664.579	78.12
664.782	71.12
664.985	95.12
665.188	80.12
665.391	88.12
665.594	86.12
665.797	81.12
666	76.12
666.203	90.12
666.406	82.12
666.609	83.12
666.812	74.12
667.015	97.12
667.218	90.12
667.421	87.12
667.624	86.12
667.827	88.12
668.03	85.12
668.232	98.12
668.435	96.12
668.638	94.12
668.841	73.12
669.043	88.12
669.246	89.12
669.449	93.12
669.651	82.12
669.854	86.12
670.057	77.12
670.259	87.12
670.462	77.12
670.665	94.12
670.867	69.12
671.07	74.12
671.272	84.12
671.475	108.12
671.677	89.12
671.88	70.12
672.082	81.12
672.284	87.12
672.487	84.12
672.689	86.12
672.892	105.12
