Data from 1978.PennyLincolnUp.Lamp.En5.5.200Scan.071719.P1_HRD10591_16-14-20-872.txt Node
Date: Thu Jul 18 16:14:20 EDT 2019
User: cochatt
Spectrometer: HR+D1059
Trigger mode: 1
Integration Time (sec): 1.000000E-1
Scans to average: 1
Electric dark correction enabled: true
Nonlinearity correction enabled: false
Boxcar width: 0
XAxis mode: Wavelengths
Number of Pixels in Spectrum: 2048
>>>>>Begin Spectral Data<<<<<
223.165	-22.69
223.4	-22.69
223.635	-22.69
223.869	-6.69
224.104	-21.69
224.338	-5.69
224.573	-12.69
224.808	-19.69
225.042	-9.69
225.277	0.31
225.511	-8.69
225.746	10.31
225.98	4.31
226.215	17.31
226.449	13.31
226.683	11.31
226.918	26.31
227.152	24.31
227.387	42.31
227.621	49.31
227.856	50.31
228.09	45.31
228.324	55.31
228.559	43.31
228.793	70.31
229.027	94.31
229.262	115.31
229.496	118.31
229.73	140.31
229.964	164.31
230.199	121.31
230.433	101.31
230.667	94.31
230.901	118.31
231.136	107.31
231.37	106.31
231.604	101.31
231.838	115.31
232.072	114.31
232.306	117.31
232.541	104.31
232.775	99.31
233.009	121.31
233.243	107.31
233.477	112.31
233.711	98.31
233.945	118.31
234.179	124.31
234.413	120.31
234.647	128.31
234.881	107.31
235.115	120.31
235.349	116.31
235.583	107.31
235.817	120.31
236.051	125.31
236.285	107.31
236.519	110.31
236.753	120.31
236.987	134.31
237.221	184.31
237.455	229.31
237.689	176.31
237.922	134.31
238.156	141.31
238.39	115.31
238.624	126.31
238.858	117.31
239.091	124.31
239.325	134.31
239.559	113.31
239.793	134.31
240.027	136.31
240.26	152.31
240.494	151.31
240.728	132.31
240.961	139.31
241.195	144.31
241.429	136.31
241.662	114.31
241.896	135.31
242.13	125.31
242.363	124.31
242.597	131.31
242.83	129.31
243.064	123.31
243.298	124.31
243.531	141.31
243.765	152.31
243.998	150.31
244.232	137.31
244.465	134.31
244.699	145.31
244.932	142.31
245.166	133.31
245.399	151.31
245.633	148.31
245.866	129.31
246.099	146.31
246.333	147.31
246.566	141.31
246.8	140.31
247.033	148.31
247.266	157.31
247.5	150.31
247.733	163.31
247.966	167.31
248.2	162.31
248.433	166.31
248.666	190.31
248.899	187.31
249.133	198.31
249.366	189.31
249.599	185.31
249.832	177.31
250.066	160.31
250.299	178.31
250.532	178.31
250.765	190.31
250.998	192.31
251.231	220.31
251.465	192.31
251.698	189.31
251.931	185.31
252.164	180.31
252.397	187.31
252.63	178.31
252.863	196.31
253.096	225.31
253.329	215.31
253.562	222.31
253.795	213.31
254.028	209.31
254.261	207.31
254.494	213.31
254.727	249.31
254.96	253.31
255.193	260.31
255.426	237.31
255.659	221.31
255.892	231.31
256.124	219.31
256.357	197.31
256.59	201.31
256.823	206.31
257.056	192.31
257.289	182.31
257.521	185.31
257.754	194.31
257.987	202.31
258.22	206.31
258.452	213.31
258.685	211.31
258.918	200.31
259.151	197.31
259.383	192.31
259.616	188.31
259.849	196.31
260.081	219.31
260.314	232.31
260.547	231.31
260.779	223.31
261.012	232.31
261.244	209.31
261.477	231.31
261.71	206.31
261.942	212.31
262.175	224.31
262.407	212.31
262.64	197.31
262.872	210.31
263.105	211.31
263.337	213.31
263.57	208.31
263.802	200.31
264.035	185.31
264.267	194.31
264.499	200.31
264.732	222.31
264.964	226.31
265.197	195.31
265.429	208.31
265.661	214.31
265.894	212.31
266.126	210.31
266.358	197.31
266.591	203.31
266.823	222.31
267.055	210.31
267.287	206.31
267.52	224.31
267.752	228.31
267.984	229.31
268.216	218.31
268.448	221.31
268.681	222.31
268.913	224.31
269.145	236.31
269.377	269.31
269.609	257.31
269.841	260.31
270.073	242.31
270.306	277.31
270.538	304.31
270.77	298.31
271.002	279.31
271.234	271.31
271.466	270.31
271.698	289.31
271.93	291.31
272.162	295.31
272.394	291.31
272.626	288.31
272.858	265.31
273.09	281.31
273.322	252.31
273.553	246.31
273.785	273.31
274.017	258.31
274.249	245.31
274.481	256.31
274.713	256.31
274.945	262.31
275.176	253.31
275.408	254.31
275.64	253.31
275.872	226.31
276.104	246.31
276.335	256.31
276.567	271.31
276.799	277.31
277.031	292.31
277.262	303.31
277.494	314.31
277.726	274.31
277.957	278.31
278.189	271.31
278.421	258.31
278.652	254.31
278.884	259.31
279.115	256.31
279.347	253.31
279.579	261.31
279.81	241.31
280.042	253.31
280.273	260.31
280.505	266.31
280.736	256.31
280.968	261.31
281.199	255.31
281.431	259.31
281.662	240.31
281.894	262.31
282.125	266.31
282.356	300.31
282.588	302.31
282.819	291.31
283.051	250.31
283.282	281.31
283.513	261.31
283.745	251.31
283.976	280.31
284.207	268.31
284.439	277.31
284.67	262.31
284.901	280.31
285.132	252.31
285.364	254.31
285.595	260.31
285.826	251.31
286.057	274.31
286.288	270.31
286.52	276.31
286.751	268.31
286.982	267.31
287.213	265.31
287.444	274.31
287.675	270.31
287.906	302.31
288.138	307.31
288.369	291.31
288.6	305.31
288.831	277.31
289.062	286.31
289.293	276.31
289.524	262.31
289.755	268.31
289.986	296.31
290.217	276.31
290.448	274.31
290.679	287.31
290.91	264.31
291.141	291.31
291.371	272.31
291.602	267.31
291.833	280.31
292.064	284.31
292.295	275.31
292.526	283.31
292.757	284.31
292.987	272.31
293.218	263.31
293.449	292.31
293.68	276.31
293.91	297.31
294.141	285.31
294.372	277.31
294.603	289.31
294.833	273.31
295.064	289.31
295.295	293.31
295.525	281.31
295.756	284.31
295.987	301.31
296.217	307.31
296.448	309.31
296.679	298.31
296.909	299.31
297.14	296.31
297.37	313.31
297.601	304.31
297.831	294.31
298.062	296.31
298.292	291.31
298.523	293.31
298.753	317.31
298.984	294.31
299.214	297.31
299.445	294.31
299.675	309.31
299.905	300.31
300.136	301.31
300.366	300.31
300.597	297.31
300.827	309.31
301.057	313.31
301.288	313.31
301.518	297.31
301.748	315.31
301.979	313.31
302.209	344.31
302.439	320.31
302.669	316.31
302.9	300.31
303.13	311.31
303.36	299.31
303.59	321.31
303.82	326.31
304.051	327.31
304.281	310.31
304.511	308.31
304.741	321.31
304.971	325.31
305.201	293.31
305.431	298.31
305.661	317.31
305.891	325.31
306.121	312.31
306.352	341.31
306.582	312.31
306.812	304.31
307.042	316.31
307.272	322.31
307.502	317.31
307.731	321.31
307.961	334.31
308.191	312.31
308.421	327.31
308.651	338.31
308.881	323.31
309.111	320.31
309.341	333.31
309.571	343.31
309.8	365.31
310.03	364.31
310.26	370.31
310.49	352.31
310.72	357.31
310.949	381.31
311.179	381.31
311.409	368.31
311.639	364.31
311.868	363.31
312.098	364.31
312.328	358.31
312.557	382.31
312.787	421.31
313.017	407.31
313.246	380.31
313.476	361.31
313.706	370.31
313.935	361.31
314.165	359.31
314.394	374.31
314.624	400.31
314.853	374.31
315.083	380.31
315.312	376.31
315.542	376.31
315.771	355.31
316.001	346.31
316.23	349.31
316.46	357.31
316.689	354.31
316.919	372.31
317.148	382.31
317.377	374.31
317.607	382.31
317.836	376.31
318.065	375.31
318.295	373.31
318.524	346.31
318.753	347.31
318.983	388.31
319.212	370.31
319.441	387.31
319.67	373.31
319.9	357.31
320.129	362.31
320.358	381.31
320.587	374.31
320.816	379.31
321.046	386.31
321.275	388.31
321.504	362.31
321.733	382.31
321.962	405.31
322.191	395.31
322.42	415.31
322.649	438.31
322.878	437.31
323.108	443.31
323.337	464.31
323.566	492.31
323.795	480.31
324.024	552.31
324.253	680.31
324.482	989.31
324.71	1570.31
324.939	2399.31
325.168	2066.31
325.397	956.31
325.626	650.31
325.855	550.31
326.084	493.31
326.313	488.31
326.542	489.31
326.77	521.31
326.999	629.31
327.228	869.31
327.457	1410.31
327.686	1798.31
327.914	1123.31
328.143	717.31
328.372	605.31
328.6	550.31
328.829	567.31
329.058	557.31
329.287	565.31
329.515	532.31
329.744	487.31
329.972	489.31
330.201	530.31
330.43	550.31
330.658	562.31
330.887	576.31
331.115	596.31
331.344	489.31
331.572	476.31
331.801	468.31
332.03	468.31
332.258	467.31
332.486	455.31
332.715	429.31
332.943	450.31
333.172	442.31
333.4	451.31
333.629	456.31
333.857	491.31
334.085	468.31
334.314	482.31
334.542	509.31
334.771	525.31
334.999	490.31
335.227	457.31
335.455	473.31
335.684	466.31
335.912	444.31
336.14	441.31
336.369	441.31
336.597	439.31
336.825	452.31
337.053	448.31
337.281	453.31
337.51	428.31
337.738	452.31
337.966	437.31
338.194	457.31
338.422	444.31
338.65	430.31
338.878	424.31
339.106	436.31
339.334	430.31
339.562	433.31
339.79	411.31
340.018	436.31
340.246	430.31
340.474	432.31
340.702	418.31
340.93	442.31
341.158	414.31
341.386	441.31
341.614	435.31
341.842	425.31
342.07	438.31
342.298	443.31
342.526	411.31
342.754	417.31
342.981	410.31
343.209	412.31
343.437	394.31
343.665	404.31
343.893	436.31
344.12	430.31
344.348	444.31
344.576	441.31
344.804	450.31
345.031	445.31
345.259	443.31
345.487	458.31
345.714	451.31
345.942	427.31
346.17	418.31
346.397	400.31
346.625	420.31
346.853	394.31
347.08	425.31
347.308	425.31
347.535	423.31
347.763	423.31
347.99	433.31
348.218	418.31
348.445	426.31
348.673	420.31
348.9	412.31
349.128	422.31
349.355	380.31
349.583	410.31
349.81	401.31
350.037	396.31
350.265	402.31
350.492	417.31
350.72	402.31
350.947	406.31
351.174	414.31
351.402	423.31
351.629	429.31
351.856	432.31
352.083	416.31
352.311	423.31
352.538	440.31
352.765	446.31
352.992	402.31
353.22	417.31
353.447	399.31
353.674	414.31
353.901	394.31
354.128	402.31
354.355	395.31
354.583	408.31
354.81	389.31
355.037	374.31
355.264	391.31
355.491	397.31
355.718	404.31
355.945	382.31
356.172	402.31
356.399	388.31
356.626	380.31
356.853	390.31
357.08	400.31
357.307	377.31
357.534	400.31
357.761	379.31
357.988	389.31
358.215	390.31
358.441	396.31
358.668	376.31
358.895	398.31
359.122	414.31
359.349	398.31
359.576	418.31
359.802	454.31
360.029	466.31
360.256	449.31
360.483	456.31
360.709	436.31
360.936	406.31
361.163	421.31
361.39	422.31
361.616	412.31
361.843	398.31
362.07	423.31
362.296	420.31
362.523	418.31
362.749	421.31
362.976	417.31
363.203	414.31
363.429	393.31
363.656	394.31
363.882	403.31
364.109	422.31
364.335	417.31
364.562	413.31
364.788	413.31
365.015	405.31
365.241	396.31
365.468	410.31
365.694	416.31
365.92	412.31
366.147	384.31
366.373	390.31
366.599	401.31
366.826	418.31
367.052	384.31
367.278	403.31
367.505	400.31
367.731	412.31
367.957	408.31
368.184	408.31
368.41	402.31
368.636	427.31
368.862	424.31
369.089	414.31
369.315	401.31
369.541	394.31
369.767	391.31
369.993	412.31
370.219	410.31
370.445	415.31
370.672	411.31
370.898	399.31
371.124	412.31
371.35	412.31
371.576	406.31
371.802	410.31
372.028	415.31
372.254	405.31
372.48	388.31
372.706	422.31
372.932	439.31
373.158	418.31
373.384	439.31
373.61	412.31
373.835	404.31
374.061	413.31
374.287	437.31
374.513	426.31
374.739	406.31
374.965	416.31
375.191	430.31
375.416	416.31
375.642	409.31
375.868	415.31
376.094	409.31
376.319	394.31
376.545	400.31
376.771	419.31
376.997	385.31
377.222	395.31
377.448	396.31
377.674	407.31
377.899	399.31
378.125	397.31
378.35	411.31
378.576	371.31
378.802	398.31
379.027	429.31
379.253	415.31
379.478	409.31
379.704	424.31
379.929	400.31
380.155	412.31
380.38	417.31
380.606	417.31
380.831	411.31
381.057	426.31
381.282	409.31
381.507	418.31
381.733	413.31
381.958	416.31
382.184	427.31
382.409	408.31
382.634	422.31
382.86	418.31
383.085	445.31
383.31	430.31
383.535	419.31
383.761	426.31
383.986	424.31
384.211	439.31
384.436	438.31
384.662	433.31
384.887	408.31
385.112	436.31
385.337	420.31
385.562	442.31
385.787	445.31
386.013	473.31
386.238	467.31
386.463	472.31
386.688	462.31
386.913	449.31
387.138	469.31
387.363	461.31
387.588	460.31
387.813	454.31
388.038	443.31
388.263	456.31
388.488	456.31
388.713	451.31
388.938	452.31
389.163	449.31
389.387	453.31
389.612	449.31
389.837	464.31
390.062	443.31
390.287	445.31
390.512	467.31
390.736	456.31
390.961	474.31
391.186	458.31
391.411	458.31
391.636	471.31
391.86	458.31
392.085	467.31
392.31	473.31
392.534	462.31
392.759	467.31
392.984	487.31
393.208	457.31
393.433	462.31
393.658	459.31
393.882	470.31
394.107	452.31
394.331	472.31
394.556	461.31
394.78	481.31
395.005	478.31
395.229	473.31
395.454	472.31
395.678	479.31
395.903	485.31
396.127	536.31
396.352	531.31
396.576	495.31
396.801	484.31
397.025	489.31
397.249	503.31
397.474	484.31
397.698	483.31
397.922	500.31
398.147	521.31
398.371	541.31
398.595	531.31
398.82	529.31
399.044	524.31
399.268	536.31
399.492	578.31
399.717	592.31
399.941	651.31
400.165	644.31
400.389	664.31
400.613	600.31
400.837	545.31
401.062	547.31
401.286	542.31
401.51	555.31
401.734	527.31
401.958	544.31
402.182	531.31
402.406	545.31
402.63	545.31
402.854	547.31
403.078	554.31
403.302	537.31
403.526	552.31
403.75	547.31
403.974	541.31
404.198	555.31
404.422	555.31
404.645	553.31
404.869	552.31
405.093	599.31
405.317	651.31
405.541	686.31
405.765	621.31
405.988	598.31
406.212	600.31
406.436	608.31
406.66	607.31
406.883	598.31
407.107	641.31
407.331	660.31
407.555	740.31
407.778	765.31
408.002	666.31
408.226	628.31
408.449	603.31
408.673	596.31
408.896	628.31
409.12	702.31
409.344	658.31
409.567	594.31
409.791	566.31
410.014	581.31
410.238	570.31
410.461	564.31
410.685	567.31
410.908	580.31
411.132	618.31
411.355	649.31
411.578	614.31
411.802	570.31
412.025	556.31
412.249	565.31
412.472	592.31
412.695	654.31
412.919	626.31
413.142	563.31
413.365	550.31
413.589	567.31
413.812	547.31
414.035	540.31
414.258	517.31
414.482	536.31
414.705	537.31
414.928	538.31
415.151	521.31
415.374	532.31
415.597	518.31
415.821	511.31
416.044	516.31
416.267	550.31
416.49	519.31
416.713	504.31
416.936	546.31
417.159	540.31
417.382	521.31
417.605	504.31
417.828	534.31
418.051	547.31
418.274	552.31
418.497	532.31
418.72	524.31
418.943	522.31
419.166	540.31
419.389	568.31
419.611	558.31
419.834	548.31
420.057	549.31
420.28	548.31
420.503	566.31
420.726	554.31
420.948	567.31
421.171	584.31
421.394	642.31
421.617	592.31
421.839	555.31
422.062	554.31
422.285	585.31
422.507	632.31
422.73	717.31
422.953	668.31
423.175	598.31
423.398	569.31
423.621	586.31
423.843	589.31
424.066	602.31
424.288	590.31
424.511	603.31
424.733	633.31
424.956	716.31
425.178	711.31
425.401	713.31
425.623	734.31
425.846	632.31
426.068	581.31
426.291	581.31
426.513	577.31
426.735	589.31
426.958	635.31
427.18	717.31
427.402	877.31
427.625	976.31
427.847	832.31
428.069	701.31
428.292	628.31
428.514	583.31
428.736	581.31
428.958	561.31
429.181	545.31
429.403	538.31
429.625	557.31
429.847	584.31
430.069	657.31
430.292	664.31
430.514	574.31
430.736	534.31
430.958	563.31
431.18	537.31
431.402	530.31
431.624	489.31
431.846	512.31
432.068	525.31
432.29	534.31
432.512	512.31
432.734	550.31
432.956	531.31
433.178	558.31
433.4	545.31
433.622	535.31
433.844	543.31
434.066	521.31
434.287	532.31
434.509	528.31
434.731	511.31
434.953	520.31
435.175	570.31
435.397	594.31
435.618	576.31
435.84	632.31
436.062	736.31
436.284	843.31
436.505	657.31
436.727	602.31
436.949	556.31
437.17	541.31
437.392	547.31
437.614	547.31
437.835	587.31
438.057	707.31
438.278	804.31
438.5	840.31
438.721	906.31
438.943	868.31
439.165	673.31
439.386	607.31
439.608	581.31
439.829	587.31
440.05	641.31
440.272	678.31
440.493	617.31
440.715	583.31
440.936	537.31
441.158	554.31
441.379	516.31
441.6	565.31
441.822	570.31
442.043	630.31
442.264	722.31
442.486	810.31
442.707	652.31
442.928	609.31
443.149	628.31
443.371	645.31
443.592	662.31
443.813	785.31
444.034	893.31
444.255	680.31
444.476	613.31
444.698	613.31
444.919	585.31
445.14	676.31
445.361	668.31
445.582	670.31
445.803	702.31
446.024	812.31
446.245	854.31
446.466	766.31
446.687	661.31
446.908	594.31
447.129	570.31
447.35	544.31
447.571	532.31
447.792	523.31
448.013	532.31
448.234	578.31
448.455	617.31
448.675	755.31
448.896	883.31
449.117	713.31
449.338	689.31
449.559	793.31
449.779	943.31
450	733.31
450.221	610.31
450.442	558.31
450.662	540.31
450.883	532.31
451.104	546.31
451.324	563.31
451.545	530.31
451.766	493.31
451.986	484.31
452.207	475.31
452.428	492.31
452.648	500.31
452.869	498.31
453.089	514.31
453.31	502.31
453.53	501.31
453.751	506.31
453.971	474.31
454.192	517.31
454.412	517.31
454.633	475.31
454.853	503.31
455.073	504.31
455.294	526.31
455.514	561.31
455.734	576.31
455.955	506.31
456.175	483.31
456.395	463.31
456.616	474.31
456.836	448.31
457.056	449.31
457.276	435.31
457.497	465.31
457.717	465.31
457.937	484.31
458.157	508.31
458.377	479.31
458.598	511.31
458.818	538.31
459.038	635.31
459.258	644.31
459.478	563.31
459.698	543.31
459.918	508.31
460.138	515.31
460.358	514.31
460.578	537.31
460.798	544.31
461.018	544.31
461.238	534.31
461.458	521.31
461.678	510.31
461.898	552.31
462.118	552.31
462.338	552.31
462.558	569.31
462.777	566.31
462.997	573.31
463.217	564.31
463.437	587.31
463.657	549.31
463.876	573.31
464.096	580.31
464.316	584.31
464.536	572.31
464.755	563.31
464.975	603.31
465.195	614.31
465.414	680.31
465.634	574.31
465.854	543.31
466.073	556.31
466.293	510.31
466.512	525.31
466.732	502.31
466.951	513.31
467.171	487.31
467.391	496.31
467.61	504.31
467.829	515.31
468.049	515.31
468.268	504.31
468.488	500.31
468.707	515.31
468.927	482.31
469.146	481.31
469.365	505.31
469.585	509.31
469.804	506.31
470.023	533.31
470.243	489.31
470.462	534.31
470.681	516.31
470.901	539.31
471.12	512.31
471.339	494.31
471.558	510.31
471.777	512.31
471.997	467.31
472.216	515.31
472.435	546.31
472.654	529.31
472.873	527.31
473.092	520.31
473.311	512.31
473.53	509.31
473.749	523.31
473.968	562.31
474.187	662.31
474.406	690.31
474.625	564.31
474.844	534.31
475.063	540.31
475.282	518.31
475.501	525.31
475.72	531.31
475.939	509.31
476.158	506.31
476.377	519.31
476.596	527.31
476.814	555.31
477.033	531.31
477.252	535.31
477.471	525.31
477.69	561.31
477.908	548.31
478.127	548.31
478.346	566.31
478.564	576.31
478.783	578.31
479.002	583.31
479.22	586.31
479.439	555.31
479.658	588.31
479.876	617.31
480.095	621.31
480.313	663.31
480.532	642.31
480.751	640.31
480.969	617.31
481.188	665.31
481.406	697.31
481.624	670.31
481.843	646.31
482.061	615.31
482.28	611.31
482.498	594.31
482.717	590.31
482.935	593.31
483.153	614.31
483.372	583.31
483.59	592.31
483.808	597.31
484.027	602.31
484.245	610.31
484.463	601.31
484.681	617.31
484.9	597.31
485.118	604.31
485.336	612.31
485.554	617.31
485.772	609.31
485.99	615.31
486.209	608.31
486.427	640.31
486.645	643.31
486.863	664.31
487.081	654.31
487.299	630.31
487.517	643.31
487.735	668.31
487.953	637.31
488.171	647.31
488.389	618.31
488.607	645.31
488.825	632.31
489.043	618.31
489.261	640.31
489.479	639.31
489.696	669.31
489.914	650.31
490.132	661.31
490.35	677.31
490.568	650.31
490.786	649.31
491.003	654.31
491.221	670.31
491.439	700.31
491.657	728.31
491.874	705.31
492.092	697.31
492.31	722.31
492.527	731.31
492.745	728.31
492.963	738.31
493.18	749.31
493.398	764.31
493.615	738.31
493.833	741.31
494.05	741.31
494.268	739.31
494.485	725.31
494.703	766.31
494.92	756.31
495.138	749.31
495.355	761.31
495.573	755.31
495.79	744.31
496.008	769.31
496.225	759.31
496.442	753.31
496.66	775.31
496.877	771.31
497.094	749.31
497.312	770.31
497.529	788.31
497.746	797.31
497.963	821.31
498.181	797.31
498.398	838.31
498.615	858.31
498.832	877.31
499.049	891.31
499.267	900.31
499.484	900.31
499.701	955.31
499.918	985.31
500.135	1034.31
500.352	1058.31
500.569	1084.31
500.786	1112.31
501.003	1077.31
501.22	1061.31
501.437	1031.31
501.654	1010.31
501.871	988.31
502.088	914.31
502.305	890.31
502.522	877.31
502.739	845.31
502.956	813.31
503.172	836.31
503.389	802.31
503.606	798.31
503.823	795.31
504.04	784.31
504.256	775.31
504.473	773.31
504.69	754.31
504.907	790.31
505.123	738.31
505.34	766.31
505.557	741.31
505.773	736.31
505.99	749.31
506.207	735.31
506.423	745.31
506.64	726.31
506.856	679.31
507.073	704.31
507.289	715.31
507.506	694.31
507.722	703.31
507.939	727.31
508.155	701.31
508.372	710.31
508.588	677.31
508.805	701.31
509.021	692.31
509.238	685.31
509.454	688.31
509.67	684.31
509.887	684.31
510.103	665.31
510.319	666.31
510.536	757.31
510.752	1188.31
510.968	989.31
511.184	712.31
511.401	682.31
511.617	659.31
511.833	617.31
512.049	649.31
512.265	656.31
512.481	649.31
512.698	648.31
512.914	636.31
513.13	625.31
513.346	655.31
513.562	621.31
513.778	635.31
513.994	674.31
514.21	660.31
514.426	655.31
514.642	704.31
514.858	740.31
515.074	778.31
515.29	909.31
515.506	1213.31
515.721	1069.31
515.937	765.31
516.153	721.31
516.369	676.31
516.585	702.31
516.801	697.31
517.016	715.31
517.232	680.31
517.448	650.31
517.664	696.31
517.879	700.31
518.095	683.31
518.311	684.31
518.527	674.31
518.742	665.31
518.958	692.31
519.173	646.31
519.389	667.31
519.605	644.31
519.82	644.31
520.036	676.31
520.251	685.31
520.467	704.31
520.682	676.31
520.898	717.31
521.113	707.31
521.329	754.31
521.544	862.31
521.76	1004.31
521.975	1564.31
522.19	1570.31
522.406	910.31
522.621	731.31
522.836	666.31
523.052	659.31
523.267	632.31
523.482	623.31
523.698	606.31
523.913	620.31
524.128	603.31
524.343	585.31
524.559	586.31
524.774	581.31
524.989	579.31
525.204	564.31
525.419	582.31
525.634	569.31
525.849	572.31
526.064	547.31
526.28	578.31
526.495	549.31
526.71	547.31
526.925	533.31
527.14	555.31
527.355	542.31
527.57	516.31
527.785	575.31
527.999	529.31
528.214	526.31
528.429	540.31
528.644	555.31
528.859	550.31
529.074	517.31
529.289	542.31
529.503	654.31
529.718	618.31
529.933	567.31
530.148	551.31
530.363	538.31
530.577	550.31
530.792	524.31
531.007	540.31
531.221	544.31
531.436	525.31
531.651	524.31
531.865	520.31
532.08	523.31
532.295	503.31
532.509	516.31
532.724	516.31
532.938	530.31
533.153	519.31
533.367	512.31
533.582	516.31
533.796	505.31
534.011	500.31
534.225	512.31
534.44	510.31
534.654	496.31
534.868	513.31
535.083	508.31
535.297	508.31
535.511	520.31
535.726	513.31
535.94	519.31
536.154	517.31
536.369	492.31
536.583	499.31
536.797	501.31
537.011	503.31
537.225	496.31
537.44	516.31
537.654	513.31
537.868	491.31
538.082	506.31
538.296	512.31
538.51	496.31
538.724	495.31
538.938	492.31
539.153	492.31
539.367	510.31
539.581	520.31
539.795	503.31
540.009	508.31
540.222	502.31
540.436	492.31
540.65	504.31
540.864	509.31
541.078	507.31
541.292	506.31
541.506	529.31
541.72	504.31
541.934	489.31
542.147	491.31
542.361	496.31
542.575	472.31
542.789	484.31
543.002	481.31
543.216	491.31
543.43	500.31
543.644	500.31
543.857	480.31
544.071	477.31
544.285	487.31
544.498	469.31
544.712	492.31
544.925	508.31
545.139	481.31
545.352	501.31
545.566	483.31
545.779	484.31
545.993	500.31
546.206	497.31
546.42	499.31
546.633	487.31
546.847	464.31
547.06	459.31
547.274	481.31
547.487	477.31
547.7	478.31
547.914	487.31
548.127	482.31
548.34	469.31
548.554	471.31
548.767	467.31
548.98	472.31
549.193	467.31
549.407	455.31
549.62	469.31
549.833	474.31
550.046	473.31
550.259	463.31
550.473	477.31
550.686	462.31
550.899	496.31
551.112	468.31
551.325	454.31
551.538	472.31
551.751	466.31
551.964	465.31
552.177	457.31
552.39	478.31
552.603	454.31
552.816	483.31
553.029	486.31
553.242	483.31
553.455	480.31
553.667	486.31
553.88	499.31
554.093	488.31
554.306	477.31
554.519	456.31
554.732	468.31
554.944	468.31
555.157	458.31
555.37	468.31
555.583	442.31
555.795	480.31
556.008	441.31
556.221	442.31
556.433	437.31
556.646	424.31
556.859	437.31
557.071	440.31
557.284	434.31
557.496	449.31
557.709	455.31
557.921	434.31
558.134	429.31
558.346	440.31
558.559	453.31
558.771	421.31
558.984	422.31
559.196	419.31
559.409	417.31
559.621	423.31
559.833	405.31
560.046	416.31
560.258	418.31
560.47	441.31
560.683	417.31
560.895	413.31
561.107	428.31
561.32	436.31
561.532	433.31
561.744	432.31
561.956	410.31
562.168	428.31
562.381	417.31
562.593	420.31
562.805	427.31
563.017	451.31
563.229	416.31
563.441	430.31
563.653	448.31
563.865	425.31
564.077	421.31
564.289	452.31
564.501	448.31
564.713	458.31
564.925	468.31
565.137	466.31
565.349	462.31
565.561	464.31
565.773	466.31
565.985	463.31
566.197	494.31
566.408	505.31
566.62	488.31
566.832	530.31
567.044	506.31
567.255	511.31
567.467	540.31
567.679	557.31
567.891	558.31
568.102	547.31
568.314	518.31
568.526	516.31
568.737	491.31
568.949	474.31
569.161	488.31
569.372	468.31
569.584	445.31
569.795	437.31
570.007	430.31
570.218	484.31
570.43	454.31
570.641	443.31
570.853	408.31
571.064	414.31
571.276	411.31
571.487	410.31
571.698	415.31
571.91	384.31
572.121	387.31
572.333	393.31
572.544	394.31
572.755	402.31
572.966	398.31
573.178	382.31
573.389	387.31
573.6	366.31
573.811	413.31
574.023	370.31
574.234	378.31
574.445	358.31
574.656	366.31
574.867	372.31
575.078	368.31
575.289	369.31
575.501	374.31
575.712	387.31
575.923	391.31
576.134	355.31
576.345	360.31
576.556	350.31
576.767	352.31
576.978	376.31
577.188	354.31
577.399	346.31
577.61	345.31
577.821	347.31
578.032	371.31
578.243	390.31
578.454	548.31
578.665	436.31
578.875	362.31
579.086	351.31
579.297	359.31
579.508	348.31
579.718	344.31
579.929	332.31
580.14	340.31
580.35	333.31
580.561	346.31
580.772	331.31
580.982	342.31
581.193	331.31
581.403	342.31
581.614	355.31
581.825	333.31
582.035	341.31
582.246	306.31
582.456	332.31
582.667	328.31
582.877	332.31
583.087	348.31
583.298	332.31
583.508	355.31
583.719	332.31
583.929	329.31
584.139	347.31
584.35	321.31
584.56	329.31
584.77	331.31
584.981	322.31
585.191	328.31
585.401	311.31
585.611	320.31
585.821	319.31
586.032	324.31
586.242	312.31
586.452	321.31
586.662	334.31
586.872	322.31
587.082	322.31
587.292	313.31
587.502	309.31
587.713	331.31
587.923	321.31
588.133	325.31
588.343	335.31
588.553	322.31
588.762	331.31
588.972	304.31
589.182	305.31
589.392	326.31
589.602	300.31
589.812	323.31
590.022	324.31
590.232	327.31
590.441	332.31
590.651	303.31
590.861	314.31
591.071	319.31
591.281	318.31
591.49	333.31
591.7	323.31
591.91	322.31
592.119	321.31
592.329	343.31
592.539	325.31
592.748	328.31
592.958	339.31
593.167	342.31
593.377	300.31
593.587	326.31
593.796	336.31
594.006	336.31
594.215	344.31
594.424	337.31
594.634	341.31
594.843	341.31
595.053	319.31
595.262	310.31
595.472	315.31
595.681	300.31
595.89	320.31
596.1	300.31
596.309	302.31
596.518	310.31
596.727	300.31
596.937	325.31
597.146	290.31
597.355	293.31
597.564	305.31
597.774	295.31
597.983	311.31
598.192	280.31
598.401	297.31
598.61	293.31
598.819	321.31
599.028	286.31
599.237	281.31
599.446	288.31
599.655	285.31
599.864	301.31
600.073	290.31
600.282	287.31
600.491	297.31
600.7	284.31
600.909	277.31
601.118	269.31
601.327	291.31
601.536	269.31
601.745	282.31
601.953	288.31
602.162	284.31
602.371	280.31
602.58	270.31
602.789	262.31
602.997	282.31
603.206	273.31
603.415	280.31
603.623	285.31
603.832	275.31
604.041	244.31
604.249	260.31
604.458	265.31
604.666	268.31
604.875	249.31
605.084	251.31
605.292	277.31
605.501	257.31
605.709	259.31
605.918	265.31
606.126	264.31
606.334	266.31
606.543	255.31
606.751	244.31
606.96	256.31
607.168	268.31
607.376	247.31
607.585	254.31
607.793	276.31
608.001	253.31
608.21	256.31
608.418	282.31
608.626	255.31
608.834	251.31
609.043	262.31
609.251	252.31
609.459	258.31
609.667	258.31
609.875	267.31
610.083	267.31
610.291	259.31
610.499	268.31
610.707	268.31
610.916	244.31
611.124	269.31
611.332	264.31
611.54	247.31
611.748	260.31
611.955	275.31
612.163	241.31
612.371	265.31
612.579	262.31
612.787	242.31
612.995	243.31
613.203	251.31
613.411	262.31
613.618	243.31
613.826	253.31
614.034	260.31
614.242	253.31
614.449	256.31
614.657	248.31
614.865	244.31
615.072	258.31
615.28	265.31
615.488	255.31
615.695	245.31
615.903	231.31
616.111	244.31
616.318	247.31
616.526	261.31
616.733	242.31
616.941	252.31
617.148	268.31
617.356	249.31
617.563	257.31
617.771	251.31
617.978	233.31
618.185	233.31
618.393	259.31
618.6	235.31
618.807	256.31
619.015	237.31
619.222	241.31
619.429	246.31
619.637	229.31
619.844	252.31
620.051	233.31
620.258	232.31
620.466	226.31
620.673	222.31
620.88	237.31
621.087	217.31
621.294	235.31
621.501	238.31
621.708	229.31
621.915	229.31
622.122	257.31
622.329	225.31
622.536	233.31
622.743	231.31
622.95	242.31
623.157	245.31
623.364	234.31
623.571	230.31
623.778	232.31
623.985	237.31
624.192	232.31
624.399	230.31
624.606	212.31
624.812	219.31
625.019	216.31
625.226	220.31
625.433	219.31
625.639	214.31
625.846	212.31
626.053	228.31
626.259	216.31
626.466	214.31
626.673	213.31
626.879	217.31
627.086	238.31
627.293	231.31
627.499	218.31
627.706	210.31
627.912	228.31
628.119	217.31
628.325	215.31
628.532	219.31
628.738	225.31
628.945	209.31
629.151	217.31
629.357	206.31
629.564	210.31
629.77	199.31
629.976	199.31
630.183	205.31
630.389	216.31
630.595	207.31
630.802	207.31
631.008	199.31
631.214	200.31
631.42	203.31
631.627	214.31
631.833	196.31
632.039	204.31
632.245	204.31
632.451	196.31
632.657	205.31
632.863	206.31
633.069	194.31
633.275	212.31
633.481	202.31
633.688	216.31
633.893	199.31
634.099	194.31
634.305	184.31
634.511	209.31
634.717	200.31
634.923	195.31
635.129	188.31
635.335	187.31
635.541	209.31
635.747	183.31
635.952	192.31
636.158	182.31
636.364	185.31
636.57	191.31
636.775	177.31
636.981	201.31
637.187	182.31
637.392	193.31
637.598	186.31
637.804	176.31
638.009	184.31
638.215	186.31
638.421	184.31
638.626	176.31
638.832	184.31
639.037	180.31
639.243	188.31
639.448	190.31
639.654	193.31
639.859	173.31
640.065	164.31
640.27	182.31
640.475	205.31
640.681	187.31
640.886	186.31
641.091	193.31
641.297	183.31
641.502	189.31
641.707	182.31
641.913	170.31
642.118	168.31
642.323	169.31
642.528	180.31
642.733	162.31
642.939	186.31
643.144	178.31
643.349	179.31
643.554	188.31
643.759	176.31
643.964	170.31
644.169	179.31
644.374	169.31
644.579	165.31
644.784	167.31
644.989	173.31
645.194	172.31
645.399	177.31
645.604	178.31
645.809	182.31
646.014	181.31
646.219	171.31
646.423	181.31
646.628	160.31
646.833	172.31
647.038	172.31
647.243	188.31
647.447	165.31
647.652	164.31
647.857	182.31
648.062	165.31
648.266	174.31
648.471	167.31
648.676	181.31
648.88	173.31
649.085	167.31
649.289	186.31
649.494	182.31
649.698	196.31
649.903	213.31
650.107	179.31
650.312	161.31
650.516	161.31
650.721	157.31
650.925	171.31
651.13	170.31
651.334	153.31
651.539	149.31
651.743	145.31
651.947	158.31
652.152	155.31
652.356	151.31
652.56	164.31
652.764	148.31
652.969	134.31
653.173	138.31
653.377	136.31
653.581	137.31
653.785	164.31
653.99	144.31
654.194	128.31
654.398	132.31
654.602	146.31
654.806	135.31
655.01	134.31
655.214	170.31
655.418	138.31
655.622	135.31
655.826	141.31
656.03	140.31
656.234	149.31
656.438	130.31
656.642	138.31
656.846	127.31
657.049	122.31
657.253	110.31
657.457	103.31
657.661	122.31
657.865	116.31
658.068	119.31
658.272	106.31
658.476	106.31
658.68	97.31
658.883	99.31
659.087	113.31
659.291	107.31
659.494	110.31
659.698	100.31
659.901	88.31
660.105	98.31
660.309	117.31
660.512	112.31
660.716	91.31
660.919	89.31
661.123	89.31
661.326	76.31
661.53	86.31
661.733	83.31
661.936	100.31
662.14	85.31
662.343	92.31
662.546	94.31
662.75	84.31
662.953	98.31
663.156	93.31
663.36	87.31
663.563	77.31
663.766	75.31
663.969	89.31
664.173	97.31
664.376	84.31
664.579	83.31
664.782	89.31
664.985	94.31
665.188	81.31
665.391	83.31
665.594	78.31
665.797	74.31
666	77.31
666.203	68.31
666.406	90.31
666.609	83.31
666.812	81.31
667.015	84.31
667.218	84.31
667.421	91.31
667.624	83.31
667.827	97.31
668.03	71.31
668.232	82.31
668.435	78.31
668.638	76.31
668.841	77.31
669.043	78.31
669.246	90.31
669.449	75.31
669.651	85.31
669.854	86.31
670.057	84.31
670.259	84.31
670.462	71.31
670.665	84.31
670.867	86.31
671.07	86.31
671.272	76.31
671.475	90.31
671.677	94.31
671.88	75.31
672.082	82.31
672.284	80.31
672.487	84.31
672.689	86.31
672.892	80.31
