Data from 1979.PennyLincolnUp.Lamp.En5.5.200Scan.071719.P1_HRD10591_16-18-14-864.txt Node
Date: Thu Jul 18 16:18:14 EDT 2019
User: cochatt
Spectrometer: HR+D1059
Trigger mode: 1
Integration Time (sec): 1.000000E-1
Scans to average: 1
Electric dark correction enabled: true
Nonlinearity correction enabled: false
Boxcar width: 0
XAxis mode: Wavelengths
Number of Pixels in Spectrum: 2048
>>>>>Begin Spectral Data<<<<<
223.165	-3.44
223.4	-3.44
223.635	-3.44
223.869	-13.44
224.104	-19.44
224.338	-14.44
224.573	-20.44
224.808	-18.44
225.042	-7.44
225.277	-12.44
225.511	-1.44
225.746	4.56
225.98	4.56
226.215	6.56
226.449	30.56
226.683	18.56
226.918	14.56
227.152	31.56
227.387	51.56
227.621	47.56
227.856	42.56
228.09	38.56
228.324	50.56
228.559	48.56
228.793	71.56
229.027	91.56
229.262	103.56
229.496	118.56
229.73	129.56
229.964	135.56
230.199	116.56
230.433	107.56
230.667	111.56
230.901	102.56
231.136	102.56
231.37	106.56
231.604	90.56
231.838	111.56
232.072	92.56
232.306	106.56
232.541	111.56
232.775	125.56
233.009	111.56
233.243	119.56
233.477	117.56
233.711	107.56
233.945	107.56
234.179	117.56
234.413	124.56
234.647	115.56
234.881	116.56
235.115	110.56
235.349	110.56
235.583	113.56
235.817	115.56
236.051	116.56
236.285	130.56
236.519	120.56
236.753	125.56
236.987	130.56
237.221	159.56
237.455	184.56
237.689	158.56
237.922	136.56
238.156	140.56
238.39	136.56
238.624	108.56
238.858	124.56
239.091	112.56
239.325	107.56
239.559	115.56
239.793	136.56
240.027	121.56
240.26	123.56
240.494	142.56
240.728	140.56
240.961	139.56
241.195	134.56
241.429	124.56
241.662	132.56
241.896	120.56
242.13	132.56
242.363	130.56
242.597	126.56
242.83	136.56
243.064	128.56
243.298	138.56
243.531	128.56
243.765	154.56
243.998	124.56
244.232	120.56
244.465	136.56
244.699	144.56
244.932	140.56
245.166	135.56
245.399	126.56
245.633	144.56
245.866	142.56
246.099	153.56
246.333	136.56
246.566	134.56
246.8	142.56
247.033	159.56
247.266	136.56
247.5	149.56
247.733	141.56
247.966	175.56
248.2	156.56
248.433	154.56
248.666	160.56
248.899	176.56
249.133	184.56
249.366	190.56
249.599	173.56
249.832	165.56
250.066	179.56
250.299	162.56
250.532	180.56
250.765	180.56
250.998	195.56
251.231	196.56
251.465	189.56
251.698	193.56
251.931	184.56
252.164	186.56
252.397	187.56
252.63	187.56
252.863	180.56
253.096	198.56
253.329	192.56
253.562	206.56
253.795	188.56
254.028	199.56
254.261	202.56
254.494	200.56
254.727	211.56
254.96	238.56
255.193	226.56
255.426	207.56
255.659	229.56
255.892	218.56
256.124	192.56
256.357	202.56
256.59	218.56
256.823	201.56
257.056	210.56
257.289	199.56
257.521	194.56
257.754	193.56
257.987	182.56
258.22	198.56
258.452	191.56
258.685	200.56
258.918	186.56
259.151	186.56
259.383	199.56
259.616	207.56
259.849	194.56
260.081	205.56
260.314	220.56
260.547	220.56
260.779	217.56
261.012	219.56
261.244	211.56
261.477	212.56
261.71	209.56
261.942	190.56
262.175	216.56
262.407	203.56
262.64	197.56
262.872	202.56
263.105	199.56
263.337	206.56
263.57	191.56
263.802	190.56
264.035	173.56
264.267	182.56
264.499	189.56
264.732	200.56
264.964	202.56
265.197	208.56
265.429	187.56
265.661	196.56
265.894	201.56
266.126	209.56
266.358	194.56
266.591	209.56
266.823	202.56
267.055	202.56
267.287	213.56
267.52	212.56
267.752	206.56
267.984	219.56
268.216	193.56
268.448	202.56
268.681	209.56
268.913	230.56
269.145	227.56
269.377	245.56
269.609	245.56
269.841	242.56
270.073	235.56
270.306	249.56
270.538	258.56
270.77	263.56
271.002	255.56
271.234	249.56
271.466	256.56
271.698	258.56
271.93	272.56
272.162	268.56
272.394	254.56
272.626	258.56
272.858	250.56
273.09	258.56
273.322	235.56
273.553	222.56
273.785	237.56
274.017	246.56
274.249	254.56
274.481	250.56
274.713	233.56
274.945	243.56
275.176	242.56
275.408	262.56
275.64	233.56
275.872	247.56
276.104	216.56
276.335	239.56
276.567	233.56
276.799	276.56
277.031	274.56
277.262	270.56
277.494	267.56
277.726	264.56
277.957	258.56
278.189	252.56
278.421	256.56
278.652	251.56
278.884	245.56
279.115	240.56
279.347	231.56
279.579	257.56
279.81	244.56
280.042	246.56
280.273	254.56
280.505	251.56
280.736	251.56
280.968	234.56
281.199	230.56
281.431	246.56
281.662	239.56
281.894	269.56
282.125	268.56
282.356	263.56
282.588	271.56
282.819	269.56
283.051	260.56
283.282	252.56
283.513	264.56
283.745	265.56
283.976	254.56
284.207	272.56
284.439	267.56
284.67	266.56
284.901	263.56
285.132	253.56
285.364	247.56
285.595	267.56
285.826	242.56
286.057	266.56
286.288	245.56
286.52	269.56
286.751	262.56
286.982	244.56
287.213	270.56
287.444	262.56
287.675	290.56
287.906	296.56
288.138	250.56
288.369	295.56
288.6	282.56
288.831	267.56
289.062	283.56
289.293	283.56
289.524	267.56
289.755	262.56
289.986	257.56
290.217	280.56
290.448	256.56
290.679	283.56
290.91	299.56
291.141	272.56
291.371	258.56
291.602	279.56
291.833	268.56
292.064	262.56
292.295	267.56
292.526	262.56
292.757	262.56
292.987	284.56
293.218	269.56
293.449	275.56
293.68	299.56
293.91	298.56
294.141	260.56
294.372	284.56
294.603	278.56
294.833	286.56
295.064	274.56
295.295	263.56
295.525	254.56
295.756	276.56
295.987	278.56
296.217	290.56
296.448	316.56
296.679	314.56
296.909	308.56
297.14	270.56
297.37	282.56
297.601	273.56
297.831	284.56
298.062	281.56
298.292	293.56
298.523	294.56
298.753	277.56
298.984	287.56
299.214	289.56
299.445	312.56
299.675	289.56
299.905	293.56
300.136	317.56
300.366	285.56
300.597	288.56
300.827	302.56
301.057	294.56
301.288	327.56
301.518	319.56
301.748	303.56
301.979	307.56
302.209	322.56
302.439	319.56
302.669	304.56
302.9	304.56
303.13	307.56
303.36	317.56
303.59	312.56
303.82	321.56
304.051	287.56
304.281	318.56
304.511	306.56
304.741	327.56
304.971	311.56
305.201	299.56
305.431	293.56
305.661	299.56
305.891	315.56
306.121	300.56
306.352	325.56
306.582	325.56
306.812	302.56
307.042	327.56
307.272	325.56
307.502	324.56
307.731	313.56
307.961	320.56
308.191	311.56
308.421	317.56
308.651	319.56
308.881	302.56
309.111	317.56
309.341	314.56
309.571	325.56
309.8	353.56
310.03	322.56
310.26	352.56
310.49	338.56
310.72	340.56
310.949	361.56
311.179	362.56
311.409	338.56
311.639	345.56
311.868	335.56
312.098	350.56
312.328	351.56
312.557	353.56
312.787	381.56
313.017	396.56
313.246	348.56
313.476	338.56
313.706	350.56
313.935	354.56
314.165	358.56
314.394	352.56
314.624	382.56
314.853	362.56
315.083	364.56
315.312	343.56
315.542	338.56
315.771	355.56
316.001	326.56
316.23	349.56
316.46	342.56
316.689	343.56
316.919	359.56
317.148	362.56
317.377	369.56
317.607	356.56
317.836	367.56
318.065	343.56
318.295	341.56
318.524	356.56
318.753	345.56
318.983	370.56
319.212	355.56
319.441	362.56
319.67	350.56
319.9	342.56
320.129	340.56
320.358	350.56
320.587	360.56
320.816	359.56
321.046	354.56
321.275	382.56
321.504	367.56
321.733	373.56
321.962	378.56
322.191	383.56
322.42	405.56
322.649	418.56
322.878	413.56
323.108	403.56
323.337	427.56
323.566	443.56
323.795	451.56
324.024	503.56
324.253	571.56
324.482	799.56
324.71	1235.56
324.939	1841.56
325.168	1615.56
325.397	813.56
325.626	567.56
325.855	493.56
326.084	456.56
326.313	431.56
326.542	480.56
326.77	482.56
326.999	579.56
327.228	733.56
327.457	1116.56
327.686	1404.56
327.914	903.56
328.143	599.56
328.372	522.56
328.6	499.56
328.829	492.56
329.058	492.56
329.287	514.56
329.515	484.56
329.744	453.56
329.972	444.56
330.201	484.56
330.43	500.56
330.658	523.56
330.887	527.56
331.115	523.56
331.344	452.56
331.572	432.56
331.801	420.56
332.03	451.56
332.258	443.56
332.486	452.56
332.715	406.56
332.943	415.56
333.172	422.56
333.4	444.56
333.629	452.56
333.857	462.56
334.085	452.56
334.314	471.56
334.542	486.56
334.771	516.56
334.999	453.56
335.227	470.56
335.455	453.56
335.684	442.56
335.912	415.56
336.14	441.56
336.369	431.56
336.597	420.56
336.825	436.56
337.053	432.56
337.281	423.56
337.51	429.56
337.738	412.56
337.966	414.56
338.194	442.56
338.422	396.56
338.65	392.56
338.878	420.56
339.106	396.56
339.334	406.56
339.562	398.56
339.79	388.56
340.018	414.56
340.246	400.56
340.474	426.56
340.702	391.56
340.93	408.56
341.158	408.56
341.386	413.56
341.614	403.56
341.842	420.56
342.07	399.56
342.298	412.56
342.526	404.56
342.754	403.56
342.981	409.56
343.209	393.56
343.437	387.56
343.665	418.56
343.893	456.56
344.12	430.56
344.348	423.56
344.576	412.56
344.804	404.56
345.031	428.56
345.259	440.56
345.487	408.56
345.714	407.56
345.942	420.56
346.17	390.56
346.397	397.56
346.625	400.56
346.853	400.56
347.08	378.56
347.308	396.56
347.535	410.56
347.763	404.56
347.99	396.56
348.218	396.56
348.445	386.56
348.673	406.56
348.9	406.56
349.128	403.56
349.355	392.56
349.583	400.56
349.81	373.56
350.037	377.56
350.265	375.56
350.492	396.56
350.72	384.56
350.947	403.56
351.174	405.56
351.402	388.56
351.629	379.56
351.856	390.56
352.083	402.56
352.311	399.56
352.538	423.56
352.765	392.56
352.992	428.56
353.22	371.56
353.447	395.56
353.674	401.56
353.901	382.56
354.128	376.56
354.355	389.56
354.583	370.56
354.81	377.56
355.037	395.56
355.264	385.56
355.491	374.56
355.718	357.56
355.945	378.56
356.172	390.56
356.399	384.56
356.626	395.56
356.853	380.56
357.08	362.56
357.307	386.56
357.534	373.56
357.761	365.56
357.988	374.56
358.215	376.56
358.441	361.56
358.668	376.56
358.895	370.56
359.122	376.56
359.349	392.56
359.576	392.56
359.802	403.56
360.029	417.56
360.256	459.56
360.483	428.56
360.709	396.56
360.936	414.56
361.163	403.56
361.39	399.56
361.616	415.56
361.843	379.56
362.07	402.56
362.296	390.56
362.523	392.56
362.749	403.56
362.976	409.56
363.203	385.56
363.429	373.56
363.656	382.56
363.882	399.56
364.109	378.56
364.335	390.56
364.562	406.56
364.788	388.56
365.015	388.56
365.241	393.56
365.468	391.56
365.694	391.56
365.92	415.56
366.147	376.56
366.373	399.56
366.599	392.56
366.826	366.56
367.052	364.56
367.278	380.56
367.505	369.56
367.731	381.56
367.957	377.56
368.184	379.56
368.41	380.56
368.636	404.56
368.862	403.56
369.089	424.56
369.315	408.56
369.541	414.56
369.767	406.56
369.993	375.56
370.219	386.56
370.445	403.56
370.672	376.56
370.898	378.56
371.124	402.56
371.35	396.56
371.576	392.56
371.802	392.56
372.028	388.56
372.254	401.56
372.48	397.56
372.706	400.56
372.932	397.56
373.158	379.56
373.384	391.56
373.61	408.56
373.835	399.56
374.061	396.56
374.287	420.56
374.513	414.56
374.739	399.56
374.965	418.56
375.191	423.56
375.416	414.56
375.642	423.56
375.868	388.56
376.094	398.56
376.319	400.56
376.545	416.56
376.771	388.56
376.997	395.56
377.222	409.56
377.448	405.56
377.674	387.56
377.899	390.56
378.125	382.56
378.35	382.56
378.576	376.56
378.802	378.56
379.027	395.56
379.253	399.56
379.478	378.56
379.704	404.56
379.929	406.56
380.155	395.56
380.38	390.56
380.606	407.56
380.831	416.56
381.057	404.56
381.282	398.56
381.507	405.56
381.733	412.56
381.958	409.56
382.184	397.56
382.409	412.56
382.634	420.56
382.86	399.56
383.085	410.56
383.31	405.56
383.535	430.56
383.761	416.56
383.986	409.56
384.211	433.56
384.436	424.56
384.662	418.56
384.887	442.56
385.112	430.56
385.337	440.56
385.562	440.56
385.787	453.56
386.013	450.56
386.238	450.56
386.463	459.56
386.688	446.56
386.913	430.56
387.138	442.56
387.363	447.56
387.588	436.56
387.813	467.56
388.038	435.56
388.263	438.56
388.488	445.56
388.713	447.56
388.938	432.56
389.163	452.56
389.387	451.56
389.612	431.56
389.837	437.56
390.062	450.56
390.287	457.56
390.512	425.56
390.736	459.56
390.961	452.56
391.186	453.56
391.411	466.56
391.636	462.56
391.86	468.56
392.085	447.56
392.31	494.56
392.534	458.56
392.759	476.56
392.984	453.56
393.208	463.56
393.433	481.56
393.658	470.56
393.882	446.56
394.107	440.56
394.331	460.56
394.556	464.56
394.78	451.56
395.005	464.56
395.229	462.56
395.454	474.56
395.678	485.56
395.903	492.56
396.127	499.56
396.352	499.56
396.576	469.56
396.801	472.56
397.025	483.56
397.249	482.56
397.474	484.56
397.698	485.56
397.922	500.56
398.147	495.56
398.371	538.56
398.595	514.56
398.82	527.56
399.044	544.56
399.268	557.56
399.492	603.56
399.717	646.56
399.941	638.56
400.165	659.56
400.389	652.56
400.613	604.56
400.837	594.56
401.062	553.56
401.286	538.56
401.51	527.56
401.734	519.56
401.958	523.56
402.182	539.56
402.406	559.56
402.63	539.56
402.854	534.56
403.078	538.56
403.302	546.56
403.526	549.56
403.75	559.56
403.974	540.56
404.198	554.56
404.422	574.56
404.645	562.56
404.869	553.56
405.093	586.56
405.317	636.56
405.541	658.56
405.765	614.56
405.988	594.56
406.212	587.56
406.436	605.56
406.66	607.56
406.883	592.56
407.107	616.56
407.331	667.56
407.555	740.56
407.778	701.56
408.002	672.56
408.226	630.56
408.449	619.56
408.673	597.56
408.896	630.56
409.12	662.56
409.344	623.56
409.567	590.56
409.791	579.56
410.014	552.56
410.238	548.56
410.461	551.56
410.685	571.56
410.908	564.56
411.132	596.56
411.355	627.56
411.578	599.56
411.802	568.56
412.025	569.56
412.249	576.56
412.472	582.56
412.695	616.56
412.919	587.56
413.142	559.56
413.365	556.56
413.589	534.56
413.812	538.56
414.035	532.56
414.258	541.56
414.482	509.56
414.705	537.56
414.928	526.56
415.151	536.56
415.374	541.56
415.597	534.56
415.821	549.56
416.044	539.56
416.267	539.56
416.49	536.56
416.713	525.56
416.936	520.56
417.159	512.56
417.382	533.56
417.605	536.56
417.828	550.56
418.051	558.56
418.274	518.56
418.497	531.56
418.72	530.56
418.943	534.56
419.166	528.56
419.389	601.56
419.611	557.56
419.834	568.56
420.057	549.56
420.28	554.56
420.503	559.56
420.726	523.56
420.948	528.56
421.171	588.56
421.394	599.56
421.617	566.56
421.839	558.56
422.062	550.56
422.285	557.56
422.507	592.56
422.73	663.56
422.953	646.56
423.175	598.56
423.398	588.56
423.621	552.56
423.843	584.56
424.066	557.56
424.288	577.56
424.511	600.56
424.733	627.56
424.956	713.56
425.178	693.56
425.401	675.56
425.623	687.56
425.846	626.56
426.068	572.56
426.291	558.56
426.513	564.56
426.735	572.56
426.958	606.56
427.18	670.56
427.402	816.56
427.625	879.56
427.847	777.56
428.069	662.56
428.292	623.56
428.514	566.56
428.736	545.56
428.958	552.56
429.181	521.56
429.403	524.56
429.625	527.56
429.847	571.56
430.069	604.56
430.292	626.56
430.514	538.56
430.736	552.56
430.958	502.56
431.18	492.56
431.402	506.56
431.624	488.56
431.846	508.56
432.068	521.56
432.29	526.56
432.512	502.56
432.734	523.56
432.956	522.56
433.178	533.56
433.4	516.56
433.622	527.56
433.844	511.56
434.066	528.56
434.287	523.56
434.509	532.56
434.731	548.56
434.953	542.56
435.175	550.56
435.397	573.56
435.618	586.56
435.84	596.56
436.062	684.56
436.284	755.56
436.505	638.56
436.727	601.56
436.949	554.56
437.17	551.56
437.392	519.56
437.614	527.56
437.835	562.56
438.057	647.56
438.278	715.56
438.5	716.56
438.721	795.56
438.943	802.56
439.165	637.56
439.386	572.56
439.608	566.56
439.829	556.56
440.05	580.56
440.272	620.56
440.493	576.56
440.715	568.56
440.936	567.56
441.158	548.56
441.379	531.56
441.6	558.56
441.822	560.56
442.043	601.56
442.264	655.56
442.486	694.56
442.707	636.56
442.928	607.56
443.149	582.56
443.371	618.56
443.592	670.56
443.813	739.56
444.034	787.56
444.255	662.56
444.476	606.56
444.698	612.56
444.919	584.56
445.14	732.56
445.361	662.56
445.582	631.56
445.803	653.56
446.024	778.56
446.245	738.56
446.466	682.56
446.687	611.56
446.908	548.56
447.129	547.56
447.35	526.56
447.571	540.56
447.792	515.56
448.013	524.56
448.234	534.56
448.455	566.56
448.675	685.56
448.896	785.56
449.117	669.56
449.338	622.56
449.559	729.56
449.779	815.56
450	685.56
450.221	558.56
450.442	548.56
450.662	503.56
450.883	516.56
451.104	538.56
451.324	524.56
451.545	509.56
451.766	475.56
451.986	480.56
452.207	485.56
452.428	494.56
452.648	482.56
452.869	487.56
453.089	493.56
453.31	499.56
453.53	482.56
453.751	463.56
453.971	472.56
454.192	511.56
454.412	468.56
454.633	482.56
454.853	478.56
455.073	474.56
455.294	501.56
455.514	556.56
455.734	529.56
455.955	481.56
456.175	448.56
456.395	444.56
456.616	454.56
456.836	448.56
457.056	447.56
457.276	444.56
457.497	451.56
457.717	454.56
457.937	464.56
458.157	481.56
458.377	477.56
458.598	490.56
458.818	534.56
459.038	599.56
459.258	630.56
459.478	557.56
459.698	528.56
459.918	525.56
460.138	525.56
460.358	541.56
460.578	537.56
460.798	542.56
461.018	528.56
461.238	562.56
461.458	542.56
461.678	539.56
461.898	553.56
462.118	532.56
462.338	560.56
462.558	560.56
462.777	576.56
462.997	583.56
463.217	602.56
463.437	638.56
463.657	593.56
463.876	576.56
464.096	598.56
464.316	586.56
464.536	608.56
464.755	584.56
464.975	575.56
465.195	630.56
465.414	666.56
465.634	592.56
465.854	542.56
466.073	529.56
466.293	509.56
466.512	498.56
466.732	495.56
466.951	522.56
467.171	488.56
467.391	482.56
467.61	508.56
467.829	516.56
468.049	510.56
468.268	494.56
468.488	506.56
468.707	489.56
468.927	491.56
469.146	472.56
469.365	465.56
469.585	483.56
469.804	488.56
470.023	507.56
470.243	495.56
470.462	505.56
470.681	507.56
470.901	525.56
471.12	524.56
471.339	492.56
471.558	514.56
471.777	491.56
471.997	518.56
472.216	510.56
472.435	545.56
472.654	496.56
472.873	496.56
473.092	495.56
473.311	479.56
473.53	493.56
473.749	488.56
473.968	527.56
474.187	614.56
474.406	640.56
474.625	550.56
474.844	502.56
475.063	526.56
475.282	524.56
475.501	514.56
475.72	517.56
475.939	528.56
476.158	529.56
476.377	521.56
476.596	544.56
476.814	542.56
477.033	519.56
477.252	526.56
477.471	541.56
477.69	536.56
477.908	560.56
478.127	568.56
478.346	567.56
478.564	580.56
478.783	586.56
479.002	586.56
479.22	571.56
479.439	567.56
479.658	595.56
479.876	592.56
480.095	598.56
480.313	638.56
480.532	634.56
480.751	622.56
480.969	610.56
481.188	656.56
481.406	702.56
481.624	604.56
481.843	633.56
482.061	609.56
482.28	600.56
482.498	581.56
482.717	579.56
482.935	591.56
483.153	570.56
483.372	556.56
483.59	565.56
483.808	603.56
484.027	572.56
484.245	586.56
484.463	601.56
484.681	603.56
484.9	606.56
485.118	619.56
485.336	592.56
485.554	595.56
485.772	589.56
485.99	597.56
486.209	578.56
486.427	599.56
486.645	603.56
486.863	633.56
487.081	619.56
487.299	653.56
487.517	607.56
487.735	602.56
487.953	624.56
488.171	650.56
488.389	645.56
488.607	624.56
488.825	620.56
489.043	646.56
489.261	635.56
489.479	628.56
489.696	626.56
489.914	633.56
490.132	640.56
490.35	640.56
490.568	638.56
490.786	671.56
491.003	666.56
491.221	678.56
491.439	686.56
491.657	708.56
491.874	704.56
492.092	704.56
492.31	674.56
492.527	719.56
492.745	688.56
492.963	720.56
493.18	701.56
493.398	724.56
493.615	735.56
493.833	731.56
494.05	743.56
494.268	750.56
494.485	716.56
494.703	703.56
494.92	733.56
495.138	746.56
495.355	701.56
495.573	714.56
495.79	708.56
496.008	733.56
496.225	715.56
496.442	719.56
496.66	738.56
496.877	751.56
497.094	767.56
497.312	742.56
497.529	778.56
497.746	793.56
497.963	780.56
498.181	812.56
498.398	834.56
498.615	870.56
498.832	863.56
499.049	899.56
499.267	902.56
499.484	956.56
499.701	986.56
499.918	1042.56
500.135	1122.56
500.352	1148.56
500.569	1204.56
500.786	1177.56
501.003	1158.56
501.22	1084.56
501.437	1066.56
501.654	1029.56
501.871	1012.56
502.088	951.56
502.305	917.56
502.522	869.56
502.739	863.56
502.956	830.56
503.172	833.56
503.389	790.56
503.606	810.56
503.823	814.56
504.04	783.56
504.256	759.56
504.473	778.56
504.69	750.56
504.907	727.56
505.123	749.56
505.34	722.56
505.557	705.56
505.773	717.56
505.99	717.56
506.207	694.56
506.423	692.56
506.64	695.56
506.856	694.56
507.073	662.56
507.289	694.56
507.506	671.56
507.722	687.56
507.939	677.56
508.155	668.56
508.372	654.56
508.588	651.56
508.805	620.56
509.021	640.56
509.238	655.56
509.454	652.56
509.67	673.56
509.887	664.56
510.103	634.56
510.319	655.56
510.536	725.56
510.752	1182.56
510.968	951.56
511.184	657.56
511.401	620.56
511.617	635.56
511.833	632.56
512.049	623.56
512.265	630.56
512.481	616.56
512.698	590.56
512.914	608.56
513.13	621.56
513.346	628.56
513.562	630.56
513.778	644.56
513.994	632.56
514.21	621.56
514.426	642.56
514.642	692.56
514.858	680.56
515.074	721.56
515.29	812.56
515.506	1188.56
515.721	1030.56
515.937	756.56
516.153	700.56
516.369	663.56
516.585	658.56
516.801	658.56
517.016	665.56
517.232	684.56
517.448	689.56
517.664	680.56
517.879	680.56
518.095	691.56
518.311	688.56
518.527	650.56
518.742	680.56
518.958	660.56
519.173	651.56
519.389	634.56
519.605	639.56
519.82	639.56
520.036	655.56
520.251	638.56
520.467	661.56
520.682	655.56
520.898	645.56
521.113	687.56
521.329	665.56
521.544	756.56
521.76	938.56
521.975	1456.56
522.19	1506.56
522.406	832.56
522.621	671.56
522.836	607.56
523.052	606.56
523.267	596.56
523.482	590.56
523.698	586.56
523.913	581.56
524.128	591.56
524.343	571.56
524.559	552.56
524.774	562.56
524.989	561.56
525.204	562.56
525.419	562.56
525.634	569.56
525.849	568.56
526.064	546.56
526.28	524.56
526.495	511.56
526.71	532.56
526.925	528.56
527.14	520.56
527.355	506.56
527.57	503.56
527.785	537.56
527.999	512.56
528.214	526.56
528.429	549.56
528.644	512.56
528.859	507.56
529.074	532.56
529.289	517.56
529.503	614.56
529.718	601.56
529.933	564.56
530.148	553.56
530.363	546.56
530.577	525.56
530.792	538.56
531.007	510.56
531.221	508.56
531.436	514.56
531.651	502.56
531.865	531.56
532.08	517.56
532.295	523.56
532.509	492.56
532.724	503.56
532.938	520.56
533.153	495.56
533.367	511.56
533.582	495.56
533.796	510.56
534.011	489.56
534.225	501.56
534.44	506.56
534.654	498.56
534.868	486.56
535.083	515.56
535.297	495.56
535.511	506.56
535.726	527.56
535.94	503.56
536.154	511.56
536.369	493.56
536.583	470.56
536.797	482.56
537.011	503.56
537.225	490.56
537.44	470.56
537.654	482.56
537.868	482.56
538.082	496.56
538.296	482.56
538.51	470.56
538.724	482.56
538.938	486.56
539.153	486.56
539.367	511.56
539.581	504.56
539.795	471.56
540.009	479.56
540.222	477.56
540.436	471.56
540.65	485.56
540.864	472.56
541.078	486.56
541.292	487.56
541.506	474.56
541.72	496.56
541.934	499.56
542.147	491.56
542.361	462.56
542.575	495.56
542.789	467.56
543.002	495.56
543.216	487.56
543.43	476.56
543.644	496.56
543.857	483.56
544.071	482.56
544.285	487.56
544.498	495.56
544.712	474.56
544.925	496.56
545.139	471.56
545.352	459.56
545.566	469.56
545.779	461.56
545.993	480.56
546.206	483.56
546.42	472.56
546.633	461.56
546.847	462.56
547.06	472.56
547.274	469.56
547.487	459.56
547.7	471.56
547.914	476.56
548.127	464.56
548.34	488.56
548.554	456.56
548.767	462.56
548.98	457.56
549.193	486.56
549.407	491.56
549.62	462.56
549.833	488.56
550.046	476.56
550.259	462.56
550.473	469.56
550.686	496.56
550.899	478.56
551.112	445.56
551.325	448.56
551.538	461.56
551.751	454.56
551.964	450.56
552.177	484.56
552.39	477.56
552.603	482.56
552.816	483.56
553.029	464.56
553.242	472.56
553.455	488.56
553.667	501.56
553.88	489.56
554.093	490.56
554.306	495.56
554.519	483.56
554.732	452.56
554.944	443.56
555.157	442.56
555.37	439.56
555.583	456.56
555.795	452.56
556.008	428.56
556.221	426.56
556.433	428.56
556.646	420.56
556.859	425.56
557.071	429.56
557.284	438.56
557.496	420.56
557.709	434.56
557.921	418.56
558.134	423.56
558.346	441.56
558.559	431.56
558.771	426.56
558.984	408.56
559.196	422.56
559.409	416.56
559.621	434.56
559.833	418.56
560.046	419.56
560.258	416.56
560.47	424.56
560.683	418.56
560.895	417.56
561.107	416.56
561.32	416.56
561.532	440.56
561.744	407.56
561.956	432.56
562.168	409.56
562.381	403.56
562.593	412.56
562.805	426.56
563.017	405.56
563.229	427.56
563.441	426.56
563.653	423.56
563.865	423.56
564.077	419.56
564.289	418.56
564.501	427.56
564.713	454.56
564.925	458.56
565.137	454.56
565.349	456.56
565.561	441.56
565.773	465.56
565.985	475.56
566.197	491.56
566.408	521.56
566.62	536.56
566.832	556.56
567.044	535.56
567.255	573.56
567.467	558.56
567.679	566.56
567.891	563.56
568.102	570.56
568.314	547.56
568.526	530.56
568.737	531.56
568.949	516.56
569.161	482.56
569.372	470.56
569.584	451.56
569.795	437.56
570.007	426.56
570.218	460.56
570.43	451.56
570.641	414.56
570.853	428.56
571.064	380.56
571.276	411.56
571.487	418.56
571.698	409.56
571.91	398.56
572.121	407.56
572.333	378.56
572.544	390.56
572.755	381.56
572.966	379.56
573.178	378.56
573.389	366.56
573.6	400.56
573.811	380.56
574.023	361.56
574.234	362.56
574.445	374.56
574.656	378.56
574.867	359.56
575.078	351.56
575.289	363.56
575.501	370.56
575.712	344.56
575.923	342.56
576.134	362.56
576.345	336.56
576.556	363.56
576.767	348.56
576.978	357.56
577.188	348.56
577.399	357.56
577.61	333.56
577.821	347.56
578.032	334.56
578.243	378.56
578.454	552.56
578.665	454.56
578.875	350.56
579.086	337.56
579.297	334.56
579.508	338.56
579.718	336.56
579.929	332.56
580.14	331.56
580.35	324.56
580.561	352.56
580.772	332.56
580.982	328.56
581.193	330.56
581.403	336.56
581.614	328.56
581.825	326.56
582.035	348.56
582.246	343.56
582.456	318.56
582.667	324.56
582.877	333.56
583.087	348.56
583.298	327.56
583.508	314.56
583.719	326.56
583.929	325.56
584.139	328.56
584.35	328.56
584.56	335.56
584.77	327.56
584.981	328.56
585.191	328.56
585.401	326.56
585.611	319.56
585.821	342.56
586.032	314.56
586.242	299.56
586.452	324.56
586.662	323.56
586.872	304.56
587.082	302.56
587.292	310.56
587.502	319.56
587.713	308.56
587.923	319.56
588.133	331.56
588.343	312.56
588.553	299.56
588.762	285.56
588.972	322.56
589.182	346.56
589.392	358.56
589.602	322.56
589.812	367.56
590.022	335.56
590.232	282.56
590.441	312.56
590.651	328.56
590.861	324.56
591.071	303.56
591.281	312.56
591.49	338.56
591.7	312.56
591.91	340.56
592.119	322.56
592.329	338.56
592.539	330.56
592.748	335.56
592.958	342.56
593.167	339.56
593.377	343.56
593.587	333.56
593.796	349.56
594.006	333.56
594.215	340.56
594.424	334.56
594.634	336.56
594.843	355.56
595.053	333.56
595.262	338.56
595.472	325.56
595.681	315.56
595.89	316.56
596.1	302.56
596.309	323.56
596.518	294.56
596.727	313.56
596.937	282.56
597.146	304.56
597.355	301.56
597.564	286.56
597.774	293.56
597.983	286.56
598.192	291.56
598.401	295.56
598.61	270.56
598.819	292.56
599.028	290.56
599.237	307.56
599.446	275.56
599.655	301.56
599.864	293.56
600.073	288.56
600.282	276.56
600.491	277.56
600.7	281.56
600.909	267.56
601.118	279.56
601.327	270.56
601.536	283.56
601.745	270.56
601.953	262.56
602.162	284.56
602.371	264.56
602.58	276.56
602.789	258.56
602.997	268.56
603.206	266.56
603.415	272.56
603.623	255.56
603.832	276.56
604.041	268.56
604.249	263.56
604.458	245.56
604.666	262.56
604.875	251.56
605.084	270.56
605.292	277.56
605.501	262.56
605.709	267.56
605.918	242.56
606.126	250.56
606.334	260.56
606.543	246.56
606.751	258.56
606.96	255.56
607.168	256.56
607.376	254.56
607.585	245.56
607.793	243.56
608.001	253.56
608.21	246.56
608.418	242.56
608.626	253.56
608.834	262.56
609.043	260.56
609.251	252.56
609.459	258.56
609.667	253.56
609.875	262.56
610.083	228.56
610.291	255.56
610.499	252.56
610.707	253.56
610.916	256.56
611.124	244.56
611.332	252.56
611.54	251.56
611.748	257.56
611.955	230.56
612.163	234.56
612.371	258.56
612.579	247.56
612.787	254.56
612.995	253.56
613.203	252.56
613.411	253.56
613.618	246.56
613.826	254.56
614.034	251.56
614.242	246.56
614.449	243.56
614.657	244.56
614.865	255.56
615.072	260.56
615.28	236.56
615.488	247.56
615.695	249.56
615.903	239.56
616.111	270.56
616.318	236.56
616.526	259.56
616.733	260.56
616.941	246.56
617.148	232.56
617.356	250.56
617.563	253.56
617.771	250.56
617.978	267.56
618.185	227.56
618.393	250.56
618.6	244.56
618.807	235.56
619.015	245.56
619.222	239.56
619.429	233.56
619.637	242.56
619.844	225.56
620.051	235.56
620.258	237.56
620.466	225.56
620.673	248.56
620.88	226.56
621.087	226.56
621.294	222.56
621.501	230.56
621.708	221.56
621.915	233.56
622.122	237.56
622.329	230.56
622.536	229.56
622.743	225.56
622.95	234.56
623.157	224.56
623.364	217.56
623.571	217.56
623.778	222.56
623.985	214.56
624.192	207.56
624.399	219.56
624.606	216.56
624.812	221.56
625.019	221.56
625.226	210.56
625.433	216.56
625.639	220.56
625.846	199.56
626.053	209.56
626.259	214.56
626.466	203.56
626.673	202.56
626.879	219.56
627.086	214.56
627.293	221.56
627.499	206.56
627.706	211.56
627.912	228.56
628.119	214.56
628.325	214.56
628.532	217.56
628.738	212.56
628.945	207.56
629.151	214.56
629.357	210.56
629.564	194.56
629.77	186.56
629.976	204.56
630.183	199.56
630.389	211.56
630.595	210.56
630.802	208.56
631.008	214.56
631.214	215.56
631.42	182.56
631.627	209.56
631.833	197.56
632.039	210.56
632.245	195.56
632.451	183.56
632.657	192.56
632.863	197.56
633.069	211.56
633.275	204.56
633.481	200.56
633.688	196.56
633.893	192.56
634.099	204.56
634.305	220.56
634.511	193.56
634.717	181.56
634.923	194.56
635.129	191.56
635.335	188.56
635.541	171.56
635.747	190.56
635.952	170.56
636.158	176.56
636.364	182.56
636.57	198.56
636.775	195.56
636.981	206.56
637.187	190.56
637.392	191.56
637.598	187.56
637.804	193.56
638.009	198.56
638.215	188.56
638.421	190.56
638.626	195.56
638.832	205.56
639.037	180.56
639.243	168.56
639.448	164.56
639.654	174.56
639.859	179.56
640.065	178.56
640.27	184.56
640.475	173.56
640.681	188.56
640.886	175.56
641.091	182.56
641.297	180.56
641.502	177.56
641.707	165.56
641.913	188.56
642.118	174.56
642.323	176.56
642.528	181.56
642.733	170.56
642.939	175.56
643.144	167.56
643.349	166.56
643.554	173.56
643.759	162.56
643.964	172.56
644.169	167.56
644.374	168.56
644.579	171.56
644.784	175.56
644.989	164.56
645.194	170.56
645.399	168.56
645.604	163.56
645.809	170.56
646.014	168.56
646.219	174.56
646.423	180.56
646.628	168.56
646.833	163.56
647.038	178.56
647.243	172.56
647.447	174.56
647.652	196.56
647.857	162.56
648.062	164.56
648.266	172.56
648.471	181.56
648.676	175.56
648.88	182.56
649.085	178.56
649.289	177.56
649.494	174.56
649.698	198.56
649.903	190.56
650.107	163.56
650.312	159.56
650.516	168.56
650.721	162.56
650.925	154.56
651.13	164.56
651.334	151.56
651.539	152.56
651.743	144.56
651.947	150.56
652.152	162.56
652.356	157.56
652.56	143.56
652.764	146.56
652.969	148.56
653.173	143.56
653.377	148.56
653.581	158.56
653.785	130.56
653.99	141.56
654.194	153.56
654.398	159.56
654.602	135.56
654.806	152.56
655.01	159.56
655.214	155.56
655.418	139.56
655.622	146.56
655.826	142.56
656.03	122.56
656.234	126.56
656.438	128.56
656.642	135.56
656.846	149.56
657.049	131.56
657.253	144.56
657.457	128.56
657.661	125.56
657.865	123.56
658.068	122.56
658.272	111.56
658.476	108.56
658.68	111.56
658.883	107.56
659.087	104.56
659.291	119.56
659.494	111.56
659.698	107.56
659.901	87.56
660.105	104.56
660.309	103.56
660.512	94.56
660.716	93.56
660.919	94.56
661.123	82.56
661.326	94.56
661.53	104.56
661.733	99.56
661.936	85.56
662.14	93.56
662.343	90.56
662.546	97.56
662.75	88.56
662.953	84.56
663.156	91.56
663.36	76.56
663.563	75.56
663.766	83.56
663.969	89.56
664.173	91.56
664.376	82.56
664.579	91.56
664.782	95.56
664.985	95.56
665.188	80.56
665.391	74.56
665.594	88.56
665.797	80.56
666	69.56
666.203	76.56
666.406	77.56
666.609	79.56
666.812	76.56
667.015	78.56
667.218	88.56
667.421	96.56
667.624	70.56
667.827	83.56
668.03	88.56
668.232	81.56
668.435	78.56
668.638	84.56
668.841	85.56
669.043	89.56
669.246	79.56
669.449	90.56
669.651	67.56
669.854	76.56
670.057	87.56
670.259	84.56
670.462	88.56
670.665	75.56
670.867	82.56
671.07	82.56
671.272	87.56
671.475	106.56
671.677	102.56
671.88	91.56
672.082	68.56
672.284	83.56
672.487	89.56
672.689	76.56
672.892	76.56
