Data from 1979.PennyLincolnUp.Lamp.En5.5.200Scan.071719.P1_HRD10591_16-18-18-863.txt Node
Date: Thu Jul 18 16:18:18 EDT 2019
User: cochatt
Spectrometer: HR+D1059
Trigger mode: 1
Integration Time (sec): 1.000000E-1
Scans to average: 1
Electric dark correction enabled: true
Nonlinearity correction enabled: false
Boxcar width: 0
XAxis mode: Wavelengths
Number of Pixels in Spectrum: 2048
>>>>>Begin Spectral Data<<<<<
223.165	-18.19
223.4	-18.19
223.635	-18.19
223.869	-22.19
224.104	-10.19
224.338	-24.19
224.573	-21.19
224.808	-17.19
225.042	-12.19
225.277	-10.19
225.511	5.81
225.746	3.81
225.98	7.81
226.215	16.81
226.449	21.81
226.683	9.81
226.918	27.81
227.152	41.81
227.387	40.81
227.621	29.81
227.856	49.81
228.09	41.81
228.324	43.81
228.559	40.81
228.793	57.81
229.027	92.81
229.262	99.81
229.496	100.81
229.73	116.81
229.964	137.81
230.199	114.81
230.433	105.81
230.667	129.81
230.901	101.81
231.136	117.81
231.37	110.81
231.604	108.81
231.838	105.81
232.072	105.81
232.306	110.81
232.541	114.81
232.775	105.81
233.009	116.81
233.243	115.81
233.477	113.81
233.711	101.81
233.945	110.81
234.179	98.81
234.413	116.81
234.647	110.81
234.881	101.81
235.115	106.81
235.349	105.81
235.583	123.81
235.817	127.81
236.051	125.81
236.285	133.81
236.519	125.81
236.753	127.81
236.987	134.81
237.221	156.81
237.455	192.81
237.689	162.81
237.922	144.81
238.156	126.81
238.39	124.81
238.624	121.81
238.858	122.81
239.091	121.81
239.325	108.81
239.559	128.81
239.793	122.81
240.027	117.81
240.26	137.81
240.494	150.81
240.728	139.81
240.961	137.81
241.195	137.81
241.429	129.81
241.662	119.81
241.896	133.81
242.13	110.81
242.363	131.81
242.597	122.81
242.83	127.81
243.064	126.81
243.298	137.81
243.531	133.81
243.765	138.81
243.998	134.81
244.232	136.81
244.465	137.81
244.699	133.81
244.932	139.81
245.166	147.81
245.399	137.81
245.633	118.81
245.866	134.81
246.099	146.81
246.333	146.81
246.566	148.81
246.8	140.81
247.033	137.81
247.266	151.81
247.5	155.81
247.733	157.81
247.966	145.81
248.2	135.81
248.433	161.81
248.666	139.81
248.899	160.81
249.133	166.81
249.366	193.81
249.599	182.81
249.832	166.81
250.066	159.81
250.299	158.81
250.532	172.81
250.765	187.81
250.998	183.81
251.231	193.81
251.465	185.81
251.698	159.81
251.931	183.81
252.164	173.81
252.397	164.81
252.63	175.81
252.863	181.81
253.096	192.81
253.329	214.81
253.562	194.81
253.795	206.81
254.028	193.81
254.261	191.81
254.494	216.81
254.727	211.81
254.96	244.81
255.193	218.81
255.426	196.81
255.659	195.81
255.892	199.81
256.124	217.81
256.357	193.81
256.59	190.81
256.823	186.81
257.056	186.81
257.289	189.81
257.521	185.81
257.754	183.81
257.987	193.81
258.22	201.81
258.452	183.81
258.685	191.81
258.918	189.81
259.151	187.81
259.383	196.81
259.616	201.81
259.849	210.81
260.081	221.81
260.314	223.81
260.547	223.81
260.779	221.81
261.012	205.81
261.244	209.81
261.477	197.81
261.71	203.81
261.942	199.81
262.175	195.81
262.407	201.81
262.64	189.81
262.872	197.81
263.105	193.81
263.337	196.81
263.57	195.81
263.802	198.81
264.035	197.81
264.267	170.81
264.499	203.81
264.732	198.81
264.964	199.81
265.197	206.81
265.429	205.81
265.661	201.81
265.894	204.81
266.126	194.81
266.358	193.81
266.591	199.81
266.823	209.81
267.055	207.81
267.287	208.81
267.52	200.81
267.752	204.81
267.984	209.81
268.216	221.81
268.448	201.81
268.681	208.81
268.913	231.81
269.145	224.81
269.377	233.81
269.609	213.81
269.841	234.81
270.073	254.81
270.306	248.81
270.538	273.81
270.77	267.81
271.002	257.81
271.234	251.81
271.466	243.81
271.698	256.81
271.93	260.81
272.162	291.81
272.394	281.81
272.626	258.81
272.858	265.81
273.09	243.81
273.322	254.81
273.553	229.81
273.785	213.81
274.017	220.81
274.249	231.81
274.481	243.81
274.713	245.81
274.945	233.81
275.176	235.81
275.408	251.81
275.64	244.81
275.872	238.81
276.104	233.81
276.335	236.81
276.567	243.81
276.799	266.81
277.031	251.81
277.262	272.81
277.494	272.81
277.726	230.81
277.957	252.81
278.189	265.81
278.421	234.81
278.652	243.81
278.884	253.81
279.115	269.81
279.347	233.81
279.579	243.81
279.81	230.81
280.042	245.81
280.273	263.81
280.505	235.81
280.736	241.81
280.968	263.81
281.199	253.81
281.431	249.81
281.662	259.81
281.894	248.81
282.125	239.81
282.356	261.81
282.588	255.81
282.819	269.81
283.051	266.81
283.282	233.81
283.513	252.81
283.745	246.81
283.976	259.81
284.207	249.81
284.439	252.81
284.67	254.81
284.901	266.81
285.132	260.81
285.364	261.81
285.595	253.81
285.826	248.81
286.057	262.81
286.288	261.81
286.52	255.81
286.751	265.81
286.982	242.81
287.213	253.81
287.444	269.81
287.675	263.81
287.906	253.81
288.138	270.81
288.369	268.81
288.6	269.81
288.831	257.81
289.062	264.81
289.293	275.81
289.524	261.81
289.755	266.81
289.986	255.81
290.217	268.81
290.448	253.81
290.679	269.81
290.91	257.81
291.141	260.81
291.371	275.81
291.602	286.81
291.833	255.81
292.064	261.81
292.295	272.81
292.526	274.81
292.757	237.81
292.987	268.81
293.218	272.81
293.449	277.81
293.68	270.81
293.91	276.81
294.141	285.81
294.372	261.81
294.603	262.81
294.833	282.81
295.064	276.81
295.295	293.81
295.525	271.81
295.756	276.81
295.987	277.81
296.217	298.81
296.448	315.81
296.679	289.81
296.909	290.81
297.14	275.81
297.37	298.81
297.601	305.81
297.831	281.81
298.062	284.81
298.292	292.81
298.523	273.81
298.753	282.81
298.984	307.81
299.214	303.81
299.445	310.81
299.675	307.81
299.905	302.81
300.136	295.81
300.366	299.81
300.597	303.81
300.827	299.81
301.057	305.81
301.288	325.81
301.518	307.81
301.748	291.81
301.979	298.81
302.209	341.81
302.439	305.81
302.669	313.81
302.9	306.81
303.13	314.81
303.36	301.81
303.59	302.81
303.82	323.81
304.051	311.81
304.281	310.81
304.511	301.81
304.741	309.81
304.971	285.81
305.201	305.81
305.431	299.81
305.661	305.81
305.891	307.81
306.121	322.81
306.352	328.81
306.582	326.81
306.812	311.81
307.042	317.81
307.272	324.81
307.502	311.81
307.731	324.81
307.961	298.81
308.191	314.81
308.421	316.81
308.651	311.81
308.881	298.81
309.111	311.81
309.341	339.81
309.571	318.81
309.8	333.81
310.03	345.81
310.26	333.81
310.49	346.81
310.72	350.81
310.949	360.81
311.179	355.81
311.409	371.81
311.639	346.81
311.868	330.81
312.098	347.81
312.328	345.81
312.557	347.81
312.787	385.81
313.017	373.81
313.246	352.81
313.476	334.81
313.706	351.81
313.935	351.81
314.165	354.81
314.394	352.81
314.624	364.81
314.853	351.81
315.083	356.81
315.312	338.81
315.542	355.81
315.771	347.81
316.001	355.81
316.23	351.81
316.46	359.81
316.689	348.81
316.919	359.81
317.148	345.81
317.377	354.81
317.607	352.81
317.836	350.81
318.065	363.81
318.295	349.81
318.524	346.81
318.753	357.81
318.983	340.81
319.212	356.81
319.441	385.81
319.67	351.81
319.9	354.81
320.129	360.81
320.358	364.81
320.587	360.81
320.816	351.81
321.046	377.81
321.275	380.81
321.504	372.81
321.733	371.81
321.962	369.81
322.191	379.81
322.42	414.81
322.649	408.81
322.878	397.81
323.108	410.81
323.337	420.81
323.566	447.81
323.795	461.81
324.024	502.81
324.253	612.81
324.482	790.81
324.71	1231.81
324.939	1893.81
325.168	1615.81
325.397	812.81
325.626	553.81
325.855	481.81
326.084	462.81
326.313	453.81
326.542	445.81
326.77	464.81
326.999	550.81
327.228	736.81
327.457	1149.81
327.686	1409.81
327.914	925.81
328.143	622.81
328.372	533.81
328.6	507.81
328.829	484.81
329.058	487.81
329.287	492.81
329.515	474.81
329.744	453.81
329.972	463.81
330.201	474.81
330.43	483.81
330.658	484.81
330.887	535.81
331.115	541.81
331.344	456.81
331.572	442.81
331.801	444.81
332.03	433.81
332.258	431.81
332.486	425.81
332.715	438.81
332.943	430.81
333.172	416.81
333.4	431.81
333.629	450.81
333.857	462.81
334.085	463.81
334.314	467.81
334.542	505.81
334.771	507.81
334.999	486.81
335.227	448.81
335.455	447.81
335.684	406.81
335.912	429.81
336.14	426.81
336.369	435.81
336.597	431.81
336.825	438.81
337.053	407.81
337.281	407.81
337.51	422.81
337.738	417.81
337.966	399.81
338.194	405.81
338.422	422.81
338.65	411.81
338.878	427.81
339.106	416.81
339.334	423.81
339.562	394.81
339.79	405.81
340.018	393.81
340.246	410.81
340.474	411.81
340.702	420.81
340.93	411.81
341.158	403.81
341.386	395.81
341.614	407.81
341.842	416.81
342.07	378.81
342.298	390.81
342.526	367.81
342.754	382.81
342.981	407.81
343.209	400.81
343.437	394.81
343.665	391.81
343.893	401.81
344.12	422.81
344.348	434.81
344.576	429.81
344.804	435.81
345.031	401.81
345.259	437.81
345.487	406.81
345.714	412.81
345.942	402.81
346.17	381.81
346.397	389.81
346.625	387.81
346.853	390.81
347.08	390.81
347.308	406.81
347.535	392.81
347.763	398.81
347.99	408.81
348.218	395.81
348.445	407.81
348.673	404.81
348.9	403.81
349.128	387.81
349.355	398.81
349.583	398.81
349.81	377.81
350.037	370.81
350.265	390.81
350.492	363.81
350.72	371.81
350.947	398.81
351.174	405.81
351.402	404.81
351.629	391.81
351.856	389.81
352.083	399.81
352.311	404.81
352.538	398.81
352.765	420.81
352.992	416.81
353.22	388.81
353.447	397.81
353.674	370.81
353.901	373.81
354.128	377.81
354.355	379.81
354.583	390.81
354.81	390.81
355.037	387.81
355.264	359.81
355.491	362.81
355.718	388.81
355.945	373.81
356.172	363.81
356.399	359.81
356.626	379.81
356.853	380.81
357.08	386.81
357.307	373.81
357.534	346.81
357.761	358.81
357.988	379.81
358.215	377.81
358.441	385.81
358.668	380.81
358.895	378.81
359.122	369.81
359.349	386.81
359.576	377.81
359.802	405.81
360.029	435.81
360.256	441.81
360.483	418.81
360.709	403.81
360.936	389.81
361.163	387.81
361.39	390.81
361.616	398.81
361.843	381.81
362.07	403.81
362.296	396.81
362.523	399.81
362.749	398.81
362.976	396.81
363.203	379.81
363.429	385.81
363.656	405.81
363.882	400.81
364.109	374.81
364.335	379.81
364.562	397.81
364.788	392.81
365.015	389.81
365.241	389.81
365.468	399.81
365.694	405.81
365.92	389.81
366.147	396.81
366.373	373.81
366.599	377.81
366.826	378.81
367.052	392.81
367.278	371.81
367.505	363.81
367.731	391.81
367.957	373.81
368.184	382.81
368.41	392.81
368.636	394.81
368.862	401.81
369.089	389.81
369.315	404.81
369.541	382.81
369.767	405.81
369.993	399.81
370.219	393.81
370.445	407.81
370.672	369.81
370.898	401.81
371.124	385.81
371.35	395.81
371.576	408.81
371.802	406.81
372.028	371.81
372.254	415.81
372.48	393.81
372.706	381.81
372.932	393.81
373.158	418.81
373.384	387.81
373.61	388.81
373.835	377.81
374.061	391.81
374.287	405.81
374.513	400.81
374.739	405.81
374.965	411.81
375.191	419.81
375.416	403.81
375.642	395.81
375.868	388.81
376.094	403.81
376.319	388.81
376.545	402.81
376.771	404.81
376.997	404.81
377.222	403.81
377.448	408.81
377.674	404.81
377.899	381.81
378.125	391.81
378.35	397.81
378.576	389.81
378.802	400.81
379.027	396.81
379.253	371.81
379.478	401.81
379.704	405.81
379.929	405.81
380.155	411.81
380.38	385.81
380.606	404.81
380.831	393.81
381.057	406.81
381.282	402.81
381.507	395.81
381.733	389.81
381.958	401.81
382.184	418.81
382.409	399.81
382.634	405.81
382.86	398.81
383.085	415.81
383.31	423.81
383.535	407.81
383.761	425.81
383.986	419.81
384.211	426.81
384.436	418.81
384.662	420.81
384.887	426.81
385.112	437.81
385.337	421.81
385.562	431.81
385.787	441.81
386.013	451.81
386.238	443.81
386.463	455.81
386.688	451.81
386.913	435.81
387.138	452.81
387.363	452.81
387.588	444.81
387.813	445.81
388.038	457.81
388.263	450.81
388.488	458.81
388.713	452.81
388.938	428.81
389.163	449.81
389.387	443.81
389.612	422.81
389.837	450.81
390.062	445.81
390.287	429.81
390.512	446.81
390.736	461.81
390.961	452.81
391.186	445.81
391.411	441.81
391.636	469.81
391.86	461.81
392.085	465.81
392.31	463.81
392.534	461.81
392.759	465.81
392.984	454.81
393.208	467.81
393.433	467.81
393.658	480.81
393.882	465.81
394.107	440.81
394.331	451.81
394.556	443.81
394.78	450.81
395.005	468.81
395.229	474.81
395.454	478.81
395.678	458.81
395.903	489.81
396.127	491.81
396.352	478.81
396.576	477.81
396.801	479.81
397.025	494.81
397.249	481.81
397.474	480.81
397.698	493.81
397.922	501.81
398.147	505.81
398.371	492.81
398.595	519.81
398.82	521.81
399.044	505.81
399.268	538.81
399.492	600.81
399.717	622.81
399.941	659.81
400.165	657.81
400.389	666.81
400.613	600.81
400.837	576.81
401.062	554.81
401.286	527.81
401.51	523.81
401.734	530.81
401.958	543.81
402.182	545.81
402.406	535.81
402.63	552.81
402.854	552.81
403.078	551.81
403.302	558.81
403.526	540.81
403.75	558.81
403.974	555.81
404.198	523.81
404.422	575.81
404.645	554.81
404.869	561.81
405.093	581.81
405.317	625.81
405.541	641.81
405.765	601.81
405.988	581.81
406.212	589.81
406.436	615.81
406.66	642.81
406.883	596.81
407.107	626.81
407.331	651.81
407.555	714.81
407.778	731.81
408.002	660.81
408.226	633.81
408.449	605.81
408.673	605.81
408.896	630.81
409.12	674.81
409.344	643.81
409.567	582.81
409.791	559.81
410.014	560.81
410.238	550.81
410.461	566.81
410.685	590.81
410.908	578.81
411.132	612.81
411.355	618.81
411.578	588.81
411.802	565.81
412.025	542.81
412.249	555.81
412.472	582.81
412.695	615.81
412.919	601.81
413.142	580.81
413.365	547.81
413.589	550.81
413.812	534.81
414.035	528.81
414.258	511.81
414.482	534.81
414.705	538.81
414.928	512.81
415.151	525.81
415.374	516.81
415.597	503.81
415.821	524.81
416.044	522.81
416.267	514.81
416.49	516.81
416.713	514.81
416.936	522.81
417.159	524.81
417.382	532.81
417.605	515.81
417.828	539.81
418.051	565.81
418.274	541.81
418.497	518.81
418.72	533.81
418.943	553.81
419.166	558.81
419.389	572.81
419.611	569.81
419.834	557.81
420.057	553.81
420.28	554.81
420.503	539.81
420.726	527.81
420.948	539.81
421.171	581.81
421.394	627.81
421.617	546.81
421.839	535.81
422.062	541.81
422.285	543.81
422.507	594.81
422.73	702.81
422.953	653.81
423.175	578.81
423.398	563.81
423.621	568.81
423.843	569.81
424.066	615.81
424.288	587.81
424.511	601.81
424.733	637.81
424.956	711.81
425.178	682.81
425.401	668.81
425.623	691.81
425.846	606.81
426.068	582.81
426.291	594.81
426.513	537.81
426.735	568.81
426.958	609.81
427.18	669.81
427.402	801.81
427.625	862.81
427.847	774.81
428.069	682.81
428.292	604.81
428.514	566.81
428.736	538.81
428.958	525.81
429.181	513.81
429.403	520.81
429.625	535.81
429.847	563.81
430.069	635.81
430.292	625.81
430.514	551.81
430.736	521.81
430.958	522.81
431.18	521.81
431.402	505.81
431.624	504.81
431.846	478.81
432.068	523.81
432.29	502.81
432.512	523.81
432.734	513.81
432.956	518.81
433.178	517.81
433.4	526.81
433.622	510.81
433.844	501.81
434.066	519.81
434.287	502.81
434.509	517.81
434.731	524.81
434.953	549.81
435.175	533.81
435.397	540.81
435.618	562.81
435.84	626.81
436.062	687.81
436.284	738.81
436.505	649.81
436.727	590.81
436.949	549.81
437.17	547.81
437.392	517.81
437.614	534.81
437.835	564.81
438.057	642.81
438.278	741.81
438.5	735.81
438.721	806.81
438.943	775.81
439.165	626.81
439.386	563.81
439.608	548.81
439.829	567.81
440.05	594.81
440.272	643.81
440.493	589.81
440.715	548.81
440.936	541.81
441.158	523.81
441.379	549.81
441.6	562.81
441.822	584.81
442.043	590.81
442.264	669.81
442.486	716.81
442.707	608.81
442.928	589.81
443.149	603.81
443.371	595.81
443.592	622.81
443.813	741.81
444.034	791.81
444.255	651.81
444.476	596.81
444.698	591.81
444.919	596.81
445.14	713.81
445.361	633.81
445.582	586.81
445.803	667.81
446.024	754.81
446.245	764.81
446.466	693.81
446.687	632.81
446.908	567.81
447.129	538.81
447.35	521.81
447.571	524.81
447.792	510.81
448.013	535.81
448.234	547.81
448.455	571.81
448.675	675.81
448.896	791.81
449.117	668.81
449.338	628.81
449.559	729.81
449.779	829.81
450	674.81
450.221	584.81
450.442	533.81
450.662	515.81
450.883	513.81
451.104	524.81
451.324	519.81
451.545	486.81
451.766	492.81
451.986	459.81
452.207	468.81
452.428	482.81
452.648	485.81
452.869	454.81
453.089	487.81
453.31	511.81
453.53	460.81
453.751	468.81
453.971	441.81
454.192	490.81
454.412	499.81
454.633	461.81
454.853	453.81
455.073	481.81
455.294	487.81
455.514	510.81
455.734	547.81
455.955	454.81
456.175	473.81
456.395	449.81
456.616	449.81
456.836	460.81
457.056	457.81
457.276	435.81
457.497	454.81
457.717	425.81
457.937	449.81
458.157	458.81
458.377	467.81
458.598	468.81
458.818	543.81
459.038	618.81
459.258	623.81
459.478	559.81
459.698	505.81
459.918	499.81
460.138	520.81
460.358	533.81
460.578	535.81
460.798	520.81
461.018	545.81
461.238	554.81
461.458	565.81
461.678	529.81
461.898	515.81
462.118	539.81
462.338	568.81
462.558	562.81
462.777	558.81
462.997	583.81
463.217	591.81
463.437	613.81
463.657	591.81
463.876	594.81
464.096	604.81
464.316	587.81
464.536	587.81
464.755	568.81
464.975	600.81
465.195	603.81
465.414	638.81
465.634	589.81
465.854	572.81
466.073	525.81
466.293	510.81
466.512	499.81
466.732	490.81
466.951	472.81
467.171	499.81
467.391	490.81
467.61	493.81
467.829	518.81
468.049	515.81
468.268	491.81
468.488	488.81
468.707	472.81
468.927	487.81
469.146	474.81
469.365	483.81
469.585	477.81
469.804	507.81
470.023	499.81
470.243	491.81
470.462	506.81
470.681	514.81
470.901	489.81
471.12	519.81
471.339	485.81
471.558	506.81
471.777	514.81
471.997	493.81
472.216	502.81
472.435	524.81
472.654	525.81
472.873	496.81
473.092	494.81
473.311	495.81
473.53	498.81
473.749	501.81
473.968	535.81
474.187	581.81
474.406	615.81
474.625	547.81
474.844	501.81
475.063	516.81
475.282	528.81
475.501	533.81
475.72	534.81
475.939	526.81
476.158	533.81
476.377	528.81
476.596	511.81
476.814	530.81
477.033	545.81
477.252	545.81
477.471	532.81
477.69	547.81
477.908	548.81
478.127	534.81
478.346	520.81
478.564	557.81
478.783	538.81
479.002	579.81
479.22	590.81
479.439	595.81
479.658	600.81
479.876	594.81
480.095	595.81
480.313	636.81
480.532	629.81
480.751	624.81
480.969	618.81
481.188	660.81
481.406	710.81
481.624	643.81
481.843	609.81
482.061	582.81
482.28	601.81
482.498	585.81
482.717	570.81
482.935	569.81
483.153	579.81
483.372	584.81
483.59	589.81
483.808	587.81
484.027	590.81
484.245	555.81
484.463	576.81
484.681	619.81
484.9	618.81
485.118	596.81
485.336	600.81
485.554	598.81
485.772	594.81
485.99	609.81
486.209	618.81
486.427	625.81
486.645	604.81
486.863	637.81
487.081	632.81
487.299	639.81
487.517	629.81
487.735	626.81
487.953	595.81
488.171	627.81
488.389	619.81
488.607	622.81
488.825	604.81
489.043	622.81
489.261	637.81
489.479	621.81
489.696	628.81
489.914	619.81
490.132	633.81
490.35	661.81
490.568	620.81
490.786	657.81
491.003	667.81
491.221	687.81
491.439	690.81
491.657	662.81
491.874	675.81
492.092	709.81
492.31	672.81
492.527	703.81
492.745	709.81
492.963	686.81
493.18	703.81
493.398	721.81
493.615	743.81
493.833	705.81
494.05	742.81
494.268	702.81
494.485	696.81
494.703	694.81
494.92	730.81
495.138	703.81
495.355	751.81
495.573	727.81
495.79	733.81
496.008	732.81
496.225	730.81
496.442	775.81
496.66	717.81
496.877	742.81
497.094	742.81
497.312	733.81
497.529	758.81
497.746	786.81
497.963	792.81
498.181	807.81
498.398	802.81
498.615	853.81
498.832	851.81
499.049	900.81
499.267	919.81
499.484	937.81
499.701	968.81
499.918	1033.81
500.135	1086.81
500.352	1116.81
500.569	1163.81
500.786	1153.81
501.003	1138.81
501.22	1075.81
501.437	1053.81
501.654	1000.81
501.871	968.81
502.088	934.81
502.305	913.81
502.522	859.81
502.739	875.81
502.956	828.81
503.172	852.81
503.389	782.81
503.606	762.81
503.823	762.81
504.04	741.81
504.256	775.81
504.473	759.81
504.69	760.81
504.907	744.81
505.123	733.81
505.34	714.81
505.557	725.81
505.773	689.81
505.99	695.81
506.207	703.81
506.423	711.81
506.64	692.81
506.856	719.81
507.073	693.81
507.289	686.81
507.506	695.81
507.722	673.81
507.939	669.81
508.155	674.81
508.372	632.81
508.588	636.81
508.805	650.81
509.021	646.81
509.238	654.81
509.454	655.81
509.67	678.81
509.887	647.81
510.103	653.81
510.319	659.81
510.536	711.81
510.752	1181.81
510.968	979.81
511.184	654.81
511.401	643.81
511.617	645.81
511.833	648.81
512.049	612.81
512.265	639.81
512.481	612.81
512.698	609.81
512.914	614.81
513.13	615.81
513.346	621.81
513.562	608.81
513.778	622.81
513.994	611.81
514.21	613.81
514.426	650.81
514.642	681.81
514.858	714.81
515.074	712.81
515.29	850.81
515.506	1194.81
515.721	1026.81
515.937	733.81
516.153	686.81
516.369	641.81
516.585	639.81
516.801	667.81
517.016	662.81
517.232	676.81
517.448	669.81
517.664	690.81
517.879	655.81
518.095	674.81
518.311	684.81
518.527	670.81
518.742	665.81
518.958	659.81
519.173	651.81
519.389	636.81
519.605	622.81
519.82	631.81
520.036	653.81
520.251	663.81
520.467	652.81
520.682	651.81
520.898	662.81
521.113	677.81
521.329	723.81
521.544	767.81
521.76	942.81
521.975	1470.81
522.19	1507.81
522.406	869.81
522.621	675.81
522.836	637.81
523.052	616.81
523.267	590.81
523.482	588.81
523.698	568.81
523.913	561.81
524.128	578.81
524.343	569.81
524.559	547.81
524.774	550.81
524.989	542.81
525.204	562.81
525.419	547.81
525.634	538.81
525.849	539.81
526.064	550.81
526.28	552.81
526.495	517.81
526.71	535.81
526.925	538.81
527.14	542.81
527.355	540.81
527.57	525.81
527.785	495.81
527.999	517.81
528.214	532.81
528.429	526.81
528.644	501.81
528.859	521.81
529.074	532.81
529.289	556.81
529.503	593.81
529.718	584.81
529.933	540.81
530.148	541.81
530.363	532.81
530.577	508.81
530.792	528.81
531.007	501.81
531.221	525.81
531.436	512.81
531.651	493.81
531.865	521.81
532.08	509.81
532.295	510.81
532.509	492.81
532.724	503.81
532.938	525.81
533.153	491.81
533.367	512.81
533.582	522.81
533.796	492.81
534.011	497.81
534.225	509.81
534.44	484.81
534.654	483.81
534.868	518.81
535.083	500.81
535.297	485.81
535.511	498.81
535.726	496.81
535.94	523.81
536.154	505.81
536.369	502.81
536.583	499.81
536.797	488.81
537.011	469.81
537.225	481.81
537.44	472.81
537.654	483.81
537.868	469.81
538.082	491.81
538.296	488.81
538.51	479.81
538.724	505.81
538.938	485.81
539.153	490.81
539.367	494.81
539.581	498.81
539.795	466.81
540.009	463.81
540.222	472.81
540.436	465.81
540.65	481.81
540.864	490.81
541.078	482.81
541.292	490.81
541.506	456.81
541.72	471.81
541.934	464.81
542.147	473.81
542.361	462.81
542.575	453.81
542.789	473.81
543.002	473.81
543.216	461.81
543.43	484.81
543.644	461.81
543.857	475.81
544.071	481.81
544.285	484.81
544.498	482.81
544.712	512.81
544.925	453.81
545.139	469.81
545.352	464.81
545.566	459.81
545.779	477.81
545.993	470.81
546.206	479.81
546.42	502.81
546.633	455.81
546.847	472.81
547.06	473.81
547.274	446.81
547.487	471.81
547.7	485.81
547.914	481.81
548.127	486.81
548.34	469.81
548.554	469.81
548.767	456.81
548.98	462.81
549.193	477.81
549.407	470.81
549.62	464.81
549.833	448.81
550.046	463.81
550.259	471.81
550.473	464.81
550.686	478.81
550.899	451.81
551.112	449.81
551.325	455.81
551.538	460.81
551.751	475.81
551.964	481.81
552.177	463.81
552.39	458.81
552.603	484.81
552.816	488.81
553.029	456.81
553.242	461.81
553.455	472.81
553.667	486.81
553.88	490.81
554.093	482.81
554.306	474.81
554.519	490.81
554.732	477.81
554.944	462.81
555.157	460.81
555.37	446.81
555.583	451.81
555.795	441.81
556.008	438.81
556.221	427.81
556.433	435.81
556.646	415.81
556.859	405.81
557.071	399.81
557.284	421.81
557.496	421.81
557.709	428.81
557.921	416.81
558.134	423.81
558.346	427.81
558.559	427.81
558.771	436.81
558.984	429.81
559.196	425.81
559.409	416.81
559.621	426.81
559.833	415.81
560.046	412.81
560.258	411.81
560.47	415.81
560.683	416.81
560.895	413.81
561.107	386.81
561.32	412.81
561.532	399.81
561.744	424.81
561.956	412.81
562.168	438.81
562.381	431.81
562.593	410.81
562.805	420.81
563.017	406.81
563.229	415.81
563.441	417.81
563.653	414.81
563.865	414.81
564.077	426.81
564.289	425.81
564.501	414.81
564.713	420.81
564.925	434.81
565.137	428.81
565.349	471.81
565.561	470.81
565.773	480.81
565.985	476.81
566.197	476.81
566.408	501.81
566.62	511.81
566.832	537.81
567.044	537.81
567.255	544.81
567.467	561.81
567.679	540.81
567.891	583.81
568.102	569.81
568.314	554.81
568.526	527.81
568.737	514.81
568.949	500.81
569.161	471.81
569.372	461.81
569.584	450.81
569.795	451.81
570.007	439.81
570.218	488.81
570.43	460.81
570.641	421.81
570.853	423.81
571.064	413.81
571.276	402.81
571.487	381.81
571.698	389.81
571.91	409.81
572.121	393.81
572.333	403.81
572.544	399.81
572.755	378.81
572.966	372.81
573.178	355.81
573.389	359.81
573.6	366.81
573.811	382.81
574.023	379.81
574.234	372.81
574.445	357.81
574.656	356.81
574.867	354.81
575.078	378.81
575.289	344.81
575.501	363.81
575.712	347.81
575.923	355.81
576.134	365.81
576.345	351.81
576.556	351.81
576.767	354.81
576.978	325.81
577.188	357.81
577.399	349.81
577.61	327.81
577.821	325.81
578.032	344.81
578.243	363.81
578.454	555.81
578.665	444.81
578.875	349.81
579.086	326.81
579.297	341.81
579.508	330.81
579.718	331.81
579.929	322.81
580.14	322.81
580.35	354.81
580.561	327.81
580.772	342.81
580.982	314.81
581.193	323.81
581.403	320.81
581.614	326.81
581.825	317.81
582.035	309.81
582.246	322.81
582.456	329.81
582.667	322.81
582.877	332.81
583.087	322.81
583.298	309.81
583.508	310.81
583.719	329.81
583.929	326.81
584.139	319.81
584.35	302.81
584.56	326.81
584.77	321.81
584.981	301.81
585.191	308.81
585.401	309.81
585.611	318.81
585.821	318.81
586.032	331.81
586.242	319.81
586.452	328.81
586.662	305.81
586.872	316.81
587.082	305.81
587.292	323.81
587.502	306.81
587.713	307.81
587.923	307.81
588.133	314.81
588.343	317.81
588.553	313.81
588.762	317.81
588.972	334.81
589.182	371.81
589.392	362.81
589.602	309.81
589.812	329.81
590.022	342.81
590.232	307.81
590.441	324.81
590.651	319.81
590.861	319.81
591.071	297.81
591.281	316.81
591.49	310.81
591.7	321.81
591.91	325.81
592.119	326.81
592.329	337.81
592.539	341.81
592.748	334.81
592.958	330.81
593.167	329.81
593.377	333.81
593.587	327.81
593.796	337.81
594.006	349.81
594.215	331.81
594.424	350.81
594.634	336.81
594.843	338.81
595.053	326.81
595.262	320.81
595.472	323.81
595.681	317.81
595.89	309.81
596.1	294.81
596.309	287.81
596.518	322.81
596.727	303.81
596.937	302.81
597.146	294.81
597.355	293.81
597.564	280.81
597.774	275.81
597.983	286.81
598.192	285.81
598.401	286.81
598.61	278.81
598.819	302.81
599.028	271.81
599.237	277.81
599.446	267.81
599.655	261.81
599.864	265.81
600.073	277.81
600.282	292.81
600.491	295.81
600.7	274.81
600.909	263.81
601.118	268.81
601.327	270.81
601.536	288.81
601.745	270.81
601.953	273.81
602.162	267.81
602.371	257.81
602.58	246.81
602.789	243.81
602.997	266.81
603.206	244.81
603.415	251.81
603.623	262.81
603.832	283.81
604.041	257.81
604.249	260.81
604.458	280.81
604.666	269.81
604.875	281.81
605.084	264.81
605.292	249.81
605.501	264.81
605.709	243.81
605.918	261.81
606.126	256.81
606.334	257.81
606.543	255.81
606.751	230.81
606.96	263.81
607.168	263.81
607.376	255.81
607.585	242.81
607.793	252.81
608.001	251.81
608.21	241.81
608.418	245.81
608.626	245.81
608.834	256.81
609.043	244.81
609.251	244.81
609.459	251.81
609.667	249.81
609.875	258.81
610.083	263.81
610.291	236.81
610.499	252.81
610.707	249.81
610.916	237.81
611.124	254.81
611.332	261.81
611.54	270.81
611.748	250.81
611.955	251.81
612.163	254.81
612.371	237.81
612.579	238.81
612.787	247.81
612.995	245.81
613.203	255.81
613.411	246.81
613.618	246.81
613.826	230.81
614.034	235.81
614.242	233.81
614.449	244.81
614.657	254.81
614.865	236.81
615.072	252.81
615.28	254.81
615.488	246.81
615.695	236.81
615.903	245.81
616.111	256.81
616.318	238.81
616.526	255.81
616.733	222.81
616.941	233.81
617.148	233.81
617.356	243.81
617.563	236.81
617.771	255.81
617.978	227.81
618.185	234.81
618.393	243.81
618.6	234.81
618.807	244.81
619.015	229.81
619.222	234.81
619.429	228.81
619.637	218.81
619.844	222.81
620.051	219.81
620.258	228.81
620.466	209.81
620.673	226.81
620.88	220.81
621.087	234.81
621.294	226.81
621.501	231.81
621.708	235.81
621.915	246.81
622.122	234.81
622.329	231.81
622.536	222.81
622.743	238.81
622.95	221.81
623.157	213.81
623.364	223.81
623.571	227.81
623.778	209.81
623.985	219.81
624.192	207.81
624.399	224.81
624.606	221.81
624.812	197.81
625.019	208.81
625.226	212.81
625.433	226.81
625.639	204.81
625.846	214.81
626.053	209.81
626.259	193.81
626.466	220.81
626.673	213.81
626.879	219.81
627.086	222.81
627.293	225.81
627.499	203.81
627.706	219.81
627.912	201.81
628.119	214.81
628.325	213.81
628.532	219.81
628.738	209.81
628.945	207.81
629.151	215.81
629.357	195.81
629.564	200.81
629.77	227.81
629.976	206.81
630.183	187.81
630.389	190.81
630.595	215.81
630.802	214.81
631.008	222.81
631.214	207.81
631.42	209.81
631.627	184.81
631.833	187.81
632.039	193.81
632.245	200.81
632.451	186.81
632.657	177.81
632.863	186.81
633.069	179.81
633.275	185.81
633.481	188.81
633.688	189.81
633.893	211.81
634.099	180.81
634.305	195.81
634.511	207.81
634.717	195.81
634.923	184.81
635.129	179.81
635.335	171.81
635.541	165.81
635.747	160.81
635.952	182.81
636.158	188.81
636.364	194.81
636.57	193.81
636.775	182.81
636.981	186.81
637.187	190.81
637.392	183.81
637.598	186.81
637.804	184.81
638.009	182.81
638.215	177.81
638.421	187.81
638.626	189.81
638.832	178.81
639.037	174.81
639.243	182.81
639.448	199.81
639.654	184.81
639.859	177.81
640.065	182.81
640.27	186.81
640.475	179.81
640.681	173.81
640.886	179.81
641.091	177.81
641.297	178.81
641.502	185.81
641.707	177.81
641.913	174.81
642.118	183.81
642.323	179.81
642.528	182.81
642.733	172.81
642.939	180.81
643.144	170.81
643.349	162.81
643.554	157.81
643.759	170.81
643.964	179.81
644.169	178.81
644.374	166.81
644.579	171.81
644.784	176.81
644.989	177.81
645.194	187.81
645.399	160.81
645.604	177.81
645.809	143.81
646.014	164.81
646.219	162.81
646.423	172.81
646.628	171.81
646.833	178.81
647.038	172.81
647.243	195.81
647.447	167.81
647.652	179.81
647.857	185.81
648.062	168.81
648.266	187.81
648.471	170.81
648.676	177.81
648.88	177.81
649.085	172.81
649.289	165.81
649.494	169.81
649.698	184.81
649.903	179.81
650.107	177.81
650.312	151.81
650.516	167.81
650.721	182.81
650.925	152.81
651.13	149.81
651.334	146.81
651.539	171.81
651.743	146.81
651.947	147.81
652.152	162.81
652.356	155.81
652.56	142.81
652.764	134.81
652.969	147.81
653.173	124.81
653.377	139.81
653.581	138.81
653.785	142.81
653.99	143.81
654.194	150.81
654.398	153.81
654.602	133.81
654.806	148.81
655.01	148.81
655.214	136.81
655.418	127.81
655.622	129.81
655.826	123.81
656.03	127.81
656.234	137.81
656.438	141.81
656.642	158.81
656.846	133.81
657.049	139.81
657.253	125.81
657.457	115.81
657.661	125.81
657.865	109.81
658.068	107.81
658.272	125.81
658.476	99.81
658.68	99.81
658.883	117.81
659.087	95.81
659.291	93.81
659.494	90.81
659.698	99.81
659.901	92.81
660.105	102.81
660.309	101.81
660.512	81.81
660.716	97.81
660.919	93.81
661.123	103.81
661.326	91.81
661.53	87.81
661.733	115.81
661.936	85.81
662.14	79.81
662.343	86.81
662.546	84.81
662.75	101.81
662.953	81.81
663.156	85.81
663.36	61.81
663.563	80.81
663.766	87.81
663.969	84.81
664.173	90.81
664.376	98.81
664.579	97.81
664.782	94.81
664.985	79.81
665.188	86.81
665.391	91.81
665.594	86.81
665.797	62.81
666	73.81
666.203	84.81
666.406	94.81
666.609	83.81
666.812	73.81
667.015	83.81
667.218	82.81
667.421	79.81
667.624	84.81
667.827	101.81
668.03	81.81
668.232	78.81
668.435	83.81
668.638	86.81
668.841	85.81
669.043	81.81
669.246	86.81
669.449	86.81
669.651	84.81
669.854	78.81
670.057	84.81
670.259	82.81
670.462	84.81
670.665	77.81
670.867	85.81
671.07	85.81
671.272	88.81
671.475	79.81
671.677	74.81
671.88	75.81
672.082	81.81
672.284	85.81
672.487	89.81
672.689	73.81
672.892	66.81
