Data from 1979.PennyLincolnUp.Lamp.En5.5.200Scan.071719.P1_HRD10591_16-19-03-864.txt Node
Date: Thu Jul 18 16:19:03 EDT 2019
User: cochatt
Spectrometer: HR+D1059
Trigger mode: 1
Integration Time (sec): 1.000000E-1
Scans to average: 1
Electric dark correction enabled: true
Nonlinearity correction enabled: false
Boxcar width: 0
XAxis mode: Wavelengths
Number of Pixels in Spectrum: 2048
>>>>>Begin Spectral Data<<<<<
223.165	-18.88
223.4	-18.88
223.635	-18.88
223.869	-22.88
224.104	-18.88
224.338	-17.88
224.573	-18.88
224.808	0.12
225.042	-20.88
225.277	9.12
225.511	3.12
225.746	-8.88
225.98	17.12
226.215	14.12
226.449	10.12
226.683	8.12
226.918	34.12
227.152	31.12
227.387	33.12
227.621	27.12
227.856	47.12
228.09	44.12
228.324	50.12
228.559	58.12
228.793	73.12
229.027	84.12
229.262	90.12
229.496	118.12
229.73	125.12
229.964	134.12
230.199	128.12
230.433	101.12
230.667	117.12
230.901	111.12
231.136	108.12
231.37	120.12
231.604	108.12
231.838	127.12
232.072	115.12
232.306	117.12
232.541	118.12
232.775	107.12
233.009	100.12
233.243	110.12
233.477	92.12
233.711	132.12
233.945	112.12
234.179	116.12
234.413	107.12
234.647	130.12
234.881	101.12
235.115	114.12
235.349	104.12
235.583	108.12
235.817	118.12
236.051	122.12
236.285	128.12
236.519	113.12
236.753	132.12
236.987	153.12
237.221	172.12
237.455	193.12
237.689	162.12
237.922	136.12
238.156	125.12
238.39	123.12
238.624	128.12
238.858	114.12
239.091	133.12
239.325	125.12
239.559	122.12
239.793	146.12
240.027	144.12
240.26	138.12
240.494	150.12
240.728	143.12
240.961	148.12
241.195	146.12
241.429	132.12
241.662	135.12
241.896	136.12
242.13	135.12
242.363	134.12
242.597	149.12
242.83	130.12
243.064	122.12
243.298	130.12
243.531	138.12
243.765	142.12
243.998	143.12
244.232	141.12
244.465	151.12
244.699	138.12
244.932	148.12
245.166	142.12
245.399	150.12
245.633	145.12
245.866	138.12
246.099	143.12
246.333	141.12
246.566	147.12
246.8	162.12
247.033	162.12
247.266	143.12
247.5	160.12
247.733	155.12
247.966	158.12
248.2	160.12
248.433	180.12
248.666	169.12
248.899	178.12
249.133	180.12
249.366	182.12
249.599	197.12
249.832	167.12
250.066	180.12
250.299	175.12
250.532	181.12
250.765	192.12
250.998	192.12
251.231	196.12
251.465	195.12
251.698	211.12
251.931	197.12
252.164	173.12
252.397	190.12
252.63	183.12
252.863	191.12
253.096	207.12
253.329	204.12
253.562	208.12
253.795	209.12
254.028	202.12
254.261	187.12
254.494	204.12
254.727	236.12
254.96	248.12
255.193	239.12
255.426	242.12
255.659	210.12
255.892	214.12
256.124	195.12
256.357	218.12
256.59	214.12
256.823	208.12
257.056	209.12
257.289	216.12
257.521	207.12
257.754	201.12
257.987	204.12
258.22	202.12
258.452	202.12
258.685	196.12
258.918	177.12
259.151	210.12
259.383	203.12
259.616	187.12
259.849	199.12
260.081	211.12
260.314	230.12
260.547	250.12
260.779	222.12
261.012	213.12
261.244	221.12
261.477	215.12
261.71	209.12
261.942	216.12
262.175	212.12
262.407	219.12
262.64	196.12
262.872	204.12
263.105	195.12
263.337	197.12
263.57	205.12
263.802	212.12
264.035	208.12
264.267	193.12
264.499	198.12
264.732	202.12
264.964	203.12
265.197	203.12
265.429	216.12
265.661	214.12
265.894	219.12
266.126	217.12
266.358	205.12
266.591	215.12
266.823	229.12
267.055	227.12
267.287	204.12
267.52	218.12
267.752	218.12
267.984	220.12
268.216	212.12
268.448	212.12
268.681	242.12
268.913	223.12
269.145	235.12
269.377	251.12
269.609	252.12
269.841	250.12
270.073	245.12
270.306	264.12
270.538	269.12
270.77	280.12
271.002	264.12
271.234	245.12
271.466	259.12
271.698	277.12
271.93	276.12
272.162	281.12
272.394	269.12
272.626	286.12
272.858	275.12
273.09	247.12
273.322	244.12
273.553	235.12
273.785	239.12
274.017	243.12
274.249	236.12
274.481	246.12
274.713	246.12
274.945	246.12
275.176	247.12
275.408	246.12
275.64	254.12
275.872	250.12
276.104	267.12
276.335	241.12
276.567	265.12
276.799	269.12
277.031	279.12
277.262	296.12
277.494	291.12
277.726	296.12
277.957	264.12
278.189	266.12
278.421	279.12
278.652	253.12
278.884	262.12
279.115	249.12
279.347	258.12
279.579	261.12
279.81	250.12
280.042	251.12
280.273	237.12
280.505	239.12
280.736	252.12
280.968	244.12
281.199	259.12
281.431	255.12
281.662	267.12
281.894	271.12
282.125	248.12
282.356	288.12
282.588	285.12
282.819	304.12
283.051	292.12
283.282	239.12
283.513	268.12
283.745	270.12
283.976	251.12
284.207	278.12
284.439	264.12
284.67	283.12
284.901	265.12
285.132	262.12
285.364	245.12
285.595	265.12
285.826	256.12
286.057	274.12
286.288	278.12
286.52	269.12
286.751	264.12
286.982	266.12
287.213	278.12
287.444	300.12
287.675	286.12
287.906	280.12
288.138	288.12
288.369	298.12
288.6	292.12
288.831	282.12
289.062	287.12
289.293	290.12
289.524	304.12
289.755	278.12
289.986	278.12
290.217	277.12
290.448	288.12
290.679	285.12
290.91	280.12
291.141	301.12
291.371	286.12
291.602	283.12
291.833	270.12
292.064	276.12
292.295	282.12
292.526	259.12
292.757	273.12
292.987	267.12
293.218	284.12
293.449	266.12
293.68	272.12
293.91	277.12
294.141	293.12
294.372	264.12
294.603	275.12
294.833	293.12
295.064	294.12
295.295	263.12
295.525	291.12
295.756	296.12
295.987	276.12
296.217	330.12
296.448	314.12
296.679	300.12
296.909	282.12
297.14	299.12
297.37	293.12
297.601	306.12
297.831	288.12
298.062	304.12
298.292	298.12
298.523	309.12
298.753	302.12
298.984	286.12
299.214	316.12
299.445	289.12
299.675	311.12
299.905	304.12
300.136	308.12
300.366	325.12
300.597	288.12
300.827	323.12
301.057	319.12
301.288	329.12
301.518	321.12
301.748	318.12
301.979	310.12
302.209	301.12
302.439	318.12
302.669	307.12
302.9	343.12
303.13	325.12
303.36	310.12
303.59	313.12
303.82	329.12
304.051	347.12
304.281	343.12
304.511	309.12
304.741	307.12
304.971	312.12
305.201	312.12
305.431	309.12
305.661	324.12
305.891	322.12
306.121	330.12
306.352	330.12
306.582	326.12
306.812	322.12
307.042	332.12
307.272	321.12
307.502	327.12
307.731	319.12
307.961	345.12
308.191	331.12
308.421	318.12
308.651	313.12
308.881	328.12
309.111	323.12
309.341	325.12
309.571	334.12
309.8	341.12
310.03	356.12
310.26	360.12
310.49	358.12
310.72	367.12
310.949	391.12
311.179	359.12
311.409	357.12
311.639	364.12
311.868	335.12
312.098	357.12
312.328	348.12
312.557	389.12
312.787	382.12
313.017	379.12
313.246	366.12
313.476	370.12
313.706	389.12
313.935	375.12
314.165	385.12
314.394	382.12
314.624	376.12
314.853	370.12
315.083	360.12
315.312	366.12
315.542	373.12
315.771	355.12
316.001	364.12
316.23	381.12
316.46	347.12
316.689	358.12
316.919	363.12
317.148	362.12
317.377	373.12
317.607	384.12
317.836	372.12
318.065	360.12
318.295	360.12
318.524	366.12
318.753	358.12
318.983	371.12
319.212	357.12
319.441	345.12
319.67	386.12
319.9	374.12
320.129	385.12
320.358	388.12
320.587	383.12
320.816	373.12
321.046	354.12
321.275	384.12
321.504	374.12
321.733	381.12
321.962	401.12
322.191	399.12
322.42	400.12
322.649	436.12
322.878	413.12
323.108	451.12
323.337	460.12
323.566	455.12
323.795	507.12
324.024	522.12
324.253	611.12
324.482	856.12
324.71	1355.12
324.939	2007.12
325.168	1734.12
325.397	852.12
325.626	595.12
325.855	506.12
326.084	470.12
326.313	468.12
326.542	472.12
326.77	525.12
326.999	582.12
327.228	823.12
327.457	1253.12
327.686	1531.12
327.914	996.12
328.143	636.12
328.372	564.12
328.6	554.12
328.829	527.12
329.058	517.12
329.287	513.12
329.515	490.12
329.744	491.12
329.972	472.12
330.201	499.12
330.43	517.12
330.658	565.12
330.887	552.12
331.115	557.12
331.344	503.12
331.572	474.12
331.801	482.12
332.03	462.12
332.258	450.12
332.486	459.12
332.715	422.12
332.943	444.12
333.172	452.12
333.4	437.12
333.629	454.12
333.857	471.12
334.085	456.12
334.314	496.12
334.542	541.12
334.771	549.12
334.999	518.12
335.227	483.12
335.455	483.12
335.684	453.12
335.912	455.12
336.14	442.12
336.369	458.12
336.597	471.12
336.825	479.12
337.053	456.12
337.281	424.12
337.51	431.12
337.738	438.12
337.966	450.12
338.194	430.12
338.422	445.12
338.65	439.12
338.878	428.12
339.106	427.12
339.334	426.12
339.562	431.12
339.79	432.12
340.018	440.12
340.246	444.12
340.474	451.12
340.702	415.12
340.93	445.12
341.158	398.12
341.386	407.12
341.614	418.12
341.842	392.12
342.07	399.12
342.298	423.12
342.526	404.12
342.754	419.12
342.981	415.12
343.209	418.12
343.437	432.12
343.665	405.12
343.893	430.12
344.12	445.12
344.348	442.12
344.576	439.12
344.804	438.12
345.031	454.12
345.259	453.12
345.487	430.12
345.714	452.12
345.942	410.12
346.17	440.12
346.397	413.12
346.625	422.12
346.853	414.12
347.08	423.12
347.308	414.12
347.535	430.12
347.763	447.12
347.99	421.12
348.218	410.12
348.445	434.12
348.673	428.12
348.9	402.12
349.128	403.12
349.355	404.12
349.583	410.12
349.81	399.12
350.037	389.12
350.265	411.12
350.492	386.12
350.72	435.12
350.947	418.12
351.174	411.12
351.402	419.12
351.629	425.12
351.856	422.12
352.083	420.12
352.311	427.12
352.538	417.12
352.765	438.12
352.992	438.12
353.22	391.12
353.447	401.12
353.674	410.12
353.901	394.12
354.128	421.12
354.355	406.12
354.583	401.12
354.81	379.12
355.037	376.12
355.264	405.12
355.491	401.12
355.718	395.12
355.945	386.12
356.172	383.12
356.399	409.12
356.626	401.12
356.853	379.12
357.08	379.12
357.307	392.12
357.534	384.12
357.761	408.12
357.988	399.12
358.215	391.12
358.441	407.12
358.668	397.12
358.895	395.12
359.122	394.12
359.349	403.12
359.576	398.12
359.802	422.12
360.029	455.12
360.256	491.12
360.483	445.12
360.709	409.12
360.936	406.12
361.163	409.12
361.39	410.12
361.616	427.12
361.843	416.12
362.07	423.12
362.296	414.12
362.523	410.12
362.749	417.12
362.976	410.12
363.203	426.12
363.429	415.12
363.656	395.12
363.882	414.12
364.109	393.12
364.335	393.12
364.562	406.12
364.788	388.12
365.015	416.12
365.241	410.12
365.468	400.12
365.694	424.12
365.92	412.12
366.147	406.12
366.373	406.12
366.599	409.12
366.826	408.12
367.052	393.12
367.278	395.12
367.505	432.12
367.731	437.12
367.957	400.12
368.184	390.12
368.41	405.12
368.636	389.12
368.862	422.12
369.089	448.12
369.315	421.12
369.541	405.12
369.767	418.12
369.993	394.12
370.219	408.12
370.445	420.12
370.672	410.12
370.898	398.12
371.124	406.12
371.35	408.12
371.576	412.12
371.802	407.12
372.028	411.12
372.254	399.12
372.48	405.12
372.706	423.12
372.932	422.12
373.158	408.12
373.384	420.12
373.61	417.12
373.835	412.12
374.061	421.12
374.287	416.12
374.513	429.12
374.739	436.12
374.965	450.12
375.191	432.12
375.416	424.12
375.642	441.12
375.868	422.12
376.094	419.12
376.319	406.12
376.545	432.12
376.771	408.12
376.997	418.12
377.222	407.12
377.448	410.12
377.674	400.12
377.899	402.12
378.125	410.12
378.35	405.12
378.576	412.12
378.802	394.12
379.027	388.12
379.253	427.12
379.478	435.12
379.704	413.12
379.929	396.12
380.155	405.12
380.38	426.12
380.606	422.12
380.831	403.12
381.057	422.12
381.282	406.12
381.507	416.12
381.733	402.12
381.958	438.12
382.184	413.12
382.409	424.12
382.634	430.12
382.86	437.12
383.085	442.12
383.31	428.12
383.535	440.12
383.761	419.12
383.986	456.12
384.211	442.12
384.436	438.12
384.662	446.12
384.887	447.12
385.112	464.12
385.337	443.12
385.562	433.12
385.787	462.12
386.013	484.12
386.238	478.12
386.463	474.12
386.688	456.12
386.913	449.12
387.138	475.12
387.363	470.12
387.588	459.12
387.813	454.12
388.038	466.12
388.263	450.12
388.488	472.12
388.713	463.12
388.938	473.12
389.163	449.12
389.387	468.12
389.612	480.12
389.837	473.12
390.062	478.12
390.287	476.12
390.512	454.12
390.736	450.12
390.961	466.12
391.186	457.12
391.411	455.12
391.636	485.12
391.86	472.12
392.085	487.12
392.31	486.12
392.534	485.12
392.759	467.12
392.984	500.12
393.208	480.12
393.433	491.12
393.658	492.12
393.882	492.12
394.107	471.12
394.331	488.12
394.556	482.12
394.78	484.12
395.005	478.12
395.229	477.12
395.454	491.12
395.678	515.12
395.903	516.12
396.127	525.12
396.352	512.12
396.576	492.12
396.801	486.12
397.025	500.12
397.249	501.12
397.474	512.12
397.698	512.12
397.922	529.12
398.147	527.12
398.371	528.12
398.595	531.12
398.82	552.12
399.044	558.12
399.268	570.12
399.492	618.12
399.717	645.12
399.941	654.12
400.165	696.12
400.389	644.12
400.613	612.12
400.837	586.12
401.062	576.12
401.286	563.12
401.51	555.12
401.734	543.12
401.958	578.12
402.182	559.12
402.406	566.12
402.63	565.12
402.854	577.12
403.078	572.12
403.302	591.12
403.526	556.12
403.75	589.12
403.974	590.12
404.198	556.12
404.422	588.12
404.645	583.12
404.869	575.12
405.093	614.12
405.317	648.12
405.541	692.12
405.765	655.12
405.988	621.12
406.212	617.12
406.436	622.12
406.66	655.12
406.883	631.12
407.107	640.12
407.331	709.12
407.555	772.12
407.778	748.12
408.002	688.12
408.226	642.12
408.449	641.12
408.673	613.12
408.896	656.12
409.12	694.12
409.344	645.12
409.567	615.12
409.791	615.12
410.014	608.12
410.238	577.12
410.461	576.12
410.685	593.12
410.908	596.12
411.132	617.12
411.355	658.12
411.578	612.12
411.802	599.12
412.025	581.12
412.249	593.12
412.472	617.12
412.695	660.12
412.919	626.12
413.142	582.12
413.365	551.12
413.589	543.12
413.812	552.12
414.035	562.12
414.258	571.12
414.482	549.12
414.705	567.12
414.928	542.12
415.151	569.12
415.374	546.12
415.597	559.12
415.821	548.12
416.044	571.12
416.267	538.12
416.49	527.12
416.713	560.12
416.936	536.12
417.159	540.12
417.382	541.12
417.605	545.12
417.828	552.12
418.051	572.12
418.274	532.12
418.497	544.12
418.72	554.12
418.943	558.12
419.166	598.12
419.389	586.12
419.611	581.12
419.834	586.12
420.057	584.12
420.28	586.12
420.503	582.12
420.726	580.12
420.948	568.12
421.171	622.12
421.394	667.12
421.617	583.12
421.839	559.12
422.062	572.12
422.285	583.12
422.507	630.12
422.73	694.12
422.953	659.12
423.175	619.12
423.398	576.12
423.621	567.12
423.843	586.12
424.066	612.12
424.288	599.12
424.511	602.12
424.733	660.12
424.956	776.12
425.178	699.12
425.401	720.12
425.623	755.12
425.846	650.12
426.068	607.12
426.291	591.12
426.513	588.12
426.735	580.12
426.958	648.12
427.18	712.12
427.402	866.12
427.625	898.12
427.847	810.12
428.069	675.12
428.292	642.12
428.514	588.12
428.736	576.12
428.958	562.12
429.181	572.12
429.403	552.12
429.625	569.12
429.847	596.12
430.069	628.12
430.292	640.12
430.514	591.12
430.736	560.12
430.958	566.12
431.18	534.12
431.402	510.12
431.624	537.12
431.846	511.12
432.068	511.12
432.29	545.12
432.512	529.12
432.734	532.12
432.956	545.12
433.178	566.12
433.4	538.12
433.622	547.12
433.844	528.12
434.066	542.12
434.287	548.12
434.509	547.12
434.731	556.12
434.953	553.12
435.175	544.12
435.397	573.12
435.618	600.12
435.84	647.12
436.062	728.12
436.284	763.12
436.505	680.12
436.727	586.12
436.949	584.12
437.17	551.12
437.392	544.12
437.614	570.12
437.835	597.12
438.057	653.12
438.278	780.12
438.5	778.12
438.721	861.12
438.943	808.12
439.165	632.12
439.386	584.12
439.608	610.12
439.829	588.12
440.05	618.12
440.272	660.12
440.493	610.12
440.715	601.12
440.936	559.12
441.158	568.12
441.379	558.12
441.6	582.12
441.822	607.12
442.043	638.12
442.264	717.12
442.486	740.12
442.707	620.12
442.928	606.12
443.149	635.12
443.371	628.12
443.592	649.12
443.813	744.12
444.034	830.12
444.255	699.12
444.476	635.12
444.698	611.12
444.919	623.12
445.14	710.12
445.361	652.12
445.582	649.12
445.803	687.12
446.024	806.12
446.245	790.12
446.466	726.12
446.687	618.12
446.908	589.12
447.129	538.12
447.35	560.12
447.571	546.12
447.792	554.12
448.013	575.12
448.234	559.12
448.455	594.12
448.675	690.12
448.896	833.12
449.117	716.12
449.338	666.12
449.559	781.12
449.779	885.12
450	694.12
450.221	585.12
450.442	562.12
450.662	546.12
450.883	531.12
451.104	562.12
451.324	524.12
451.545	516.12
451.766	487.12
451.986	501.12
452.207	502.12
452.428	493.12
452.648	478.12
452.869	464.12
453.089	493.12
453.31	484.12
453.53	478.12
453.751	514.12
453.971	518.12
454.192	507.12
454.412	512.12
454.633	486.12
454.853	495.12
455.073	486.12
455.294	502.12
455.514	582.12
455.734	543.12
455.955	495.12
456.175	473.12
456.395	468.12
456.616	459.12
456.836	470.12
457.056	475.12
457.276	471.12
457.497	457.12
457.717	452.12
457.937	476.12
458.157	474.12
458.377	490.12
458.598	503.12
458.818	558.12
459.038	623.12
459.258	636.12
459.478	572.12
459.698	565.12
459.918	555.12
460.138	553.12
460.358	545.12
460.578	552.12
460.798	578.12
461.018	550.12
461.238	547.12
461.458	565.12
461.678	540.12
461.898	537.12
462.118	578.12
462.338	578.12
462.558	574.12
462.777	571.12
462.997	596.12
463.217	644.12
463.437	629.12
463.657	621.12
463.876	621.12
464.096	614.12
464.316	607.12
464.536	590.12
464.755	630.12
464.975	608.12
465.195	644.12
465.414	700.12
465.634	617.12
465.854	574.12
466.073	572.12
466.293	534.12
466.512	534.12
466.732	520.12
466.951	531.12
467.171	516.12
467.391	537.12
467.61	534.12
467.829	533.12
468.049	528.12
468.268	515.12
468.488	526.12
468.707	506.12
468.927	521.12
469.146	520.12
469.365	486.12
469.585	495.12
469.804	525.12
470.023	548.12
470.243	534.12
470.462	506.12
470.681	546.12
470.901	549.12
471.12	517.12
471.339	500.12
471.558	508.12
471.777	516.12
471.997	525.12
472.216	527.12
472.435	554.12
472.654	551.12
472.873	529.12
473.092	518.12
473.311	524.12
473.53	525.12
473.749	538.12
473.968	583.12
474.187	651.12
474.406	650.12
474.625	544.12
474.844	519.12
475.063	530.12
475.282	527.12
475.501	542.12
475.72	542.12
475.939	540.12
476.158	547.12
476.377	531.12
476.596	547.12
476.814	557.12
477.033	535.12
477.252	572.12
477.471	561.12
477.69	572.12
477.908	576.12
478.127	583.12
478.346	574.12
478.564	595.12
478.783	584.12
479.002	613.12
479.22	616.12
479.439	639.12
479.658	611.12
479.876	622.12
480.095	665.12
480.313	645.12
480.532	679.12
480.751	632.12
480.969	650.12
481.188	694.12
481.406	718.12
481.624	649.12
481.843	628.12
482.061	616.12
482.28	633.12
482.498	608.12
482.717	594.12
482.935	601.12
483.153	601.12
483.372	597.12
483.59	617.12
483.808	614.12
484.027	625.12
484.245	623.12
484.463	607.12
484.681	617.12
484.9	603.12
485.118	634.12
485.336	619.12
485.554	625.12
485.772	660.12
485.99	646.12
486.209	646.12
486.427	640.12
486.645	644.12
486.863	644.12
487.081	668.12
487.299	649.12
487.517	642.12
487.735	659.12
487.953	650.12
488.171	650.12
488.389	676.12
488.607	664.12
488.825	637.12
489.043	642.12
489.261	665.12
489.479	671.12
489.696	654.12
489.914	684.12
490.132	663.12
490.35	676.12
490.568	699.12
490.786	699.12
491.003	685.12
491.221	712.12
491.439	714.12
491.657	695.12
491.874	741.12
492.092	735.12
492.31	744.12
492.527	751.12
492.745	739.12
492.963	728.12
493.18	749.12
493.398	768.12
493.615	760.12
493.833	744.12
494.05	760.12
494.268	767.12
494.485	741.12
494.703	767.12
494.92	757.12
495.138	755.12
495.355	759.12
495.573	778.12
495.79	757.12
496.008	782.12
496.225	788.12
496.442	734.12
496.66	749.12
496.877	774.12
497.094	788.12
497.312	802.12
497.529	800.12
497.746	808.12
497.963	840.12
498.181	842.12
498.398	847.12
498.615	859.12
498.832	894.12
499.049	910.12
499.267	957.12
499.484	1012.12
499.701	1040.12
499.918	1107.12
500.135	1127.12
500.352	1192.12
500.569	1236.12
500.786	1230.12
501.003	1190.12
501.22	1147.12
501.437	1116.12
501.654	1056.12
501.871	1054.12
502.088	980.12
502.305	939.12
502.522	918.12
502.739	902.12
502.956	864.12
503.172	834.12
503.389	833.12
503.606	847.12
503.823	808.12
504.04	814.12
504.256	805.12
504.473	781.12
504.69	808.12
504.907	796.12
505.123	743.12
505.34	768.12
505.557	754.12
505.773	764.12
505.99	760.12
506.207	713.12
506.423	710.12
506.64	695.12
506.856	722.12
507.073	710.12
507.289	703.12
507.506	704.12
507.722	702.12
507.939	732.12
508.155	706.12
508.372	695.12
508.588	695.12
508.805	680.12
509.021	679.12
509.238	695.12
509.454	701.12
509.67	696.12
509.887	681.12
510.103	656.12
510.319	674.12
510.536	757.12
510.752	1212.12
510.968	1045.12
511.184	691.12
511.401	682.12
511.617	670.12
511.833	663.12
512.049	651.12
512.265	626.12
512.481	626.12
512.698	612.12
512.914	653.12
513.13	648.12
513.346	638.12
513.562	638.12
513.778	659.12
513.994	638.12
514.21	652.12
514.426	693.12
514.642	738.12
514.858	750.12
515.074	781.12
515.29	882.12
515.506	1290.12
515.721	1094.12
515.937	801.12
516.153	722.12
516.369	700.12
516.585	704.12
516.801	709.12
517.016	702.12
517.232	712.12
517.448	718.12
517.664	712.12
517.879	690.12
518.095	720.12
518.311	713.12
518.527	702.12
518.742	704.12
518.958	687.12
519.173	680.12
519.389	662.12
519.605	671.12
519.82	660.12
520.036	697.12
520.251	690.12
520.467	708.12
520.682	681.12
520.898	716.12
521.113	684.12
521.329	768.12
521.544	824.12
521.76	968.12
521.975	1612.12
522.19	1628.12
522.406	939.12
522.621	720.12
522.836	660.12
523.052	634.12
523.267	612.12
523.482	599.12
523.698	612.12
523.913	621.12
524.128	596.12
524.343	613.12
524.559	603.12
524.774	597.12
524.989	570.12
525.204	602.12
525.419	586.12
525.634	575.12
525.849	569.12
526.064	540.12
526.28	545.12
526.495	558.12
526.71	542.12
526.925	553.12
527.14	557.12
527.355	548.12
527.57	532.12
527.785	545.12
527.999	547.12
528.214	557.12
528.429	554.12
528.644	575.12
528.859	540.12
529.074	562.12
529.289	552.12
529.503	635.12
529.718	628.12
529.933	589.12
530.148	564.12
530.363	569.12
530.577	548.12
530.792	546.12
531.007	555.12
531.221	562.12
531.436	536.12
531.651	546.12
531.865	522.12
532.08	517.12
532.295	537.12
532.509	545.12
532.724	523.12
532.938	533.12
533.153	525.12
533.367	527.12
533.582	539.12
533.796	534.12
534.011	538.12
534.225	532.12
534.44	530.12
534.654	520.12
534.868	519.12
535.083	531.12
535.297	529.12
535.511	513.12
535.726	547.12
535.94	525.12
536.154	526.12
536.369	523.12
536.583	511.12
536.797	507.12
537.011	526.12
537.225	524.12
537.44	504.12
537.654	514.12
537.868	501.12
538.082	491.12
538.296	499.12
538.51	493.12
538.724	519.12
538.938	507.12
539.153	494.12
539.367	503.12
539.581	528.12
539.795	512.12
540.009	491.12
540.222	523.12
540.436	489.12
540.65	496.12
540.864	496.12
541.078	519.12
541.292	511.12
541.506	513.12
541.72	495.12
541.934	490.12
542.147	492.12
542.361	501.12
542.575	500.12
542.789	491.12
543.002	482.12
543.216	483.12
543.43	500.12
543.644	527.12
543.857	511.12
544.071	500.12
544.285	506.12
544.498	503.12
544.712	491.12
544.925	502.12
545.139	490.12
545.352	486.12
545.566	493.12
545.779	502.12
545.993	494.12
546.206	500.12
546.42	493.12
546.633	486.12
546.847	481.12
547.06	498.12
547.274	483.12
547.487	475.12
547.7	492.12
547.914	508.12
548.127	518.12
548.34	493.12
548.554	490.12
548.767	509.12
548.98	485.12
549.193	485.12
549.407	492.12
549.62	498.12
549.833	489.12
550.046	484.12
550.259	488.12
550.473	498.12
550.686	483.12
550.899	487.12
551.112	469.12
551.325	493.12
551.538	496.12
551.751	471.12
551.964	488.12
552.177	464.12
552.39	487.12
552.603	515.12
552.816	498.12
553.029	484.12
553.242	519.12
553.455	509.12
553.667	510.12
553.88	511.12
554.093	496.12
554.306	522.12
554.519	486.12
554.732	498.12
554.944	469.12
555.157	488.12
555.37	462.12
555.583	469.12
555.795	468.12
556.008	468.12
556.221	464.12
556.433	447.12
556.646	461.12
556.859	448.12
557.071	443.12
557.284	448.12
557.496	435.12
557.709	425.12
557.921	442.12
558.134	427.12
558.346	417.12
558.559	424.12
558.771	432.12
558.984	445.12
559.196	440.12
559.409	412.12
559.621	445.12
559.833	436.12
560.046	423.12
560.258	402.12
560.47	431.12
560.683	444.12
560.895	432.12
561.107	432.12
561.32	436.12
561.532	435.12
561.744	448.12
561.956	422.12
562.168	434.12
562.381	436.12
562.593	438.12
562.805	431.12
563.017	434.12
563.229	445.12
563.441	456.12
563.653	436.12
563.865	446.12
564.077	443.12
564.289	438.12
564.501	446.12
564.713	459.12
564.925	460.12
565.137	488.12
565.349	459.12
565.561	490.12
565.773	487.12
565.985	498.12
566.197	527.12
566.408	512.12
566.62	530.12
566.832	582.12
567.044	567.12
567.255	560.12
567.467	554.12
567.679	578.12
567.891	584.12
568.102	597.12
568.314	564.12
568.526	555.12
568.737	524.12
568.949	501.12
569.161	487.12
569.372	471.12
569.584	461.12
569.795	443.12
570.007	454.12
570.218	495.12
570.43	473.12
570.641	423.12
570.853	415.12
571.064	420.12
571.276	414.12
571.487	437.12
571.698	420.12
571.91	418.12
572.121	407.12
572.333	405.12
572.544	385.12
572.755	380.12
572.966	393.12
573.178	392.12
573.389	382.12
573.6	380.12
573.811	388.12
574.023	377.12
574.234	375.12
574.445	387.12
574.656	394.12
574.867	386.12
575.078	380.12
575.289	397.12
575.501	375.12
575.712	365.12
575.923	372.12
576.134	367.12
576.345	362.12
576.556	365.12
576.767	368.12
576.978	368.12
577.188	359.12
577.399	356.12
577.61	377.12
577.821	346.12
578.032	374.12
578.243	381.12
578.454	594.12
578.665	470.12
578.875	348.12
579.086	316.12
579.297	358.12
579.508	365.12
579.718	357.12
579.929	334.12
580.14	356.12
580.35	349.12
580.561	351.12
580.772	348.12
580.982	324.12
581.193	325.12
581.403	340.12
581.614	335.12
581.825	334.12
582.035	324.12
582.246	340.12
582.456	346.12
582.667	339.12
582.877	340.12
583.087	313.12
583.298	334.12
583.508	330.12
583.719	338.12
583.929	344.12
584.139	335.12
584.35	328.12
584.56	329.12
584.77	327.12
584.981	335.12
585.191	339.12
585.401	335.12
585.611	341.12
585.821	347.12
586.032	326.12
586.242	334.12
586.452	316.12
586.662	329.12
586.872	315.12
587.082	336.12
587.292	316.12
587.502	315.12
587.713	321.12
587.923	340.12
588.133	316.12
588.343	320.12
588.553	317.12
588.762	331.12
588.972	329.12
589.182	356.12
589.392	339.12
589.602	323.12
589.812	345.12
590.022	344.12
590.232	332.12
590.441	327.12
590.651	335.12
590.861	296.12
591.071	314.12
591.281	327.12
591.49	318.12
591.7	340.12
591.91	332.12
592.119	343.12
592.329	345.12
592.539	335.12
592.748	361.12
592.958	356.12
593.167	328.12
593.377	348.12
593.587	348.12
593.796	354.12
594.006	347.12
594.215	365.12
594.424	354.12
594.634	353.12
594.843	339.12
595.053	336.12
595.262	315.12
595.472	342.12
595.681	334.12
595.89	318.12
596.1	307.12
596.309	303.12
596.518	309.12
596.727	314.12
596.937	320.12
597.146	310.12
597.355	318.12
597.564	314.12
597.774	301.12
597.983	295.12
598.192	269.12
598.401	299.12
598.61	280.12
598.819	297.12
599.028	295.12
599.237	291.12
599.446	290.12
599.655	296.12
599.864	299.12
600.073	302.12
600.282	290.12
600.491	271.12
600.7	290.12
600.909	285.12
601.118	283.12
601.327	286.12
601.536	287.12
601.745	281.12
601.953	283.12
602.162	273.12
602.371	282.12
602.58	272.12
602.789	283.12
602.997	267.12
603.206	271.12
603.415	282.12
603.623	289.12
603.832	287.12
604.041	276.12
604.249	253.12
604.458	260.12
604.666	255.12
604.875	264.12
605.084	266.12
605.292	252.12
605.501	270.12
605.709	270.12
605.918	269.12
606.126	271.12
606.334	269.12
606.543	247.12
606.751	271.12
606.96	256.12
607.168	258.12
607.376	260.12
607.585	262.12
607.793	261.12
608.001	243.12
608.21	268.12
608.418	260.12
608.626	266.12
608.834	241.12
609.043	252.12
609.251	262.12
609.459	246.12
609.667	249.12
609.875	258.12
610.083	260.12
610.291	247.12
610.499	261.12
610.707	263.12
610.916	261.12
611.124	276.12
611.332	258.12
611.54	277.12
611.748	272.12
611.955	268.12
612.163	260.12
612.371	246.12
612.579	251.12
612.787	261.12
612.995	246.12
613.203	282.12
613.411	260.12
613.618	270.12
613.826	252.12
614.034	265.12
614.242	262.12
614.449	246.12
614.657	244.12
614.865	262.12
615.072	252.12
615.28	251.12
615.488	243.12
615.695	251.12
615.903	267.12
616.111	268.12
616.318	252.12
616.526	244.12
616.733	253.12
616.941	248.12
617.148	260.12
617.356	240.12
617.563	259.12
617.771	250.12
617.978	247.12
618.185	257.12
618.393	236.12
618.6	262.12
618.807	247.12
619.015	261.12
619.222	242.12
619.429	256.12
619.637	250.12
619.844	260.12
620.051	251.12
620.258	248.12
620.466	252.12
620.673	236.12
620.88	242.12
621.087	232.12
621.294	233.12
621.501	227.12
621.708	226.12
621.915	245.12
622.122	242.12
622.329	242.12
622.536	229.12
622.743	244.12
622.95	232.12
623.157	235.12
623.364	234.12
623.571	228.12
623.778	237.12
623.985	226.12
624.192	224.12
624.399	230.12
624.606	243.12
624.812	225.12
625.019	215.12
625.226	224.12
625.433	218.12
625.639	229.12
625.846	237.12
626.053	243.12
626.259	238.12
626.466	229.12
626.673	226.12
626.879	204.12
627.086	219.12
627.293	220.12
627.499	215.12
627.706	220.12
627.912	214.12
628.119	210.12
628.325	214.12
628.532	206.12
628.738	212.12
628.945	214.12
629.151	212.12
629.357	213.12
629.564	208.12
629.77	214.12
629.976	215.12
630.183	219.12
630.389	206.12
630.595	211.12
630.802	202.12
631.008	205.12
631.214	211.12
631.42	204.12
631.627	209.12
631.833	212.12
632.039	196.12
632.245	197.12
632.451	199.12
632.657	196.12
632.863	204.12
633.069	195.12
633.275	204.12
633.481	199.12
633.688	186.12
633.893	198.12
634.099	197.12
634.305	181.12
634.511	181.12
634.717	203.12
634.923	176.12
635.129	173.12
635.335	191.12
635.541	206.12
635.747	188.12
635.952	179.12
636.158	195.12
636.364	202.12
636.57	190.12
636.775	192.12
636.981	186.12
637.187	204.12
637.392	186.12
637.598	190.12
637.804	192.12
638.009	185.12
638.215	202.12
638.421	209.12
638.626	193.12
638.832	207.12
639.037	184.12
639.243	186.12
639.448	187.12
639.654	181.12
639.859	186.12
640.065	199.12
640.27	199.12
640.475	171.12
640.681	183.12
640.886	178.12
641.091	173.12
641.297	176.12
641.502	171.12
641.707	186.12
641.913	185.12
642.118	169.12
642.323	183.12
642.528	167.12
642.733	175.12
642.939	174.12
643.144	184.12
643.349	166.12
643.554	171.12
643.759	182.12
643.964	170.12
644.169	180.12
644.374	173.12
644.579	181.12
644.784	183.12
644.989	173.12
645.194	170.12
645.399	179.12
645.604	172.12
645.809	172.12
646.014	171.12
646.219	187.12
646.423	190.12
646.628	183.12
646.833	173.12
647.038	165.12
647.243	175.12
647.447	163.12
647.652	173.12
647.857	154.12
648.062	176.12
648.266	187.12
648.471	184.12
648.676	182.12
648.88	171.12
649.085	164.12
649.289	192.12
649.494	192.12
649.698	194.12
649.903	191.12
650.107	182.12
650.312	164.12
650.516	180.12
650.721	166.12
650.925	170.12
651.13	164.12
651.334	154.12
651.539	163.12
651.743	168.12
651.947	164.12
652.152	150.12
652.356	151.12
652.56	144.12
652.764	146.12
652.969	141.12
653.173	171.12
653.377	137.12
653.581	147.12
653.785	146.12
653.99	157.12
654.194	132.12
654.398	144.12
654.602	148.12
654.806	159.12
655.01	156.12
655.214	157.12
655.418	154.12
655.622	135.12
655.826	146.12
656.03	130.12
656.234	142.12
656.438	140.12
656.642	152.12
656.846	144.12
657.049	140.12
657.253	135.12
657.457	130.12
657.661	121.12
657.865	114.12
658.068	109.12
658.272	105.12
658.476	117.12
658.68	103.12
658.883	98.12
659.087	115.12
659.291	111.12
659.494	95.12
659.698	90.12
659.901	92.12
660.105	98.12
660.309	102.12
660.512	94.12
660.716	100.12
660.919	91.12
661.123	100.12
661.326	95.12
661.53	90.12
661.733	88.12
661.936	98.12
662.14	71.12
662.343	91.12
662.546	78.12
662.75	98.12
662.953	87.12
663.156	91.12
663.36	86.12
663.563	90.12
663.766	81.12
663.969	85.12
664.173	82.12
664.376	74.12
664.579	90.12
664.782	88.12
664.985	86.12
665.188	101.12
665.391	84.12
665.594	84.12
665.797	82.12
666	83.12
666.203	79.12
666.406	78.12
666.609	68.12
666.812	89.12
667.015	87.12
667.218	91.12
667.421	87.12
667.624	73.12
667.827	91.12
668.03	90.12
668.232	85.12
668.435	83.12
668.638	78.12
668.841	82.12
669.043	66.12
669.246	94.12
669.449	86.12
669.651	86.12
669.854	93.12
670.057	83.12
670.259	66.12
670.462	85.12
670.665	91.12
670.867	82.12
671.07	96.12
671.272	76.12
671.475	90.12
671.677	71.12
671.88	100.12
672.082	89.12
672.284	77.12
672.487	80.12
672.689	83.12
672.892	94.12
