Data from 1979.PennyLincolnUp.Lamp.En5.5.200Scan.071719.P1_HRD10591_16-18-16-864.txt Node
Date: Thu Jul 18 16:18:16 EDT 2019
User: cochatt
Spectrometer: HR+D1059
Trigger mode: 1
Integration Time (sec): 1.000000E-1
Scans to average: 1
Electric dark correction enabled: true
Nonlinearity correction enabled: false
Boxcar width: 0
XAxis mode: Wavelengths
Number of Pixels in Spectrum: 2048
>>>>>Begin Spectral Data<<<<<
223.165	-15
223.4	-15
223.635	-15
223.869	-13
224.104	-24
224.338	-6
224.573	-13
224.808	-19
225.042	-19
225.277	-4
225.511	9
225.746	-5
225.98	3
226.215	14
226.449	13
226.683	20
226.918	26
227.152	33
227.387	33
227.621	42
227.856	37
228.09	45
228.324	43
228.559	58
228.793	57
229.027	90
229.262	88
229.496	101
229.73	121
229.964	147
230.199	125
230.433	98
230.667	131
230.901	127
231.136	107
231.37	98
231.604	97
231.838	113
232.072	98
232.306	115
232.541	133
232.775	107
233.009	110
233.243	117
233.477	125
233.711	113
233.945	107
234.179	108
234.413	109
234.647	116
234.881	105
235.115	99
235.349	110
235.583	97
235.817	115
236.051	128
236.285	117
236.519	126
236.753	121
236.987	128
237.221	162
237.455	204
237.689	165
237.922	141
238.156	125
238.39	128
238.624	114
238.858	115
239.091	113
239.325	123
239.559	111
239.793	122
240.027	141
240.26	141
240.494	139
240.728	131
240.961	140
241.195	133
241.429	124
241.662	146
241.896	141
242.13	139
242.363	131
242.597	120
242.83	137
243.064	125
243.298	139
243.531	146
243.765	149
243.998	149
244.232	143
244.465	139
244.699	154
244.932	151
245.166	137
245.399	125
245.633	155
245.866	140
246.099	138
246.333	137
246.566	144
246.8	143
247.033	160
247.266	154
247.5	131
247.733	153
247.966	168
248.2	160
248.433	169
248.666	172
248.899	175
249.133	162
249.366	196
249.599	194
249.832	161
250.066	161
250.299	167
250.532	182
250.765	197
250.998	196
251.231	190
251.465	181
251.698	188
251.931	189
252.164	163
252.397	170
252.63	189
252.863	186
253.096	186
253.329	193
253.562	211
253.795	198
254.028	185
254.261	204
254.494	188
254.727	213
254.96	235
255.193	224
255.426	213
255.659	206
255.892	219
256.124	221
256.357	204
256.59	205
256.823	204
257.056	196
257.289	201
257.521	184
257.754	211
257.987	195
258.22	195
258.452	194
258.685	182
258.918	199
259.151	190
259.383	210
259.616	192
259.849	213
260.081	221
260.314	226
260.547	233
260.779	228
261.012	207
261.244	201
261.477	206
261.71	226
261.942	213
262.175	209
262.407	229
262.64	209
262.872	203
263.105	201
263.337	213
263.57	181
263.802	202
264.035	199
264.267	193
264.499	195
264.732	207
264.964	202
265.197	206
265.429	197
265.661	206
265.894	201
266.126	189
266.358	194
266.591	201
266.823	211
267.055	198
267.287	218
267.52	199
267.752	218
267.984	203
268.216	202
268.448	216
268.681	226
268.913	241
269.145	216
269.377	233
269.609	240
269.841	247
270.073	238
270.306	261
270.538	261
270.77	252
271.002	268
271.234	254
271.466	267
271.698	276
271.93	270
272.162	281
272.394	273
272.626	265
272.858	251
273.09	257
273.322	242
273.553	238
273.785	234
274.017	244
274.249	234
274.481	248
274.713	239
274.945	244
275.176	245
275.408	246
275.64	227
275.872	260
276.104	248
276.335	236
276.567	247
276.799	257
277.031	267
277.262	293
277.494	281
277.726	293
277.957	253
278.189	250
278.421	248
278.652	243
278.884	265
279.115	247
279.347	246
279.579	236
279.81	241
280.042	236
280.273	256
280.505	255
280.736	257
280.968	253
281.199	260
281.431	272
281.662	233
281.894	252
282.125	265
282.356	261
282.588	279
282.819	299
283.051	269
283.282	267
283.513	251
283.745	257
283.976	250
284.207	259
284.439	281
284.67	263
284.901	255
285.132	258
285.364	262
285.595	271
285.826	249
286.057	260
286.288	273
286.52	256
286.751	268
286.982	272
287.213	282
287.444	267
287.675	281
287.906	267
288.138	286
288.369	297
288.6	285
288.831	299
289.062	272
289.293	253
289.524	269
289.755	278
289.986	263
290.217	271
290.448	290
290.679	279
290.91	284
291.141	279
291.371	269
291.602	274
291.833	263
292.064	282
292.295	269
292.526	276
292.757	256
292.987	286
293.218	275
293.449	298
293.68	279
293.91	290
294.141	286
294.372	281
294.603	286
294.833	259
295.064	284
295.295	299
295.525	289
295.756	280
295.987	284
296.217	303
296.448	314
296.679	302
296.909	289
297.14	307
297.37	285
297.601	309
297.831	276
298.062	306
298.292	300
298.523	309
298.753	302
298.984	288
299.214	284
299.445	298
299.675	294
299.905	277
300.136	298
300.366	298
300.597	303
300.827	309
301.057	306
301.288	319
301.518	325
301.748	302
301.979	326
302.209	308
302.439	307
302.669	330
302.9	321
303.13	308
303.36	332
303.59	306
303.82	334
304.051	335
304.281	326
304.511	322
304.741	309
304.971	329
305.201	321
305.431	314
305.661	307
305.891	309
306.121	321
306.352	329
306.582	323
306.812	312
307.042	317
307.272	316
307.502	306
307.731	306
307.961	302
308.191	311
308.421	324
308.651	319
308.881	331
309.111	329
309.341	325
309.571	331
309.8	337
310.03	339
310.26	357
310.49	360
310.72	353
310.949	377
311.179	366
311.409	360
311.639	355
311.868	363
312.098	361
312.328	355
312.557	374
312.787	375
313.017	375
313.246	375
313.476	362
313.706	348
313.935	360
314.165	364
314.394	375
314.624	381
314.853	358
315.083	371
315.312	358
315.542	344
315.771	346
316.001	375
316.23	362
316.46	337
316.689	343
316.919	364
317.148	359
317.377	364
317.607	354
317.836	373
318.065	373
318.295	349
318.524	361
318.753	382
318.983	358
319.212	360
319.441	356
319.67	366
319.9	375
320.129	357
320.358	357
320.587	363
320.816	378
321.046	387
321.275	381
321.504	366
321.733	376
321.962	393
322.191	396
322.42	399
322.649	430
322.878	449
323.108	422
323.337	418
323.566	462
323.795	498
324.024	513
324.253	607
324.482	841
324.71	1331
324.939	1929
325.168	1650
325.397	846
325.626	580
325.855	487
326.084	479
326.313	457
326.542	471
326.77	494
326.999	605
327.228	796
327.457	1199
327.686	1467
327.914	940
328.143	631
328.372	563
328.6	529
328.829	496
329.058	506
329.287	546
329.515	499
329.744	478
329.972	442
330.201	474
330.43	507
330.658	540
330.887	546
331.115	530
331.344	480
331.572	467
331.801	479
332.03	484
332.258	456
332.486	431
332.715	442
332.943	449
333.172	443
333.4	450
333.629	456
333.857	466
334.085	470
334.314	505
334.542	491
334.771	535
334.999	493
335.227	461
335.455	442
335.684	430
335.912	445
336.14	425
336.369	454
336.597	451
336.825	433
337.053	437
337.281	417
337.51	441
337.738	441
337.966	435
338.194	423
338.422	436
338.65	408
338.878	418
339.106	429
339.334	423
339.562	430
339.79	427
340.018	415
340.246	427
340.474	432
340.702	411
340.93	418
341.158	409
341.386	409
341.614	397
341.842	399
342.07	404
342.298	437
342.526	415
342.754	405
342.981	413
343.209	422
343.437	426
343.665	429
343.893	441
344.12	439
344.348	449
344.576	427
344.804	428
345.031	442
345.259	424
345.487	422
345.714	431
345.942	422
346.17	412
346.397	401
346.625	397
346.853	410
347.08	396
347.308	429
347.535	422
347.763	414
347.99	403
348.218	407
348.445	403
348.673	420
348.9	394
349.128	380
349.355	390
349.583	402
349.81	379
350.037	411
350.265	393
350.492	382
350.72	391
350.947	391
351.174	401
351.402	413
351.629	405
351.856	394
352.083	412
352.311	397
352.538	411
352.765	421
352.992	425
353.22	414
353.447	410
353.674	403
353.901	373
354.128	380
354.355	381
354.583	388
354.81	389
355.037	382
355.264	400
355.491	394
355.718	376
355.945	368
356.172	379
356.399	399
356.626	402
356.853	382
357.08	379
357.307	403
357.534	403
357.761	377
357.988	397
358.215	395
358.441	389
358.668	387
358.895	388
359.122	378
359.349	401
359.576	409
359.802	434
360.029	439
360.256	457
360.483	425
360.709	411
360.936	423
361.163	387
361.39	411
361.616	404
361.843	395
362.07	408
362.296	403
362.523	421
362.749	406
362.976	403
363.203	396
363.429	376
363.656	396
363.882	399
364.109	395
364.335	421
364.562	426
364.788	382
365.015	384
365.241	405
365.468	397
365.694	407
365.92	405
366.147	392
366.373	388
366.599	405
366.826	401
367.052	404
367.278	392
367.505	410
367.731	413
367.957	404
368.184	407
368.41	411
368.636	402
368.862	403
369.089	397
369.315	403
369.541	387
369.767	416
369.993	403
370.219	400
370.445	417
370.672	407
370.898	411
371.124	393
371.35	401
371.576	404
371.802	404
372.028	388
372.254	411
372.48	426
372.706	431
372.932	417
373.158	390
373.384	412
373.61	405
373.835	409
374.061	418
374.287	395
374.513	424
374.739	403
374.965	421
375.191	411
375.416	444
375.642	423
375.868	431
376.094	402
376.319	391
376.545	399
376.771	398
376.997	423
377.222	413
377.448	401
377.674	403
377.899	390
378.125	411
378.35	391
378.576	378
378.802	384
379.027	406
379.253	424
379.478	411
379.704	406
379.929	426
380.155	406
380.38	394
380.606	426
380.831	402
381.057	400
381.282	419
381.507	415
381.733	425
381.958	412
382.184	412
382.409	415
382.634	405
382.86	415
383.085	426
383.31	419
383.535	442
383.761	428
383.986	429
384.211	426
384.436	451
384.662	454
384.887	467
385.112	440
385.337	433
385.562	442
385.787	445
386.013	451
386.238	470
386.463	471
386.688	457
386.913	457
387.138	456
387.363	459
387.588	450
387.813	478
388.038	455
388.263	476
388.488	485
388.713	470
388.938	446
389.163	471
389.387	471
389.612	461
389.837	465
390.062	457
390.287	451
390.512	470
390.736	439
390.961	450
391.186	453
391.411	460
391.636	474
391.86	456
392.085	478
392.31	452
392.534	475
392.759	495
392.984	461
393.208	476
393.433	493
393.658	459
393.882	468
394.107	461
394.331	473
394.556	456
394.78	463
395.005	479
395.229	484
395.454	476
395.678	489
395.903	495
396.127	499
396.352	536
396.576	469
396.801	499
397.025	482
397.249	499
397.474	510
397.698	521
397.922	509
398.147	521
398.371	527
398.595	539
398.82	532
399.044	545
399.268	571
399.492	602
399.717	618
399.941	655
400.165	661
400.389	678
400.613	630
400.837	576
401.062	564
401.286	558
401.51	532
401.734	541
401.958	552
402.182	535
402.406	554
402.63	575
402.854	564
403.078	561
403.302	551
403.526	553
403.75	573
403.974	572
404.198	536
404.422	579
404.645	569
404.869	588
405.093	602
405.317	622
405.541	665
405.765	598
405.988	612
406.212	607
406.436	613
406.66	633
406.883	596
407.107	643
407.331	677
407.555	722
407.778	700
408.002	683
408.226	643
408.449	629
408.673	636
408.896	659
409.12	681
409.344	647
409.567	574
409.791	581
410.014	578
410.238	571
410.461	570
410.685	600
410.908	596
411.132	614
411.355	647
411.578	632
411.802	582
412.025	591
412.249	588
412.472	589
412.695	629
412.919	605
413.142	587
413.365	581
413.589	555
413.812	551
414.035	555
414.258	558
414.482	536
414.705	571
414.928	547
415.151	527
415.374	534
415.597	561
415.821	536
416.044	558
416.267	522
416.49	525
416.713	524
416.936	548
417.159	526
417.382	520
417.605	532
417.828	555
418.051	539
418.274	553
418.497	536
418.72	556
418.943	542
419.166	542
419.389	587
419.611	587
419.834	586
420.057	556
420.28	570
420.503	561
420.726	563
420.948	565
421.171	587
421.394	607
421.617	589
421.839	573
422.062	564
422.285	569
422.507	628
422.73	675
422.953	682
423.175	604
423.398	573
423.621	608
423.843	603
424.066	590
424.288	579
424.511	598
424.733	627
424.956	719
425.178	671
425.401	693
425.623	726
425.846	641
426.068	605
426.291	576
426.513	570
426.735	591
426.958	616
427.18	701
427.402	819
427.625	909
427.847	756
428.069	702
428.292	636
428.514	582
428.736	541
428.958	547
429.181	533
429.403	547
429.625	557
429.847	576
430.069	616
430.292	607
430.514	549
430.736	558
430.958	555
431.18	521
431.402	531
431.624	525
431.846	506
432.068	521
432.29	535
432.512	531
432.734	525
432.956	499
433.178	543
433.4	559
433.622	533
433.844	532
434.066	518
434.287	529
434.509	541
434.731	561
434.953	553
435.175	567
435.397	587
435.618	594
435.84	644
436.062	702
436.284	781
436.505	676
436.727	587
436.949	557
437.17	537
437.392	540
437.614	555
437.835	582
438.057	648
438.278	755
438.5	747
438.721	826
438.943	785
439.165	652
439.386	580
439.608	585
439.829	590
440.05	622
440.272	626
440.493	627
440.715	575
440.936	577
441.158	538
441.379	556
441.6	558
441.822	599
442.043	599
442.264	697
442.486	743
442.707	633
442.928	608
443.149	581
443.371	621
443.592	673
443.813	725
444.034	807
444.255	675
444.476	617
444.698	610
444.919	634
445.14	746
445.361	669
445.582	637
445.803	674
446.024	763
446.245	778
446.466	718
446.687	620
446.908	549
447.129	555
447.35	567
447.571	558
447.792	513
448.013	517
448.234	539
448.455	599
448.675	680
448.896	781
449.117	667
449.338	655
449.559	731
449.779	847
450	710
450.221	553
450.442	539
450.662	522
450.883	530
451.104	530
451.324	523
451.545	506
451.766	484
451.986	490
452.207	472
452.428	476
452.648	470
452.869	485
453.089	501
453.31	509
453.53	497
453.751	500
453.971	490
454.192	513
454.412	486
454.633	482
454.853	467
455.073	469
455.294	501
455.514	541
455.734	541
455.955	476
456.175	447
456.395	471
456.616	468
456.836	474
457.056	455
457.276	443
457.497	478
457.717	456
457.937	460
458.157	482
458.377	484
458.598	507
458.818	557
459.038	618
459.258	614
459.478	566
459.698	519
459.918	545
460.138	555
460.358	530
460.578	537
460.798	546
461.018	551
461.238	554
461.458	558
461.678	531
461.898	550
462.118	550
462.338	548
462.558	571
462.777	572
462.997	619
463.217	641
463.437	630
463.657	610
463.876	598
464.096	580
464.316	610
464.536	612
464.755	601
464.975	583
465.195	643
465.414	679
465.634	615
465.854	567
466.073	548
466.293	548
466.512	550
466.732	522
466.951	527
467.171	535
467.391	506
467.61	527
467.829	525
468.049	518
468.268	518
468.488	506
468.707	507
468.927	503
469.146	507
469.365	503
469.585	494
469.804	506
470.023	506
470.243	496
470.462	525
470.681	540
470.901	545
471.12	547
471.339	524
471.558	520
471.777	546
471.997	505
472.216	516
472.435	542
472.654	534
472.873	495
473.092	509
473.311	523
473.53	517
473.749	516
473.968	539
474.187	609
474.406	641
474.625	563
474.844	537
475.063	513
475.282	506
475.501	527
475.72	529
475.939	529
476.158	539
476.377	548
476.596	547
476.814	550
477.033	565
477.252	563
477.471	543
477.69	561
477.908	567
478.127	565
478.346	573
478.564	580
478.783	581
479.002	590
479.22	596
479.439	600
479.658	612
479.876	626
480.095	663
480.313	652
480.532	653
480.751	615
480.969	631
481.188	665
481.406	719
481.624	654
481.843	626
482.061	616
482.28	609
482.498	623
482.717	610
482.935	603
483.153	596
483.372	614
483.59	632
483.808	606
484.027	605
484.245	579
484.463	590
484.681	577
484.9	629
485.118	623
485.336	611
485.554	638
485.772	612
485.99	609
486.209	605
486.427	632
486.645	645
486.863	655
487.081	627
487.299	619
487.517	638
487.735	637
487.953	654
488.171	651
488.389	644
488.607	654
488.825	619
489.043	659
489.261	621
489.479	647
489.696	647
489.914	661
490.132	678
490.35	660
490.568	668
490.786	687
491.003	667
491.221	674
491.439	703
491.657	719
491.874	716
492.092	716
492.31	718
492.527	713
492.745	711
492.963	727
493.18	711
493.398	734
493.615	742
493.833	736
494.05	748
494.268	726
494.485	725
494.703	741
494.92	709
495.138	730
495.355	738
495.573	744
495.79	753
496.008	757
496.225	770
496.442	754
496.66	759
496.877	773
497.094	745
497.312	764
497.529	762
497.746	799
497.963	803
498.181	827
498.398	841
498.615	870
498.832	867
499.049	914
499.267	919
499.484	973
499.701	1006
499.918	1040
500.135	1130
500.352	1167
500.569	1193
500.786	1201
501.003	1173
501.22	1135
501.437	1067
501.654	1049
501.871	1016
502.088	974
502.305	929
502.522	903
502.739	858
502.956	860
503.172	834
503.389	803
503.606	803
503.823	823
504.04	798
504.256	758
504.473	791
504.69	788
504.907	804
505.123	736
505.34	751
505.557	747
505.773	740
505.99	730
506.207	723
506.423	721
506.64	691
506.856	679
507.073	671
507.289	678
507.506	677
507.722	690
507.939	691
508.155	666
508.372	698
508.588	671
508.805	666
509.021	669
509.238	676
509.454	686
509.67	664
509.887	663
510.103	663
510.319	679
510.536	756
510.752	1211
510.968	1003
511.184	684
511.401	660
511.617	661
511.833	649
512.049	650
512.265	633
512.481	629
512.698	620
512.914	617
513.13	612
513.346	608
513.562	639
513.778	645
513.994	652
514.21	651
514.426	677
514.642	702
514.858	701
515.074	741
515.29	851
515.506	1238
515.721	1041
515.937	757
516.153	698
516.369	685
516.585	693
516.801	672
517.016	678
517.232	682
517.448	699
517.664	663
517.879	664
518.095	698
518.311	681
518.527	672
518.742	668
518.958	665
519.173	664
519.389	652
519.605	662
519.82	670
520.036	683
520.251	661
520.467	674
520.682	693
520.898	663
521.113	674
521.329	730
521.544	802
521.76	979
521.975	1549
522.19	1589
522.406	902
522.621	702
522.836	657
523.052	643
523.267	603
523.482	615
523.698	603
523.913	605
524.128	587
524.343	578
524.559	582
524.774	573
524.989	568
525.204	571
525.419	563
525.634	591
525.849	546
526.064	554
526.28	575
526.495	545
526.71	557
526.925	529
527.14	523
527.355	535
527.57	518
527.785	524
527.999	525
528.214	526
528.429	547
528.644	524
528.859	531
529.074	558
529.289	568
529.503	622
529.718	623
529.933	548
530.148	547
530.363	550
530.577	510
530.792	510
531.007	521
531.221	541
531.436	557
531.651	533
531.865	545
532.08	539
532.295	513
532.509	533
532.724	526
532.938	526
533.153	523
533.367	509
533.582	514
533.796	526
534.011	528
534.225	519
534.44	503
534.654	513
534.868	506
535.083	506
535.297	510
535.511	504
535.726	520
535.94	517
536.154	500
536.369	506
536.583	498
536.797	490
537.011	491
537.225	518
537.44	521
537.654	520
537.868	489
538.082	503
538.296	506
538.51	507
538.724	510
538.938	497
539.153	490
539.367	511
539.581	510
539.795	505
540.009	499
540.222	500
540.436	492
540.65	491
540.864	516
541.078	497
541.292	495
541.506	492
541.72	505
541.934	501
542.147	478
542.361	494
542.575	499
542.789	474
543.002	496
543.216	498
543.43	518
543.644	499
543.857	492
544.071	485
544.285	479
544.498	494
544.712	499
544.925	478
545.139	475
545.352	477
545.566	478
545.779	479
545.993	517
546.206	474
546.42	502
546.633	475
546.847	487
547.06	507
547.274	477
547.487	493
547.7	482
547.914	478
548.127	467
548.34	488
548.554	475
548.767	482
548.98	466
549.193	477
549.407	471
549.62	485
549.833	498
550.046	492
550.259	474
550.473	483
550.686	500
550.899	475
551.112	469
551.325	472
551.538	480
551.751	479
551.964	456
552.177	476
552.39	480
552.603	509
552.816	473
553.029	473
553.242	491
553.455	461
553.667	498
553.88	479
554.093	476
554.306	468
554.519	484
554.732	466
554.944	456
555.157	467
555.37	453
555.583	462
555.795	455
556.008	447
556.221	441
556.433	440
556.646	457
556.859	416
557.071	428
557.284	434
557.496	438
557.709	459
557.921	430
558.134	420
558.346	444
558.559	444
558.771	417
558.984	415
559.196	421
559.409	417
559.621	415
559.833	416
560.046	435
560.258	433
560.47	417
560.683	429
560.895	446
561.107	409
561.32	430
561.532	425
561.744	433
561.956	411
562.168	425
562.381	423
562.593	423
562.805	433
563.017	433
563.229	439
563.441	416
563.653	443
563.865	434
564.077	438
564.289	451
564.501	433
564.713	462
564.925	440
565.137	463
565.349	471
565.561	486
565.773	492
565.985	490
566.197	486
566.408	508
566.62	516
566.832	544
567.044	562
567.255	531
567.467	562
567.679	570
567.891	579
568.102	595
568.314	562
568.526	533
568.737	525
568.949	487
569.161	471
569.372	467
569.584	468
569.795	469
570.007	451
570.218	477
570.43	487
570.641	423
570.853	416
571.064	428
571.276	417
571.487	418
571.698	406
571.91	423
572.121	406
572.333	375
572.544	391
572.755	381
572.966	388
573.178	387
573.389	374
573.6	376
573.811	390
574.023	386
574.234	368
574.445	368
574.656	359
574.867	374
575.078	364
575.289	362
575.501	363
575.712	370
575.923	364
576.134	382
576.345	372
576.556	363
576.767	343
576.978	357
577.188	352
577.399	358
577.61	376
577.821	350
578.032	350
578.243	362
578.454	600
578.665	457
578.875	350
579.086	330
579.297	347
579.508	353
579.718	345
579.929	347
580.14	335
580.35	325
580.561	335
580.772	334
580.982	337
581.193	337
581.403	334
581.614	332
581.825	323
582.035	344
582.246	340
582.456	338
582.667	337
582.877	337
583.087	330
583.298	333
583.508	312
583.719	322
583.929	323
584.139	317
584.35	310
584.56	328
584.77	341
584.981	337
585.191	328
585.401	331
585.611	327
585.821	328
586.032	345
586.242	330
586.452	300
586.662	313
586.872	326
587.082	327
587.292	298
587.502	312
587.713	321
587.923	314
588.133	330
588.343	326
588.553	329
588.762	341
588.972	334
589.182	391
589.392	390
589.602	324
589.812	381
590.022	361
590.232	338
590.441	339
590.651	323
590.861	327
591.071	323
591.281	331
591.49	314
591.7	338
591.91	318
592.119	319
592.329	342
592.539	357
592.748	348
592.958	339
593.167	356
593.377	354
593.587	390
593.796	343
594.006	343
594.215	348
594.424	348
594.634	335
594.843	346
595.053	342
595.262	340
595.472	327
595.681	341
595.89	319
596.1	321
596.309	309
596.518	322
596.727	299
596.937	317
597.146	299
597.355	293
597.564	298
597.774	302
597.983	314
598.192	290
598.401	277
598.61	280
598.819	285
599.028	297
599.237	295
599.446	289
599.655	267
599.864	275
600.073	269
600.282	290
600.491	298
600.7	279
600.909	285
601.118	286
601.327	269
601.536	277
601.745	274
601.953	313
602.162	287
602.371	276
602.58	273
602.789	277
602.997	274
603.206	280
603.415	277
603.623	258
603.832	272
604.041	263
604.249	270
604.458	258
604.666	263
604.875	258
605.084	271
605.292	261
605.501	264
605.709	273
605.918	266
606.126	273
606.334	268
606.543	253
606.751	253
606.96	258
607.168	254
607.376	259
607.585	267
607.793	249
608.001	268
608.21	261
608.418	256
608.626	257
608.834	266
609.043	257
609.251	271
609.459	249
609.667	242
609.875	247
610.083	238
610.291	259
610.499	244
610.707	253
610.916	258
611.124	257
611.332	257
611.54	271
611.748	277
611.955	265
612.163	254
612.371	249
612.579	249
612.787	273
612.995	253
613.203	250
613.411	246
613.618	240
613.826	246
614.034	242
614.242	258
614.449	246
614.657	256
614.865	237
615.072	267
615.28	269
615.488	249
615.695	248
615.903	261
616.111	249
616.318	246
616.526	242
616.733	250
616.941	260
617.148	256
617.356	262
617.563	254
617.771	246
617.978	236
618.185	249
618.393	246
618.6	245
618.807	252
619.015	237
619.222	231
619.429	231
619.637	236
619.844	245
620.051	242
620.258	248
620.466	253
620.673	234
620.88	229
621.087	236
621.294	237
621.501	227
621.708	237
621.915	246
622.122	221
622.329	235
622.536	245
622.743	226
622.95	227
623.157	222
623.364	228
623.571	246
623.778	233
623.985	228
624.192	232
624.399	225
624.606	226
624.812	227
625.019	230
625.226	242
625.433	221
625.639	211
625.846	236
626.053	205
626.259	202
626.466	219
626.673	219
626.879	202
627.086	216
627.293	214
627.499	196
627.706	222
627.912	216
628.119	210
628.325	237
628.532	208
628.738	229
628.945	203
629.151	211
629.357	212
629.564	217
629.77	211
629.976	215
630.183	210
630.389	210
630.595	201
630.802	196
631.008	211
631.214	219
631.42	215
631.627	202
631.833	202
632.039	207
632.245	202
632.451	202
632.657	199
632.863	195
633.069	197
633.275	205
633.481	190
633.688	199
633.893	197
634.099	199
634.305	184
634.511	178
634.717	202
634.923	188
635.129	189
635.335	188
635.541	180
635.747	188
635.952	183
636.158	199
636.364	196
636.57	206
636.775	199
636.981	190
637.187	174
637.392	190
637.598	182
637.804	191
638.009	194
638.215	181
638.421	184
638.626	170
638.832	198
639.037	188
639.243	177
639.448	181
639.654	195
639.859	185
640.065	182
640.27	181
640.475	179
640.681	185
640.886	167
641.091	181
641.297	183
641.502	170
641.707	188
641.913	199
642.118	185
642.323	186
642.528	190
642.733	179
642.939	180
643.144	175
643.349	182
643.554	182
643.759	170
643.964	180
644.169	171
644.374	156
644.579	181
644.784	177
644.989	174
645.194	185
645.399	169
645.604	168
645.809	168
646.014	183
646.219	177
646.423	169
646.628	157
646.833	166
647.038	172
647.243	195
647.447	182
647.652	179
647.857	190
648.062	181
648.266	152
648.471	182
648.676	184
648.88	186
649.085	187
649.289	174
649.494	209
649.698	196
649.903	189
650.107	175
650.312	176
650.516	151
650.721	171
650.925	163
651.13	153
651.334	170
651.539	169
651.743	144
651.947	159
652.152	164
652.356	156
652.56	153
652.764	166
652.969	151
653.173	135
653.377	150
653.581	144
653.785	158
653.99	143
654.194	143
654.398	135
654.602	138
654.806	145
655.01	133
655.214	134
655.418	137
655.622	143
655.826	143
656.03	142
656.234	150
656.438	142
656.642	137
656.846	132
657.049	141
657.253	121
657.457	122
657.661	119
657.865	118
658.068	116
658.272	110
658.476	113
658.68	119
658.883	97
659.087	105
659.291	88
659.494	98
659.698	108
659.901	114
660.105	91
660.309	84
660.512	105
660.716	106
660.919	84
661.123	99
661.326	87
661.53	94
661.733	90
661.936	79
662.14	88
662.343	93
662.546	89
662.75	81
662.953	94
663.156	79
663.36	98
663.563	82
663.766	79
663.969	86
664.173	98
664.376	88
664.579	88
664.782	82
664.985	83
665.188	93
665.391	77
665.594	82
665.797	89
666	90
666.203	95
666.406	84
666.609	76
666.812	83
667.015	84
667.218	81
667.421	74
667.624	83
667.827	92
668.03	74
668.232	82
668.435	82
668.638	88
668.841	79
669.043	90
669.246	87
669.449	85
669.651	81
669.854	87
670.057	75
670.259	78
670.462	75
670.665	82
670.867	97
671.07	85
671.272	84
671.475	99
671.677	74
671.88	69
672.082	76
672.284	83
672.487	86
672.689	84
672.892	74
