Data from 1979.PennyLincolnUp.Lamp.En5.5.200Scan.071719.P1_HRD10591_16-19-25-863.txt Node
Date: Thu Jul 18 16:19:25 EDT 2019
User: cochatt
Spectrometer: HR+D1059
Trigger mode: 1
Integration Time (sec): 1.000000E-1
Scans to average: 1
Electric dark correction enabled: true
Nonlinearity correction enabled: false
Boxcar width: 0
XAxis mode: Wavelengths
Number of Pixels in Spectrum: 2048
>>>>>Begin Spectral Data<<<<<
223.165	-20.69
223.4	-20.69
223.635	-20.69
223.869	-21.69
224.104	-18.69
224.338	-16.69
224.573	-13.69
224.808	-19.69
225.042	-9.69
225.277	-1.69
225.511	3.31
225.746	5.31
225.98	5.31
226.215	21.31
226.449	17.31
226.683	10.31
226.918	28.31
227.152	31.31
227.387	33.31
227.621	27.31
227.856	48.31
228.09	36.31
228.324	46.31
228.559	50.31
228.793	63.31
229.027	91.31
229.262	115.31
229.496	103.31
229.73	135.31
229.964	152.31
230.199	121.31
230.433	110.31
230.667	92.31
230.901	103.31
231.136	116.31
231.37	119.31
231.604	116.31
231.838	116.31
232.072	102.31
232.306	110.31
232.541	102.31
232.775	112.31
233.009	119.31
233.243	103.31
233.477	97.31
233.711	118.31
233.945	114.31
234.179	126.31
234.413	115.31
234.647	119.31
234.881	126.31
235.115	102.31
235.349	117.31
235.583	120.31
235.817	119.31
236.051	127.31
236.285	127.31
236.519	104.31
236.753	132.31
236.987	146.31
237.221	158.31
237.455	200.31
237.689	156.31
237.922	146.31
238.156	132.31
238.39	115.31
238.624	122.31
238.858	126.31
239.091	115.31
239.325	118.31
239.559	123.31
239.793	129.31
240.027	118.31
240.26	137.31
240.494	138.31
240.728	155.31
240.961	145.31
241.195	134.31
241.429	141.31
241.662	139.31
241.896	141.31
242.13	146.31
242.363	134.31
242.597	142.31
242.83	130.31
243.064	128.31
243.298	144.31
243.531	140.31
243.765	136.31
243.998	131.31
244.232	130.31
244.465	138.31
244.699	146.31
244.932	139.31
245.166	139.31
245.399	132.31
245.633	139.31
245.866	131.31
246.099	145.31
246.333	144.31
246.566	130.31
246.8	154.31
247.033	141.31
247.266	149.31
247.5	148.31
247.733	151.31
247.966	154.31
248.2	167.31
248.433	153.31
248.666	167.31
248.899	198.31
249.133	198.31
249.366	180.31
249.599	204.31
249.832	176.31
250.066	169.31
250.299	164.31
250.532	185.31
250.765	194.31
250.998	205.31
251.231	210.31
251.465	191.31
251.698	194.31
251.931	187.31
252.164	190.31
252.397	184.31
252.63	193.31
252.863	187.31
253.096	200.31
253.329	209.31
253.562	205.31
253.795	201.31
254.028	210.31
254.261	196.31
254.494	206.31
254.727	243.31
254.96	284.31
255.193	230.31
255.426	228.31
255.659	215.31
255.892	212.31
256.124	212.31
256.357	218.31
256.59	221.31
256.823	203.31
257.056	211.31
257.289	195.31
257.521	185.31
257.754	203.31
257.987	208.31
258.22	179.31
258.452	189.31
258.685	205.31
258.918	190.31
259.151	191.31
259.383	219.31
259.616	214.31
259.849	206.31
260.081	204.31
260.314	235.31
260.547	222.31
260.779	223.31
261.012	227.31
261.244	218.31
261.477	216.31
261.71	205.31
261.942	216.31
262.175	221.31
262.407	216.31
262.64	193.31
262.872	218.31
263.105	209.31
263.337	212.31
263.57	203.31
263.802	197.31
264.035	206.31
264.267	200.31
264.499	201.31
264.732	198.31
264.964	195.31
265.197	204.31
265.429	191.31
265.661	198.31
265.894	202.31
266.126	201.31
266.358	217.31
266.591	203.31
266.823	218.31
267.055	207.31
267.287	220.31
267.52	219.31
267.752	226.31
267.984	219.31
268.216	211.31
268.448	209.31
268.681	211.31
268.913	220.31
269.145	235.31
269.377	256.31
269.609	253.31
269.841	230.31
270.073	249.31
270.306	263.31
270.538	278.31
270.77	269.31
271.002	282.31
271.234	267.31
271.466	258.31
271.698	287.31
271.93	292.31
272.162	280.31
272.394	271.31
272.626	261.31
272.858	265.31
273.09	271.31
273.322	244.31
273.553	256.31
273.785	256.31
274.017	263.31
274.249	258.31
274.481	256.31
274.713	250.31
274.945	268.31
275.176	256.31
275.408	247.31
275.64	247.31
275.872	257.31
276.104	261.31
276.335	246.31
276.567	242.31
276.799	265.31
277.031	274.31
277.262	284.31
277.494	295.31
277.726	279.31
277.957	276.31
278.189	244.31
278.421	265.31
278.652	261.31
278.884	266.31
279.115	245.31
279.347	246.31
279.579	251.31
279.81	238.31
280.042	243.31
280.273	265.31
280.505	268.31
280.736	238.31
280.968	243.31
281.199	256.31
281.431	256.31
281.662	261.31
281.894	261.31
282.125	282.31
282.356	278.31
282.588	284.31
282.819	291.31
283.051	268.31
283.282	266.31
283.513	280.31
283.745	269.31
283.976	268.31
284.207	280.31
284.439	278.31
284.67	280.31
284.901	263.31
285.132	281.31
285.364	279.31
285.595	267.31
285.826	249.31
286.057	249.31
286.288	268.31
286.52	269.31
286.751	270.31
286.982	286.31
287.213	264.31
287.444	272.31
287.675	281.31
287.906	299.31
288.138	282.31
288.369	306.31
288.6	291.31
288.831	286.31
289.062	289.31
289.293	297.31
289.524	286.31
289.755	286.31
289.986	262.31
290.217	278.31
290.448	305.31
290.679	269.31
290.91	273.31
291.141	282.31
291.371	275.31
291.602	283.31
291.833	296.31
292.064	274.31
292.295	275.31
292.526	274.31
292.757	278.31
292.987	279.31
293.218	289.31
293.449	286.31
293.68	291.31
293.91	290.31
294.141	287.31
294.372	281.31
294.603	286.31
294.833	272.31
295.064	287.31
295.295	299.31
295.525	278.31
295.756	299.31
295.987	304.31
296.217	316.31
296.448	334.31
296.679	297.31
296.909	289.31
297.14	292.31
297.37	304.31
297.601	299.31
297.831	303.31
298.062	308.31
298.292	291.31
298.523	303.31
298.753	311.31
298.984	282.31
299.214	317.31
299.445	287.31
299.675	314.31
299.905	298.31
300.136	306.31
300.366	317.31
300.597	326.31
300.827	303.31
301.057	332.31
301.288	331.31
301.518	322.31
301.748	319.31
301.979	323.31
302.209	347.31
302.439	323.31
302.669	329.31
302.9	331.31
303.13	339.31
303.36	328.31
303.59	326.31
303.82	311.31
304.051	342.31
304.281	353.31
304.511	321.31
304.741	320.31
304.971	326.31
305.201	316.31
305.431	322.31
305.661	330.31
305.891	326.31
306.121	355.31
306.352	343.31
306.582	328.31
306.812	329.31
307.042	337.31
307.272	323.31
307.502	336.31
307.731	326.31
307.961	335.31
308.191	330.31
308.421	322.31
308.651	326.31
308.881	338.31
309.111	323.31
309.341	341.31
309.571	357.31
309.8	343.31
310.03	346.31
310.26	351.31
310.49	373.31
310.72	382.31
310.949	347.31
311.179	371.31
311.409	359.31
311.639	369.31
311.868	362.31
312.098	386.31
312.328	375.31
312.557	394.31
312.787	387.31
313.017	384.31
313.246	384.31
313.476	374.31
313.706	378.31
313.935	395.31
314.165	389.31
314.394	396.31
314.624	378.31
314.853	396.31
315.083	370.31
315.312	353.31
315.542	355.31
315.771	372.31
316.001	374.31
316.23	366.31
316.46	357.31
316.689	366.31
316.919	370.31
317.148	383.31
317.377	376.31
317.607	378.31
317.836	368.31
318.065	379.31
318.295	374.31
318.524	374.31
318.753	364.31
318.983	378.31
319.212	372.31
319.441	368.31
319.67	388.31
319.9	376.31
320.129	383.31
320.358	382.31
320.587	373.31
320.816	379.31
321.046	385.31
321.275	380.31
321.504	391.31
321.733	377.31
321.962	400.31
322.191	413.31
322.42	424.31
322.649	419.31
322.878	418.31
323.108	437.31
323.337	438.31
323.566	457.31
323.795	492.31
324.024	545.31
324.253	635.31
324.482	898.31
324.71	1431.31
324.939	2080.31
325.168	1803.31
325.397	902.31
325.626	604.31
325.855	526.31
326.084	491.31
326.313	482.31
326.542	468.31
326.77	542.31
326.999	570.31
327.228	831.31
327.457	1276.31
327.686	1590.31
327.914	1026.31
328.143	658.31
328.372	593.31
328.6	526.31
328.829	535.31
329.058	549.31
329.287	555.31
329.515	535.31
329.744	491.31
329.972	499.31
330.201	528.31
330.43	532.31
330.658	550.31
330.887	589.31
331.115	571.31
331.344	515.31
331.572	471.31
331.801	481.31
332.03	478.31
332.258	472.31
332.486	445.31
332.715	454.31
332.943	473.31
333.172	462.31
333.4	482.31
333.629	488.31
333.857	505.31
334.085	506.31
334.314	513.31
334.542	522.31
334.771	543.31
334.999	500.31
335.227	466.31
335.455	456.31
335.684	469.31
335.912	457.31
336.14	449.31
336.369	470.31
336.597	477.31
336.825	462.31
337.053	454.31
337.281	450.31
337.51	453.31
337.738	458.31
337.966	451.31
338.194	442.31
338.422	442.31
338.65	443.31
338.878	441.31
339.106	450.31
339.334	428.31
339.562	402.31
339.79	416.31
340.018	416.31
340.246	424.31
340.474	421.31
340.702	436.31
340.93	422.31
341.158	427.31
341.386	423.31
341.614	438.31
341.842	434.31
342.07	440.31
342.298	427.31
342.526	403.31
342.754	432.31
342.981	430.31
343.209	410.31
343.437	419.31
343.665	442.31
343.893	453.31
344.12	469.31
344.348	457.31
344.576	426.31
344.804	455.31
345.031	450.31
345.259	461.31
345.487	464.31
345.714	432.31
345.942	432.31
346.17	458.31
346.397	425.31
346.625	424.31
346.853	415.31
347.08	423.31
347.308	423.31
347.535	439.31
347.763	422.31
347.99	420.31
348.218	412.31
348.445	432.31
348.673	415.31
348.9	422.31
349.128	430.31
349.355	402.31
349.583	430.31
349.81	402.31
350.037	413.31
350.265	407.31
350.492	407.31
350.72	407.31
350.947	388.31
351.174	388.31
351.402	400.31
351.629	433.31
351.856	420.31
352.083	422.31
352.311	416.31
352.538	444.31
352.765	423.31
352.992	407.31
353.22	407.31
353.447	416.31
353.674	392.31
353.901	409.31
354.128	402.31
354.355	382.31
354.583	391.31
354.81	403.31
355.037	399.31
355.264	404.31
355.491	403.31
355.718	360.31
355.945	384.31
356.172	383.31
356.399	387.31
356.626	390.31
356.853	389.31
357.08	409.31
357.307	414.31
357.534	381.31
357.761	389.31
357.988	406.31
358.215	411.31
358.441	410.31
358.668	405.31
358.895	400.31
359.122	406.31
359.349	411.31
359.576	414.31
359.802	463.31
360.029	467.31
360.256	476.31
360.483	448.31
360.709	410.31
360.936	454.31
361.163	419.31
361.39	415.31
361.616	427.31
361.843	422.31
362.07	427.31
362.296	416.31
362.523	431.31
362.749	425.31
362.976	410.31
363.203	414.31
363.429	421.31
363.656	400.31
363.882	398.31
364.109	394.31
364.335	415.31
364.562	391.31
364.788	396.31
365.015	409.31
365.241	394.31
365.468	407.31
365.694	414.31
365.92	410.31
366.147	416.31
366.373	419.31
366.599	402.31
366.826	405.31
367.052	415.31
367.278	399.31
367.505	407.31
367.731	428.31
367.957	417.31
368.184	406.31
368.41	419.31
368.636	424.31
368.862	436.31
369.089	427.31
369.315	404.31
369.541	414.31
369.767	436.31
369.993	432.31
370.219	417.31
370.445	404.31
370.672	419.31
370.898	423.31
371.124	414.31
371.35	407.31
371.576	410.31
371.802	419.31
372.028	422.31
372.254	418.31
372.48	444.31
372.706	426.31
372.932	439.31
373.158	411.31
373.384	416.31
373.61	414.31
373.835	399.31
374.061	418.31
374.287	420.31
374.513	426.31
374.739	427.31
374.965	434.31
375.191	419.31
375.416	435.31
375.642	419.31
375.868	424.31
376.094	418.31
376.319	409.31
376.545	416.31
376.771	414.31
376.997	412.31
377.222	430.31
377.448	414.31
377.674	411.31
377.899	411.31
378.125	392.31
378.35	405.31
378.576	407.31
378.802	392.31
379.027	411.31
379.253	418.31
379.478	424.31
379.704	423.31
379.929	420.31
380.155	410.31
380.38	423.31
380.606	440.31
380.831	407.31
381.057	418.31
381.282	431.31
381.507	431.31
381.733	434.31
381.958	447.31
382.184	414.31
382.409	416.31
382.634	452.31
382.86	444.31
383.085	427.31
383.31	436.31
383.535	442.31
383.761	440.31
383.986	456.31
384.211	452.31
384.436	456.31
384.662	437.31
384.887	459.31
385.112	473.31
385.337	471.31
385.562	459.31
385.787	459.31
386.013	475.31
386.238	484.31
386.463	471.31
386.688	464.31
386.913	451.31
387.138	460.31
387.363	464.31
387.588	481.31
387.813	479.31
388.038	463.31
388.263	470.31
388.488	447.31
388.713	475.31
388.938	461.31
389.163	467.31
389.387	487.31
389.612	468.31
389.837	483.31
390.062	475.31
390.287	442.31
390.512	452.31
390.736	473.31
390.961	476.31
391.186	479.31
391.411	474.31
391.636	472.31
391.86	488.31
392.085	488.31
392.31	502.31
392.534	475.31
392.759	494.31
392.984	496.31
393.208	463.31
393.433	482.31
393.658	470.31
393.882	469.31
394.107	483.31
394.331	483.31
394.556	492.31
394.78	468.31
395.005	496.31
395.229	489.31
395.454	489.31
395.678	513.31
395.903	516.31
396.127	529.31
396.352	510.31
396.576	489.31
396.801	503.31
397.025	525.31
397.249	507.31
397.474	497.31
397.698	508.31
397.922	523.31
398.147	536.31
398.371	536.31
398.595	523.31
398.82	544.31
399.044	551.31
399.268	579.31
399.492	627.31
399.717	650.31
399.941	688.31
400.165	680.31
400.389	686.31
400.613	657.31
400.837	584.31
401.062	584.31
401.286	576.31
401.51	579.31
401.734	553.31
401.958	576.31
402.182	567.31
402.406	594.31
402.63	567.31
402.854	562.31
403.078	572.31
403.302	572.31
403.526	594.31
403.75	601.31
403.974	582.31
404.198	568.31
404.422	595.31
404.645	610.31
404.869	576.31
405.093	614.31
405.317	663.31
405.541	680.31
405.765	658.31
405.988	621.31
406.212	627.31
406.436	638.31
406.66	646.31
406.883	626.31
407.107	667.31
407.331	700.31
407.555	737.31
407.778	766.31
408.002	694.31
408.226	656.31
408.449	650.31
408.673	633.31
408.896	672.31
409.12	694.31
409.344	682.31
409.567	615.31
409.791	600.31
410.014	584.31
410.238	628.31
410.461	616.31
410.685	584.31
410.908	604.31
411.132	661.31
411.355	646.31
411.578	640.31
411.802	578.31
412.025	588.31
412.249	591.31
412.472	628.31
412.695	630.31
412.919	633.31
413.142	569.31
413.365	574.31
413.589	571.31
413.812	571.31
414.035	565.31
414.258	541.31
414.482	541.31
414.705	567.31
414.928	548.31
415.151	569.31
415.374	572.31
415.597	572.31
415.821	548.31
416.044	561.31
416.267	542.31
416.49	544.31
416.713	551.31
416.936	556.31
417.159	551.31
417.382	545.31
417.605	537.31
417.828	555.31
418.051	577.31
418.274	554.31
418.497	565.31
418.72	555.31
418.943	552.31
419.166	560.31
419.389	596.31
419.611	582.31
419.834	586.31
420.057	570.31
420.28	591.31
420.503	591.31
420.726	566.31
420.948	570.31
421.171	635.31
421.394	640.31
421.617	564.31
421.839	582.31
422.062	571.31
422.285	580.31
422.507	665.31
422.73	726.31
422.953	665.31
423.175	625.31
423.398	598.31
423.621	606.31
423.843	603.31
424.066	615.31
424.288	602.31
424.511	624.31
424.733	673.31
424.956	759.31
425.178	744.31
425.401	742.31
425.623	766.31
425.846	648.31
426.068	623.31
426.291	610.31
426.513	596.31
426.735	610.31
426.958	653.31
427.18	706.31
427.402	857.31
427.625	922.31
427.847	826.31
428.069	712.31
428.292	652.31
428.514	603.31
428.736	603.31
428.958	576.31
429.181	584.31
429.403	576.31
429.625	565.31
429.847	595.31
430.069	670.31
430.292	669.31
430.514	587.31
430.736	570.31
430.958	550.31
431.18	537.31
431.402	532.31
431.624	522.31
431.846	544.31
432.068	542.31
432.29	535.31
432.512	566.31
432.734	553.31
432.956	542.31
433.178	557.31
433.4	575.31
433.622	549.31
433.844	534.31
434.066	546.31
434.287	555.31
434.509	565.31
434.731	573.31
434.953	558.31
435.175	567.31
435.397	609.31
435.618	589.31
435.84	656.31
436.062	721.31
436.284	790.31
436.505	681.31
436.727	609.31
436.949	591.31
437.17	570.31
437.392	576.31
437.614	583.31
437.835	595.31
438.057	692.31
438.278	796.31
438.5	796.31
438.721	868.31
438.943	820.31
439.165	664.31
439.386	618.31
439.608	620.31
439.829	607.31
440.05	641.31
440.272	682.31
440.493	632.31
440.715	634.31
440.936	594.31
441.158	583.31
441.379	554.31
441.6	622.31
441.822	602.31
442.043	638.31
442.264	727.31
442.486	754.31
442.707	658.31
442.928	624.31
443.149	624.31
443.371	670.31
443.592	691.31
443.813	777.31
444.034	855.31
444.255	724.31
444.476	613.31
444.698	625.31
444.919	622.31
445.14	722.31
445.361	670.31
445.582	632.31
445.803	720.31
446.024	809.31
446.245	829.31
446.466	766.31
446.687	634.31
446.908	610.31
447.129	588.31
447.35	577.31
447.571	538.31
447.792	538.31
448.013	554.31
448.234	559.31
448.455	622.31
448.675	718.31
448.896	805.31
449.117	723.31
449.338	670.31
449.559	776.31
449.779	913.31
450	704.31
450.221	590.31
450.442	590.31
450.662	569.31
450.883	534.31
451.104	556.31
451.324	534.31
451.545	536.31
451.766	521.31
451.986	514.31
452.207	527.31
452.428	490.31
452.648	499.31
452.869	509.31
453.089	505.31
453.31	516.31
453.53	503.31
453.751	482.31
453.971	502.31
454.192	524.31
454.412	519.31
454.633	512.31
454.853	475.31
455.073	486.31
455.294	546.31
455.514	593.31
455.734	569.31
455.955	511.31
456.175	504.31
456.395	465.31
456.616	466.31
456.836	475.31
457.056	484.31
457.276	461.31
457.497	493.31
457.717	472.31
457.937	508.31
458.157	497.31
458.377	492.31
458.598	510.31
458.818	568.31
459.038	643.31
459.258	661.31
459.478	575.31
459.698	540.31
459.918	550.31
460.138	541.31
460.358	545.31
460.578	575.31
460.798	566.31
461.018	554.31
461.238	567.31
461.458	556.31
461.678	561.31
461.898	582.31
462.118	557.31
462.338	619.31
462.558	603.31
462.777	601.31
462.997	633.31
463.217	651.31
463.437	653.31
463.657	615.31
463.876	622.31
464.096	619.31
464.316	601.31
464.536	628.31
464.755	623.31
464.975	628.31
465.195	635.31
465.414	681.31
465.634	606.31
465.854	586.31
466.073	587.31
466.293	532.31
466.512	546.31
466.732	514.31
466.951	543.31
467.171	547.31
467.391	537.31
467.61	538.31
467.829	554.31
468.049	538.31
468.268	527.31
468.488	516.31
468.707	524.31
468.927	508.31
469.146	502.31
469.365	522.31
469.585	510.31
469.804	512.31
470.023	546.31
470.243	529.31
470.462	539.31
470.681	552.31
470.901	532.31
471.12	545.31
471.339	542.31
471.558	540.31
471.777	559.31
471.997	520.31
472.216	540.31
472.435	564.31
472.654	570.31
472.873	539.31
473.092	500.31
473.311	499.31
473.53	536.31
473.749	536.31
473.968	543.31
474.187	639.31
474.406	695.31
474.625	574.31
474.844	536.31
475.063	563.31
475.282	529.31
475.501	532.31
475.72	544.31
475.939	548.31
476.158	561.31
476.377	550.31
476.596	538.31
476.814	546.31
477.033	553.31
477.252	564.31
477.471	550.31
477.69	592.31
477.908	583.31
478.127	577.31
478.346	600.31
478.564	586.31
478.783	596.31
479.002	587.31
479.22	606.31
479.439	622.31
479.658	624.31
479.876	630.31
480.095	665.31
480.313	674.31
480.532	682.31
480.751	662.31
480.969	658.31
481.188	728.31
481.406	753.31
481.624	665.31
481.843	645.31
482.061	629.31
482.28	646.31
482.498	601.31
482.717	615.31
482.935	607.31
483.153	611.31
483.372	623.31
483.59	630.31
483.808	629.31
484.027	635.31
484.245	615.31
484.463	608.31
484.681	627.31
484.9	624.31
485.118	616.31
485.336	622.31
485.554	632.31
485.772	617.31
485.99	616.31
486.209	633.31
486.427	664.31
486.645	646.31
486.863	670.31
487.081	646.31
487.299	675.31
487.517	652.31
487.735	648.31
487.953	662.31
488.171	665.31
488.389	664.31
488.607	663.31
488.825	676.31
489.043	664.31
489.261	673.31
489.479	668.31
489.696	671.31
489.914	648.31
490.132	693.31
490.35	686.31
490.568	682.31
490.786	697.31
491.003	694.31
491.221	723.31
491.439	723.31
491.657	724.31
491.874	725.31
492.092	750.31
492.31	722.31
492.527	753.31
492.745	753.31
492.963	763.31
493.18	762.31
493.398	753.31
493.615	747.31
493.833	764.31
494.05	780.31
494.268	792.31
494.485	778.31
494.703	776.31
494.92	778.31
495.138	768.31
495.355	764.31
495.573	788.31
495.79	766.31
496.008	787.31
496.225	800.31
496.442	789.31
496.66	788.31
496.877	799.31
497.094	804.31
497.312	819.31
497.529	830.31
497.746	828.31
497.963	838.31
498.181	843.31
498.398	873.31
498.615	890.31
498.832	906.31
499.049	940.31
499.267	971.31
499.484	1000.31
499.701	1093.31
499.918	1107.31
500.135	1161.31
500.352	1243.31
500.569	1255.31
500.786	1243.31
501.003	1227.31
501.22	1143.31
501.437	1106.31
501.654	1040.31
501.871	1057.31
502.088	1011.31
502.305	968.31
502.522	914.31
502.739	914.31
502.956	873.31
503.172	842.31
503.389	853.31
503.606	811.31
503.823	811.31
504.04	814.31
504.256	784.31
504.473	814.31
504.69	781.31
504.907	799.31
505.123	784.31
505.34	787.31
505.557	751.31
505.773	755.31
505.99	748.31
506.207	738.31
506.423	744.31
506.64	731.31
506.856	708.31
507.073	735.31
507.289	721.31
507.506	722.31
507.722	730.31
507.939	729.31
508.155	698.31
508.372	704.31
508.588	680.31
508.805	706.31
509.021	709.31
509.238	713.31
509.454	714.31
509.67	692.31
509.887	707.31
510.103	689.31
510.319	694.31
510.536	768.31
510.752	1277.31
510.968	1043.31
511.184	704.31
511.401	682.31
511.617	681.31
511.833	640.31
512.049	671.31
512.265	655.31
512.481	673.31
512.698	635.31
512.914	654.31
513.13	664.31
513.346	630.31
513.562	643.31
513.778	657.31
513.994	638.31
514.21	664.31
514.426	692.31
514.642	726.31
514.858	747.31
515.074	800.31
515.29	889.31
515.506	1314.31
515.721	1118.31
515.937	782.31
516.153	726.31
516.369	727.31
516.585	717.31
516.801	697.31
517.016	730.31
517.232	724.31
517.448	747.31
517.664	722.31
517.879	724.31
518.095	740.31
518.311	717.31
518.527	733.31
518.742	698.31
518.958	677.31
519.173	686.31
519.389	674.31
519.605	647.31
519.82	670.31
520.036	682.31
520.251	682.31
520.467	719.31
520.682	715.31
520.898	699.31
521.113	717.31
521.329	736.31
521.544	824.31
521.76	1020.31
521.975	1658.31
522.19	1652.31
522.406	957.31
522.621	727.31
522.836	678.31
523.052	673.31
523.267	636.31
523.482	638.31
523.698	610.31
523.913	622.31
524.128	626.31
524.343	606.31
524.559	588.31
524.774	566.31
524.989	584.31
525.204	589.31
525.419	586.31
525.634	579.31
525.849	585.31
526.064	564.31
526.28	548.31
526.495	536.31
526.71	560.31
526.925	537.31
527.14	552.31
527.355	552.31
527.57	567.31
527.785	544.31
527.999	547.31
528.214	576.31
528.429	558.31
528.644	548.31
528.859	566.31
529.074	580.31
529.289	585.31
529.503	666.31
529.718	631.31
529.933	571.31
530.148	563.31
530.363	585.31
530.577	568.31
530.792	561.31
531.007	550.31
531.221	535.31
531.436	538.31
531.651	558.31
531.865	545.31
532.08	535.31
532.295	546.31
532.509	541.31
532.724	537.31
532.938	543.31
533.153	522.31
533.367	556.31
533.582	533.31
533.796	539.31
534.011	531.31
534.225	519.31
534.44	521.31
534.654	518.31
534.868	513.31
535.083	530.31
535.297	529.31
535.511	531.31
535.726	543.31
535.94	550.31
536.154	526.31
536.369	517.31
536.583	520.31
536.797	517.31
537.011	527.31
537.225	518.31
537.44	499.31
537.654	501.31
537.868	510.31
538.082	512.31
538.296	528.31
538.51	514.31
538.724	496.31
538.938	525.31
539.153	514.31
539.367	522.31
539.581	511.31
539.795	490.31
540.009	502.31
540.222	510.31
540.436	506.31
540.65	513.31
540.864	507.31
541.078	523.31
541.292	497.31
541.506	527.31
541.72	499.31
541.934	498.31
542.147	513.31
542.361	533.31
542.575	486.31
542.789	512.31
543.002	502.31
543.216	521.31
543.43	521.31
543.644	507.31
543.857	502.31
544.071	507.31
544.285	511.31
544.498	498.31
544.712	482.31
544.925	515.31
545.139	496.31
545.352	506.31
545.566	490.31
545.779	468.31
545.993	499.31
546.206	499.31
546.42	508.31
546.633	508.31
546.847	521.31
547.06	513.31
547.274	491.31
547.487	494.31
547.7	494.31
547.914	509.31
548.127	476.31
548.34	486.31
548.554	485.31
548.767	475.31
548.98	496.31
549.193	488.31
549.407	491.31
549.62	500.31
549.833	511.31
550.046	482.31
550.259	483.31
550.473	476.31
550.686	487.31
550.899	474.31
551.112	460.31
551.325	483.31
551.538	475.31
551.751	480.31
551.964	486.31
552.177	484.31
552.39	483.31
552.603	491.31
552.816	487.31
553.029	512.31
553.242	510.31
553.455	499.31
553.667	523.31
553.88	512.31
554.093	496.31
554.306	500.31
554.519	489.31
554.732	499.31
554.944	493.31
555.157	477.31
555.37	467.31
555.583	463.31
555.795	437.31
556.008	441.31
556.221	471.31
556.433	465.31
556.646	448.31
556.859	446.31
557.071	451.31
557.284	451.31
557.496	456.31
557.709	440.31
557.921	425.31
558.134	450.31
558.346	446.31
558.559	447.31
558.771	425.31
558.984	438.31
559.196	439.31
559.409	426.31
559.621	436.31
559.833	419.31
560.046	433.31
560.258	418.31
560.47	441.31
560.683	437.31
560.895	432.31
561.107	452.31
561.32	424.31
561.532	435.31
561.744	423.31
561.956	442.31
562.168	457.31
562.381	435.31
562.593	455.31
562.805	457.31
563.017	417.31
563.229	435.31
563.441	422.31
563.653	455.31
563.865	440.31
564.077	441.31
564.289	468.31
564.501	452.31
564.713	456.31
564.925	466.31
565.137	473.31
565.349	471.31
565.561	473.31
565.773	467.31
565.985	523.31
566.197	520.31
566.408	525.31
566.62	536.31
566.832	555.31
567.044	560.31
567.255	584.31
567.467	590.31
567.679	579.31
567.891	615.31
568.102	596.31
568.314	585.31
568.526	520.31
568.737	545.31
568.949	518.31
569.161	482.31
569.372	477.31
569.584	468.31
569.795	477.31
570.007	449.31
570.218	503.31
570.43	466.31
570.641	446.31
570.853	442.31
571.064	440.31
571.276	427.31
571.487	425.31
571.698	424.31
571.91	417.31
572.121	387.31
572.333	414.31
572.544	415.31
572.755	385.31
572.966	414.31
573.178	386.31
573.389	386.31
573.6	383.31
573.811	392.31
574.023	396.31
574.234	379.31
574.445	388.31
574.656	397.31
574.867	374.31
575.078	369.31
575.289	371.31
575.501	380.31
575.712	366.31
575.923	364.31
576.134	376.31
576.345	384.31
576.556	386.31
576.767	352.31
576.978	367.31
577.188	366.31
577.399	360.31
577.61	345.31
577.821	360.31
578.032	350.31
578.243	389.31
578.454	610.31
578.665	442.31
578.875	370.31
579.086	356.31
579.297	351.31
579.508	344.31
579.718	339.31
579.929	350.31
580.14	349.31
580.35	344.31
580.561	338.31
580.772	346.31
580.982	328.31
581.193	339.31
581.403	332.31
581.614	329.31
581.825	336.31
582.035	327.31
582.246	346.31
582.456	338.31
582.667	348.31
582.877	344.31
583.087	355.31
583.298	342.31
583.508	359.31
583.719	345.31
583.929	322.31
584.139	312.31
584.35	321.31
584.56	321.31
584.77	335.31
584.981	329.31
585.191	322.31
585.401	332.31
585.611	344.31
585.821	323.31
586.032	336.31
586.242	326.31
586.452	313.31
586.662	327.31
586.872	326.31
587.082	311.31
587.292	327.31
587.502	328.31
587.713	336.31
587.923	319.31
588.133	350.31
588.343	323.31
588.553	334.31
588.762	332.31
588.972	326.31
589.182	351.31
589.392	346.31
589.602	334.31
589.812	344.31
590.022	324.31
590.232	327.31
590.441	317.31
590.651	330.31
590.861	318.31
591.071	319.31
591.281	328.31
591.49	335.31
591.7	321.31
591.91	339.31
592.119	326.31
592.329	319.31
592.539	353.31
592.748	335.31
592.958	349.31
593.167	353.31
593.377	352.31
593.587	351.31
593.796	342.31
594.006	367.31
594.215	346.31
594.424	352.31
594.634	356.31
594.843	334.31
595.053	354.31
595.262	340.31
595.472	327.31
595.681	305.31
595.89	329.31
596.1	337.31
596.309	324.31
596.518	321.31
596.727	296.31
596.937	315.31
597.146	299.31
597.355	306.31
597.564	319.31
597.774	300.31
597.983	299.31
598.192	291.31
598.401	305.31
598.61	283.31
598.819	288.31
599.028	302.31
599.237	308.31
599.446	288.31
599.655	291.31
599.864	287.31
600.073	287.31
600.282	281.31
600.491	279.31
600.7	292.31
600.909	276.31
601.118	278.31
601.327	290.31
601.536	289.31
601.745	263.31
601.953	283.31
602.162	258.31
602.371	266.31
602.58	274.31
602.789	269.31
602.997	266.31
603.206	282.31
603.415	273.31
603.623	275.31
603.832	270.31
604.041	280.31
604.249	258.31
604.458	268.31
604.666	275.31
604.875	258.31
605.084	262.31
605.292	280.31
605.501	272.31
605.709	273.31
605.918	275.31
606.126	281.31
606.334	278.31
606.543	263.31
606.751	266.31
606.96	269.31
607.168	262.31
607.376	266.31
607.585	268.31
607.793	266.31
608.001	270.31
608.21	262.31
608.418	261.31
608.626	230.31
608.834	246.31
609.043	271.31
609.251	251.31
609.459	265.31
609.667	252.31
609.875	252.31
610.083	261.31
610.291	251.31
610.499	290.31
610.707	271.31
610.916	266.31
611.124	274.31
611.332	254.31
611.54	278.31
611.748	259.31
611.955	242.31
612.163	259.31
612.371	262.31
612.579	258.31
612.787	254.31
612.995	252.31
613.203	262.31
613.411	257.31
613.618	261.31
613.826	256.31
614.034	262.31
614.242	266.31
614.449	251.31
614.657	243.31
614.865	256.31
615.072	240.31
615.28	240.31
615.488	254.31
615.695	257.31
615.903	263.31
616.111	244.31
616.318	262.31
616.526	257.31
616.733	256.31
616.941	260.31
617.148	236.31
617.356	254.31
617.563	240.31
617.771	268.31
617.978	262.31
618.185	242.31
618.393	223.31
618.6	254.31
618.807	259.31
619.015	241.31
619.222	236.31
619.429	242.31
619.637	235.31
619.844	229.31
620.051	249.31
620.258	248.31
620.466	232.31
620.673	236.31
620.88	259.31
621.087	232.31
621.294	238.31
621.501	244.31
621.708	231.31
621.915	232.31
622.122	247.31
622.329	235.31
622.536	239.31
622.743	223.31
622.95	218.31
623.157	223.31
623.364	216.31
623.571	240.31
623.778	219.31
623.985	228.31
624.192	227.31
624.399	223.31
624.606	237.31
624.812	240.31
625.019	216.31
625.226	232.31
625.433	210.31
625.639	226.31
625.846	213.31
626.053	225.31
626.259	225.31
626.466	223.31
626.673	218.31
626.879	225.31
627.086	222.31
627.293	224.31
627.499	221.31
627.706	227.31
627.912	208.31
628.119	216.31
628.325	203.31
628.532	210.31
628.738	206.31
628.945	222.31
629.151	207.31
629.357	203.31
629.564	202.31
629.77	209.31
629.976	208.31
630.183	212.31
630.389	215.31
630.595	207.31
630.802	223.31
631.008	212.31
631.214	209.31
631.42	207.31
631.627	216.31
631.833	197.31
632.039	209.31
632.245	210.31
632.451	209.31
632.657	214.31
632.863	211.31
633.069	191.31
633.275	190.31
633.481	194.31
633.688	200.31
633.893	219.31
634.099	207.31
634.305	210.31
634.511	189.31
634.717	181.31
634.923	185.31
635.129	184.31
635.335	205.31
635.541	190.31
635.747	197.31
635.952	192.31
636.158	192.31
636.364	211.31
636.57	192.31
636.775	192.31
636.981	190.31
637.187	183.31
637.392	200.31
637.598	189.31
637.804	202.31
638.009	192.31
638.215	192.31
638.421	200.31
638.626	196.31
638.832	184.31
639.037	182.31
639.243	187.31
639.448	179.31
639.654	189.31
639.859	194.31
640.065	179.31
640.27	186.31
640.475	178.31
640.681	192.31
640.886	170.31
641.091	192.31
641.297	182.31
641.502	169.31
641.707	174.31
641.913	174.31
642.118	167.31
642.323	185.31
642.528	196.31
642.733	171.31
642.939	190.31
643.144	186.31
643.349	190.31
643.554	176.31
643.759	161.31
643.964	178.31
644.169	169.31
644.374	186.31
644.579	174.31
644.784	179.31
644.989	166.31
645.194	180.31
645.399	160.31
645.604	172.31
645.809	176.31
646.014	186.31
646.219	168.31
646.423	178.31
646.628	179.31
646.833	167.31
647.038	172.31
647.243	167.31
647.447	166.31
647.652	178.31
647.857	157.31
648.062	180.31
648.266	169.31
648.471	176.31
648.676	182.31
648.88	175.31
649.085	180.31
649.289	195.31
649.494	187.31
649.698	206.31
649.903	196.31
650.107	178.31
650.312	168.31
650.516	165.31
650.721	185.31
650.925	163.31
651.13	171.31
651.334	146.31
651.539	147.31
651.743	147.31
651.947	166.31
652.152	170.31
652.356	146.31
652.56	156.31
652.764	138.31
652.969	159.31
653.173	149.31
653.377	136.31
653.581	141.31
653.785	151.31
653.99	137.31
654.194	140.31
654.398	149.31
654.602	130.31
654.806	130.31
655.01	139.31
655.214	144.31
655.418	135.31
655.622	152.31
655.826	151.31
656.03	147.31
656.234	133.31
656.438	137.31
656.642	144.31
656.846	128.31
657.049	134.31
657.253	138.31
657.457	124.31
657.661	124.31
657.865	117.31
658.068	107.31
658.272	110.31
658.476	119.31
658.68	129.31
658.883	105.31
659.087	99.31
659.291	106.31
659.494	91.31
659.698	96.31
659.901	106.31
660.105	88.31
660.309	98.31
660.512	114.31
660.716	93.31
660.919	97.31
661.123	90.31
661.326	82.31
661.53	95.31
661.733	101.31
661.936	94.31
662.14	85.31
662.343	82.31
662.546	100.31
662.75	96.31
662.953	83.31
663.156	85.31
663.36	101.31
663.563	79.31
663.766	80.31
663.969	90.31
664.173	77.31
664.376	94.31
664.579	91.31
664.782	82.31
664.985	90.31
665.188	87.31
665.391	78.31
665.594	80.31
665.797	81.31
666	74.31
666.203	88.31
666.406	77.31
666.609	80.31
666.812	95.31
667.015	76.31
667.218	79.31
667.421	84.31
667.624	66.31
667.827	74.31
668.03	73.31
668.232	76.31
668.435	77.31
668.638	78.31
668.841	92.31
669.043	89.31
669.246	78.31
669.449	80.31
669.651	71.31
669.854	78.31
670.057	88.31
670.259	77.31
670.462	75.31
670.665	87.31
670.867	77.31
671.07	83.31
671.272	87.31
671.475	80.31
671.677	88.31
671.88	75.31
672.082	78.31
672.284	77.31
672.487	80.31
672.689	67.31
672.892	96.31
