Data from 1979.PennyLincolnUp.Lamp.En5.5.200Scan.071719.P1_HRD10591_16-19-12-862.txt Node
Date: Thu Jul 18 16:19:12 EDT 2019
User: cochatt
Spectrometer: HR+D1059
Trigger mode: 1
Integration Time (sec): 1.000000E-1
Scans to average: 1
Electric dark correction enabled: true
Nonlinearity correction enabled: false
Boxcar width: 0
XAxis mode: Wavelengths
Number of Pixels in Spectrum: 2048
>>>>>Begin Spectral Data<<<<<
223.165	-24.81
223.4	-24.81
223.635	-24.81
223.869	-26.81
224.104	-5.81
224.338	0.19
224.573	-9.81
224.808	-10.81
225.042	-14.81
225.277	-16.81
225.511	3.19
225.746	-7.81
225.98	5.19
226.215	7.19
226.449	19.19
226.683	20.19
226.918	34.19
227.152	28.19
227.387	31.19
227.621	41.19
227.856	47.19
228.09	46.19
228.324	49.19
228.559	56.19
228.793	58.19
229.027	102.19
229.262	98.19
229.496	114.19
229.73	118.19
229.964	123.19
230.199	128.19
230.433	112.19
230.667	105.19
230.901	119.19
231.136	104.19
231.37	94.19
231.604	111.19
231.838	110.19
232.072	107.19
232.306	102.19
232.541	96.19
232.775	103.19
233.009	111.19
233.243	113.19
233.477	106.19
233.711	103.19
233.945	105.19
234.179	115.19
234.413	112.19
234.647	124.19
234.881	123.19
235.115	110.19
235.349	110.19
235.583	106.19
235.817	120.19
236.051	120.19
236.285	128.19
236.519	117.19
236.753	119.19
236.987	138.19
237.221	159.19
237.455	212.19
237.689	168.19
237.922	130.19
238.156	126.19
238.39	139.19
238.624	128.19
238.858	100.19
239.091	94.19
239.325	120.19
239.559	118.19
239.793	122.19
240.027	126.19
240.26	129.19
240.494	150.19
240.728	137.19
240.961	148.19
241.195	150.19
241.429	135.19
241.662	122.19
241.896	115.19
242.13	118.19
242.363	119.19
242.597	123.19
242.83	127.19
243.064	146.19
243.298	131.19
243.531	136.19
243.765	134.19
243.998	135.19
244.232	121.19
244.465	113.19
244.699	127.19
244.932	146.19
245.166	144.19
245.399	142.19
245.633	159.19
245.866	134.19
246.099	152.19
246.333	150.19
246.566	148.19
246.8	147.19
247.033	147.19
247.266	160.19
247.5	151.19
247.733	155.19
247.966	162.19
248.2	154.19
248.433	155.19
248.666	150.19
248.899	172.19
249.133	175.19
249.366	202.19
249.599	178.19
249.832	164.19
250.066	162.19
250.299	167.19
250.532	175.19
250.765	189.19
250.998	199.19
251.231	200.19
251.465	192.19
251.698	194.19
251.931	177.19
252.164	199.19
252.397	174.19
252.63	187.19
252.863	184.19
253.096	201.19
253.329	201.19
253.562	219.19
253.795	199.19
254.028	196.19
254.261	193.19
254.494	222.19
254.727	217.19
254.96	251.19
255.193	237.19
255.426	213.19
255.659	218.19
255.892	203.19
256.124	218.19
256.357	213.19
256.59	210.19
256.823	199.19
257.056	190.19
257.289	204.19
257.521	184.19
257.754	185.19
257.987	186.19
258.22	190.19
258.452	184.19
258.685	194.19
258.918	198.19
259.151	198.19
259.383	195.19
259.616	199.19
259.849	206.19
260.081	211.19
260.314	222.19
260.547	226.19
260.779	214.19
261.012	212.19
261.244	203.19
261.477	202.19
261.71	199.19
261.942	221.19
262.175	232.19
262.407	219.19
262.64	207.19
262.872	219.19
263.105	204.19
263.337	210.19
263.57	202.19
263.802	188.19
264.035	190.19
264.267	216.19
264.499	207.19
264.732	200.19
264.964	195.19
265.197	198.19
265.429	199.19
265.661	206.19
265.894	194.19
266.126	186.19
266.358	213.19
266.591	218.19
266.823	215.19
267.055	209.19
267.287	200.19
267.52	207.19
267.752	190.19
267.984	218.19
268.216	222.19
268.448	219.19
268.681	218.19
268.913	239.19
269.145	236.19
269.377	257.19
269.609	258.19
269.841	245.19
270.073	234.19
270.306	272.19
270.538	287.19
270.77	265.19
271.002	264.19
271.234	262.19
271.466	255.19
271.698	275.19
271.93	282.19
272.162	265.19
272.394	282.19
272.626	268.19
272.858	255.19
273.09	261.19
273.322	241.19
273.553	247.19
273.785	235.19
274.017	240.19
274.249	238.19
274.481	248.19
274.713	254.19
274.945	239.19
275.176	246.19
275.408	257.19
275.64	261.19
275.872	258.19
276.104	248.19
276.335	250.19
276.567	252.19
276.799	252.19
277.031	286.19
277.262	288.19
277.494	271.19
277.726	268.19
277.957	261.19
278.189	270.19
278.421	261.19
278.652	229.19
278.884	264.19
279.115	243.19
279.347	265.19
279.579	252.19
279.81	238.19
280.042	246.19
280.273	253.19
280.505	246.19
280.736	260.19
280.968	254.19
281.199	265.19
281.431	258.19
281.662	261.19
281.894	254.19
282.125	241.19
282.356	250.19
282.588	282.19
282.819	307.19
283.051	264.19
283.282	277.19
283.513	267.19
283.745	255.19
283.976	273.19
284.207	272.19
284.439	266.19
284.67	259.19
284.901	246.19
285.132	259.19
285.364	266.19
285.595	266.19
285.826	242.19
286.057	272.19
286.288	258.19
286.52	262.19
286.751	270.19
286.982	267.19
287.213	268.19
287.444	279.19
287.675	274.19
287.906	278.19
288.138	282.19
288.369	272.19
288.6	266.19
288.831	294.19
289.062	274.19
289.293	291.19
289.524	266.19
289.755	262.19
289.986	271.19
290.217	278.19
290.448	273.19
290.679	283.19
290.91	274.19
291.141	269.19
291.371	275.19
291.602	293.19
291.833	268.19
292.064	289.19
292.295	281.19
292.526	288.19
292.757	280.19
292.987	271.19
293.218	275.19
293.449	286.19
293.68	291.19
293.91	273.19
294.141	274.19
294.372	282.19
294.603	288.19
294.833	277.19
295.064	275.19
295.295	284.19
295.525	287.19
295.756	291.19
295.987	290.19
296.217	310.19
296.448	299.19
296.679	280.19
296.909	292.19
297.14	292.19
297.37	283.19
297.601	283.19
297.831	289.19
298.062	293.19
298.292	285.19
298.523	294.19
298.753	290.19
298.984	302.19
299.214	296.19
299.445	298.19
299.675	297.19
299.905	297.19
300.136	300.19
300.366	316.19
300.597	297.19
300.827	297.19
301.057	317.19
301.288	305.19
301.518	308.19
301.748	312.19
301.979	307.19
302.209	318.19
302.439	316.19
302.669	328.19
302.9	313.19
303.13	314.19
303.36	323.19
303.59	322.19
303.82	306.19
304.051	324.19
304.281	324.19
304.511	316.19
304.741	327.19
304.971	322.19
305.201	326.19
305.431	313.19
305.661	312.19
305.891	311.19
306.121	318.19
306.352	326.19
306.582	329.19
306.812	323.19
307.042	317.19
307.272	316.19
307.502	332.19
307.731	330.19
307.961	307.19
308.191	316.19
308.421	326.19
308.651	299.19
308.881	318.19
309.111	325.19
309.341	323.19
309.571	337.19
309.8	336.19
310.03	343.19
310.26	347.19
310.49	343.19
310.72	372.19
310.949	357.19
311.179	383.19
311.409	363.19
311.639	357.19
311.868	360.19
312.098	364.19
312.328	353.19
312.557	373.19
312.787	388.19
313.017	379.19
313.246	378.19
313.476	356.19
313.706	352.19
313.935	354.19
314.165	374.19
314.394	396.19
314.624	368.19
314.853	358.19
315.083	376.19
315.312	382.19
315.542	366.19
315.771	355.19
316.001	382.19
316.23	360.19
316.46	361.19
316.689	378.19
316.919	352.19
317.148	372.19
317.377	358.19
317.607	376.19
317.836	364.19
318.065	372.19
318.295	375.19
318.524	370.19
318.753	364.19
318.983	353.19
319.212	361.19
319.441	371.19
319.67	348.19
319.9	378.19
320.129	351.19
320.358	361.19
320.587	372.19
320.816	383.19
321.046	368.19
321.275	378.19
321.504	398.19
321.733	377.19
321.962	377.19
322.191	354.19
322.42	418.19
322.649	416.19
322.878	436.19
323.108	448.19
323.337	448.19
323.566	458.19
323.795	471.19
324.024	512.19
324.253	630.19
324.482	867.19
324.71	1351.19
324.939	2038.19
325.168	1756.19
325.397	852.19
325.626	604.19
325.855	499.19
326.084	466.19
326.313	442.19
326.542	466.19
326.77	523.19
326.999	587.19
327.228	818.19
327.457	1235.19
327.686	1539.19
327.914	982.19
328.143	642.19
328.372	592.19
328.6	521.19
328.829	519.19
329.058	527.19
329.287	515.19
329.515	478.19
329.744	479.19
329.972	467.19
330.201	486.19
330.43	515.19
330.658	537.19
330.887	587.19
331.115	539.19
331.344	490.19
331.572	462.19
331.801	445.19
332.03	457.19
332.258	426.19
332.486	446.19
332.715	420.19
332.943	448.19
333.172	446.19
333.4	450.19
333.629	492.19
333.857	475.19
334.085	468.19
334.314	491.19
334.542	520.19
334.771	525.19
334.999	485.19
335.227	450.19
335.455	462.19
335.684	454.19
335.912	448.19
336.14	417.19
336.369	463.19
336.597	456.19
336.825	434.19
337.053	408.19
337.281	430.19
337.51	419.19
337.738	422.19
337.966	427.19
338.194	454.19
338.422	438.19
338.65	425.19
338.878	438.19
339.106	421.19
339.334	432.19
339.562	430.19
339.79	414.19
340.018	406.19
340.246	425.19
340.474	413.19
340.702	438.19
340.93	422.19
341.158	418.19
341.386	417.19
341.614	439.19
341.842	415.19
342.07	428.19
342.298	404.19
342.526	400.19
342.754	415.19
342.981	396.19
343.209	404.19
343.437	433.19
343.665	437.19
343.893	444.19
344.12	437.19
344.348	427.19
344.576	439.19
344.804	446.19
345.031	441.19
345.259	451.19
345.487	430.19
345.714	422.19
345.942	399.19
346.17	389.19
346.397	407.19
346.625	418.19
346.853	413.19
347.08	419.19
347.308	423.19
347.535	417.19
347.763	433.19
347.99	418.19
348.218	411.19
348.445	405.19
348.673	406.19
348.9	399.19
349.128	410.19
349.355	402.19
349.583	408.19
349.81	387.19
350.037	390.19
350.265	386.19
350.492	394.19
350.72	399.19
350.947	420.19
351.174	403.19
351.402	421.19
351.629	388.19
351.856	400.19
352.083	424.19
352.311	413.19
352.538	414.19
352.765	431.19
352.992	416.19
353.22	416.19
353.447	389.19
353.674	406.19
353.901	376.19
354.128	397.19
354.355	402.19
354.583	392.19
354.81	412.19
355.037	383.19
355.264	384.19
355.491	377.19
355.718	407.19
355.945	374.19
356.172	409.19
356.399	389.19
356.626	385.19
356.853	397.19
357.08	378.19
357.307	394.19
357.534	391.19
357.761	379.19
357.988	373.19
358.215	376.19
358.441	384.19
358.668	385.19
358.895	383.19
359.122	387.19
359.349	398.19
359.576	422.19
359.802	423.19
360.029	457.19
360.256	450.19
360.483	444.19
360.709	422.19
360.936	410.19
361.163	400.19
361.39	393.19
361.616	410.19
361.843	400.19
362.07	411.19
362.296	421.19
362.523	406.19
362.749	407.19
362.976	400.19
363.203	392.19
363.429	386.19
363.656	394.19
363.882	395.19
364.109	403.19
364.335	385.19
364.562	400.19
364.788	395.19
365.015	400.19
365.241	404.19
365.468	401.19
365.694	401.19
365.92	399.19
366.147	383.19
366.373	389.19
366.599	397.19
366.826	391.19
367.052	405.19
367.278	395.19
367.505	397.19
367.731	422.19
367.957	396.19
368.184	407.19
368.41	411.19
368.636	428.19
368.862	434.19
369.089	400.19
369.315	408.19
369.541	407.19
369.767	412.19
369.993	389.19
370.219	398.19
370.445	397.19
370.672	404.19
370.898	392.19
371.124	400.19
371.35	416.19
371.576	408.19
371.802	421.19
372.028	420.19
372.254	422.19
372.48	427.19
372.706	412.19
372.932	423.19
373.158	404.19
373.384	406.19
373.61	405.19
373.835	400.19
374.061	396.19
374.287	406.19
374.513	412.19
374.739	426.19
374.965	408.19
375.191	415.19
375.416	426.19
375.642	421.19
375.868	419.19
376.094	416.19
376.319	405.19
376.545	414.19
376.771	425.19
376.997	387.19
377.222	409.19
377.448	408.19
377.674	388.19
377.899	430.19
378.125	414.19
378.35	407.19
378.576	395.19
378.802	398.19
379.027	399.19
379.253	427.19
379.478	415.19
379.704	416.19
379.929	394.19
380.155	424.19
380.38	420.19
380.606	408.19
380.831	403.19
381.057	436.19
381.282	430.19
381.507	407.19
381.733	408.19
381.958	408.19
382.184	416.19
382.409	442.19
382.634	440.19
382.86	418.19
383.085	424.19
383.31	435.19
383.535	426.19
383.761	450.19
383.986	417.19
384.211	423.19
384.436	457.19
384.662	437.19
384.887	450.19
385.112	435.19
385.337	441.19
385.562	449.19
385.787	457.19
386.013	444.19
386.238	463.19
386.463	467.19
386.688	463.19
386.913	463.19
387.138	446.19
387.363	459.19
387.588	444.19
387.813	452.19
388.038	451.19
388.263	476.19
388.488	468.19
388.713	479.19
388.938	470.19
389.163	473.19
389.387	445.19
389.612	430.19
389.837	476.19
390.062	482.19
390.287	454.19
390.512	445.19
390.736	454.19
390.961	454.19
391.186	472.19
391.411	473.19
391.636	475.19
391.86	473.19
392.085	471.19
392.31	493.19
392.534	487.19
392.759	473.19
392.984	484.19
393.208	448.19
393.433	456.19
393.658	472.19
393.882	463.19
394.107	482.19
394.331	469.19
394.556	477.19
394.78	467.19
395.005	474.19
395.229	470.19
395.454	484.19
395.678	496.19
395.903	483.19
396.127	511.19
396.352	516.19
396.576	489.19
396.801	510.19
397.025	502.19
397.249	478.19
397.474	487.19
397.698	489.19
397.922	500.19
398.147	529.19
398.371	532.19
398.595	519.19
398.82	530.19
399.044	555.19
399.268	562.19
399.492	620.19
399.717	632.19
399.941	670.19
400.165	672.19
400.389	668.19
400.613	622.19
400.837	571.19
401.062	540.19
401.286	555.19
401.51	555.19
401.734	535.19
401.958	531.19
402.182	539.19
402.406	572.19
402.63	560.19
402.854	534.19
403.078	573.19
403.302	555.19
403.526	579.19
403.75	590.19
403.974	569.19
404.198	564.19
404.422	593.19
404.645	554.19
404.869	546.19
405.093	605.19
405.317	633.19
405.541	668.19
405.765	612.19
405.988	572.19
406.212	587.19
406.436	616.19
406.66	638.19
406.883	606.19
407.107	648.19
407.331	668.19
407.555	743.19
407.778	740.19
408.002	700.19
408.226	634.19
408.449	613.19
408.673	608.19
408.896	676.19
409.12	696.19
409.344	673.19
409.567	611.19
409.791	575.19
410.014	577.19
410.238	568.19
410.461	576.19
410.685	586.19
410.908	607.19
411.132	624.19
411.355	657.19
411.578	630.19
411.802	576.19
412.025	564.19
412.249	586.19
412.472	586.19
412.695	629.19
412.919	617.19
413.142	566.19
413.365	558.19
413.589	545.19
413.812	546.19
414.035	531.19
414.258	536.19
414.482	556.19
414.705	559.19
414.928	534.19
415.151	562.19
415.374	550.19
415.597	529.19
415.821	522.19
416.044	554.19
416.267	528.19
416.49	531.19
416.713	542.19
416.936	528.19
417.159	543.19
417.382	575.19
417.605	532.19
417.828	538.19
418.051	566.19
418.274	566.19
418.497	540.19
418.72	517.19
418.943	556.19
419.166	537.19
419.389	596.19
419.611	587.19
419.834	576.19
420.057	554.19
420.28	559.19
420.503	568.19
420.726	559.19
420.948	558.19
421.171	608.19
421.394	623.19
421.617	572.19
421.839	565.19
422.062	537.19
422.285	572.19
422.507	626.19
422.73	706.19
422.953	663.19
423.175	609.19
423.398	594.19
423.621	578.19
423.843	591.19
424.066	594.19
424.288	591.19
424.511	630.19
424.733	636.19
424.956	736.19
425.178	712.19
425.401	732.19
425.623	734.19
425.846	634.19
426.068	606.19
426.291	613.19
426.513	591.19
426.735	609.19
426.958	609.19
427.18	704.19
427.402	853.19
427.625	928.19
427.847	788.19
428.069	690.19
428.292	605.19
428.514	591.19
428.736	579.19
428.958	553.19
429.181	550.19
429.403	533.19
429.625	542.19
429.847	611.19
430.069	660.19
430.292	648.19
430.514	564.19
430.736	558.19
430.958	522.19
431.18	530.19
431.402	503.19
431.624	498.19
431.846	533.19
432.068	500.19
432.29	505.19
432.512	514.19
432.734	545.19
432.956	542.19
433.178	544.19
433.4	547.19
433.622	550.19
433.844	535.19
434.066	516.19
434.287	515.19
434.509	514.19
434.731	532.19
434.953	540.19
435.175	568.19
435.397	582.19
435.618	571.19
435.84	625.19
436.062	707.19
436.284	780.19
436.505	657.19
436.727	576.19
436.949	558.19
437.17	535.19
437.392	551.19
437.614	563.19
437.835	594.19
438.057	656.19
438.278	782.19
438.5	770.19
438.721	828.19
438.943	818.19
439.165	662.19
439.386	622.19
439.608	607.19
439.829	599.19
440.05	584.19
440.272	687.19
440.493	603.19
440.715	574.19
440.936	571.19
441.158	544.19
441.379	554.19
441.6	582.19
441.822	577.19
442.043	659.19
442.264	694.19
442.486	739.19
442.707	642.19
442.928	600.19
443.149	610.19
443.371	640.19
443.592	670.19
443.813	754.19
444.034	807.19
444.255	690.19
444.476	646.19
444.698	652.19
444.919	647.19
445.14	696.19
445.361	654.19
445.582	643.19
445.803	705.19
446.024	784.19
446.245	806.19
446.466	716.19
446.687	624.19
446.908	599.19
447.129	570.19
447.35	531.19
447.571	549.19
447.792	508.19
448.013	536.19
448.234	553.19
448.455	586.19
448.675	715.19
448.896	813.19
449.117	710.19
449.338	662.19
449.559	737.19
449.779	882.19
450	696.19
450.221	587.19
450.442	532.19
450.662	526.19
450.883	556.19
451.104	532.19
451.324	550.19
451.545	538.19
451.766	513.19
451.986	494.19
452.207	498.19
452.428	483.19
452.648	494.19
452.869	491.19
453.089	491.19
453.31	511.19
453.53	522.19
453.751	507.19
453.971	492.19
454.192	524.19
454.412	496.19
454.633	478.19
454.853	484.19
455.073	475.19
455.294	521.19
455.514	566.19
455.734	555.19
455.955	475.19
456.175	481.19
456.395	441.19
456.616	458.19
456.836	480.19
457.056	459.19
457.276	475.19
457.497	488.19
457.717	481.19
457.937	488.19
458.157	475.19
458.377	476.19
458.598	512.19
458.818	547.19
459.038	653.19
459.258	635.19
459.478	568.19
459.698	522.19
459.918	536.19
460.138	534.19
460.358	537.19
460.578	542.19
460.798	536.19
461.018	546.19
461.238	576.19
461.458	577.19
461.678	560.19
461.898	562.19
462.118	552.19
462.338	551.19
462.558	587.19
462.777	568.19
462.997	614.19
463.217	609.19
463.437	633.19
463.657	610.19
463.876	608.19
464.096	594.19
464.316	579.19
464.536	581.19
464.755	605.19
464.975	614.19
465.195	606.19
465.414	730.19
465.634	638.19
465.854	566.19
466.073	562.19
466.293	548.19
466.512	540.19
466.732	511.19
466.951	503.19
467.171	495.19
467.391	533.19
467.61	509.19
467.829	515.19
468.049	524.19
468.268	496.19
468.488	504.19
468.707	498.19
468.927	500.19
469.146	481.19
469.365	495.19
469.585	483.19
469.804	505.19
470.023	532.19
470.243	526.19
470.462	519.19
470.681	534.19
470.901	523.19
471.12	518.19
471.339	531.19
471.558	521.19
471.777	518.19
471.997	516.19
472.216	532.19
472.435	538.19
472.654	528.19
472.873	509.19
473.092	521.19
473.311	515.19
473.53	512.19
473.749	498.19
473.968	572.19
474.187	635.19
474.406	638.19
474.625	568.19
474.844	527.19
475.063	532.19
475.282	524.19
475.501	529.19
475.72	522.19
475.939	507.19
476.158	539.19
476.377	541.19
476.596	544.19
476.814	577.19
477.033	538.19
477.252	558.19
477.471	568.19
477.69	565.19
477.908	587.19
478.127	568.19
478.346	568.19
478.564	577.19
478.783	570.19
479.002	596.19
479.22	583.19
479.439	625.19
479.658	611.19
479.876	624.19
480.095	611.19
480.313	642.19
480.532	653.19
480.751	636.19
480.969	626.19
481.188	677.19
481.406	733.19
481.624	675.19
481.843	628.19
482.061	598.19
482.28	609.19
482.498	593.19
482.717	610.19
482.935	590.19
483.153	603.19
483.372	586.19
483.59	595.19
483.808	605.19
484.027	597.19
484.245	606.19
484.463	610.19
484.681	610.19
484.9	620.19
485.118	639.19
485.336	622.19
485.554	645.19
485.772	638.19
485.99	630.19
486.209	613.19
486.427	631.19
486.645	630.19
486.863	674.19
487.081	638.19
487.299	626.19
487.517	650.19
487.735	642.19
487.953	656.19
488.171	642.19
488.389	651.19
488.607	636.19
488.825	672.19
489.043	627.19
489.261	631.19
489.479	631.19
489.696	650.19
489.914	648.19
490.132	647.19
490.35	668.19
490.568	662.19
490.786	694.19
491.003	685.19
491.221	682.19
491.439	710.19
491.657	722.19
491.874	698.19
492.092	713.19
492.31	720.19
492.527	721.19
492.745	742.19
492.963	750.19
493.18	723.19
493.398	737.19
493.615	748.19
493.833	752.19
494.05	733.19
494.268	750.19
494.485	739.19
494.703	744.19
494.92	721.19
495.138	725.19
495.355	737.19
495.573	730.19
495.79	744.19
496.008	747.19
496.225	752.19
496.442	771.19
496.66	752.19
496.877	786.19
497.094	809.19
497.312	768.19
497.529	788.19
497.746	798.19
497.963	863.19
498.181	859.19
498.398	873.19
498.615	891.19
498.832	898.19
499.049	918.19
499.267	947.19
499.484	965.19
499.701	1002.19
499.918	1070.19
500.135	1134.19
500.352	1203.19
500.569	1208.19
500.786	1168.19
501.003	1168.19
501.22	1123.19
501.437	1062.19
501.654	1045.19
501.871	1027.19
502.088	993.19
502.305	916.19
502.522	934.19
502.739	893.19
502.956	854.19
503.172	841.19
503.389	819.19
503.606	809.19
503.823	794.19
504.04	832.19
504.256	803.19
504.473	800.19
504.69	793.19
504.907	788.19
505.123	746.19
505.34	750.19
505.557	727.19
505.773	741.19
505.99	718.19
506.207	732.19
506.423	743.19
506.64	723.19
506.856	709.19
507.073	714.19
507.289	699.19
507.506	697.19
507.722	743.19
507.939	727.19
508.155	706.19
508.372	704.19
508.588	675.19
508.805	687.19
509.021	696.19
509.238	706.19
509.454	677.19
509.67	679.19
509.887	687.19
510.103	655.19
510.319	683.19
510.536	740.19
510.752	1277.19
510.968	1046.19
511.184	704.19
511.401	656.19
511.617	651.19
511.833	648.19
512.049	645.19
512.265	660.19
512.481	650.19
512.698	640.19
512.914	635.19
513.13	639.19
513.346	630.19
513.562	650.19
513.778	626.19
513.994	626.19
514.21	645.19
514.426	661.19
514.642	696.19
514.858	722.19
515.074	745.19
515.29	894.19
515.506	1290.19
515.721	1087.19
515.937	772.19
516.153	722.19
516.369	702.19
516.585	715.19
516.801	677.19
517.016	664.19
517.232	703.19
517.448	679.19
517.664	698.19
517.879	706.19
518.095	706.19
518.311	679.19
518.527	681.19
518.742	677.19
518.958	663.19
519.173	672.19
519.389	666.19
519.605	663.19
519.82	664.19
520.036	670.19
520.251	691.19
520.467	698.19
520.682	711.19
520.898	680.19
521.113	726.19
521.329	734.19
521.544	818.19
521.76	1010.19
521.975	1658.19
522.19	1670.19
522.406	928.19
522.621	702.19
522.836	664.19
523.052	628.19
523.267	604.19
523.482	602.19
523.698	598.19
523.913	607.19
524.128	587.19
524.343	602.19
524.559	595.19
524.774	565.19
524.989	584.19
525.204	590.19
525.419	589.19
525.634	563.19
525.849	566.19
526.064	564.19
526.28	564.19
526.495	556.19
526.71	560.19
526.925	530.19
527.14	551.19
527.355	552.19
527.57	551.19
527.785	535.19
527.999	561.19
528.214	545.19
528.429	551.19
528.644	556.19
528.859	536.19
529.074	534.19
529.289	567.19
529.503	644.19
529.718	632.19
529.933	563.19
530.148	576.19
530.363	539.19
530.577	526.19
530.792	543.19
531.007	541.19
531.221	531.19
531.436	545.19
531.651	527.19
531.865	513.19
532.08	513.19
532.295	512.19
532.509	518.19
532.724	513.19
532.938	528.19
533.153	520.19
533.367	514.19
533.582	523.19
533.796	529.19
534.011	513.19
534.225	533.19
534.44	528.19
534.654	523.19
534.868	528.19
535.083	533.19
535.297	528.19
535.511	525.19
535.726	540.19
535.94	520.19
536.154	520.19
536.369	496.19
536.583	496.19
536.797	510.19
537.011	512.19
537.225	534.19
537.44	494.19
537.654	499.19
537.868	499.19
538.082	487.19
538.296	500.19
538.51	478.19
538.724	502.19
538.938	511.19
539.153	484.19
539.367	523.19
539.581	524.19
539.795	500.19
540.009	490.19
540.222	480.19
540.436	480.19
540.65	488.19
540.864	495.19
541.078	510.19
541.292	515.19
541.506	510.19
541.72	499.19
541.934	480.19
542.147	506.19
542.361	480.19
542.575	472.19
542.789	476.19
543.002	485.19
543.216	518.19
543.43	491.19
543.644	501.19
543.857	494.19
544.071	484.19
544.285	504.19
544.498	498.19
544.712	496.19
544.925	483.19
545.139	497.19
545.352	487.19
545.566	506.19
545.779	460.19
545.993	496.19
546.206	487.19
546.42	472.19
546.633	494.19
546.847	480.19
547.06	490.19
547.274	490.19
547.487	486.19
547.7	481.19
547.914	478.19
548.127	480.19
548.34	474.19
548.554	482.19
548.767	498.19
548.98	504.19
549.193	490.19
549.407	488.19
549.62	485.19
549.833	476.19
550.046	484.19
550.259	443.19
550.473	456.19
550.686	487.19
550.899	471.19
551.112	490.19
551.325	471.19
551.538	470.19
551.751	465.19
551.964	450.19
552.177	460.19
552.39	476.19
552.603	466.19
552.816	481.19
553.029	477.19
553.242	487.19
553.455	500.19
553.667	520.19
553.88	502.19
554.093	487.19
554.306	492.19
554.519	474.19
554.732	470.19
554.944	465.19
555.157	468.19
555.37	460.19
555.583	449.19
555.795	459.19
556.008	440.19
556.221	441.19
556.433	427.19
556.646	437.19
556.859	420.19
557.071	420.19
557.284	443.19
557.496	447.19
557.709	433.19
557.921	425.19
558.134	453.19
558.346	452.19
558.559	436.19
558.771	419.19
558.984	406.19
559.196	436.19
559.409	436.19
559.621	439.19
559.833	449.19
560.046	410.19
560.258	442.19
560.47	425.19
560.683	424.19
560.895	428.19
561.107	431.19
561.32	412.19
561.532	449.19
561.744	425.19
561.956	420.19
562.168	431.19
562.381	416.19
562.593	425.19
562.805	428.19
563.017	440.19
563.229	423.19
563.441	442.19
563.653	426.19
563.865	422.19
564.077	416.19
564.289	439.19
564.501	457.19
564.713	437.19
564.925	448.19
565.137	481.19
565.349	492.19
565.561	460.19
565.773	468.19
565.985	488.19
566.197	498.19
566.408	512.19
566.62	529.19
566.832	565.19
567.044	544.19
567.255	552.19
567.467	545.19
567.679	578.19
567.891	591.19
568.102	591.19
568.314	575.19
568.526	549.19
568.737	526.19
568.949	513.19
569.161	468.19
569.372	462.19
569.584	469.19
569.795	440.19
570.007	432.19
570.218	479.19
570.43	485.19
570.641	442.19
570.853	434.19
571.064	421.19
571.276	440.19
571.487	412.19
571.698	396.19
571.91	412.19
572.121	403.19
572.333	378.19
572.544	387.19
572.755	369.19
572.966	380.19
573.178	382.19
573.389	357.19
573.6	395.19
573.811	364.19
574.023	379.19
574.234	372.19
574.445	372.19
574.656	362.19
574.867	366.19
575.078	344.19
575.289	366.19
575.501	387.19
575.712	358.19
575.923	372.19
576.134	369.19
576.345	371.19
576.556	360.19
576.767	362.19
576.978	355.19
577.188	355.19
577.399	338.19
577.61	345.19
577.821	351.19
578.032	363.19
578.243	386.19
578.454	600.19
578.665	466.19
578.875	367.19
579.086	346.19
579.297	362.19
579.508	337.19
579.718	337.19
579.929	341.19
580.14	346.19
580.35	331.19
580.561	341.19
580.772	350.19
580.982	335.19
581.193	318.19
581.403	328.19
581.614	312.19
581.825	333.19
582.035	337.19
582.246	310.19
582.456	313.19
582.667	339.19
582.877	320.19
583.087	330.19
583.298	335.19
583.508	335.19
583.719	336.19
583.929	331.19
584.139	320.19
584.35	333.19
584.56	334.19
584.77	331.19
584.981	334.19
585.191	339.19
585.401	327.19
585.611	310.19
585.821	326.19
586.032	314.19
586.242	324.19
586.452	311.19
586.662	321.19
586.872	305.19
587.082	349.19
587.292	331.19
587.502	315.19
587.713	326.19
587.923	310.19
588.133	305.19
588.343	327.19
588.553	325.19
588.762	315.19
588.972	322.19
589.182	332.19
589.392	321.19
589.602	307.19
589.812	330.19
590.022	320.19
590.232	295.19
590.441	331.19
590.651	318.19
590.861	313.19
591.071	321.19
591.281	324.19
591.49	327.19
591.7	325.19
591.91	332.19
592.119	353.19
592.329	311.19
592.539	345.19
592.748	341.19
592.958	341.19
593.167	339.19
593.377	342.19
593.587	339.19
593.796	348.19
594.006	344.19
594.215	353.19
594.424	347.19
594.634	335.19
594.843	337.19
595.053	348.19
595.262	349.19
595.472	328.19
595.681	318.19
595.89	309.19
596.1	309.19
596.309	319.19
596.518	334.19
596.727	303.19
596.937	323.19
597.146	321.19
597.355	307.19
597.564	296.19
597.774	295.19
597.983	291.19
598.192	286.19
598.401	290.19
598.61	282.19
598.819	288.19
599.028	284.19
599.237	274.19
599.446	280.19
599.655	278.19
599.864	277.19
600.073	287.19
600.282	282.19
600.491	279.19
600.7	286.19
600.909	266.19
601.118	272.19
601.327	283.19
601.536	286.19
601.745	272.19
601.953	283.19
602.162	268.19
602.371	277.19
602.58	274.19
602.789	276.19
602.997	266.19
603.206	294.19
603.415	266.19
603.623	266.19
603.832	268.19
604.041	259.19
604.249	266.19
604.458	271.19
604.666	267.19
604.875	268.19
605.084	263.19
605.292	266.19
605.501	260.19
605.709	255.19
605.918	258.19
606.126	262.19
606.334	258.19
606.543	265.19
606.751	256.19
606.96	252.19
607.168	256.19
607.376	277.19
607.585	260.19
607.793	255.19
608.001	260.19
608.21	259.19
608.418	254.19
608.626	251.19
608.834	258.19
609.043	266.19
609.251	249.19
609.459	230.19
609.667	258.19
609.875	262.19
610.083	248.19
610.291	254.19
610.499	251.19
610.707	241.19
610.916	256.19
611.124	264.19
611.332	271.19
611.54	266.19
611.748	243.19
611.955	248.19
612.163	261.19
612.371	259.19
612.579	256.19
612.787	256.19
612.995	252.19
613.203	249.19
613.411	235.19
613.618	262.19
613.826	252.19
614.034	254.19
614.242	263.19
614.449	258.19
614.657	265.19
614.865	235.19
615.072	250.19
615.28	236.19
615.488	226.19
615.695	259.19
615.903	234.19
616.111	248.19
616.318	258.19
616.526	266.19
616.733	258.19
616.941	255.19
617.148	260.19
617.356	261.19
617.563	266.19
617.771	235.19
617.978	245.19
618.185	236.19
618.393	245.19
618.6	248.19
618.807	230.19
619.015	232.19
619.222	238.19
619.429	240.19
619.637	244.19
619.844	237.19
620.051	235.19
620.258	254.19
620.466	248.19
620.673	244.19
620.88	220.19
621.087	230.19
621.294	231.19
621.501	241.19
621.708	242.19
621.915	249.19
622.122	231.19
622.329	236.19
622.536	214.19
622.743	243.19
622.95	231.19
623.157	224.19
623.364	236.19
623.571	222.19
623.778	224.19
623.985	215.19
624.192	219.19
624.399	230.19
624.606	226.19
624.812	223.19
625.019	211.19
625.226	230.19
625.433	236.19
625.639	212.19
625.846	231.19
626.053	219.19
626.259	227.19
626.466	225.19
626.673	223.19
626.879	225.19
627.086	210.19
627.293	218.19
627.499	214.19
627.706	230.19
627.912	212.19
628.119	204.19
628.325	210.19
628.532	198.19
628.738	218.19
628.945	206.19
629.151	215.19
629.357	209.19
629.564	192.19
629.77	197.19
629.976	219.19
630.183	214.19
630.389	190.19
630.595	182.19
630.802	210.19
631.008	180.19
631.214	194.19
631.42	202.19
631.627	221.19
631.833	210.19
632.039	190.19
632.245	187.19
632.451	194.19
632.657	189.19
632.863	201.19
633.069	210.19
633.275	174.19
633.481	188.19
633.688	196.19
633.893	201.19
634.099	188.19
634.305	191.19
634.511	192.19
634.717	195.19
634.923	202.19
635.129	181.19
635.335	194.19
635.541	188.19
635.747	182.19
635.952	204.19
636.158	182.19
636.364	188.19
636.57	190.19
636.775	200.19
636.981	192.19
637.187	183.19
637.392	196.19
637.598	190.19
637.804	198.19
638.009	179.19
638.215	208.19
638.421	184.19
638.626	171.19
638.832	192.19
639.037	180.19
639.243	181.19
639.448	173.19
639.654	179.19
639.859	182.19
640.065	169.19
640.27	186.19
640.475	168.19
640.681	189.19
640.886	178.19
641.091	170.19
641.297	172.19
641.502	172.19
641.707	179.19
641.913	172.19
642.118	172.19
642.323	178.19
642.528	180.19
642.733	168.19
642.939	176.19
643.144	185.19
643.349	179.19
643.554	157.19
643.759	158.19
643.964	170.19
644.169	174.19
644.374	173.19
644.579	171.19
644.784	170.19
644.989	161.19
645.194	162.19
645.399	181.19
645.604	171.19
645.809	172.19
646.014	160.19
646.219	159.19
646.423	174.19
646.628	169.19
646.833	160.19
647.038	167.19
647.243	156.19
647.447	160.19
647.652	171.19
647.857	180.19
648.062	187.19
648.266	184.19
648.471	171.19
648.676	168.19
648.88	183.19
649.085	176.19
649.289	176.19
649.494	203.19
649.698	190.19
649.903	186.19
650.107	166.19
650.312	181.19
650.516	163.19
650.721	175.19
650.925	162.19
651.13	160.19
651.334	158.19
651.539	141.19
651.743	138.19
651.947	159.19
652.152	154.19
652.356	150.19
652.56	145.19
652.764	157.19
652.969	153.19
653.173	128.19
653.377	138.19
653.581	135.19
653.785	146.19
653.99	134.19
654.194	148.19
654.398	142.19
654.602	151.19
654.806	139.19
655.01	158.19
655.214	149.19
655.418	148.19
655.622	120.19
655.826	137.19
656.03	123.19
656.234	134.19
656.438	155.19
656.642	147.19
656.846	150.19
657.049	141.19
657.253	121.19
657.457	132.19
657.661	122.19
657.865	129.19
658.068	119.19
658.272	99.19
658.476	118.19
658.68	116.19
658.883	106.19
659.087	103.19
659.291	102.19
659.494	104.19
659.698	105.19
659.901	91.19
660.105	103.19
660.309	96.19
660.512	88.19
660.716	98.19
660.919	93.19
661.123	98.19
661.326	90.19
661.53	82.19
661.733	87.19
661.936	92.19
662.14	84.19
662.343	80.19
662.546	71.19
662.75	78.19
662.953	82.19
663.156	90.19
663.36	74.19
663.563	83.19
663.766	76.19
663.969	81.19
664.173	68.19
664.376	85.19
664.579	82.19
664.782	70.19
664.985	81.19
665.188	79.19
665.391	70.19
665.594	84.19
665.797	86.19
666	85.19
666.203	81.19
666.406	86.19
666.609	74.19
666.812	77.19
667.015	82.19
667.218	74.19
667.421	78.19
667.624	92.19
667.827	75.19
668.03	76.19
668.232	72.19
668.435	78.19
668.638	72.19
668.841	82.19
669.043	87.19
669.246	76.19
669.449	75.19
669.651	86.19
669.854	80.19
670.057	86.19
670.259	82.19
670.462	86.19
670.665	67.19
670.867	94.19
671.07	68.19
671.272	90.19
671.475	90.19
671.677	85.19
671.88	87.19
672.082	74.19
672.284	92.19
672.487	79.19
672.689	87.19
672.892	80.19
