Data from Location5.07152019.Energy5.Lamp.07192019.3%Agarose_HRD10591_16-03-27-629.txt Node
Date: Fri Jul 19 16:03:27 EDT 2019
User: cochatt
Spectrometer: HR+D1059
Trigger mode: 1
Integration Time (sec): 1.000000E-1
Scans to average: 1
Electric dark correction enabled: true
Nonlinearity correction enabled: false
Boxcar width: 0
XAxis mode: Wavelengths
Number of Pixels in Spectrum: 2048
>>>>>Begin Spectral Data<<<<<
223.165	-11.88
223.4	-11.88
223.635	-11.88
223.869	-22.88
224.104	-20.88
224.338	-3.88
224.573	-17.88
224.808	-10.88
225.042	-13.88
225.277	-9.88
225.511	-2.88
225.746	7.12
225.98	5.12
226.215	8.12
226.449	12.12
226.683	16.12
226.918	35.12
227.152	31.12
227.387	33.12
227.621	25.12
227.856	42.12
228.09	41.12
228.324	47.12
228.559	67.12
228.793	36.12
229.027	53.12
229.262	61.12
229.496	55.12
229.73	76.12
229.964	60.12
230.199	75.12
230.433	75.12
230.667	74.12
230.901	68.12
231.136	76.12
231.37	78.12
231.604	97.12
231.838	96.12
232.072	73.12
232.306	81.12
232.541	78.12
232.775	71.12
233.009	75.12
233.243	69.12
233.477	78.12
233.711	79.12
233.945	90.12
234.179	78.12
234.413	98.12
234.647	83.12
234.881	67.12
235.115	81.12
235.349	66.12
235.583	78.12
235.817	79.12
236.051	64.12
236.285	73.12
236.519	71.12
236.753	78.12
236.987	81.12
237.221	76.12
237.455	70.12
237.689	69.12
237.922	73.12
238.156	74.12
238.39	79.12
238.624	78.12
238.858	67.12
239.091	83.12
239.325	74.12
239.559	70.12
239.793	74.12
240.027	71.12
240.26	65.12
240.494	84.12
240.728	79.12
240.961	67.12
241.195	81.12
241.429	81.12
241.662	67.12
241.896	72.12
242.13	78.12
242.363	85.12
242.597	71.12
242.83	84.12
243.064	76.12
243.298	88.12
243.531	77.12
243.765	75.12
243.998	89.12
244.232	87.12
244.465	76.12
244.699	89.12
244.932	62.12
245.166	71.12
245.399	80.12
245.633	75.12
245.866	71.12
246.099	81.12
246.333	68.12
246.566	73.12
246.8	74.12
247.033	56.12
247.266	84.12
247.5	85.12
247.733	80.12
247.966	72.12
248.2	85.12
248.433	76.12
248.666	76.12
248.899	72.12
249.133	65.12
249.366	74.12
249.599	76.12
249.832	69.12
250.066	78.12
250.299	84.12
250.532	80.12
250.765	90.12
250.998	75.12
251.231	76.12
251.465	80.12
251.698	78.12
251.931	90.12
252.164	84.12
252.397	78.12
252.63	86.12
252.863	92.12
253.096	79.12
253.329	77.12
253.562	74.12
253.795	84.12
254.028	85.12
254.261	83.12
254.494	70.12
254.727	77.12
254.96	86.12
255.193	66.12
255.426	75.12
255.659	80.12
255.892	82.12
256.124	74.12
256.357	70.12
256.59	85.12
256.823	86.12
257.056	81.12
257.289	87.12
257.521	78.12
257.754	64.12
257.987	73.12
258.22	67.12
258.452	79.12
258.685	85.12
258.918	80.12
259.151	80.12
259.383	90.12
259.616	77.12
259.849	88.12
260.081	79.12
260.314	74.12
260.547	72.12
260.779	76.12
261.012	71.12
261.244	78.12
261.477	83.12
261.71	69.12
261.942	73.12
262.175	82.12
262.407	82.12
262.64	72.12
262.872	82.12
263.105	65.12
263.337	87.12
263.57	68.12
263.802	90.12
264.035	86.12
264.267	105.12
264.499	79.12
264.732	84.12
264.964	80.12
265.197	84.12
265.429	81.12
265.661	85.12
265.894	74.12
266.126	81.12
266.358	93.12
266.591	79.12
266.823	85.12
267.055	82.12
267.287	84.12
267.52	84.12
267.752	90.12
267.984	72.12
268.216	86.12
268.448	82.12
268.681	72.12
268.913	69.12
269.145	82.12
269.377	91.12
269.609	81.12
269.841	84.12
270.073	81.12
270.306	85.12
270.538	76.12
270.77	85.12
271.002	92.12
271.234	92.12
271.466	93.12
271.698	81.12
271.93	91.12
272.162	91.12
272.394	86.12
272.626	77.12
272.858	76.12
273.09	83.12
273.322	85.12
273.553	89.12
273.785	64.12
274.017	92.12
274.249	86.12
274.481	75.12
274.713	82.12
274.945	87.12
275.176	78.12
275.408	82.12
275.64	89.12
275.872	89.12
276.104	96.12
276.335	89.12
276.567	91.12
276.799	94.12
277.031	87.12
277.262	82.12
277.494	74.12
277.726	88.12
277.957	90.12
278.189	95.12
278.421	82.12
278.652	91.12
278.884	94.12
279.115	76.12
279.347	75.12
279.579	91.12
279.81	94.12
280.042	95.12
280.273	97.12
280.505	91.12
280.736	83.12
280.968	83.12
281.199	90.12
281.431	86.12
281.662	84.12
281.894	85.12
282.125	94.12
282.356	86.12
282.588	84.12
282.819	84.12
283.051	85.12
283.282	74.12
283.513	94.12
283.745	80.12
283.976	90.12
284.207	89.12
284.439	80.12
284.67	81.12
284.901	75.12
285.132	94.12
285.364	82.12
285.595	82.12
285.826	88.12
286.057	98.12
286.288	84.12
286.52	88.12
286.751	85.12
286.982	82.12
287.213	90.12
287.444	103.12
287.675	91.12
287.906	81.12
288.138	87.12
288.369	87.12
288.6	79.12
288.831	74.12
289.062	89.12
289.293	86.12
289.524	77.12
289.755	80.12
289.986	92.12
290.217	74.12
290.448	80.12
290.679	86.12
290.91	92.12
291.141	73.12
291.371	90.12
291.602	73.12
291.833	80.12
292.064	86.12
292.295	100.12
292.526	81.12
292.757	87.12
292.987	77.12
293.218	92.12
293.449	90.12
293.68	87.12
293.91	92.12
294.141	86.12
294.372	78.12
294.603	99.12
294.833	95.12
295.064	81.12
295.295	82.12
295.525	101.12
295.756	82.12
295.987	78.12
296.217	77.12
296.448	78.12
296.679	81.12
296.909	79.12
297.14	85.12
297.37	92.12
297.601	80.12
297.831	92.12
298.062	92.12
298.292	88.12
298.523	88.12
298.753	92.12
298.984	94.12
299.214	83.12
299.445	103.12
299.675	103.12
299.905	87.12
300.136	76.12
300.366	76.12
300.597	81.12
300.827	85.12
301.057	92.12
301.288	90.12
301.518	96.12
301.748	98.12
301.979	87.12
302.209	81.12
302.439	93.12
302.669	91.12
302.9	82.12
303.13	73.12
303.36	88.12
303.59	89.12
303.82	94.12
304.051	93.12
304.281	77.12
304.511	93.12
304.741	82.12
304.971	90.12
305.201	94.12
305.431	91.12
305.661	89.12
305.891	89.12
306.121	91.12
306.352	80.12
306.582	78.12
306.812	93.12
307.042	94.12
307.272	90.12
307.502	94.12
307.731	87.12
307.961	83.12
308.191	85.12
308.421	79.12
308.651	84.12
308.881	94.12
309.111	79.12
309.341	90.12
309.571	96.12
309.8	77.12
310.03	96.12
310.26	68.12
310.49	91.12
310.72	83.12
310.949	98.12
311.179	82.12
311.409	90.12
311.639	89.12
311.868	85.12
312.098	81.12
312.328	102.12
312.557	89.12
312.787	85.12
313.017	80.12
313.246	82.12
313.476	85.12
313.706	88.12
313.935	94.12
314.165	77.12
314.394	96.12
314.624	88.12
314.853	80.12
315.083	84.12
315.312	91.12
315.542	99.12
315.771	79.12
316.001	98.12
316.23	97.12
316.46	95.12
316.689	93.12
316.919	94.12
317.148	96.12
317.377	79.12
317.607	89.12
317.836	92.12
318.065	81.12
318.295	96.12
318.524	97.12
318.753	78.12
318.983	90.12
319.212	89.12
319.441	105.12
319.67	97.12
319.9	84.12
320.129	95.12
320.358	88.12
320.587	82.12
320.816	89.12
321.046	88.12
321.275	99.12
321.504	90.12
321.733	85.12
321.962	99.12
322.191	89.12
322.42	96.12
322.649	86.12
322.878	93.12
323.108	87.12
323.337	97.12
323.566	82.12
323.795	79.12
324.024	93.12
324.253	85.12
324.482	85.12
324.71	95.12
324.939	92.12
325.168	91.12
325.397	74.12
325.626	90.12
325.855	93.12
326.084	105.12
326.313	96.12
326.542	85.12
326.77	99.12
326.999	101.12
327.228	100.12
327.457	99.12
327.686	99.12
327.914	96.12
328.143	99.12
328.372	109.12
328.6	87.12
328.829	100.12
329.058	79.12
329.287	92.12
329.515	100.12
329.744	92.12
329.972	93.12
330.201	86.12
330.43	97.12
330.658	93.12
330.887	93.12
331.115	99.12
331.344	89.12
331.572	89.12
331.801	93.12
332.03	95.12
332.258	93.12
332.486	92.12
332.715	84.12
332.943	98.12
333.172	86.12
333.4	73.12
333.629	91.12
333.857	93.12
334.085	89.12
334.314	93.12
334.542	96.12
334.771	89.12
334.999	93.12
335.227	105.12
335.455	90.12
335.684	89.12
335.912	88.12
336.14	73.12
336.369	93.12
336.597	92.12
336.825	103.12
337.053	81.12
337.281	92.12
337.51	95.12
337.738	89.12
337.966	84.12
338.194	87.12
338.422	87.12
338.65	93.12
338.878	87.12
339.106	105.12
339.334	92.12
339.562	96.12
339.79	93.12
340.018	93.12
340.246	85.12
340.474	78.12
340.702	85.12
340.93	87.12
341.158	84.12
341.386	102.12
341.614	81.12
341.842	96.12
342.07	95.12
342.298	90.12
342.526	79.12
342.754	94.12
342.981	98.12
343.209	87.12
343.437	86.12
343.665	94.12
343.893	85.12
344.12	77.12
344.348	101.12
344.576	90.12
344.804	90.12
345.031	86.12
345.259	87.12
345.487	83.12
345.714	89.12
345.942	90.12
346.17	87.12
346.397	94.12
346.625	90.12
346.853	99.12
347.08	92.12
347.308	86.12
347.535	88.12
347.763	95.12
347.99	89.12
348.218	94.12
348.445	101.12
348.673	79.12
348.9	100.12
349.128	91.12
349.355	90.12
349.583	77.12
349.81	80.12
350.037	95.12
350.265	79.12
350.492	79.12
350.72	92.12
350.947	85.12
351.174	89.12
351.402	89.12
351.629	75.12
351.856	82.12
352.083	85.12
352.311	93.12
352.538	102.12
352.765	85.12
352.992	80.12
353.22	95.12
353.447	96.12
353.674	90.12
353.901	77.12
354.128	76.12
354.355	73.12
354.583	84.12
354.81	92.12
355.037	108.12
355.264	102.12
355.491	79.12
355.718	80.12
355.945	88.12
356.172	98.12
356.399	87.12
356.626	103.12
356.853	80.12
357.08	102.12
357.307	75.12
357.534	71.12
357.761	80.12
357.988	84.12
358.215	86.12
358.441	91.12
358.668	81.12
358.895	83.12
359.122	85.12
359.349	94.12
359.576	87.12
359.802	87.12
360.029	85.12
360.256	86.12
360.483	78.12
360.709	84.12
360.936	96.12
361.163	85.12
361.39	90.12
361.616	91.12
361.843	94.12
362.07	78.12
362.296	88.12
362.523	74.12
362.749	93.12
362.976	82.12
363.203	98.12
363.429	80.12
363.656	89.12
363.882	77.12
364.109	82.12
364.335	90.12
364.562	83.12
364.788	82.12
365.015	80.12
365.241	78.12
365.468	92.12
365.694	93.12
365.92	80.12
366.147	87.12
366.373	87.12
366.599	109.12
366.826	89.12
367.052	78.12
367.278	74.12
367.505	84.12
367.731	85.12
367.957	90.12
368.184	87.12
368.41	93.12
368.636	98.12
368.862	97.12
369.089	80.12
369.315	88.12
369.541	90.12
369.767	77.12
369.993	97.12
370.219	93.12
370.445	94.12
370.672	93.12
370.898	81.12
371.124	94.12
371.35	88.12
371.576	82.12
371.802	76.12
372.028	90.12
372.254	88.12
372.48	101.12
372.706	99.12
372.932	82.12
373.158	94.12
373.384	84.12
373.61	105.12
373.835	92.12
374.061	77.12
374.287	98.12
374.513	93.12
374.739	100.12
374.965	78.12
375.191	81.12
375.416	102.12
375.642	96.12
375.868	87.12
376.094	91.12
376.319	74.12
376.545	86.12
376.771	79.12
376.997	85.12
377.222	93.12
377.448	85.12
377.674	76.12
377.899	92.12
378.125	72.12
378.35	83.12
378.576	92.12
378.802	99.12
379.027	85.12
379.253	80.12
379.478	90.12
379.704	84.12
379.929	100.12
380.155	79.12
380.38	92.12
380.606	83.12
380.831	96.12
381.057	106.12
381.282	85.12
381.507	85.12
381.733	93.12
381.958	80.12
382.184	100.12
382.409	88.12
382.634	81.12
382.86	78.12
383.085	105.12
383.31	86.12
383.535	93.12
383.761	90.12
383.986	96.12
384.211	103.12
384.436	94.12
384.662	86.12
384.887	93.12
385.112	77.12
385.337	86.12
385.562	92.12
385.787	71.12
386.013	92.12
386.238	86.12
386.463	97.12
386.688	95.12
386.913	87.12
387.138	81.12
387.363	82.12
387.588	90.12
387.813	86.12
388.038	95.12
388.263	91.12
388.488	96.12
388.713	94.12
388.938	95.12
389.163	82.12
389.387	82.12
389.612	81.12
389.837	88.12
390.062	96.12
390.287	96.12
390.512	95.12
390.736	84.12
390.961	92.12
391.186	86.12
391.411	94.12
391.636	81.12
391.86	80.12
392.085	83.12
392.31	102.12
392.534	95.12
392.759	102.12
392.984	98.12
393.208	95.12
393.433	92.12
393.658	94.12
393.882	85.12
394.107	79.12
394.331	78.12
394.556	92.12
394.78	70.12
395.005	89.12
395.229	94.12
395.454	94.12
395.678	82.12
395.903	87.12
396.127	83.12
396.352	107.12
396.576	97.12
396.801	99.12
397.025	84.12
397.249	76.12
397.474	93.12
397.698	86.12
397.922	95.12
398.147	97.12
398.371	98.12
398.595	79.12
398.82	85.12
399.044	90.12
399.268	96.12
399.492	96.12
399.717	96.12
399.941	110.12
400.165	95.12
400.389	87.12
400.613	87.12
400.837	81.12
401.062	79.12
401.286	101.12
401.51	102.12
401.734	86.12
401.958	96.12
402.182	82.12
402.406	99.12
402.63	105.12
402.854	104.12
403.078	99.12
403.302	96.12
403.526	87.12
403.75	104.12
403.974	108.12
404.198	95.12
404.422	95.12
404.645	90.12
404.869	80.12
405.093	96.12
405.317	106.12
405.541	86.12
405.765	110.12
405.988	97.12
406.212	96.12
406.436	85.12
406.66	90.12
406.883	102.12
407.107	88.12
407.331	79.12
407.555	112.12
407.778	87.12
408.002	104.12
408.226	98.12
408.449	93.12
408.673	92.12
408.896	93.12
409.12	104.12
409.344	93.12
409.567	87.12
409.791	94.12
410.014	99.12
410.238	96.12
410.461	90.12
410.685	99.12
410.908	103.12
411.132	97.12
411.355	85.12
411.578	90.12
411.802	84.12
412.025	89.12
412.249	104.12
412.472	96.12
412.695	100.12
412.919	89.12
413.142	94.12
413.365	103.12
413.589	89.12
413.812	91.12
414.035	89.12
414.258	85.12
414.482	86.12
414.705	87.12
414.928	96.12
415.151	82.12
415.374	96.12
415.597	91.12
415.821	105.12
416.044	85.12
416.267	85.12
416.49	94.12
416.713	98.12
416.936	89.12
417.159	91.12
417.382	84.12
417.605	86.12
417.828	104.12
418.051	93.12
418.274	92.12
418.497	80.12
418.72	93.12
418.943	88.12
419.166	97.12
419.389	91.12
419.611	92.12
419.834	101.12
420.057	102.12
420.28	89.12
420.503	92.12
420.726	100.12
420.948	87.12
421.171	108.12
421.394	86.12
421.617	103.12
421.839	95.12
422.062	78.12
422.285	94.12
422.507	80.12
422.73	88.12
422.953	85.12
423.175	94.12
423.398	87.12
423.621	86.12
423.843	94.12
424.066	84.12
424.288	97.12
424.511	94.12
424.733	100.12
424.956	80.12
425.178	86.12
425.401	96.12
425.623	104.12
425.846	100.12
426.068	90.12
426.291	90.12
426.513	92.12
426.735	92.12
426.958	104.12
427.18	88.12
427.402	87.12
427.625	105.12
427.847	74.12
428.069	96.12
428.292	94.12
428.514	94.12
428.736	102.12
428.958	78.12
429.181	97.12
429.403	85.12
429.625	81.12
429.847	84.12
430.069	93.12
430.292	90.12
430.514	88.12
430.736	84.12
430.958	83.12
431.18	80.12
431.402	88.12
431.624	66.12
431.846	106.12
432.068	88.12
432.29	89.12
432.512	82.12
432.734	93.12
432.956	88.12
433.178	91.12
433.4	96.12
433.622	95.12
433.844	93.12
434.066	95.12
434.287	92.12
434.509	86.12
434.731	96.12
434.953	75.12
435.175	85.12
435.397	88.12
435.618	98.12
435.84	89.12
436.062	84.12
436.284	96.12
436.505	83.12
436.727	96.12
436.949	87.12
437.17	103.12
437.392	88.12
437.614	74.12
437.835	93.12
438.057	87.12
438.278	92.12
438.5	97.12
438.721	82.12
438.943	88.12
439.165	84.12
439.386	92.12
439.608	90.12
439.829	94.12
440.05	81.12
440.272	98.12
440.493	77.12
440.715	94.12
440.936	93.12
441.158	113.12
441.379	80.12
441.6	93.12
441.822	94.12
442.043	94.12
442.264	90.12
442.486	96.12
442.707	87.12
442.928	86.12
443.149	92.12
443.371	96.12
443.592	93.12
443.813	94.12
444.034	95.12
444.255	97.12
444.476	81.12
444.698	90.12
444.919	92.12
445.14	205.12
445.361	139.12
445.582	109.12
445.803	84.12
446.024	101.12
446.245	96.12
446.466	95.12
446.687	100.12
446.908	94.12
447.129	87.12
447.35	69.12
447.571	85.12
447.792	80.12
448.013	82.12
448.234	88.12
448.455	84.12
448.675	93.12
448.896	92.12
449.117	102.12
449.338	89.12
449.559	99.12
449.779	100.12
450	83.12
450.221	90.12
450.442	99.12
450.662	95.12
450.883	88.12
451.104	79.12
451.324	80.12
451.545	81.12
451.766	93.12
451.986	92.12
452.207	98.12
452.428	101.12
452.648	80.12
452.869	88.12
453.089	84.12
453.31	79.12
453.53	76.12
453.751	93.12
453.971	104.12
454.192	74.12
454.412	89.12
454.633	80.12
454.853	77.12
455.073	88.12
455.294	90.12
455.514	73.12
455.734	77.12
455.955	84.12
456.175	84.12
456.395	82.12
456.616	95.12
456.836	93.12
457.056	81.12
457.276	93.12
457.497	85.12
457.717	85.12
457.937	82.12
458.157	92.12
458.377	89.12
458.598	77.12
458.818	91.12
459.038	103.12
459.258	92.12
459.478	110.12
459.698	88.12
459.918	88.12
460.138	91.12
460.358	91.12
460.578	88.12
460.798	105.12
461.018	94.12
461.238	106.12
461.458	101.12
461.678	91.12
461.898	87.12
462.118	101.12
462.338	91.12
462.558	98.12
462.777	96.12
462.997	94.12
463.217	90.12
463.437	109.12
463.657	83.12
463.876	93.12
464.096	88.12
464.316	89.12
464.536	100.12
464.755	83.12
464.975	105.12
465.195	101.12
465.414	104.12
465.634	93.12
465.854	84.12
466.073	79.12
466.293	81.12
466.512	100.12
466.732	108.12
466.951	100.12
467.171	98.12
467.391	102.12
467.61	114.12
467.829	100.12
468.049	114.12
468.268	88.12
468.488	78.12
468.707	89.12
468.927	94.12
469.146	108.12
469.365	77.12
469.585	92.12
469.804	82.12
470.023	89.12
470.243	86.12
470.462	114.12
470.681	92.12
470.901	80.12
471.12	93.12
471.339	92.12
471.558	86.12
471.777	93.12
471.997	92.12
472.216	94.12
472.435	93.12
472.654	81.12
472.873	108.12
473.092	80.12
473.311	92.12
473.53	80.12
473.749	88.12
473.968	99.12
474.187	105.12
474.406	84.12
474.625	86.12
474.844	96.12
475.063	83.12
475.282	98.12
475.501	92.12
475.72	94.12
475.939	100.12
476.158	103.12
476.377	96.12
476.596	110.12
476.814	104.12
477.033	99.12
477.252	105.12
477.471	95.12
477.69	94.12
477.908	98.12
478.127	104.12
478.346	98.12
478.564	91.12
478.783	98.12
479.002	95.12
479.22	111.12
479.439	88.12
479.658	105.12
479.876	111.12
480.095	93.12
480.313	96.12
480.532	103.12
480.751	101.12
480.969	85.12
481.188	104.12
481.406	100.12
481.624	96.12
481.843	96.12
482.061	95.12
482.28	96.12
482.498	92.12
482.717	99.12
482.935	97.12
483.153	105.12
483.372	99.12
483.59	93.12
483.808	93.12
484.027	88.12
484.245	98.12
484.463	93.12
484.681	111.12
484.9	117.12
485.118	107.12
485.336	100.12
485.554	100.12
485.772	94.12
485.99	96.12
486.209	100.12
486.427	89.12
486.645	99.12
486.863	110.12
487.081	112.12
487.299	92.12
487.517	112.12
487.735	84.12
487.953	110.12
488.171	104.12
488.389	88.12
488.607	102.12
488.825	111.12
489.043	104.12
489.261	112.12
489.479	100.12
489.696	84.12
489.914	103.12
490.132	113.12
490.35	101.12
490.568	112.12
490.786	102.12
491.003	101.12
491.221	115.12
491.439	113.12
491.657	103.12
491.874	116.12
492.092	104.12
492.31	110.12
492.527	108.12
492.745	103.12
492.963	112.12
493.18	110.12
493.398	98.12
493.615	101.12
493.833	109.12
494.05	111.12
494.268	103.12
494.485	106.12
494.703	91.12
494.92	116.12
495.138	101.12
495.355	115.12
495.573	123.12
495.79	94.12
496.008	105.12
496.225	121.12
496.442	111.12
496.66	112.12
496.877	104.12
497.094	114.12
497.312	97.12
497.529	110.12
497.746	109.12
497.963	111.12
498.181	103.12
498.398	97.12
498.615	112.12
498.832	110.12
499.049	116.12
499.267	119.12
499.484	114.12
499.701	109.12
499.918	136.12
500.135	133.12
500.352	150.12
500.569	148.12
500.786	153.12
501.003	131.12
501.22	133.12
501.437	141.12
501.654	118.12
501.871	117.12
502.088	122.12
502.305	101.12
502.522	122.12
502.739	119.12
502.956	115.12
503.172	110.12
503.389	116.12
503.606	113.12
503.823	103.12
504.04	110.12
504.256	115.12
504.473	113.12
504.69	111.12
504.907	97.12
505.123	94.12
505.34	98.12
505.557	98.12
505.773	103.12
505.99	108.12
506.207	110.12
506.423	103.12
506.64	110.12
506.856	92.12
507.073	94.12
507.289	102.12
507.506	101.12
507.722	97.12
507.939	96.12
508.155	97.12
508.372	97.12
508.588	111.12
508.805	96.12
509.021	105.12
509.238	93.12
509.454	99.12
509.67	97.12
509.887	101.12
510.103	100.12
510.319	99.12
510.536	95.12
510.752	102.12
510.968	97.12
511.184	102.12
511.401	98.12
511.617	101.12
511.833	103.12
512.049	90.12
512.265	120.12
512.481	106.12
512.698	91.12
512.914	97.12
513.13	100.12
513.346	92.12
513.562	93.12
513.778	101.12
513.994	103.12
514.21	104.12
514.426	105.12
514.642	109.12
514.858	86.12
515.074	103.12
515.29	105.12
515.506	98.12
515.721	100.12
515.937	88.12
516.153	96.12
516.369	93.12
516.585	91.12
516.801	99.12
517.016	102.12
517.232	101.12
517.448	96.12
517.664	92.12
517.879	111.12
518.095	109.12
518.311	118.12
518.527	99.12
518.742	97.12
518.958	109.12
519.173	116.12
519.389	100.12
519.605	103.12
519.82	106.12
520.036	93.12
520.251	91.12
520.467	90.12
520.682	93.12
520.898	102.12
521.113	97.12
521.329	101.12
521.544	94.12
521.76	95.12
521.975	100.12
522.19	97.12
522.406	102.12
522.621	105.12
522.836	84.12
523.052	94.12
523.267	94.12
523.482	106.12
523.698	86.12
523.913	102.12
524.128	105.12
524.343	105.12
524.559	98.12
524.774	98.12
524.989	95.12
525.204	93.12
525.419	98.12
525.634	94.12
525.849	101.12
526.064	117.12
526.28	108.12
526.495	104.12
526.71	103.12
526.925	83.12
527.14	95.12
527.355	86.12
527.57	93.12
527.785	82.12
527.999	104.12
528.214	96.12
528.429	95.12
528.644	103.12
528.859	101.12
529.074	103.12
529.289	105.12
529.503	94.12
529.718	102.12
529.933	91.12
530.148	86.12
530.363	89.12
530.577	95.12
530.792	83.12
531.007	89.12
531.221	98.12
531.436	93.12
531.651	98.12
531.865	85.12
532.08	101.12
532.295	98.12
532.509	103.12
532.724	100.12
532.938	89.12
533.153	98.12
533.367	97.12
533.582	92.12
533.796	93.12
534.011	107.12
534.225	87.12
534.44	96.12
534.654	82.12
534.868	88.12
535.083	98.12
535.297	95.12
535.511	97.12
535.726	95.12
535.94	94.12
536.154	112.12
536.369	95.12
536.583	86.12
536.797	92.12
537.011	97.12
537.225	110.12
537.44	109.12
537.654	90.12
537.868	97.12
538.082	87.12
538.296	89.12
538.51	98.12
538.724	92.12
538.938	85.12
539.153	106.12
539.367	96.12
539.581	100.12
539.795	98.12
540.009	89.12
540.222	103.12
540.436	101.12
540.65	109.12
540.864	97.12
541.078	92.12
541.292	99.12
541.506	94.12
541.72	94.12
541.934	103.12
542.147	106.12
542.361	95.12
542.575	112.12
542.789	97.12
543.002	117.12
543.216	98.12
543.43	81.12
543.644	89.12
543.857	99.12
544.071	96.12
544.285	104.12
544.498	92.12
544.712	120.12
544.925	113.12
545.139	109.12
545.352	97.12
545.566	94.12
545.779	104.12
545.993	98.12
546.206	90.12
546.42	101.12
546.633	121.12
546.847	95.12
547.06	102.12
547.274	100.12
547.487	96.12
547.7	117.12
547.914	98.12
548.127	80.12
548.34	108.12
548.554	100.12
548.767	97.12
548.98	93.12
549.193	86.12
549.407	101.12
549.62	93.12
549.833	88.12
550.046	104.12
550.259	113.12
550.473	108.12
550.686	109.12
550.899	94.12
551.112	104.12
551.325	92.12
551.538	90.12
551.751	85.12
551.964	98.12
552.177	98.12
552.39	88.12
552.603	93.12
552.816	95.12
553.029	99.12
553.242	92.12
553.455	79.12
553.667	91.12
553.88	110.12
554.093	95.12
554.306	95.12
554.519	98.12
554.732	101.12
554.944	101.12
555.157	90.12
555.37	104.12
555.583	109.12
555.795	89.12
556.008	96.12
556.221	108.12
556.433	109.12
556.646	99.12
556.859	99.12
557.071	95.12
557.284	103.12
557.496	85.12
557.709	83.12
557.921	106.12
558.134	94.12
558.346	80.12
558.559	89.12
558.771	101.12
558.984	91.12
559.196	103.12
559.409	104.12
559.621	98.12
559.833	98.12
560.046	95.12
560.258	93.12
560.47	106.12
560.683	95.12
560.895	101.12
561.107	90.12
561.32	94.12
561.532	88.12
561.744	96.12
561.956	76.12
562.168	92.12
562.381	101.12
562.593	77.12
562.805	96.12
563.017	104.12
563.229	88.12
563.441	98.12
563.653	94.12
563.865	93.12
564.077	82.12
564.289	97.12
564.501	91.12
564.713	90.12
564.925	97.12
565.137	110.12
565.349	107.12
565.561	99.12
565.773	101.12
565.985	112.12
566.197	104.12
566.408	95.12
566.62	101.12
566.832	95.12
567.044	92.12
567.255	88.12
567.467	106.12
567.679	112.12
567.891	103.12
568.102	100.12
568.314	97.12
568.526	113.12
568.737	96.12
568.949	103.12
569.161	94.12
569.372	96.12
569.584	104.12
569.795	87.12
570.007	90.12
570.218	93.12
570.43	82.12
570.641	79.12
570.853	83.12
571.064	96.12
571.276	85.12
571.487	94.12
571.698	114.12
571.91	100.12
572.121	101.12
572.333	96.12
572.544	91.12
572.755	99.12
572.966	87.12
573.178	85.12
573.389	89.12
573.6	88.12
573.811	80.12
574.023	88.12
574.234	93.12
574.445	102.12
574.656	89.12
574.867	76.12
575.078	94.12
575.289	76.12
575.501	94.12
575.712	95.12
575.923	77.12
576.134	80.12
576.345	83.12
576.556	82.12
576.767	86.12
576.978	99.12
577.188	99.12
577.399	78.12
577.61	85.12
577.821	93.12
578.032	81.12
578.243	90.12
578.454	98.12
578.665	94.12
578.875	82.12
579.086	94.12
579.297	89.12
579.508	96.12
579.718	73.12
579.929	97.12
580.14	95.12
580.35	90.12
580.561	94.12
580.772	94.12
580.982	85.12
581.193	99.12
581.403	87.12
581.614	88.12
581.825	81.12
582.035	89.12
582.246	86.12
582.456	87.12
582.667	70.12
582.877	94.12
583.087	93.12
583.298	88.12
583.508	79.12
583.719	89.12
583.929	105.12
584.139	83.12
584.35	90.12
584.56	87.12
584.77	94.12
584.981	82.12
585.191	94.12
585.401	94.12
585.611	79.12
585.821	85.12
586.032	84.12
586.242	92.12
586.452	82.12
586.662	85.12
586.872	87.12
587.082	94.12
587.292	93.12
587.502	94.12
587.713	81.12
587.923	85.12
588.133	93.12
588.343	86.12
588.553	98.12
588.762	103.12
588.972	91.12
589.182	113.12
589.392	92.12
589.602	87.12
589.812	108.12
590.022	94.12
590.232	86.12
590.441	79.12
590.651	78.12
590.861	92.12
591.071	87.12
591.281	86.12
591.49	84.12
591.7	92.12
591.91	86.12
592.119	101.12
592.329	94.12
592.539	101.12
592.748	92.12
592.958	96.12
593.167	106.12
593.377	95.12
593.587	83.12
593.796	89.12
594.006	87.12
594.215	88.12
594.424	87.12
594.634	100.12
594.843	103.12
595.053	87.12
595.262	85.12
595.472	94.12
595.681	97.12
595.89	83.12
596.1	89.12
596.309	98.12
596.518	104.12
596.727	89.12
596.937	91.12
597.146	91.12
597.355	90.12
597.564	88.12
597.774	93.12
597.983	91.12
598.192	73.12
598.401	84.12
598.61	90.12
598.819	83.12
599.028	80.12
599.237	97.12
599.446	88.12
599.655	84.12
599.864	93.12
600.073	90.12
600.282	82.12
600.491	98.12
600.7	89.12
600.909	80.12
601.118	73.12
601.327	80.12
601.536	88.12
601.745	93.12
601.953	86.12
602.162	90.12
602.371	80.12
602.58	86.12
602.789	90.12
602.997	94.12
603.206	97.12
603.415	81.12
603.623	78.12
603.832	80.12
604.041	86.12
604.249	87.12
604.458	82.12
604.666	75.12
604.875	100.12
605.084	91.12
605.292	90.12
605.501	85.12
605.709	85.12
605.918	89.12
606.126	77.12
606.334	78.12
606.543	89.12
606.751	86.12
606.96	93.12
607.168	78.12
607.376	84.12
607.585	94.12
607.793	83.12
608.001	84.12
608.21	76.12
608.418	88.12
608.626	86.12
608.834	88.12
609.043	95.12
609.251	97.12
609.459	83.12
609.667	85.12
609.875	90.12
610.083	71.12
610.291	76.12
610.499	80.12
610.707	83.12
610.916	78.12
611.124	78.12
611.332	105.12
611.54	91.12
611.748	95.12
611.955	83.12
612.163	87.12
612.371	85.12
612.579	69.12
612.787	78.12
612.995	86.12
613.203	87.12
613.411	97.12
613.618	76.12
613.826	86.12
614.034	97.12
614.242	96.12
614.449	86.12
614.657	89.12
614.865	88.12
615.072	96.12
615.28	81.12
615.488	92.12
615.695	76.12
615.903	88.12
616.111	81.12
616.318	87.12
616.526	88.12
616.733	87.12
616.941	82.12
617.148	89.12
617.356	79.12
617.563	92.12
617.771	75.12
617.978	82.12
618.185	73.12
618.393	99.12
618.6	86.12
618.807	68.12
619.015	96.12
619.222	88.12
619.429	95.12
619.637	80.12
619.844	94.12
620.051	87.12
620.258	95.12
620.466	72.12
620.673	94.12
620.88	99.12
621.087	96.12
621.294	93.12
621.501	90.12
621.708	106.12
621.915	80.12
622.122	81.12
622.329	85.12
622.536	84.12
622.743	89.12
622.95	88.12
623.157	100.12
623.364	82.12
623.571	85.12
623.778	99.12
623.985	90.12
624.192	76.12
624.399	95.12
624.606	93.12
624.812	75.12
625.019	73.12
625.226	90.12
625.433	79.12
625.639	70.12
625.846	76.12
626.053	93.12
626.259	86.12
626.466	94.12
626.673	88.12
626.879	94.12
627.086	103.12
627.293	100.12
627.499	88.12
627.706	94.12
627.912	87.12
628.119	81.12
628.325	74.12
628.532	82.12
628.738	74.12
628.945	79.12
629.151	85.12
629.357	80.12
629.564	88.12
629.77	90.12
629.976	86.12
630.183	79.12
630.389	85.12
630.595	72.12
630.802	79.12
631.008	85.12
631.214	87.12
631.42	85.12
631.627	89.12
631.833	78.12
632.039	79.12
632.245	84.12
632.451	82.12
632.657	73.12
632.863	70.12
633.069	71.12
633.275	90.12
633.481	86.12
633.688	85.12
633.893	83.12
634.099	77.12
634.305	84.12
634.511	81.12
634.717	88.12
634.923	75.12
635.129	73.12
635.335	77.12
635.541	84.12
635.747	86.12
635.952	79.12
636.158	91.12
636.364	95.12
636.57	98.12
636.775	83.12
636.981	81.12
637.187	75.12
637.392	84.12
637.598	85.12
637.804	80.12
638.009	87.12
638.215	82.12
638.421	89.12
638.626	83.12
638.832	86.12
639.037	90.12
639.243	80.12
639.448	80.12
639.654	83.12
639.859	90.12
640.065	93.12
640.27	83.12
640.475	86.12
640.681	74.12
640.886	90.12
641.091	88.12
641.297	86.12
641.502	80.12
641.707	82.12
641.913	93.12
642.118	65.12
642.323	79.12
642.528	88.12
642.733	83.12
642.939	79.12
643.144	84.12
643.349	80.12
643.554	86.12
643.759	75.12
643.964	79.12
644.169	74.12
644.374	80.12
644.579	80.12
644.784	81.12
644.989	88.12
645.194	74.12
645.399	85.12
645.604	76.12
645.809	80.12
646.014	89.12
646.219	77.12
646.423	85.12
646.628	86.12
646.833	94.12
647.038	72.12
647.243	95.12
647.447	81.12
647.652	74.12
647.857	91.12
648.062	82.12
648.266	94.12
648.471	77.12
648.676	85.12
648.88	62.12
649.085	79.12
649.289	91.12
649.494	76.12
649.698	76.12
649.903	78.12
650.107	78.12
650.312	77.12
650.516	85.12
650.721	70.12
650.925	87.12
651.13	71.12
651.334	69.12
651.539	82.12
651.743	87.12
651.947	76.12
652.152	67.12
652.356	78.12
652.56	86.12
652.764	83.12
652.969	78.12
653.173	76.12
653.377	73.12
653.581	76.12
653.785	76.12
653.99	86.12
654.194	72.12
654.398	81.12
654.602	89.12
654.806	84.12
655.01	79.12
655.214	67.12
655.418	80.12
655.622	85.12
655.826	85.12
656.03	83.12
656.234	96.12
656.438	73.12
656.642	93.12
656.846	86.12
657.049	80.12
657.253	84.12
657.457	90.12
657.661	81.12
657.865	77.12
658.068	90.12
658.272	69.12
658.476	83.12
658.68	76.12
658.883	73.12
659.087	71.12
659.291	81.12
659.494	88.12
659.698	81.12
659.901	87.12
660.105	70.12
660.309	75.12
660.512	73.12
660.716	73.12
660.919	71.12
661.123	82.12
661.326	86.12
661.53	92.12
661.733	88.12
661.936	85.12
662.14	77.12
662.343	79.12
662.546	65.12
662.75	88.12
662.953	91.12
663.156	85.12
663.36	75.12
663.563	73.12
663.766	67.12
663.969	85.12
664.173	67.12
664.376	76.12
664.579	68.12
664.782	81.12
664.985	71.12
665.188	74.12
665.391	79.12
665.594	87.12
665.797	80.12
666	91.12
666.203	66.12
666.406	74.12
666.609	85.12
666.812	80.12
667.015	77.12
667.218	82.12
667.421	94.12
667.624	98.12
667.827	72.12
668.03	73.12
668.232	76.12
668.435	85.12
668.638	77.12
668.841	65.12
669.043	79.12
669.246	74.12
669.449	82.12
669.651	81.12
669.854	77.12
670.057	79.12
670.259	79.12
670.462	97.12
670.665	78.12
670.867	88.12
671.07	90.12
671.272	83.12
671.475	71.12
671.677	71.12
671.88	71.12
672.082	89.12
672.284	89.12
672.487	89.12
672.689	90.12
672.892	73.12
