Data from Location5.07152019.Energy5.Lamp.07192019.3%Agarose_HRD10591_15-38-59-388.txt Node
Date: Fri Jul 19 15:38:59 EDT 2019
User: cochatt
Spectrometer: HR+D1059
Trigger mode: 1
Integration Time (sec): 1.000000E-1
Scans to average: 1
Electric dark correction enabled: true
Nonlinearity correction enabled: false
Boxcar width: 0
XAxis mode: Wavelengths
Number of Pixels in Spectrum: 2048
>>>>>Begin Spectral Data<<<<<
223.165	-21.06
223.4	-21.06
223.635	-21.06
223.869	0.94
224.104	-16.06
224.338	-19.06
224.573	-21.06
224.808	-17.06
225.042	-9.06
225.277	-10.06
225.511	-3.06
225.746	7.94
225.98	-6.06
226.215	7.94
226.449	18.94
226.683	22.94
226.918	34.94
227.152	28.94
227.387	28.94
227.621	43.94
227.856	52.94
228.09	43.94
228.324	51.94
228.559	60.94
228.793	69.94
229.027	74.94
229.262	69.94
229.496	60.94
229.73	71.94
229.964	63.94
230.199	71.94
230.433	77.94
230.667	75.94
230.901	67.94
231.136	77.94
231.37	83.94
231.604	84.94
231.838	79.94
232.072	80.94
232.306	78.94
232.541	87.94
232.775	91.94
233.009	90.94
233.243	97.94
233.477	75.94
233.711	95.94
233.945	90.94
234.179	82.94
234.413	78.94
234.647	90.94
234.881	85.94
235.115	81.94
235.349	82.94
235.583	68.94
235.817	79.94
236.051	83.94
236.285	83.94
236.519	77.94
236.753	68.94
236.987	81.94
237.221	93.94
237.455	63.94
237.689	95.94
237.922	86.94
238.156	76.94
238.39	85.94
238.624	68.94
238.858	86.94
239.091	83.94
239.325	78.94
239.559	77.94
239.793	90.94
240.027	91.94
240.26	86.94
240.494	85.94
240.728	73.94
240.961	82.94
241.195	83.94
241.429	81.94
241.662	58.94
241.896	67.94
242.13	74.94
242.363	75.94
242.597	72.94
242.83	84.94
243.064	83.94
243.298	85.94
243.531	66.94
243.765	80.94
243.998	85.94
244.232	86.94
244.465	83.94
244.699	80.94
244.932	90.94
245.166	75.94
245.399	80.94
245.633	84.94
245.866	82.94
246.099	85.94
246.333	78.94
246.566	74.94
246.8	82.94
247.033	87.94
247.266	93.94
247.5	77.94
247.733	80.94
247.966	90.94
248.2	97.94
248.433	83.94
248.666	78.94
248.899	92.94
249.133	76.94
249.366	84.94
249.599	78.94
249.832	76.94
250.066	102.94
250.299	87.94
250.532	79.94
250.765	81.94
250.998	91.94
251.231	83.94
251.465	79.94
251.698	90.94
251.931	81.94
252.164	89.94
252.397	86.94
252.63	76.94
252.863	79.94
253.096	85.94
253.329	78.94
253.562	75.94
253.795	81.94
254.028	77.94
254.261	81.94
254.494	83.94
254.727	79.94
254.96	79.94
255.193	76.94
255.426	79.94
255.659	82.94
255.892	85.94
256.124	85.94
256.357	97.94
256.59	87.94
256.823	77.94
257.056	91.94
257.289	81.94
257.521	80.94
257.754	86.94
257.987	86.94
258.22	76.94
258.452	88.94
258.685	85.94
258.918	91.94
259.151	83.94
259.383	74.94
259.616	87.94
259.849	88.94
260.081	85.94
260.314	82.94
260.547	85.94
260.779	81.94
261.012	72.94
261.244	86.94
261.477	97.94
261.71	89.94
261.942	73.94
262.175	72.94
262.407	77.94
262.64	92.94
262.872	87.94
263.105	76.94
263.337	91.94
263.57	97.94
263.802	78.94
264.035	102.94
264.267	81.94
264.499	85.94
264.732	96.94
264.964	84.94
265.197	89.94
265.429	91.94
265.661	91.94
265.894	85.94
266.126	90.94
266.358	102.94
266.591	102.94
266.823	93.94
267.055	97.94
267.287	90.94
267.52	79.94
267.752	76.94
267.984	81.94
268.216	89.94
268.448	77.94
268.681	84.94
268.913	71.94
269.145	90.94
269.377	74.94
269.609	101.94
269.841	78.94
270.073	75.94
270.306	80.94
270.538	89.94
270.77	91.94
271.002	96.94
271.234	73.94
271.466	79.94
271.698	85.94
271.93	84.94
272.162	87.94
272.394	90.94
272.626	83.94
272.858	90.94
273.09	93.94
273.322	100.94
273.553	85.94
273.785	89.94
274.017	96.94
274.249	84.94
274.481	91.94
274.713	76.94
274.945	89.94
275.176	93.94
275.408	88.94
275.64	81.94
275.872	86.94
276.104	95.94
276.335	85.94
276.567	87.94
276.799	87.94
277.031	99.94
277.262	78.94
277.494	101.94
277.726	87.94
277.957	86.94
278.189	76.94
278.421	82.94
278.652	82.94
278.884	89.94
279.115	91.94
279.347	84.94
279.579	89.94
279.81	84.94
280.042	82.94
280.273	85.94
280.505	80.94
280.736	78.94
280.968	92.94
281.199	73.94
281.431	88.94
281.662	91.94
281.894	93.94
282.125	81.94
282.356	86.94
282.588	82.94
282.819	86.94
283.051	80.94
283.282	86.94
283.513	89.94
283.745	92.94
283.976	73.94
284.207	101.94
284.439	91.94
284.67	100.94
284.901	83.94
285.132	81.94
285.364	104.94
285.595	105.94
285.826	98.94
286.057	78.94
286.288	85.94
286.52	103.94
286.751	92.94
286.982	91.94
287.213	97.94
287.444	90.94
287.675	92.94
287.906	88.94
288.138	81.94
288.369	76.94
288.6	73.94
288.831	86.94
289.062	90.94
289.293	85.94
289.524	94.94
289.755	67.94
289.986	84.94
290.217	87.94
290.448	105.94
290.679	85.94
290.91	90.94
291.141	94.94
291.371	83.94
291.602	86.94
291.833	91.94
292.064	92.94
292.295	91.94
292.526	84.94
292.757	84.94
292.987	89.94
293.218	95.94
293.449	101.94
293.68	89.94
293.91	82.94
294.141	72.94
294.372	79.94
294.603	85.94
294.833	84.94
295.064	90.94
295.295	87.94
295.525	88.94
295.756	98.94
295.987	90.94
296.217	87.94
296.448	79.94
296.679	82.94
296.909	85.94
297.14	77.94
297.37	91.94
297.601	87.94
297.831	75.94
298.062	88.94
298.292	88.94
298.523	79.94
298.753	81.94
298.984	93.94
299.214	87.94
299.445	97.94
299.675	102.94
299.905	98.94
300.136	94.94
300.366	84.94
300.597	84.94
300.827	78.94
301.057	87.94
301.288	93.94
301.518	97.94
301.748	86.94
301.979	87.94
302.209	87.94
302.439	90.94
302.669	87.94
302.9	84.94
303.13	88.94
303.36	95.94
303.59	95.94
303.82	90.94
304.051	90.94
304.281	97.94
304.511	104.94
304.741	93.94
304.971	109.94
305.201	86.94
305.431	82.94
305.661	91.94
305.891	88.94
306.121	85.94
306.352	74.94
306.582	85.94
306.812	84.94
307.042	81.94
307.272	83.94
307.502	91.94
307.731	76.94
307.961	75.94
308.191	86.94
308.421	82.94
308.651	76.94
308.881	83.94
309.111	85.94
309.341	94.94
309.571	80.94
309.8	82.94
310.03	90.94
310.26	81.94
310.49	91.94
310.72	84.94
310.949	81.94
311.179	86.94
311.409	78.94
311.639	90.94
311.868	87.94
312.098	88.94
312.328	92.94
312.557	79.94
312.787	92.94
313.017	105.94
313.246	73.94
313.476	92.94
313.706	88.94
313.935	87.94
314.165	82.94
314.394	82.94
314.624	93.94
314.853	91.94
315.083	83.94
315.312	84.94
315.542	93.94
315.771	93.94
316.001	78.94
316.23	102.94
316.46	74.94
316.689	87.94
316.919	93.94
317.148	87.94
317.377	91.94
317.607	96.94
317.836	84.94
318.065	95.94
318.295	80.94
318.524	89.94
318.753	77.94
318.983	89.94
319.212	70.94
319.441	71.94
319.67	84.94
319.9	90.94
320.129	93.94
320.358	99.94
320.587	77.94
320.816	95.94
321.046	84.94
321.275	93.94
321.504	76.94
321.733	98.94
321.962	87.94
322.191	85.94
322.42	80.94
322.649	98.94
322.878	101.94
323.108	87.94
323.337	80.94
323.566	87.94
323.795	95.94
324.024	94.94
324.253	85.94
324.482	74.94
324.71	81.94
324.939	86.94
325.168	83.94
325.397	99.94
325.626	87.94
325.855	74.94
326.084	87.94
326.313	86.94
326.542	86.94
326.77	73.94
326.999	92.94
327.228	87.94
327.457	90.94
327.686	81.94
327.914	81.94
328.143	78.94
328.372	79.94
328.6	81.94
328.829	78.94
329.058	101.94
329.287	98.94
329.515	85.94
329.744	93.94
329.972	74.94
330.201	88.94
330.43	79.94
330.658	96.94
330.887	99.94
331.115	85.94
331.344	110.94
331.572	86.94
331.801	90.94
332.03	77.94
332.258	93.94
332.486	83.94
332.715	81.94
332.943	88.94
333.172	84.94
333.4	77.94
333.629	86.94
333.857	93.94
334.085	85.94
334.314	91.94
334.542	81.94
334.771	86.94
334.999	71.94
335.227	90.94
335.455	99.94
335.684	92.94
335.912	88.94
336.14	88.94
336.369	96.94
336.597	108.94
336.825	91.94
337.053	83.94
337.281	81.94
337.51	89.94
337.738	84.94
337.966	88.94
338.194	76.94
338.422	71.94
338.65	78.94
338.878	90.94
339.106	84.94
339.334	86.94
339.562	98.94
339.79	65.94
340.018	101.94
340.246	86.94
340.474	86.94
340.702	101.94
340.93	94.94
341.158	95.94
341.386	82.94
341.614	88.94
341.842	84.94
342.07	86.94
342.298	80.94
342.526	88.94
342.754	87.94
342.981	78.94
343.209	80.94
343.437	87.94
343.665	82.94
343.893	93.94
344.12	76.94
344.348	89.94
344.576	81.94
344.804	90.94
345.031	93.94
345.259	91.94
345.487	77.94
345.714	86.94
345.942	73.94
346.17	77.94
346.397	80.94
346.625	101.94
346.853	83.94
347.08	78.94
347.308	81.94
347.535	76.94
347.763	80.94
347.99	81.94
348.218	69.94
348.445	94.94
348.673	89.94
348.9	73.94
349.128	95.94
349.355	91.94
349.583	85.94
349.81	97.94
350.037	80.94
350.265	87.94
350.492	96.94
350.72	87.94
350.947	81.94
351.174	77.94
351.402	79.94
351.629	80.94
351.856	92.94
352.083	75.94
352.311	85.94
352.538	101.94
352.765	88.94
352.992	66.94
353.22	86.94
353.447	93.94
353.674	87.94
353.901	73.94
354.128	94.94
354.355	83.94
354.583	93.94
354.81	104.94
355.037	80.94
355.264	79.94
355.491	86.94
355.718	89.94
355.945	100.94
356.172	82.94
356.399	85.94
356.626	90.94
356.853	84.94
357.08	94.94
357.307	90.94
357.534	86.94
357.761	90.94
357.988	79.94
358.215	89.94
358.441	84.94
358.668	86.94
358.895	90.94
359.122	92.94
359.349	66.94
359.576	90.94
359.802	79.94
360.029	101.94
360.256	94.94
360.483	83.94
360.709	92.94
360.936	100.94
361.163	79.94
361.39	84.94
361.616	73.94
361.843	93.94
362.07	88.94
362.296	91.94
362.523	87.94
362.749	102.94
362.976	78.94
363.203	83.94
363.429	94.94
363.656	69.94
363.882	88.94
364.109	82.94
364.335	98.94
364.562	82.94
364.788	79.94
365.015	76.94
365.241	80.94
365.468	101.94
365.694	77.94
365.92	88.94
366.147	72.94
366.373	86.94
366.599	94.94
366.826	99.94
367.052	87.94
367.278	113.94
367.505	86.94
367.731	77.94
367.957	81.94
368.184	98.94
368.41	91.94
368.636	89.94
368.862	92.94
369.089	75.94
369.315	69.94
369.541	91.94
369.767	83.94
369.993	92.94
370.219	82.94
370.445	76.94
370.672	94.94
370.898	75.94
371.124	83.94
371.35	86.94
371.576	84.94
371.802	86.94
372.028	78.94
372.254	99.94
372.48	87.94
372.706	78.94
372.932	75.94
373.158	79.94
373.384	79.94
373.61	83.94
373.835	92.94
374.061	83.94
374.287	90.94
374.513	89.94
374.739	77.94
374.965	94.94
375.191	86.94
375.416	85.94
375.642	95.94
375.868	85.94
376.094	85.94
376.319	91.94
376.545	82.94
376.771	89.94
376.997	81.94
377.222	85.94
377.448	84.94
377.674	91.94
377.899	75.94
378.125	81.94
378.35	87.94
378.576	73.94
378.802	85.94
379.027	87.94
379.253	95.94
379.478	81.94
379.704	85.94
379.929	87.94
380.155	86.94
380.38	94.94
380.606	76.94
380.831	83.94
381.057	99.94
381.282	90.94
381.507	90.94
381.733	79.94
381.958	93.94
382.184	85.94
382.409	83.94
382.634	88.94
382.86	90.94
383.085	83.94
383.31	84.94
383.535	98.94
383.761	86.94
383.986	85.94
384.211	103.94
384.436	87.94
384.662	83.94
384.887	92.94
385.112	88.94
385.337	82.94
385.562	79.94
385.787	94.94
386.013	91.94
386.238	98.94
386.463	77.94
386.688	87.94
386.913	86.94
387.138	88.94
387.363	94.94
387.588	94.94
387.813	83.94
388.038	88.94
388.263	92.94
388.488	95.94
388.713	93.94
388.938	73.94
389.163	84.94
389.387	96.94
389.612	76.94
389.837	84.94
390.062	94.94
390.287	88.94
390.512	79.94
390.736	91.94
390.961	74.94
391.186	94.94
391.411	100.94
391.636	90.94
391.86	84.94
392.085	82.94
392.31	84.94
392.534	88.94
392.759	90.94
392.984	95.94
393.208	89.94
393.433	89.94
393.658	88.94
393.882	85.94
394.107	77.94
394.331	82.94
394.556	87.94
394.78	89.94
395.005	87.94
395.229	94.94
395.454	86.94
395.678	88.94
395.903	86.94
396.127	94.94
396.352	94.94
396.576	84.94
396.801	91.94
397.025	85.94
397.249	103.94
397.474	89.94
397.698	85.94
397.922	80.94
398.147	86.94
398.371	93.94
398.595	103.94
398.82	91.94
399.044	101.94
399.268	97.94
399.492	84.94
399.717	74.94
399.941	97.94
400.165	74.94
400.389	86.94
400.613	91.94
400.837	97.94
401.062	90.94
401.286	98.94
401.51	89.94
401.734	101.94
401.958	95.94
402.182	79.94
402.406	88.94
402.63	89.94
402.854	90.94
403.078	94.94
403.302	89.94
403.526	92.94
403.75	92.94
403.974	86.94
404.198	84.94
404.422	91.94
404.645	96.94
404.869	93.94
405.093	90.94
405.317	97.94
405.541	93.94
405.765	98.94
405.988	90.94
406.212	98.94
406.436	99.94
406.66	84.94
406.883	93.94
407.107	86.94
407.331	94.94
407.555	79.94
407.778	92.94
408.002	99.94
408.226	90.94
408.449	92.94
408.673	98.94
408.896	89.94
409.12	105.94
409.344	98.94
409.567	98.94
409.791	99.94
410.014	106.94
410.238	101.94
410.461	109.94
410.685	95.94
410.908	113.94
411.132	93.94
411.355	99.94
411.578	108.94
411.802	85.94
412.025	89.94
412.249	94.94
412.472	90.94
412.695	90.94
412.919	79.94
413.142	87.94
413.365	91.94
413.589	93.94
413.812	86.94
414.035	102.94
414.258	96.94
414.482	84.94
414.705	98.94
414.928	102.94
415.151	77.94
415.374	81.94
415.597	90.94
415.821	93.94
416.044	104.94
416.267	91.94
416.49	98.94
416.713	97.94
416.936	106.94
417.159	84.94
417.382	85.94
417.605	90.94
417.828	104.94
418.051	90.94
418.274	96.94
418.497	91.94
418.72	102.94
418.943	103.94
419.166	87.94
419.389	85.94
419.611	94.94
419.834	88.94
420.057	103.94
420.28	91.94
420.503	90.94
420.726	105.94
420.948	95.94
421.171	93.94
421.394	95.94
421.617	93.94
421.839	89.94
422.062	95.94
422.285	94.94
422.507	85.94
422.73	87.94
422.953	79.94
423.175	95.94
423.398	83.94
423.621	86.94
423.843	95.94
424.066	97.94
424.288	89.94
424.511	101.94
424.733	92.94
424.956	103.94
425.178	102.94
425.401	96.94
425.623	99.94
425.846	91.94
426.068	99.94
426.291	89.94
426.513	110.94
426.735	95.94
426.958	81.94
427.18	92.94
427.402	94.94
427.625	97.94
427.847	94.94
428.069	114.94
428.292	94.94
428.514	104.94
428.736	92.94
428.958	110.94
429.181	100.94
429.403	108.94
429.625	82.94
429.847	92.94
430.069	102.94
430.292	98.94
430.514	86.94
430.736	91.94
430.958	99.94
431.18	76.94
431.402	91.94
431.624	103.94
431.846	109.94
432.068	88.94
432.29	76.94
432.512	101.94
432.734	99.94
432.956	93.94
433.178	89.94
433.4	90.94
433.622	106.94
433.844	83.94
434.066	92.94
434.287	93.94
434.509	95.94
434.731	87.94
434.953	88.94
435.175	84.94
435.397	97.94
435.618	101.94
435.84	90.94
436.062	78.94
436.284	98.94
436.505	106.94
436.727	88.94
436.949	104.94
437.17	92.94
437.392	90.94
437.614	98.94
437.835	92.94
438.057	81.94
438.278	94.94
438.5	87.94
438.721	99.94
438.943	91.94
439.165	90.94
439.386	106.94
439.608	107.94
439.829	97.94
440.05	102.94
440.272	95.94
440.493	104.94
440.715	90.94
440.936	97.94
441.158	98.94
441.379	104.94
441.6	104.94
441.822	92.94
442.043	95.94
442.264	99.94
442.486	111.94
442.707	95.94
442.928	87.94
443.149	100.94
443.371	89.94
443.592	97.94
443.813	85.94
444.034	88.94
444.255	88.94
444.476	93.94
444.698	89.94
444.919	82.94
445.14	207.94
445.361	159.94
445.582	116.94
445.803	93.94
446.024	89.94
446.245	90.94
446.466	99.94
446.687	92.94
446.908	106.94
447.129	108.94
447.35	95.94
447.571	110.94
447.792	98.94
448.013	91.94
448.234	105.94
448.455	103.94
448.675	103.94
448.896	101.94
449.117	91.94
449.338	99.94
449.559	109.94
449.779	99.94
450	84.94
450.221	78.94
450.442	90.94
450.662	98.94
450.883	99.94
451.104	101.94
451.324	99.94
451.545	97.94
451.766	93.94
451.986	78.94
452.207	101.94
452.428	89.94
452.648	103.94
452.869	95.94
453.089	88.94
453.31	89.94
453.53	79.94
453.751	79.94
453.971	94.94
454.192	78.94
454.412	91.94
454.633	106.94
454.853	79.94
455.073	88.94
455.294	95.94
455.514	95.94
455.734	92.94
455.955	87.94
456.175	95.94
456.395	90.94
456.616	95.94
456.836	79.94
457.056	83.94
457.276	84.94
457.497	88.94
457.717	107.94
457.937	86.94
458.157	87.94
458.377	89.94
458.598	77.94
458.818	69.94
459.038	85.94
459.258	97.94
459.478	90.94
459.698	82.94
459.918	88.94
460.138	94.94
460.358	84.94
460.578	87.94
460.798	106.94
461.018	85.94
461.238	85.94
461.458	87.94
461.678	90.94
461.898	95.94
462.118	100.94
462.338	100.94
462.558	94.94
462.777	73.94
462.997	93.94
463.217	82.94
463.437	91.94
463.657	85.94
463.876	90.94
464.096	99.94
464.316	87.94
464.536	93.94
464.755	102.94
464.975	82.94
465.195	84.94
465.414	95.94
465.634	91.94
465.854	92.94
466.073	94.94
466.293	91.94
466.512	93.94
466.732	93.94
466.951	107.94
467.171	98.94
467.391	89.94
467.61	101.94
467.829	92.94
468.049	100.94
468.268	89.94
468.488	99.94
468.707	95.94
468.927	104.94
469.146	108.94
469.365	89.94
469.585	108.94
469.804	97.94
470.023	87.94
470.243	104.94
470.462	102.94
470.681	108.94
470.901	93.94
471.12	89.94
471.339	98.94
471.558	106.94
471.777	95.94
471.997	104.94
472.216	110.94
472.435	89.94
472.654	77.94
472.873	103.94
473.092	99.94
473.311	103.94
473.53	98.94
473.749	101.94
473.968	93.94
474.187	99.94
474.406	94.94
474.625	98.94
474.844	97.94
475.063	94.94
475.282	91.94
475.501	88.94
475.72	100.94
475.939	90.94
476.158	85.94
476.377	91.94
476.596	97.94
476.814	99.94
477.033	80.94
477.252	83.94
477.471	87.94
477.69	84.94
477.908	99.94
478.127	106.94
478.346	89.94
478.564	92.94
478.783	94.94
479.002	95.94
479.22	96.94
479.439	94.94
479.658	104.94
479.876	100.94
480.095	82.94
480.313	79.94
480.532	99.94
480.751	91.94
480.969	87.94
481.188	79.94
481.406	101.94
481.624	74.94
481.843	88.94
482.061	81.94
482.28	92.94
482.498	93.94
482.717	81.94
482.935	90.94
483.153	102.94
483.372	103.94
483.59	121.94
483.808	100.94
484.027	89.94
484.245	104.94
484.463	83.94
484.681	107.94
484.9	99.94
485.118	96.94
485.336	93.94
485.554	103.94
485.772	83.94
485.99	91.94
486.209	97.94
486.427	88.94
486.645	99.94
486.863	102.94
487.081	109.94
487.299	96.94
487.517	96.94
487.735	100.94
487.953	126.94
488.171	114.94
488.389	105.94
488.607	104.94
488.825	109.94
489.043	94.94
489.261	77.94
489.479	92.94
489.696	92.94
489.914	110.94
490.132	95.94
490.35	101.94
490.568	113.94
490.786	113.94
491.003	113.94
491.221	108.94
491.439	123.94
491.657	129.94
491.874	106.94
492.092	128.94
492.31	147.94
492.527	106.94
492.745	121.94
492.963	125.94
493.18	101.94
493.398	112.94
493.615	111.94
493.833	94.94
494.05	102.94
494.268	115.94
494.485	104.94
494.703	103.94
494.92	116.94
495.138	103.94
495.355	103.94
495.573	115.94
495.79	115.94
496.008	105.94
496.225	89.94
496.442	105.94
496.66	125.94
496.877	111.94
497.094	113.94
497.312	108.94
497.529	95.94
497.746	103.94
497.963	102.94
498.181	97.94
498.398	90.94
498.615	88.94
498.832	98.94
499.049	88.94
499.267	98.94
499.484	101.94
499.701	100.94
499.918	99.94
500.135	87.94
500.352	99.94
500.569	100.94
500.786	95.94
501.003	85.94
501.22	108.94
501.437	86.94
501.654	92.94
501.871	104.94
502.088	100.94
502.305	83.94
502.522	98.94
502.739	95.94
502.956	92.94
503.172	97.94
503.389	99.94
503.606	93.94
503.823	91.94
504.04	87.94
504.256	91.94
504.473	103.94
504.69	90.94
504.907	99.94
505.123	93.94
505.34	89.94
505.557	106.94
505.773	88.94
505.99	87.94
506.207	79.94
506.423	100.94
506.64	102.94
506.856	103.94
507.073	103.94
507.289	97.94
507.506	89.94
507.722	92.94
507.939	106.94
508.155	86.94
508.372	110.94
508.588	93.94
508.805	67.94
509.021	79.94
509.238	87.94
509.454	84.94
509.67	93.94
509.887	94.94
510.103	99.94
510.319	93.94
510.536	79.94
510.752	103.94
510.968	90.94
511.184	108.94
511.401	90.94
511.617	98.94
511.833	92.94
512.049	87.94
512.265	70.94
512.481	87.94
512.698	93.94
512.914	78.94
513.13	84.94
513.346	91.94
513.562	88.94
513.778	89.94
513.994	95.94
514.21	78.94
514.426	89.94
514.642	89.94
514.858	91.94
515.074	87.94
515.29	74.94
515.506	88.94
515.721	65.94
515.937	91.94
516.153	80.94
516.369	95.94
516.585	83.94
516.801	92.94
517.016	81.94
517.232	76.94
517.448	76.94
517.664	86.94
517.879	91.94
518.095	89.94
518.311	89.94
518.527	91.94
518.742	90.94
518.958	89.94
519.173	92.94
519.389	86.94
519.605	91.94
519.82	91.94
520.036	74.94
520.251	92.94
520.467	107.94
520.682	93.94
520.898	83.94
521.113	81.94
521.329	82.94
521.544	80.94
521.76	87.94
521.975	92.94
522.19	105.94
522.406	78.94
522.621	85.94
522.836	90.94
523.052	75.94
523.267	90.94
523.482	87.94
523.698	92.94
523.913	96.94
524.128	94.94
524.343	97.94
524.559	89.94
524.774	99.94
524.989	99.94
525.204	99.94
525.419	104.94
525.634	105.94
525.849	87.94
526.064	95.94
526.28	103.94
526.495	100.94
526.71	86.94
526.925	92.94
527.14	79.94
527.355	82.94
527.57	82.94
527.785	82.94
527.999	89.94
528.214	80.94
528.429	85.94
528.644	97.94
528.859	100.94
529.074	108.94
529.289	124.94
529.503	114.94
529.718	108.94
529.933	89.94
530.148	87.94
530.363	110.94
530.577	89.94
530.792	109.94
531.007	98.94
531.221	74.94
531.436	84.94
531.651	87.94
531.865	93.94
532.08	92.94
532.295	94.94
532.509	85.94
532.724	76.94
532.938	96.94
533.153	91.94
533.367	101.94
533.582	90.94
533.796	86.94
534.011	97.94
534.225	96.94
534.44	102.94
534.654	82.94
534.868	92.94
535.083	90.94
535.297	103.94
535.511	93.94
535.726	88.94
535.94	99.94
536.154	76.94
536.369	92.94
536.583	77.94
536.797	90.94
537.011	91.94
537.225	93.94
537.44	81.94
537.654	96.94
537.868	90.94
538.082	82.94
538.296	86.94
538.51	72.94
538.724	76.94
538.938	89.94
539.153	103.94
539.367	104.94
539.581	92.94
539.795	85.94
540.009	106.94
540.222	95.94
540.436	89.94
540.65	97.94
540.864	87.94
541.078	111.94
541.292	103.94
541.506	105.94
541.72	106.94
541.934	132.94
542.147	126.94
542.361	124.94
542.575	108.94
542.789	107.94
543.002	104.94
543.216	87.94
543.43	100.94
543.644	98.94
543.857	109.94
544.071	103.94
544.285	112.94
544.498	110.94
544.712	104.94
544.925	108.94
545.139	114.94
545.352	117.94
545.566	113.94
545.779	118.94
545.993	97.94
546.206	117.94
546.42	117.94
546.633	106.94
546.847	106.94
547.06	101.94
547.274	94.94
547.487	109.94
547.7	110.94
547.914	109.94
548.127	108.94
548.34	110.94
548.554	108.94
548.767	92.94
548.98	112.94
549.193	95.94
549.407	97.94
549.62	92.94
549.833	117.94
550.046	113.94
550.259	108.94
550.473	101.94
550.686	90.94
550.899	98.94
551.112	100.94
551.325	104.94
551.538	101.94
551.751	103.94
551.964	96.94
552.177	119.94
552.39	103.94
552.603	95.94
552.816	102.94
553.029	114.94
553.242	101.94
553.455	119.94
553.667	113.94
553.88	113.94
554.093	116.94
554.306	106.94
554.519	104.94
554.732	95.94
554.944	94.94
555.157	108.94
555.37	96.94
555.583	104.94
555.795	99.94
556.008	100.94
556.221	106.94
556.433	96.94
556.646	98.94
556.859	89.94
557.071	95.94
557.284	109.94
557.496	95.94
557.709	94.94
557.921	98.94
558.134	100.94
558.346	96.94
558.559	102.94
558.771	99.94
558.984	113.94
559.196	110.94
559.409	110.94
559.621	96.94
559.833	100.94
560.046	98.94
560.258	88.94
560.47	94.94
560.683	94.94
560.895	98.94
561.107	91.94
561.32	106.94
561.532	102.94
561.744	105.94
561.956	89.94
562.168	97.94
562.381	102.94
562.593	103.94
562.805	101.94
563.017	105.94
563.229	92.94
563.441	107.94
563.653	106.94
563.865	101.94
564.077	96.94
564.289	99.94
564.501	114.94
564.713	92.94
564.925	93.94
565.137	98.94
565.349	96.94
565.561	86.94
565.773	106.94
565.985	92.94
566.197	94.94
566.408	99.94
566.62	79.94
566.832	79.94
567.044	110.94
567.255	87.94
567.467	86.94
567.679	84.94
567.891	82.94
568.102	79.94
568.314	101.94
568.526	77.94
568.737	89.94
568.949	83.94
569.161	84.94
569.372	91.94
569.584	85.94
569.795	87.94
570.007	94.94
570.218	90.94
570.43	83.94
570.641	75.94
570.853	94.94
571.064	89.94
571.276	100.94
571.487	87.94
571.698	93.94
571.91	84.94
572.121	90.94
572.333	100.94
572.544	100.94
572.755	93.94
572.966	83.94
573.178	84.94
573.389	93.94
573.6	95.94
573.811	98.94
574.023	87.94
574.234	86.94
574.445	87.94
574.656	100.94
574.867	84.94
575.078	97.94
575.289	92.94
575.501	84.94
575.712	83.94
575.923	84.94
576.134	88.94
576.345	96.94
576.556	86.94
576.767	85.94
576.978	75.94
577.188	91.94
577.399	87.94
577.61	80.94
577.821	87.94
578.032	87.94
578.243	90.94
578.454	84.94
578.665	94.94
578.875	87.94
579.086	91.94
579.297	91.94
579.508	95.94
579.718	88.94
579.929	79.94
580.14	88.94
580.35	86.94
580.561	85.94
580.772	91.94
580.982	108.94
581.193	100.94
581.403	85.94
581.614	100.94
581.825	94.94
582.035	96.94
582.246	89.94
582.456	75.94
582.667	75.94
582.877	84.94
583.087	93.94
583.298	90.94
583.508	92.94
583.719	83.94
583.929	96.94
584.139	89.94
584.35	92.94
584.56	88.94
584.77	87.94
584.981	84.94
585.191	89.94
585.401	94.94
585.611	98.94
585.821	76.94
586.032	85.94
586.242	84.94
586.452	86.94
586.662	91.94
586.872	89.94
587.082	86.94
587.292	85.94
587.502	81.94
587.713	95.94
587.923	82.94
588.133	97.94
588.343	78.94
588.553	87.94
588.762	87.94
588.972	79.94
589.182	95.94
589.392	83.94
589.602	84.94
589.812	74.94
590.022	95.94
590.232	81.94
590.441	75.94
590.651	100.94
590.861	68.94
591.071	92.94
591.281	84.94
591.49	90.94
591.7	88.94
591.91	103.94
592.119	91.94
592.329	84.94
592.539	70.94
592.748	96.94
592.958	89.94
593.167	91.94
593.377	81.94
593.587	101.94
593.796	86.94
594.006	97.94
594.215	89.94
594.424	84.94
594.634	85.94
594.843	82.94
595.053	81.94
595.262	87.94
595.472	95.94
595.681	85.94
595.89	87.94
596.1	78.94
596.309	83.94
596.518	93.94
596.727	101.94
596.937	74.94
597.146	90.94
597.355	83.94
597.564	89.94
597.774	103.94
597.983	101.94
598.192	81.94
598.401	86.94
598.61	81.94
598.819	89.94
599.028	90.94
599.237	84.94
599.446	87.94
599.655	94.94
599.864	99.94
600.073	98.94
600.282	103.94
600.491	99.94
600.7	94.94
600.909	96.94
601.118	89.94
601.327	86.94
601.536	90.94
601.745	93.94
601.953	88.94
602.162	87.94
602.371	93.94
602.58	92.94
602.789	94.94
602.997	96.94
603.206	96.94
603.415	94.94
603.623	93.94
603.832	84.94
604.041	91.94
604.249	80.94
604.458	95.94
604.666	91.94
604.875	82.94
605.084	83.94
605.292	87.94
605.501	90.94
605.709	74.94
605.918	91.94
606.126	92.94
606.334	106.94
606.543	87.94
606.751	99.94
606.96	106.94
607.168	95.94
607.376	83.94
607.585	92.94
607.793	92.94
608.001	86.94
608.21	108.94
608.418	88.94
608.626	83.94
608.834	93.94
609.043	85.94
609.251	97.94
609.459	92.94
609.667	107.94
609.875	103.94
610.083	93.94
610.291	93.94
610.499	81.94
610.707	99.94
610.916	96.94
611.124	83.94
611.332	67.94
611.54	102.94
611.748	92.94
611.955	92.94
612.163	86.94
612.371	92.94
612.579	102.94
612.787	94.94
612.995	106.94
613.203	98.94
613.411	89.94
613.618	92.94
613.826	99.94
614.034	106.94
614.242	81.94
614.449	97.94
614.657	92.94
614.865	102.94
615.072	90.94
615.28	83.94
615.488	95.94
615.695	92.94
615.903	79.94
616.111	82.94
616.318	103.94
616.526	81.94
616.733	103.94
616.941	88.94
617.148	88.94
617.356	84.94
617.563	101.94
617.771	90.94
617.978	109.94
618.185	109.94
618.393	73.94
618.6	85.94
618.807	102.94
619.015	89.94
619.222	102.94
619.429	94.94
619.637	93.94
619.844	98.94
620.051	91.94
620.258	99.94
620.466	106.94
620.673	99.94
620.88	93.94
621.087	103.94
621.294	84.94
621.501	97.94
621.708	99.94
621.915	100.94
622.122	93.94
622.329	90.94
622.536	100.94
622.743	91.94
622.95	99.94
623.157	96.94
623.364	86.94
623.571	106.94
623.778	79.94
623.985	104.94
624.192	93.94
624.399	96.94
624.606	91.94
624.812	91.94
625.019	97.94
625.226	95.94
625.433	89.94
625.639	75.94
625.846	86.94
626.053	79.94
626.259	82.94
626.466	88.94
626.673	93.94
626.879	79.94
627.086	87.94
627.293	79.94
627.499	85.94
627.706	104.94
627.912	92.94
628.119	88.94
628.325	98.94
628.532	94.94
628.738	103.94
628.945	99.94
629.151	90.94
629.357	82.94
629.564	97.94
629.77	85.94
629.976	84.94
630.183	90.94
630.389	92.94
630.595	92.94
630.802	93.94
631.008	86.94
631.214	87.94
631.42	98.94
631.627	92.94
631.833	79.94
632.039	89.94
632.245	90.94
632.451	91.94
632.657	93.94
632.863	89.94
633.069	91.94
633.275	102.94
633.481	94.94
633.688	85.94
633.893	91.94
634.099	87.94
634.305	84.94
634.511	96.94
634.717	92.94
634.923	91.94
635.129	90.94
635.335	92.94
635.541	87.94
635.747	73.94
635.952	99.94
636.158	88.94
636.364	96.94
636.57	84.94
636.775	99.94
636.981	90.94
637.187	94.94
637.392	93.94
637.598	96.94
637.804	88.94
638.009	85.94
638.215	87.94
638.421	83.94
638.626	94.94
638.832	95.94
639.037	93.94
639.243	88.94
639.448	95.94
639.654	95.94
639.859	92.94
640.065	90.94
640.27	94.94
640.475	70.94
640.681	89.94
640.886	82.94
641.091	83.94
641.297	97.94
641.502	85.94
641.707	81.94
641.913	99.94
642.118	81.94
642.323	86.94
642.528	107.94
642.733	80.94
642.939	81.94
643.144	89.94
643.349	109.94
643.554	92.94
643.759	83.94
643.964	93.94
644.169	98.94
644.374	96.94
644.579	91.94
644.784	78.94
644.989	99.94
645.194	85.94
645.399	83.94
645.604	94.94
645.809	88.94
646.014	94.94
646.219	97.94
646.423	99.94
646.628	93.94
646.833	92.94
647.038	83.94
647.243	85.94
647.447	87.94
647.652	87.94
647.857	94.94
648.062	88.94
648.266	89.94
648.471	81.94
648.676	90.94
648.88	100.94
649.085	105.94
649.289	80.94
649.494	93.94
649.698	84.94
649.903	75.94
650.107	92.94
650.312	95.94
650.516	73.94
650.721	94.94
650.925	94.94
651.13	98.94
651.334	85.94
651.539	76.94
651.743	89.94
651.947	89.94
652.152	98.94
652.356	101.94
652.56	90.94
652.764	86.94
652.969	87.94
653.173	93.94
653.377	80.94
653.581	80.94
653.785	86.94
653.99	88.94
654.194	95.94
654.398	71.94
654.602	82.94
654.806	102.94
655.01	94.94
655.214	95.94
655.418	101.94
655.622	102.94
655.826	100.94
656.03	91.94
656.234	101.94
656.438	79.94
656.642	81.94
656.846	83.94
657.049	77.94
657.253	92.94
657.457	77.94
657.661	83.94
657.865	82.94
658.068	98.94
658.272	85.94
658.476	93.94
658.68	86.94
658.883	93.94
659.087	90.94
659.291	86.94
659.494	88.94
659.698	86.94
659.901	85.94
660.105	88.94
660.309	87.94
660.512	86.94
660.716	84.94
660.919	80.94
661.123	67.94
661.326	82.94
661.53	98.94
661.733	83.94
661.936	65.94
662.14	72.94
662.343	88.94
662.546	68.94
662.75	92.94
662.953	90.94
663.156	85.94
663.36	83.94
663.563	93.94
663.766	92.94
663.969	93.94
664.173	89.94
664.376	83.94
664.579	70.94
664.782	80.94
664.985	83.94
665.188	85.94
665.391	91.94
665.594	74.94
665.797	93.94
666	93.94
666.203	90.94
666.406	84.94
666.609	83.94
666.812	87.94
667.015	82.94
667.218	84.94
667.421	89.94
667.624	100.94
667.827	85.94
668.03	71.94
668.232	83.94
668.435	77.94
668.638	83.94
668.841	73.94
669.043	79.94
669.246	86.94
669.449	84.94
669.651	84.94
669.854	88.94
670.057	75.94
670.259	76.94
670.462	87.94
670.665	90.94
670.867	81.94
671.07	90.94
671.272	71.94
671.475	79.94
671.677	83.94
671.88	94.94
672.082	80.94
672.284	92.94
672.487	87.94
672.689	87.94
672.892	74.94
