Data from Location5.07152019.Energy5.Lamp.07192019.3%Agarose_HRD10591_16-02-40-629.txt Node
Date: Fri Jul 19 16:02:40 EDT 2019
User: cochatt
Spectrometer: HR+D1059
Trigger mode: 1
Integration Time (sec): 1.000000E-1
Scans to average: 1
Electric dark correction enabled: true
Nonlinearity correction enabled: false
Boxcar width: 0
XAxis mode: Wavelengths
Number of Pixels in Spectrum: 2048
>>>>>Begin Spectral Data<<<<<
223.165	-16.12
223.4	-16.12
223.635	-16.12
223.869	-25.12
224.104	-21.12
224.338	-21.12
224.573	-22.12
224.808	-22.12
225.042	-7.12
225.277	-9.12
225.511	7.88
225.746	17.88
225.98	20.88
226.215	9.88
226.449	8.88
226.683	31.88
226.918	11.88
227.152	34.88
227.387	26.88
227.621	40.88
227.856	35.88
228.09	57.88
228.324	43.88
228.559	58.88
228.793	69.88
229.027	62.88
229.262	66.88
229.496	68.88
229.73	74.88
229.964	74.88
230.199	87.88
230.433	63.88
230.667	70.88
230.901	73.88
231.136	80.88
231.37	82.88
231.604	86.88
231.838	78.88
232.072	74.88
232.306	70.88
232.541	79.88
232.775	97.88
233.009	82.88
233.243	80.88
233.477	84.88
233.711	90.88
233.945	78.88
234.179	79.88
234.413	79.88
234.647	84.88
234.881	83.88
235.115	90.88
235.349	73.88
235.583	77.88
235.817	90.88
236.051	66.88
236.285	68.88
236.519	77.88
236.753	71.88
236.987	69.88
237.221	91.88
237.455	55.88
237.689	80.88
237.922	82.88
238.156	85.88
238.39	86.88
238.624	65.88
238.858	87.88
239.091	80.88
239.325	72.88
239.559	80.88
239.793	78.88
240.027	69.88
240.26	69.88
240.494	81.88
240.728	84.88
240.961	69.88
241.195	80.88
241.429	82.88
241.662	85.88
241.896	70.88
242.13	73.88
242.363	87.88
242.597	86.88
242.83	80.88
243.064	85.88
243.298	68.88
243.531	76.88
243.765	81.88
243.998	67.88
244.232	78.88
244.465	72.88
244.699	76.88
244.932	82.88
245.166	63.88
245.399	77.88
245.633	76.88
245.866	75.88
246.099	88.88
246.333	74.88
246.566	84.88
246.8	71.88
247.033	82.88
247.266	74.88
247.5	100.88
247.733	76.88
247.966	77.88
248.2	78.88
248.433	88.88
248.666	73.88
248.899	77.88
249.133	75.88
249.366	86.88
249.599	86.88
249.832	88.88
250.066	81.88
250.299	98.88
250.532	78.88
250.765	74.88
250.998	76.88
251.231	100.88
251.465	77.88
251.698	95.88
251.931	84.88
252.164	82.88
252.397	80.88
252.63	81.88
252.863	76.88
253.096	82.88
253.329	76.88
253.562	88.88
253.795	89.88
254.028	81.88
254.261	99.88
254.494	86.88
254.727	78.88
254.96	80.88
255.193	96.88
255.426	92.88
255.659	85.88
255.892	88.88
256.124	80.88
256.357	86.88
256.59	82.88
256.823	76.88
257.056	82.88
257.289	90.88
257.521	83.88
257.754	70.88
257.987	81.88
258.22	94.88
258.452	92.88
258.685	96.88
258.918	90.88
259.151	75.88
259.383	82.88
259.616	75.88
259.849	94.88
260.081	80.88
260.314	74.88
260.547	70.88
260.779	91.88
261.012	79.88
261.244	108.88
261.477	83.88
261.71	87.88
261.942	106.88
262.175	83.88
262.407	87.88
262.64	75.88
262.872	67.88
263.105	75.88
263.337	80.88
263.57	90.88
263.802	98.88
264.035	80.88
264.267	82.88
264.499	91.88
264.732	82.88
264.964	81.88
265.197	98.88
265.429	91.88
265.661	91.88
265.894	98.88
266.126	94.88
266.358	84.88
266.591	83.88
266.823	81.88
267.055	89.88
267.287	94.88
267.52	77.88
267.752	95.88
267.984	89.88
268.216	81.88
268.448	85.88
268.681	74.88
268.913	75.88
269.145	89.88
269.377	76.88
269.609	92.88
269.841	88.88
270.073	79.88
270.306	101.88
270.538	94.88
270.77	66.88
271.002	78.88
271.234	81.88
271.466	83.88
271.698	88.88
271.93	81.88
272.162	90.88
272.394	91.88
272.626	77.88
272.858	92.88
273.09	104.88
273.322	91.88
273.553	90.88
273.785	77.88
274.017	91.88
274.249	79.88
274.481	75.88
274.713	74.88
274.945	101.88
275.176	98.88
275.408	86.88
275.64	102.88
275.872	96.88
276.104	93.88
276.335	89.88
276.567	89.88
276.799	96.88
277.031	85.88
277.262	92.88
277.494	91.88
277.726	78.88
277.957	93.88
278.189	79.88
278.421	90.88
278.652	88.88
278.884	82.88
279.115	91.88
279.347	90.88
279.579	91.88
279.81	85.88
280.042	77.88
280.273	73.88
280.505	83.88
280.736	92.88
280.968	87.88
281.199	90.88
281.431	91.88
281.662	84.88
281.894	71.88
282.125	92.88
282.356	99.88
282.588	104.88
282.819	87.88
283.051	89.88
283.282	100.88
283.513	90.88
283.745	92.88
283.976	90.88
284.207	82.88
284.439	92.88
284.67	91.88
284.901	88.88
285.132	98.88
285.364	87.88
285.595	86.88
285.826	97.88
286.057	88.88
286.288	90.88
286.52	87.88
286.751	109.88
286.982	81.88
287.213	89.88
287.444	94.88
287.675	88.88
287.906	87.88
288.138	89.88
288.369	82.88
288.6	84.88
288.831	104.88
289.062	98.88
289.293	61.88
289.524	94.88
289.755	104.88
289.986	97.88
290.217	99.88
290.448	86.88
290.679	99.88
290.91	90.88
291.141	93.88
291.371	98.88
291.602	93.88
291.833	85.88
292.064	76.88
292.295	105.88
292.526	86.88
292.757	93.88
292.987	99.88
293.218	96.88
293.449	105.88
293.68	94.88
293.91	88.88
294.141	84.88
294.372	91.88
294.603	106.88
294.833	76.88
295.064	89.88
295.295	84.88
295.525	75.88
295.756	96.88
295.987	94.88
296.217	95.88
296.448	83.88
296.679	96.88
296.909	85.88
297.14	105.88
297.37	91.88
297.601	90.88
297.831	97.88
298.062	105.88
298.292	95.88
298.523	88.88
298.753	88.88
298.984	87.88
299.214	86.88
299.445	91.88
299.675	102.88
299.905	106.88
300.136	89.88
300.366	102.88
300.597	89.88
300.827	106.88
301.057	91.88
301.288	105.88
301.518	88.88
301.748	96.88
301.979	87.88
302.209	89.88
302.439	111.88
302.669	100.88
302.9	94.88
303.13	87.88
303.36	99.88
303.59	91.88
303.82	98.88
304.051	97.88
304.281	78.88
304.511	103.88
304.741	90.88
304.971	103.88
305.201	103.88
305.431	99.88
305.661	105.88
305.891	96.88
306.121	88.88
306.352	85.88
306.582	92.88
306.812	87.88
307.042	97.88
307.272	103.88
307.502	101.88
307.731	99.88
307.961	79.88
308.191	87.88
308.421	95.88
308.651	108.88
308.881	100.88
309.111	89.88
309.341	94.88
309.571	100.88
309.8	92.88
310.03	92.88
310.26	100.88
310.49	89.88
310.72	99.88
310.949	83.88
311.179	98.88
311.409	102.88
311.639	91.88
311.868	82.88
312.098	91.88
312.328	91.88
312.557	101.88
312.787	101.88
313.017	95.88
313.246	85.88
313.476	87.88
313.706	84.88
313.935	101.88
314.165	102.88
314.394	91.88
314.624	107.88
314.853	95.88
315.083	89.88
315.312	94.88
315.542	101.88
315.771	103.88
316.001	91.88
316.23	113.88
316.46	86.88
316.689	94.88
316.919	89.88
317.148	91.88
317.377	93.88
317.607	94.88
317.836	96.88
318.065	69.88
318.295	95.88
318.524	102.88
318.753	95.88
318.983	94.88
319.212	97.88
319.441	86.88
319.67	83.88
319.9	91.88
320.129	95.88
320.358	89.88
320.587	103.88
320.816	92.88
321.046	92.88
321.275	91.88
321.504	79.88
321.733	88.88
321.962	94.88
322.191	96.88
322.42	96.88
322.649	91.88
322.878	97.88
323.108	93.88
323.337	100.88
323.566	90.88
323.795	95.88
324.024	89.88
324.253	79.88
324.482	86.88
324.71	99.88
324.939	96.88
325.168	96.88
325.397	100.88
325.626	85.88
325.855	106.88
326.084	107.88
326.313	103.88
326.542	96.88
326.77	88.88
326.999	92.88
327.228	86.88
327.457	94.88
327.686	96.88
327.914	99.88
328.143	102.88
328.372	101.88
328.6	77.88
328.829	98.88
329.058	85.88
329.287	84.88
329.515	88.88
329.744	81.88
329.972	88.88
330.201	91.88
330.43	90.88
330.658	78.88
330.887	81.88
331.115	97.88
331.344	104.88
331.572	103.88
331.801	89.88
332.03	100.88
332.258	104.88
332.486	97.88
332.715	98.88
332.943	102.88
333.172	98.88
333.4	94.88
333.629	85.88
333.857	80.88
334.085	94.88
334.314	96.88
334.542	98.88
334.771	84.88
334.999	99.88
335.227	98.88
335.455	95.88
335.684	102.88
335.912	96.88
336.14	93.88
336.369	87.88
336.597	98.88
336.825	99.88
337.053	91.88
337.281	88.88
337.51	92.88
337.738	96.88
337.966	103.88
338.194	96.88
338.422	101.88
338.65	83.88
338.878	91.88
339.106	96.88
339.334	102.88
339.562	97.88
339.79	91.88
340.018	88.88
340.246	89.88
340.474	92.88
340.702	102.88
340.93	99.88
341.158	96.88
341.386	91.88
341.614	106.88
341.842	101.88
342.07	90.88
342.298	89.88
342.526	88.88
342.754	102.88
342.981	94.88
343.209	93.88
343.437	92.88
343.665	93.88
343.893	96.88
344.12	99.88
344.348	108.88
344.576	92.88
344.804	95.88
345.031	96.88
345.259	87.88
345.487	88.88
345.714	94.88
345.942	94.88
346.17	68.88
346.397	98.88
346.625	108.88
346.853	94.88
347.08	92.88
347.308	98.88
347.535	91.88
347.763	88.88
347.99	94.88
348.218	93.88
348.445	101.88
348.673	89.88
348.9	93.88
349.128	90.88
349.355	107.88
349.583	96.88
349.81	84.88
350.037	82.88
350.265	98.88
350.492	87.88
350.72	88.88
350.947	95.88
351.174	89.88
351.402	88.88
351.629	98.88
351.856	82.88
352.083	100.88
352.311	105.88
352.538	104.88
352.765	99.88
352.992	110.88
353.22	74.88
353.447	89.88
353.674	100.88
353.901	69.88
354.128	88.88
354.355	84.88
354.583	98.88
354.81	84.88
355.037	99.88
355.264	100.88
355.491	98.88
355.718	89.88
355.945	92.88
356.172	93.88
356.399	95.88
356.626	93.88
356.853	92.88
357.08	93.88
357.307	92.88
357.534	103.88
357.761	91.88
357.988	85.88
358.215	87.88
358.441	95.88
358.668	98.88
358.895	90.88
359.122	89.88
359.349	95.88
359.576	95.88
359.802	78.88
360.029	87.88
360.256	104.88
360.483	85.88
360.709	98.88
360.936	91.88
361.163	87.88
361.39	99.88
361.616	86.88
361.843	77.88
362.07	90.88
362.296	86.88
362.523	80.88
362.749	95.88
362.976	83.88
363.203	112.88
363.429	99.88
363.656	92.88
363.882	88.88
364.109	91.88
364.335	92.88
364.562	89.88
364.788	88.88
365.015	91.88
365.241	98.88
365.468	89.88
365.694	95.88
365.92	108.88
366.147	95.88
366.373	97.88
366.599	91.88
366.826	87.88
367.052	85.88
367.278	99.88
367.505	89.88
367.731	91.88
367.957	84.88
368.184	88.88
368.41	92.88
368.636	100.88
368.862	98.88
369.089	97.88
369.315	97.88
369.541	91.88
369.767	101.88
369.993	108.88
370.219	94.88
370.445	94.88
370.672	95.88
370.898	79.88
371.124	75.88
371.35	83.88
371.576	100.88
371.802	103.88
372.028	83.88
372.254	101.88
372.48	92.88
372.706	101.88
372.932	111.88
373.158	95.88
373.384	87.88
373.61	87.88
373.835	79.88
374.061	86.88
374.287	85.88
374.513	103.88
374.739	91.88
374.965	91.88
375.191	103.88
375.416	105.88
375.642	89.88
375.868	108.88
376.094	90.88
376.319	101.88
376.545	89.88
376.771	91.88
376.997	107.88
377.222	96.88
377.448	92.88
377.674	90.88
377.899	97.88
378.125	90.88
378.35	90.88
378.576	75.88
378.802	90.88
379.027	89.88
379.253	100.88
379.478	83.88
379.704	88.88
379.929	84.88
380.155	91.88
380.38	116.88
380.606	96.88
380.831	70.88
381.057	88.88
381.282	91.88
381.507	105.88
381.733	81.88
381.958	89.88
382.184	93.88
382.409	89.88
382.634	98.88
382.86	100.88
383.085	89.88
383.31	93.88
383.535	101.88
383.761	102.88
383.986	89.88
384.211	95.88
384.436	94.88
384.662	96.88
384.887	83.88
385.112	89.88
385.337	93.88
385.562	95.88
385.787	87.88
386.013	105.88
386.238	95.88
386.463	114.88
386.688	94.88
386.913	105.88
387.138	94.88
387.363	103.88
387.588	108.88
387.813	107.88
388.038	91.88
388.263	111.88
388.488	98.88
388.713	91.88
388.938	92.88
389.163	103.88
389.387	97.88
389.612	93.88
389.837	94.88
390.062	100.88
390.287	90.88
390.512	98.88
390.736	89.88
390.961	91.88
391.186	87.88
391.411	100.88
391.636	98.88
391.86	107.88
392.085	102.88
392.31	89.88
392.534	103.88
392.759	96.88
392.984	86.88
393.208	91.88
393.433	94.88
393.658	88.88
393.882	85.88
394.107	87.88
394.331	96.88
394.556	92.88
394.78	88.88
395.005	93.88
395.229	107.88
395.454	92.88
395.678	97.88
395.903	95.88
396.127	92.88
396.352	93.88
396.576	81.88
396.801	106.88
397.025	109.88
397.249	86.88
397.474	112.88
397.698	115.88
397.922	81.88
398.147	96.88
398.371	100.88
398.595	101.88
398.82	102.88
399.044	108.88
399.268	103.88
399.492	88.88
399.717	119.88
399.941	105.88
400.165	95.88
400.389	99.88
400.613	92.88
400.837	90.88
401.062	102.88
401.286	95.88
401.51	102.88
401.734	101.88
401.958	79.88
402.182	91.88
402.406	114.88
402.63	91.88
402.854	93.88
403.078	100.88
403.302	117.88
403.526	104.88
403.75	88.88
403.974	103.88
404.198	115.88
404.422	110.88
404.645	96.88
404.869	96.88
405.093	120.88
405.317	96.88
405.541	100.88
405.765	102.88
405.988	99.88
406.212	101.88
406.436	99.88
406.66	115.88
406.883	103.88
407.107	107.88
407.331	112.88
407.555	102.88
407.778	103.88
408.002	105.88
408.226	108.88
408.449	98.88
408.673	90.88
408.896	90.88
409.12	99.88
409.344	97.88
409.567	92.88
409.791	103.88
410.014	99.88
410.238	117.88
410.461	111.88
410.685	100.88
410.908	110.88
411.132	99.88
411.355	91.88
411.578	100.88
411.802	94.88
412.025	103.88
412.249	101.88
412.472	88.88
412.695	97.88
412.919	95.88
413.142	100.88
413.365	109.88
413.589	90.88
413.812	99.88
414.035	99.88
414.258	110.88
414.482	101.88
414.705	106.88
414.928	108.88
415.151	90.88
415.374	104.88
415.597	116.88
415.821	92.88
416.044	88.88
416.267	101.88
416.49	102.88
416.713	90.88
416.936	95.88
417.159	105.88
417.382	99.88
417.605	107.88
417.828	98.88
418.051	92.88
418.274	93.88
418.497	81.88
418.72	115.88
418.943	100.88
419.166	107.88
419.389	100.88
419.611	98.88
419.834	107.88
420.057	101.88
420.28	102.88
420.503	104.88
420.726	107.88
420.948	90.88
421.171	105.88
421.394	95.88
421.617	99.88
421.839	95.88
422.062	95.88
422.285	96.88
422.507	116.88
422.73	102.88
422.953	92.88
423.175	106.88
423.398	115.88
423.621	118.88
423.843	102.88
424.066	112.88
424.288	100.88
424.511	104.88
424.733	103.88
424.956	84.88
425.178	100.88
425.401	102.88
425.623	97.88
425.846	96.88
426.068	96.88
426.291	105.88
426.513	107.88
426.735	97.88
426.958	100.88
427.18	108.88
427.402	101.88
427.625	98.88
427.847	90.88
428.069	98.88
428.292	96.88
428.514	97.88
428.736	91.88
428.958	94.88
429.181	104.88
429.403	105.88
429.625	102.88
429.847	95.88
430.069	101.88
430.292	99.88
430.514	100.88
430.736	82.88
430.958	91.88
431.18	102.88
431.402	98.88
431.624	94.88
431.846	87.88
432.068	90.88
432.29	101.88
432.512	94.88
432.734	92.88
432.956	104.88
433.178	100.88
433.4	111.88
433.622	100.88
433.844	83.88
434.066	98.88
434.287	84.88
434.509	106.88
434.731	83.88
434.953	83.88
435.175	76.88
435.397	112.88
435.618	102.88
435.84	100.88
436.062	104.88
436.284	100.88
436.505	82.88
436.727	105.88
436.949	98.88
437.17	93.88
437.392	108.88
437.614	103.88
437.835	104.88
438.057	90.88
438.278	95.88
438.5	97.88
438.721	102.88
438.943	90.88
439.165	88.88
439.386	94.88
439.608	93.88
439.829	105.88
440.05	94.88
440.272	100.88
440.493	101.88
440.715	103.88
440.936	108.88
441.158	100.88
441.379	103.88
441.6	107.88
441.822	104.88
442.043	103.88
442.264	100.88
442.486	100.88
442.707	95.88
442.928	97.88
443.149	91.88
443.371	89.88
443.592	99.88
443.813	88.88
444.034	81.88
444.255	108.88
444.476	103.88
444.698	99.88
444.919	102.88
445.14	225.88
445.361	146.88
445.582	104.88
445.803	102.88
446.024	82.88
446.245	107.88
446.466	98.88
446.687	88.88
446.908	93.88
447.129	91.88
447.35	112.88
447.571	108.88
447.792	101.88
448.013	86.88
448.234	90.88
448.455	89.88
448.675	103.88
448.896	86.88
449.117	98.88
449.338	102.88
449.559	93.88
449.779	84.88
450	98.88
450.221	98.88
450.442	92.88
450.662	97.88
450.883	99.88
451.104	99.88
451.324	100.88
451.545	96.88
451.766	75.88
451.986	92.88
452.207	100.88
452.428	94.88
452.648	91.88
452.869	98.88
453.089	89.88
453.31	95.88
453.53	92.88
453.751	84.88
453.971	98.88
454.192	99.88
454.412	75.88
454.633	100.88
454.853	85.88
455.073	90.88
455.294	76.88
455.514	75.88
455.734	98.88
455.955	94.88
456.175	90.88
456.395	105.88
456.616	87.88
456.836	96.88
457.056	99.88
457.276	77.88
457.497	95.88
457.717	80.88
457.937	81.88
458.157	90.88
458.377	97.88
458.598	82.88
458.818	87.88
459.038	90.88
459.258	96.88
459.478	91.88
459.698	103.88
459.918	95.88
460.138	95.88
460.358	100.88
460.578	84.88
460.798	105.88
461.018	90.88
461.238	105.88
461.458	100.88
461.678	106.88
461.898	99.88
462.118	116.88
462.338	102.88
462.558	107.88
462.777	105.88
462.997	107.88
463.217	120.88
463.437	107.88
463.657	103.88
463.876	98.88
464.096	117.88
464.316	108.88
464.536	94.88
464.755	89.88
464.975	94.88
465.195	101.88
465.414	104.88
465.634	98.88
465.854	93.88
466.073	103.88
466.293	99.88
466.512	108.88
466.732	88.88
466.951	97.88
467.171	99.88
467.391	86.88
467.61	95.88
467.829	96.88
468.049	101.88
468.268	98.88
468.488	94.88
468.707	83.88
468.927	105.88
469.146	103.88
469.365	94.88
469.585	99.88
469.804	105.88
470.023	98.88
470.243	85.88
470.462	99.88
470.681	107.88
470.901	107.88
471.12	90.88
471.339	109.88
471.558	102.88
471.777	93.88
471.997	112.88
472.216	95.88
472.435	84.88
472.654	95.88
472.873	98.88
473.092	105.88
473.311	111.88
473.53	115.88
473.749	105.88
473.968	102.88
474.187	103.88
474.406	99.88
474.625	92.88
474.844	108.88
475.063	88.88
475.282	105.88
475.501	107.88
475.72	86.88
475.939	89.88
476.158	106.88
476.377	104.88
476.596	105.88
476.814	103.88
477.033	101.88
477.252	101.88
477.471	91.88
477.69	109.88
477.908	113.88
478.127	98.88
478.346	98.88
478.564	96.88
478.783	104.88
479.002	115.88
479.22	104.88
479.439	118.88
479.658	102.88
479.876	101.88
480.095	90.88
480.313	85.88
480.532	100.88
480.751	106.88
480.969	102.88
481.188	106.88
481.406	101.88
481.624	103.88
481.843	95.88
482.061	102.88
482.28	100.88
482.498	107.88
482.717	113.88
482.935	101.88
483.153	119.88
483.372	109.88
483.59	107.88
483.808	96.88
484.027	101.88
484.245	103.88
484.463	105.88
484.681	117.88
484.9	121.88
485.118	97.88
485.336	119.88
485.554	99.88
485.772	103.88
485.99	99.88
486.209	121.88
486.427	89.88
486.645	99.88
486.863	109.88
487.081	90.88
487.299	114.88
487.517	114.88
487.735	101.88
487.953	113.88
488.171	120.88
488.389	106.88
488.607	105.88
488.825	115.88
489.043	110.88
489.261	103.88
489.479	114.88
489.696	120.88
489.914	114.88
490.132	114.88
490.35	104.88
490.568	108.88
490.786	117.88
491.003	116.88
491.221	120.88
491.439	122.88
491.657	112.88
491.874	112.88
492.092	125.88
492.31	118.88
492.527	119.88
492.745	115.88
492.963	117.88
493.18	117.88
493.398	120.88
493.615	139.88
493.833	110.88
494.05	112.88
494.268	110.88
494.485	110.88
494.703	114.88
494.92	105.88
495.138	120.88
495.355	111.88
495.573	118.88
495.79	119.88
496.008	104.88
496.225	123.88
496.442	120.88
496.66	114.88
496.877	118.88
497.094	124.88
497.312	113.88
497.529	114.88
497.746	106.88
497.963	117.88
498.181	91.88
498.398	107.88
498.615	121.88
498.832	107.88
499.049	138.88
499.267	128.88
499.484	119.88
499.701	135.88
499.918	147.88
500.135	151.88
500.352	176.88
500.569	182.88
500.786	171.88
501.003	158.88
501.22	154.88
501.437	146.88
501.654	133.88
501.871	126.88
502.088	115.88
502.305	132.88
502.522	120.88
502.739	120.88
502.956	126.88
503.172	101.88
503.389	107.88
503.606	116.88
503.823	120.88
504.04	113.88
504.256	109.88
504.473	111.88
504.69	115.88
504.907	113.88
505.123	99.88
505.34	108.88
505.557	105.88
505.773	110.88
505.99	95.88
506.207	104.88
506.423	115.88
506.64	92.88
506.856	110.88
507.073	100.88
507.289	111.88
507.506	84.88
507.722	114.88
507.939	115.88
508.155	110.88
508.372	108.88
508.588	117.88
508.805	105.88
509.021	110.88
509.238	98.88
509.454	97.88
509.67	94.88
509.887	111.88
510.103	95.88
510.319	104.88
510.536	115.88
510.752	104.88
510.968	99.88
511.184	93.88
511.401	104.88
511.617	101.88
511.833	116.88
512.049	93.88
512.265	94.88
512.481	103.88
512.698	92.88
512.914	99.88
513.13	100.88
513.346	98.88
513.562	104.88
513.778	102.88
513.994	117.88
514.21	107.88
514.426	108.88
514.642	108.88
514.858	106.88
515.074	118.88
515.29	116.88
515.506	95.88
515.721	103.88
515.937	102.88
516.153	105.88
516.369	100.88
516.585	106.88
516.801	105.88
517.016	113.88
517.232	99.88
517.448	113.88
517.664	126.88
517.879	111.88
518.095	119.88
518.311	102.88
518.527	96.88
518.742	125.88
518.958	109.88
519.173	112.88
519.389	105.88
519.605	102.88
519.82	97.88
520.036	103.88
520.251	107.88
520.467	87.88
520.682	115.88
520.898	108.88
521.113	105.88
521.329	125.88
521.544	103.88
521.76	104.88
521.975	97.88
522.19	115.88
522.406	104.88
522.621	103.88
522.836	97.88
523.052	98.88
523.267	106.88
523.482	105.88
523.698	109.88
523.913	106.88
524.128	103.88
524.343	107.88
524.559	113.88
524.774	99.88
524.989	101.88
525.204	128.88
525.419	116.88
525.634	104.88
525.849	114.88
526.064	111.88
526.28	96.88
526.495	105.88
526.71	82.88
526.925	87.88
527.14	103.88
527.355	83.88
527.57	99.88
527.785	98.88
527.999	100.88
528.214	100.88
528.429	100.88
528.644	117.88
528.859	99.88
529.074	102.88
529.289	107.88
529.503	102.88
529.718	121.88
529.933	107.88
530.148	111.88
530.363	91.88
530.577	94.88
530.792	91.88
531.007	94.88
531.221	100.88
531.436	99.88
531.651	95.88
531.865	96.88
532.08	102.88
532.295	103.88
532.509	110.88
532.724	96.88
532.938	104.88
533.153	103.88
533.367	102.88
533.582	111.88
533.796	86.88
534.011	96.88
534.225	93.88
534.44	95.88
534.654	111.88
534.868	102.88
535.083	90.88
535.297	111.88
535.511	96.88
535.726	110.88
535.94	96.88
536.154	106.88
536.369	100.88
536.583	91.88
536.797	106.88
537.011	101.88
537.225	108.88
537.44	92.88
537.654	112.88
537.868	88.88
538.082	105.88
538.296	90.88
538.51	116.88
538.724	97.88
538.938	104.88
539.153	88.88
539.367	87.88
539.581	99.88
539.795	96.88
540.009	102.88
540.222	99.88
540.436	106.88
540.65	100.88
540.864	105.88
541.078	99.88
541.292	106.88
541.506	107.88
541.72	119.88
541.934	116.88
542.147	123.88
542.361	102.88
542.575	95.88
542.789	107.88
543.002	115.88
543.216	88.88
543.43	95.88
543.644	97.88
543.857	101.88
544.071	118.88
544.285	107.88
544.498	114.88
544.712	110.88
544.925	105.88
545.139	99.88
545.352	108.88
545.566	105.88
545.779	99.88
545.993	96.88
546.206	101.88
546.42	103.88
546.633	104.88
546.847	109.88
547.06	107.88
547.274	105.88
547.487	116.88
547.7	105.88
547.914	106.88
548.127	111.88
548.34	104.88
548.554	118.88
548.767	92.88
548.98	111.88
549.193	102.88
549.407	95.88
549.62	117.88
549.833	104.88
550.046	94.88
550.259	101.88
550.473	108.88
550.686	112.88
550.899	77.88
551.112	110.88
551.325	104.88
551.538	107.88
551.751	97.88
551.964	94.88
552.177	110.88
552.39	114.88
552.603	110.88
552.816	92.88
553.029	108.88
553.242	113.88
553.455	110.88
553.667	112.88
553.88	119.88
554.093	100.88
554.306	95.88
554.519	102.88
554.732	114.88
554.944	112.88
555.157	115.88
555.37	106.88
555.583	106.88
555.795	112.88
556.008	107.88
556.221	100.88
556.433	101.88
556.646	87.88
556.859	101.88
557.071	112.88
557.284	106.88
557.496	98.88
557.709	106.88
557.921	108.88
558.134	110.88
558.346	106.88
558.559	99.88
558.771	94.88
558.984	97.88
559.196	88.88
559.409	100.88
559.621	105.88
559.833	103.88
560.046	97.88
560.258	91.88
560.47	96.88
560.683	103.88
560.895	113.88
561.107	106.88
561.32	99.88
561.532	103.88
561.744	105.88
561.956	100.88
562.168	97.88
562.381	101.88
562.593	106.88
562.805	80.88
563.017	82.88
563.229	99.88
563.441	100.88
563.653	97.88
563.865	91.88
564.077	106.88
564.289	102.88
564.501	110.88
564.713	92.88
564.925	93.88
565.137	91.88
565.349	83.88
565.561	98.88
565.773	105.88
565.985	99.88
566.197	109.88
566.408	112.88
566.62	97.88
566.832	98.88
567.044	103.88
567.255	102.88
567.467	105.88
567.679	104.88
567.891	104.88
568.102	122.88
568.314	110.88
568.526	121.88
568.737	113.88
568.949	101.88
569.161	97.88
569.372	91.88
569.584	94.88
569.795	101.88
570.007	102.88
570.218	103.88
570.43	101.88
570.641	94.88
570.853	99.88
571.064	94.88
571.276	111.88
571.487	103.88
571.698	89.88
571.91	96.88
572.121	106.88
572.333	107.88
572.544	85.88
572.755	89.88
572.966	85.88
573.178	65.88
573.389	98.88
573.6	85.88
573.811	107.88
574.023	88.88
574.234	93.88
574.445	87.88
574.656	106.88
574.867	105.88
575.078	106.88
575.289	92.88
575.501	96.88
575.712	98.88
575.923	104.88
576.134	99.88
576.345	104.88
576.556	85.88
576.767	100.88
576.978	96.88
577.188	87.88
577.399	75.88
577.61	81.88
577.821	83.88
578.032	92.88
578.243	110.88
578.454	93.88
578.665	107.88
578.875	92.88
579.086	87.88
579.297	84.88
579.508	96.88
579.718	88.88
579.929	81.88
580.14	102.88
580.35	96.88
580.561	89.88
580.772	95.88
580.982	90.88
581.193	101.88
581.403	91.88
581.614	88.88
581.825	96.88
582.035	84.88
582.246	82.88
582.456	75.88
582.667	104.88
582.877	89.88
583.087	88.88
583.298	97.88
583.508	98.88
583.719	98.88
583.929	100.88
584.139	101.88
584.35	80.88
584.56	74.88
584.77	88.88
584.981	96.88
585.191	101.88
585.401	84.88
585.611	85.88
585.821	104.88
586.032	89.88
586.242	84.88
586.452	86.88
586.662	87.88
586.872	92.88
587.082	95.88
587.292	89.88
587.502	88.88
587.713	89.88
587.923	91.88
588.133	80.88
588.343	97.88
588.553	84.88
588.762	99.88
588.972	94.88
589.182	98.88
589.392	93.88
589.602	102.88
589.812	101.88
590.022	94.88
590.232	95.88
590.441	79.88
590.651	97.88
590.861	84.88
591.071	82.88
591.281	87.88
591.49	94.88
591.7	94.88
591.91	93.88
592.119	96.88
592.329	106.88
592.539	98.88
592.748	95.88
592.958	92.88
593.167	91.88
593.377	86.88
593.587	97.88
593.796	100.88
594.006	99.88
594.215	84.88
594.424	105.88
594.634	89.88
594.843	89.88
595.053	79.88
595.262	84.88
595.472	106.88
595.681	111.88
595.89	103.88
596.1	101.88
596.309	95.88
596.518	83.88
596.727	92.88
596.937	88.88
597.146	88.88
597.355	97.88
597.564	92.88
597.774	90.88
597.983	98.88
598.192	91.88
598.401	106.88
598.61	90.88
598.819	91.88
599.028	87.88
599.237	90.88
599.446	81.88
599.655	87.88
599.864	87.88
600.073	95.88
600.282	89.88
600.491	85.88
600.7	94.88
600.909	83.88
601.118	86.88
601.327	92.88
601.536	100.88
601.745	97.88
601.953	86.88
602.162	85.88
602.371	86.88
602.58	97.88
602.789	87.88
602.997	88.88
603.206	84.88
603.415	94.88
603.623	91.88
603.832	82.88
604.041	85.88
604.249	79.88
604.458	76.88
604.666	88.88
604.875	88.88
605.084	86.88
605.292	89.88
605.501	81.88
605.709	89.88
605.918	94.88
606.126	99.88
606.334	83.88
606.543	85.88
606.751	96.88
606.96	94.88
607.168	94.88
607.376	91.88
607.585	86.88
607.793	97.88
608.001	92.88
608.21	73.88
608.418	88.88
608.626	94.88
608.834	82.88
609.043	102.88
609.251	81.88
609.459	85.88
609.667	96.88
609.875	89.88
610.083	87.88
610.291	95.88
610.499	82.88
610.707	93.88
610.916	82.88
611.124	84.88
611.332	81.88
611.54	89.88
611.748	70.88
611.955	91.88
612.163	93.88
612.371	89.88
612.579	91.88
612.787	86.88
612.995	92.88
613.203	102.88
613.411	95.88
613.618	94.88
613.826	82.88
614.034	102.88
614.242	82.88
614.449	75.88
614.657	76.88
614.865	96.88
615.072	74.88
615.28	76.88
615.488	93.88
615.695	81.88
615.903	91.88
616.111	96.88
616.318	99.88
616.526	86.88
616.733	82.88
616.941	87.88
617.148	100.88
617.356	93.88
617.563	90.88
617.771	86.88
617.978	99.88
618.185	97.88
618.393	90.88
618.6	87.88
618.807	97.88
619.015	98.88
619.222	87.88
619.429	90.88
619.637	98.88
619.844	79.88
620.051	98.88
620.258	80.88
620.466	97.88
620.673	98.88
620.88	86.88
621.087	82.88
621.294	91.88
621.501	86.88
621.708	91.88
621.915	77.88
622.122	100.88
622.329	84.88
622.536	79.88
622.743	80.88
622.95	90.88
623.157	87.88
623.364	82.88
623.571	93.88
623.778	94.88
623.985	101.88
624.192	98.88
624.399	74.88
624.606	82.88
624.812	95.88
625.019	101.88
625.226	84.88
625.433	85.88
625.639	74.88
625.846	90.88
626.053	82.88
626.259	96.88
626.466	83.88
626.673	74.88
626.879	91.88
627.086	92.88
627.293	90.88
627.499	78.88
627.706	92.88
627.912	89.88
628.119	91.88
628.325	90.88
628.532	78.88
628.738	74.88
628.945	87.88
629.151	79.88
629.357	82.88
629.564	90.88
629.77	96.88
629.976	83.88
630.183	87.88
630.389	98.88
630.595	92.88
630.802	84.88
631.008	90.88
631.214	87.88
631.42	90.88
631.627	92.88
631.833	93.88
632.039	67.88
632.245	96.88
632.451	84.88
632.657	101.88
632.863	95.88
633.069	87.88
633.275	100.88
633.481	74.88
633.688	87.88
633.893	91.88
634.099	88.88
634.305	94.88
634.511	85.88
634.717	105.88
634.923	82.88
635.129	85.88
635.335	81.88
635.541	88.88
635.747	81.88
635.952	98.88
636.158	91.88
636.364	94.88
636.57	81.88
636.775	90.88
636.981	98.88
637.187	80.88
637.392	84.88
637.598	96.88
637.804	91.88
638.009	86.88
638.215	96.88
638.421	84.88
638.626	91.88
638.832	82.88
639.037	75.88
639.243	74.88
639.448	85.88
639.654	96.88
639.859	92.88
640.065	95.88
640.27	85.88
640.475	91.88
640.681	91.88
640.886	81.88
641.091	74.88
641.297	90.88
641.502	93.88
641.707	94.88
641.913	100.88
642.118	84.88
642.323	90.88
642.528	79.88
642.733	90.88
642.939	81.88
643.144	91.88
643.349	96.88
643.554	85.88
643.759	96.88
643.964	71.88
644.169	90.88
644.374	89.88
644.579	88.88
644.784	103.88
644.989	79.88
645.194	91.88
645.399	92.88
645.604	92.88
645.809	84.88
646.014	90.88
646.219	81.88
646.423	87.88
646.628	72.88
646.833	90.88
647.038	85.88
647.243	83.88
647.447	82.88
647.652	87.88
647.857	84.88
648.062	71.88
648.266	91.88
648.471	92.88
648.676	74.88
648.88	96.88
649.085	87.88
649.289	76.88
649.494	75.88
649.698	82.88
649.903	97.88
650.107	92.88
650.312	82.88
650.516	88.88
650.721	83.88
650.925	81.88
651.13	86.88
651.334	75.88
651.539	68.88
651.743	79.88
651.947	91.88
652.152	90.88
652.356	81.88
652.56	84.88
652.764	79.88
652.969	84.88
653.173	68.88
653.377	90.88
653.581	85.88
653.785	82.88
653.99	71.88
654.194	82.88
654.398	98.88
654.602	92.88
654.806	100.88
655.01	83.88
655.214	92.88
655.418	93.88
655.622	77.88
655.826	81.88
656.03	94.88
656.234	83.88
656.438	85.88
656.642	93.88
656.846	86.88
657.049	91.88
657.253	78.88
657.457	87.88
657.661	88.88
657.865	79.88
658.068	80.88
658.272	82.88
658.476	76.88
658.68	91.88
658.883	89.88
659.087	68.88
659.291	77.88
659.494	84.88
659.698	90.88
659.901	97.88
660.105	87.88
660.309	69.88
660.512	106.88
660.716	93.88
660.919	98.88
661.123	91.88
661.326	88.88
661.53	77.88
661.733	85.88
661.936	82.88
662.14	82.88
662.343	65.88
662.546	87.88
662.75	78.88
662.953	75.88
663.156	75.88
663.36	90.88
663.563	73.88
663.766	70.88
663.969	91.88
664.173	90.88
664.376	81.88
664.579	80.88
664.782	71.88
664.985	78.88
665.188	94.88
665.391	83.88
665.594	80.88
665.797	76.88
666	84.88
666.203	80.88
666.406	84.88
666.609	89.88
666.812	78.88
667.015	78.88
667.218	73.88
667.421	82.88
667.624	85.88
667.827	86.88
668.03	91.88
668.232	85.88
668.435	84.88
668.638	72.88
668.841	74.88
669.043	84.88
669.246	71.88
669.449	86.88
669.651	82.88
669.854	80.88
670.057	83.88
670.259	90.88
670.462	84.88
670.665	88.88
670.867	78.88
671.07	76.88
671.272	72.88
671.475	83.88
671.677	77.88
671.88	82.88
672.082	84.88
672.284	79.88
672.487	83.88
672.689	70.88
672.892	60.88
