Data from Location5.07152019.Energy5.Lamp.07192019.3%Agarose_HRD10591_16-04-45-630.txt Node
Date: Fri Jul 19 16:04:45 EDT 2019
User: cochatt
Spectrometer: HR+D1059
Trigger mode: 1
Integration Time (sec): 1.000000E-1
Scans to average: 1
Electric dark correction enabled: true
Nonlinearity correction enabled: false
Boxcar width: 0
XAxis mode: Wavelengths
Number of Pixels in Spectrum: 2048
>>>>>Begin Spectral Data<<<<<
223.165	-1.5
223.4	-1.5
223.635	-1.5
223.869	-18.5
224.104	-15.5
224.338	-6.5
224.573	-15.5
224.808	-22.5
225.042	-4.5
225.277	-13.5
225.511	-5.5
225.746	-8.5
225.98	11.5
226.215	6.5
226.449	19.5
226.683	14.5
226.918	23.5
227.152	36.5
227.387	27.5
227.621	38.5
227.856	49.5
228.09	37.5
228.324	52.5
228.559	51.5
228.793	67.5
229.027	63.5
229.262	62.5
229.496	63.5
229.73	58.5
229.964	66.5
230.199	65.5
230.433	72.5
230.667	73.5
230.901	76.5
231.136	78.5
231.37	75.5
231.604	81.5
231.838	73.5
232.072	74.5
232.306	82.5
232.541	91.5
232.775	73.5
233.009	77.5
233.243	82.5
233.477	79.5
233.711	80.5
233.945	72.5
234.179	71.5
234.413	68.5
234.647	85.5
234.881	77.5
235.115	71.5
235.349	75.5
235.583	81.5
235.817	81.5
236.051	75.5
236.285	84.5
236.519	81.5
236.753	71.5
236.987	88.5
237.221	82.5
237.455	82.5
237.689	77.5
237.922	85.5
238.156	82.5
238.39	78.5
238.624	76.5
238.858	66.5
239.091	78.5
239.325	69.5
239.559	82.5
239.793	76.5
240.027	77.5
240.26	84.5
240.494	72.5
240.728	75.5
240.961	82.5
241.195	79.5
241.429	67.5
241.662	69.5
241.896	68.5
242.13	67.5
242.363	70.5
242.597	66.5
242.83	75.5
243.064	82.5
243.298	81.5
243.531	64.5
243.765	83.5
243.998	72.5
244.232	75.5
244.465	83.5
244.699	77.5
244.932	77.5
245.166	77.5
245.399	66.5
245.633	76.5
245.866	64.5
246.099	70.5
246.333	92.5
246.566	75.5
246.8	86.5
247.033	86.5
247.266	82.5
247.5	67.5
247.733	68.5
247.966	78.5
248.2	69.5
248.433	61.5
248.666	75.5
248.899	66.5
249.133	81.5
249.366	71.5
249.599	85.5
249.832	82.5
250.066	82.5
250.299	90.5
250.532	75.5
250.765	79.5
250.998	71.5
251.231	75.5
251.465	78.5
251.698	97.5
251.931	78.5
252.164	93.5
252.397	83.5
252.63	83.5
252.863	72.5
253.096	77.5
253.329	64.5
253.562	71.5
253.795	80.5
254.028	82.5
254.261	75.5
254.494	87.5
254.727	72.5
254.96	87.5
255.193	84.5
255.426	87.5
255.659	88.5
255.892	81.5
256.124	78.5
256.357	79.5
256.59	75.5
256.823	66.5
257.056	68.5
257.289	80.5
257.521	83.5
257.754	84.5
257.987	86.5
258.22	85.5
258.452	70.5
258.685	75.5
258.918	83.5
259.151	86.5
259.383	87.5
259.616	77.5
259.849	83.5
260.081	94.5
260.314	80.5
260.547	74.5
260.779	73.5
261.012	90.5
261.244	82.5
261.477	85.5
261.71	73.5
261.942	83.5
262.175	82.5
262.407	76.5
262.64	82.5
262.872	85.5
263.105	90.5
263.337	80.5
263.57	68.5
263.802	82.5
264.035	74.5
264.267	87.5
264.499	81.5
264.732	72.5
264.964	85.5
265.197	76.5
265.429	74.5
265.661	91.5
265.894	67.5
266.126	93.5
266.358	86.5
266.591	90.5
266.823	87.5
267.055	78.5
267.287	84.5
267.52	83.5
267.752	97.5
267.984	86.5
268.216	93.5
268.448	101.5
268.681	91.5
268.913	81.5
269.145	81.5
269.377	97.5
269.609	90.5
269.841	89.5
270.073	94.5
270.306	97.5
270.538	77.5
270.77	72.5
271.002	86.5
271.234	70.5
271.466	74.5
271.698	98.5
271.93	102.5
272.162	81.5
272.394	78.5
272.626	82.5
272.858	81.5
273.09	95.5
273.322	90.5
273.553	70.5
273.785	81.5
274.017	86.5
274.249	73.5
274.481	76.5
274.713	73.5
274.945	87.5
275.176	70.5
275.408	88.5
275.64	71.5
275.872	97.5
276.104	89.5
276.335	85.5
276.567	89.5
276.799	80.5
277.031	91.5
277.262	90.5
277.494	83.5
277.726	78.5
277.957	90.5
278.189	83.5
278.421	84.5
278.652	69.5
278.884	90.5
279.115	90.5
279.347	81.5
279.579	93.5
279.81	92.5
280.042	98.5
280.273	94.5
280.505	87.5
280.736	90.5
280.968	84.5
281.199	82.5
281.431	85.5
281.662	90.5
281.894	88.5
282.125	89.5
282.356	84.5
282.588	85.5
282.819	89.5
283.051	106.5
283.282	89.5
283.513	90.5
283.745	90.5
283.976	98.5
284.207	83.5
284.439	89.5
284.67	95.5
284.901	81.5
285.132	82.5
285.364	80.5
285.595	90.5
285.826	97.5
286.057	86.5
286.288	73.5
286.52	68.5
286.751	81.5
286.982	95.5
287.213	97.5
287.444	85.5
287.675	81.5
287.906	108.5
288.138	95.5
288.369	91.5
288.6	90.5
288.831	89.5
289.062	75.5
289.293	84.5
289.524	85.5
289.755	87.5
289.986	91.5
290.217	88.5
290.448	106.5
290.679	91.5
290.91	88.5
291.141	74.5
291.371	96.5
291.602	95.5
291.833	80.5
292.064	90.5
292.295	83.5
292.526	97.5
292.757	75.5
292.987	94.5
293.218	83.5
293.449	93.5
293.68	99.5
293.91	86.5
294.141	93.5
294.372	103.5
294.603	82.5
294.833	83.5
295.064	83.5
295.295	74.5
295.525	80.5
295.756	83.5
295.987	81.5
296.217	83.5
296.448	82.5
296.679	86.5
296.909	97.5
297.14	99.5
297.37	86.5
297.601	89.5
297.831	89.5
298.062	67.5
298.292	88.5
298.523	97.5
298.753	104.5
298.984	102.5
299.214	94.5
299.445	98.5
299.675	100.5
299.905	98.5
300.136	76.5
300.366	87.5
300.597	88.5
300.827	91.5
301.057	93.5
301.288	93.5
301.518	90.5
301.748	83.5
301.979	95.5
302.209	85.5
302.439	95.5
302.669	85.5
302.9	85.5
303.13	83.5
303.36	90.5
303.59	91.5
303.82	91.5
304.051	94.5
304.281	95.5
304.511	77.5
304.741	80.5
304.971	82.5
305.201	97.5
305.431	93.5
305.661	89.5
305.891	75.5
306.121	87.5
306.352	81.5
306.582	86.5
306.812	86.5
307.042	88.5
307.272	83.5
307.502	87.5
307.731	88.5
307.961	92.5
308.191	92.5
308.421	82.5
308.651	85.5
308.881	97.5
309.111	91.5
309.341	90.5
309.571	104.5
309.8	99.5
310.03	92.5
310.26	82.5
310.49	90.5
310.72	90.5
310.949	101.5
311.179	97.5
311.409	73.5
311.639	96.5
311.868	90.5
312.098	103.5
312.328	94.5
312.557	74.5
312.787	103.5
313.017	91.5
313.246	90.5
313.476	80.5
313.706	98.5
313.935	76.5
314.165	94.5
314.394	85.5
314.624	103.5
314.853	97.5
315.083	88.5
315.312	101.5
315.542	92.5
315.771	109.5
316.001	91.5
316.23	83.5
316.46	75.5
316.689	85.5
316.919	89.5
317.148	90.5
317.377	86.5
317.607	102.5
317.836	80.5
318.065	93.5
318.295	89.5
318.524	81.5
318.753	88.5
318.983	94.5
319.212	109.5
319.441	83.5
319.67	102.5
319.9	89.5
320.129	100.5
320.358	87.5
320.587	85.5
320.816	81.5
321.046	97.5
321.275	99.5
321.504	91.5
321.733	91.5
321.962	88.5
322.191	88.5
322.42	91.5
322.649	92.5
322.878	103.5
323.108	97.5
323.337	98.5
323.566	94.5
323.795	84.5
324.024	67.5
324.253	84.5
324.482	97.5
324.71	102.5
324.939	91.5
325.168	81.5
325.397	91.5
325.626	97.5
325.855	89.5
326.084	79.5
326.313	97.5
326.542	103.5
326.77	98.5
326.999	91.5
327.228	98.5
327.457	82.5
327.686	87.5
327.914	98.5
328.143	94.5
328.372	94.5
328.6	90.5
328.829	92.5
329.058	86.5
329.287	90.5
329.515	83.5
329.744	94.5
329.972	103.5
330.201	104.5
330.43	87.5
330.658	88.5
330.887	96.5
331.115	85.5
331.344	93.5
331.572	100.5
331.801	95.5
332.03	102.5
332.258	85.5
332.486	96.5
332.715	98.5
332.943	87.5
333.172	103.5
333.4	104.5
333.629	93.5
333.857	94.5
334.085	95.5
334.314	97.5
334.542	98.5
334.771	94.5
334.999	86.5
335.227	82.5
335.455	93.5
335.684	81.5
335.912	81.5
336.14	92.5
336.369	110.5
336.597	96.5
336.825	89.5
337.053	100.5
337.281	93.5
337.51	80.5
337.738	75.5
337.966	93.5
338.194	82.5
338.422	89.5
338.65	94.5
338.878	88.5
339.106	85.5
339.334	86.5
339.562	88.5
339.79	90.5
340.018	86.5
340.246	90.5
340.474	106.5
340.702	93.5
340.93	90.5
341.158	87.5
341.386	104.5
341.614	95.5
341.842	86.5
342.07	88.5
342.298	89.5
342.526	89.5
342.754	80.5
342.981	85.5
343.209	96.5
343.437	81.5
343.665	86.5
343.893	109.5
344.12	93.5
344.348	92.5
344.576	100.5
344.804	99.5
345.031	85.5
345.259	91.5
345.487	94.5
345.714	96.5
345.942	89.5
346.17	91.5
346.397	95.5
346.625	94.5
346.853	96.5
347.08	87.5
347.308	105.5
347.535	96.5
347.763	93.5
347.99	93.5
348.218	82.5
348.445	86.5
348.673	98.5
348.9	87.5
349.128	99.5
349.355	82.5
349.583	90.5
349.81	102.5
350.037	88.5
350.265	86.5
350.492	87.5
350.72	94.5
350.947	80.5
351.174	88.5
351.402	69.5
351.629	81.5
351.856	86.5
352.083	101.5
352.311	97.5
352.538	83.5
352.765	91.5
352.992	89.5
353.22	83.5
353.447	77.5
353.674	93.5
353.901	93.5
354.128	94.5
354.355	84.5
354.583	95.5
354.81	90.5
355.037	90.5
355.264	91.5
355.491	90.5
355.718	83.5
355.945	83.5
356.172	98.5
356.399	92.5
356.626	77.5
356.853	82.5
357.08	83.5
357.307	89.5
357.534	84.5
357.761	95.5
357.988	89.5
358.215	93.5
358.441	100.5
358.668	100.5
358.895	76.5
359.122	80.5
359.349	106.5
359.576	91.5
359.802	82.5
360.029	83.5
360.256	95.5
360.483	104.5
360.709	96.5
360.936	82.5
361.163	83.5
361.39	87.5
361.616	88.5
361.843	80.5
362.07	95.5
362.296	88.5
362.523	85.5
362.749	94.5
362.976	98.5
363.203	78.5
363.429	96.5
363.656	99.5
363.882	86.5
364.109	87.5
364.335	91.5
364.562	85.5
364.788	85.5
365.015	85.5
365.241	93.5
365.468	100.5
365.694	82.5
365.92	91.5
366.147	83.5
366.373	89.5
366.599	98.5
366.826	90.5
367.052	88.5
367.278	94.5
367.505	93.5
367.731	92.5
367.957	102.5
368.184	90.5
368.41	86.5
368.636	93.5
368.862	102.5
369.089	88.5
369.315	96.5
369.541	74.5
369.767	98.5
369.993	79.5
370.219	94.5
370.445	97.5
370.672	98.5
370.898	92.5
371.124	82.5
371.35	99.5
371.576	92.5
371.802	105.5
372.028	88.5
372.254	109.5
372.48	85.5
372.706	87.5
372.932	96.5
373.158	85.5
373.384	94.5
373.61	90.5
373.835	88.5
374.061	90.5
374.287	112.5
374.513	91.5
374.739	97.5
374.965	86.5
375.191	94.5
375.416	87.5
375.642	80.5
375.868	83.5
376.094	95.5
376.319	87.5
376.545	99.5
376.771	82.5
376.997	105.5
377.222	81.5
377.448	75.5
377.674	84.5
377.899	89.5
378.125	84.5
378.35	94.5
378.576	87.5
378.802	87.5
379.027	82.5
379.253	76.5
379.478	100.5
379.704	83.5
379.929	83.5
380.155	79.5
380.38	88.5
380.606	98.5
380.831	87.5
381.057	96.5
381.282	81.5
381.507	102.5
381.733	94.5
381.958	80.5
382.184	87.5
382.409	85.5
382.634	92.5
382.86	95.5
383.085	88.5
383.31	90.5
383.535	97.5
383.761	90.5
383.986	88.5
384.211	86.5
384.436	89.5
384.662	89.5
384.887	81.5
385.112	92.5
385.337	91.5
385.562	83.5
385.787	82.5
386.013	90.5
386.238	82.5
386.463	95.5
386.688	105.5
386.913	92.5
387.138	92.5
387.363	97.5
387.588	103.5
387.813	99.5
388.038	106.5
388.263	94.5
388.488	111.5
388.713	107.5
388.938	93.5
389.163	97.5
389.387	93.5
389.612	95.5
389.837	99.5
390.062	97.5
390.287	93.5
390.512	115.5
390.736	106.5
390.961	84.5
391.186	102.5
391.411	103.5
391.636	93.5
391.86	100.5
392.085	89.5
392.31	93.5
392.534	90.5
392.759	91.5
392.984	85.5
393.208	112.5
393.433	101.5
393.658	102.5
393.882	98.5
394.107	98.5
394.331	93.5
394.556	99.5
394.78	78.5
395.005	96.5
395.229	98.5
395.454	93.5
395.678	97.5
395.903	111.5
396.127	102.5
396.352	98.5
396.576	89.5
396.801	83.5
397.025	90.5
397.249	89.5
397.474	112.5
397.698	93.5
397.922	97.5
398.147	101.5
398.371	89.5
398.595	95.5
398.82	98.5
399.044	100.5
399.268	95.5
399.492	115.5
399.717	111.5
399.941	115.5
400.165	90.5
400.389	89.5
400.613	85.5
400.837	94.5
401.062	93.5
401.286	96.5
401.51	90.5
401.734	101.5
401.958	98.5
402.182	98.5
402.406	106.5
402.63	97.5
402.854	108.5
403.078	95.5
403.302	98.5
403.526	105.5
403.75	81.5
403.974	100.5
404.198	98.5
404.422	93.5
404.645	105.5
404.869	111.5
405.093	99.5
405.317	97.5
405.541	106.5
405.765	91.5
405.988	99.5
406.212	91.5
406.436	93.5
406.66	112.5
406.883	96.5
407.107	97.5
407.331	87.5
407.555	99.5
407.778	103.5
408.002	103.5
408.226	107.5
408.449	106.5
408.673	106.5
408.896	102.5
409.12	115.5
409.344	98.5
409.567	93.5
409.791	112.5
410.014	107.5
410.238	97.5
410.461	99.5
410.685	91.5
410.908	95.5
411.132	114.5
411.355	89.5
411.578	98.5
411.802	103.5
412.025	89.5
412.249	91.5
412.472	114.5
412.695	98.5
412.919	101.5
413.142	95.5
413.365	97.5
413.589	102.5
413.812	102.5
414.035	96.5
414.258	88.5
414.482	96.5
414.705	88.5
414.928	111.5
415.151	83.5
415.374	95.5
415.597	80.5
415.821	91.5
416.044	95.5
416.267	97.5
416.49	95.5
416.713	113.5
416.936	99.5
417.159	89.5
417.382	85.5
417.605	100.5
417.828	93.5
418.051	87.5
418.274	92.5
418.497	98.5
418.72	95.5
418.943	109.5
419.166	81.5
419.389	101.5
419.611	100.5
419.834	103.5
420.057	106.5
420.28	101.5
420.503	88.5
420.726	93.5
420.948	99.5
421.171	96.5
421.394	95.5
421.617	87.5
421.839	100.5
422.062	105.5
422.285	99.5
422.507	91.5
422.73	83.5
422.953	86.5
423.175	93.5
423.398	104.5
423.621	104.5
423.843	103.5
424.066	96.5
424.288	99.5
424.511	85.5
424.733	109.5
424.956	93.5
425.178	107.5
425.401	94.5
425.623	88.5
425.846	101.5
426.068	109.5
426.291	86.5
426.513	98.5
426.735	89.5
426.958	99.5
427.18	90.5
427.402	84.5
427.625	91.5
427.847	89.5
428.069	79.5
428.292	94.5
428.514	91.5
428.736	93.5
428.958	99.5
429.181	103.5
429.403	83.5
429.625	106.5
429.847	93.5
430.069	97.5
430.292	94.5
430.514	90.5
430.736	63.5
430.958	95.5
431.18	97.5
431.402	104.5
431.624	95.5
431.846	90.5
432.068	88.5
432.29	88.5
432.512	99.5
432.734	105.5
432.956	95.5
433.178	109.5
433.4	93.5
433.622	103.5
433.844	95.5
434.066	98.5
434.287	78.5
434.509	78.5
434.731	95.5
434.953	83.5
435.175	98.5
435.397	101.5
435.618	94.5
435.84	88.5
436.062	89.5
436.284	89.5
436.505	97.5
436.727	95.5
436.949	90.5
437.17	97.5
437.392	85.5
437.614	87.5
437.835	91.5
438.057	84.5
438.278	87.5
438.5	97.5
438.721	112.5
438.943	91.5
439.165	91.5
439.386	99.5
439.608	101.5
439.829	103.5
440.05	101.5
440.272	85.5
440.493	91.5
440.715	96.5
440.936	102.5
441.158	88.5
441.379	101.5
441.6	99.5
441.822	96.5
442.043	102.5
442.264	86.5
442.486	113.5
442.707	99.5
442.928	84.5
443.149	82.5
443.371	73.5
443.592	101.5
443.813	90.5
444.034	96.5
444.255	82.5
444.476	89.5
444.698	96.5
444.919	98.5
445.14	233.5
445.361	158.5
445.582	111.5
445.803	102.5
446.024	98.5
446.245	100.5
446.466	98.5
446.687	97.5
446.908	94.5
447.129	87.5
447.35	95.5
447.571	87.5
447.792	91.5
448.013	102.5
448.234	95.5
448.455	89.5
448.675	92.5
448.896	105.5
449.117	97.5
449.338	95.5
449.559	100.5
449.779	96.5
450	102.5
450.221	94.5
450.442	78.5
450.662	105.5
450.883	93.5
451.104	89.5
451.324	83.5
451.545	97.5
451.766	90.5
451.986	97.5
452.207	90.5
452.428	101.5
452.648	95.5
452.869	106.5
453.089	97.5
453.31	99.5
453.53	82.5
453.751	99.5
453.971	105.5
454.192	81.5
454.412	87.5
454.633	85.5
454.853	97.5
455.073	96.5
455.294	98.5
455.514	105.5
455.734	96.5
455.955	94.5
456.175	95.5
456.395	85.5
456.616	86.5
456.836	91.5
457.056	99.5
457.276	84.5
457.497	98.5
457.717	91.5
457.937	91.5
458.157	100.5
458.377	98.5
458.598	71.5
458.818	93.5
459.038	93.5
459.258	95.5
459.478	93.5
459.698	90.5
459.918	93.5
460.138	95.5
460.358	101.5
460.578	110.5
460.798	91.5
461.018	101.5
461.238	96.5
461.458	103.5
461.678	97.5
461.898	105.5
462.118	102.5
462.338	95.5
462.558	100.5
462.777	90.5
462.997	96.5
463.217	110.5
463.437	113.5
463.657	104.5
463.876	106.5
464.096	98.5
464.316	109.5
464.536	117.5
464.755	112.5
464.975	98.5
465.195	98.5
465.414	108.5
465.634	95.5
465.854	91.5
466.073	100.5
466.293	100.5
466.512	91.5
466.732	94.5
466.951	79.5
467.171	95.5
467.391	97.5
467.61	99.5
467.829	102.5
468.049	102.5
468.268	98.5
468.488	104.5
468.707	95.5
468.927	94.5
469.146	98.5
469.365	89.5
469.585	94.5
469.804	99.5
470.023	106.5
470.243	79.5
470.462	84.5
470.681	112.5
470.901	88.5
471.12	96.5
471.339	99.5
471.558	83.5
471.777	92.5
471.997	94.5
472.216	101.5
472.435	97.5
472.654	87.5
472.873	113.5
473.092	116.5
473.311	105.5
473.53	88.5
473.749	90.5
473.968	109.5
474.187	79.5
474.406	83.5
474.625	96.5
474.844	90.5
475.063	93.5
475.282	103.5
475.501	96.5
475.72	95.5
475.939	85.5
476.158	86.5
476.377	93.5
476.596	98.5
476.814	88.5
477.033	94.5
477.252	109.5
477.471	96.5
477.69	97.5
477.908	103.5
478.127	95.5
478.346	106.5
478.564	97.5
478.783	90.5
479.002	98.5
479.22	107.5
479.439	103.5
479.658	111.5
479.876	105.5
480.095	90.5
480.313	106.5
480.532	119.5
480.751	105.5
480.969	102.5
481.188	103.5
481.406	104.5
481.624	104.5
481.843	103.5
482.061	95.5
482.28	91.5
482.498	82.5
482.717	94.5
482.935	75.5
483.153	102.5
483.372	114.5
483.59	107.5
483.808	94.5
484.027	106.5
484.245	103.5
484.463	101.5
484.681	118.5
484.9	101.5
485.118	105.5
485.336	103.5
485.554	100.5
485.772	99.5
485.99	91.5
486.209	97.5
486.427	98.5
486.645	96.5
486.863	98.5
487.081	97.5
487.299	95.5
487.517	110.5
487.735	95.5
487.953	109.5
488.171	104.5
488.389	105.5
488.607	99.5
488.825	97.5
489.043	95.5
489.261	100.5
489.479	102.5
489.696	102.5
489.914	98.5
490.132	98.5
490.35	109.5
490.568	111.5
490.786	101.5
491.003	103.5
491.221	121.5
491.439	101.5
491.657	93.5
491.874	107.5
492.092	122.5
492.31	123.5
492.527	121.5
492.745	104.5
492.963	101.5
493.18	112.5
493.398	98.5
493.615	105.5
493.833	106.5
494.05	118.5
494.268	115.5
494.485	104.5
494.703	110.5
494.92	113.5
495.138	109.5
495.355	109.5
495.573	115.5
495.79	102.5
496.008	100.5
496.225	110.5
496.442	111.5
496.66	102.5
496.877	114.5
497.094	111.5
497.312	114.5
497.529	105.5
497.746	97.5
497.963	111.5
498.181	113.5
498.398	116.5
498.615	115.5
498.832	117.5
499.049	122.5
499.267	120.5
499.484	114.5
499.701	111.5
499.918	137.5
500.135	157.5
500.352	137.5
500.569	146.5
500.786	151.5
501.003	153.5
501.22	141.5
501.437	138.5
501.654	127.5
501.871	129.5
502.088	125.5
502.305	122.5
502.522	125.5
502.739	122.5
502.956	125.5
503.172	121.5
503.389	121.5
503.606	120.5
503.823	97.5
504.04	111.5
504.256	105.5
504.473	104.5
504.69	108.5
504.907	113.5
505.123	105.5
505.34	100.5
505.557	95.5
505.773	98.5
505.99	106.5
506.207	89.5
506.423	102.5
506.64	93.5
506.856	89.5
507.073	80.5
507.289	99.5
507.506	92.5
507.722	91.5
507.939	94.5
508.155	102.5
508.372	104.5
508.588	103.5
508.805	93.5
509.021	98.5
509.238	100.5
509.454	98.5
509.67	83.5
509.887	87.5
510.103	93.5
510.319	91.5
510.536	98.5
510.752	97.5
510.968	89.5
511.184	107.5
511.401	90.5
511.617	97.5
511.833	96.5
512.049	94.5
512.265	102.5
512.481	91.5
512.698	104.5
512.914	112.5
513.13	106.5
513.346	107.5
513.562	99.5
513.778	96.5
513.994	88.5
514.21	102.5
514.426	104.5
514.642	101.5
514.858	85.5
515.074	102.5
515.29	101.5
515.506	101.5
515.721	96.5
515.937	92.5
516.153	101.5
516.369	88.5
516.585	88.5
516.801	90.5
517.016	94.5
517.232	103.5
517.448	108.5
517.664	90.5
517.879	101.5
518.095	114.5
518.311	114.5
518.527	109.5
518.742	99.5
518.958	96.5
519.173	89.5
519.389	96.5
519.605	100.5
519.82	110.5
520.036	95.5
520.251	103.5
520.467	101.5
520.682	88.5
520.898	103.5
521.113	98.5
521.329	97.5
521.544	118.5
521.76	116.5
521.975	99.5
522.19	101.5
522.406	102.5
522.621	106.5
522.836	102.5
523.052	97.5
523.267	99.5
523.482	103.5
523.698	97.5
523.913	112.5
524.128	92.5
524.343	106.5
524.559	109.5
524.774	100.5
524.989	106.5
525.204	116.5
525.419	111.5
525.634	99.5
525.849	103.5
526.064	101.5
526.28	98.5
526.495	94.5
526.71	96.5
526.925	98.5
527.14	100.5
527.355	103.5
527.57	72.5
527.785	87.5
527.999	87.5
528.214	101.5
528.429	75.5
528.644	101.5
528.859	95.5
529.074	108.5
529.289	105.5
529.503	106.5
529.718	104.5
529.933	94.5
530.148	94.5
530.363	97.5
530.577	91.5
530.792	110.5
531.007	93.5
531.221	105.5
531.436	106.5
531.651	101.5
531.865	88.5
532.08	87.5
532.295	98.5
532.509	95.5
532.724	104.5
532.938	97.5
533.153	100.5
533.367	87.5
533.582	113.5
533.796	88.5
534.011	102.5
534.225	91.5
534.44	78.5
534.654	83.5
534.868	96.5
535.083	89.5
535.297	103.5
535.511	95.5
535.726	98.5
535.94	95.5
536.154	95.5
536.369	114.5
536.583	107.5
536.797	109.5
537.011	89.5
537.225	104.5
537.44	103.5
537.654	89.5
537.868	98.5
538.082	97.5
538.296	82.5
538.51	104.5
538.724	101.5
538.938	99.5
539.153	96.5
539.367	115.5
539.581	92.5
539.795	87.5
540.009	104.5
540.222	90.5
540.436	99.5
540.65	84.5
540.864	97.5
541.078	114.5
541.292	115.5
541.506	99.5
541.72	105.5
541.934	115.5
542.147	102.5
542.361	90.5
542.575	94.5
542.789	99.5
543.002	114.5
543.216	105.5
543.43	96.5
543.644	103.5
543.857	89.5
544.071	95.5
544.285	100.5
544.498	104.5
544.712	103.5
544.925	111.5
545.139	104.5
545.352	95.5
545.566	94.5
545.779	85.5
545.993	103.5
546.206	95.5
546.42	94.5
546.633	97.5
546.847	102.5
547.06	107.5
547.274	100.5
547.487	101.5
547.7	100.5
547.914	81.5
548.127	113.5
548.34	106.5
548.554	102.5
548.767	101.5
548.98	104.5
549.193	99.5
549.407	104.5
549.62	107.5
549.833	103.5
550.046	104.5
550.259	105.5
550.473	103.5
550.686	97.5
550.899	87.5
551.112	97.5
551.325	119.5
551.538	106.5
551.751	96.5
551.964	98.5
552.177	98.5
552.39	102.5
552.603	89.5
552.816	97.5
553.029	109.5
553.242	96.5
553.455	94.5
553.667	104.5
553.88	98.5
554.093	111.5
554.306	97.5
554.519	115.5
554.732	118.5
554.944	89.5
555.157	106.5
555.37	101.5
555.583	95.5
555.795	105.5
556.008	97.5
556.221	89.5
556.433	93.5
556.646	96.5
556.859	83.5
557.071	86.5
557.284	86.5
557.496	107.5
557.709	96.5
557.921	88.5
558.134	96.5
558.346	106.5
558.559	104.5
558.771	101.5
558.984	92.5
559.196	98.5
559.409	94.5
559.621	94.5
559.833	97.5
560.046	89.5
560.258	93.5
560.47	90.5
560.683	96.5
560.895	95.5
561.107	88.5
561.32	95.5
561.532	93.5
561.744	101.5
561.956	101.5
562.168	94.5
562.381	90.5
562.593	93.5
562.805	93.5
563.017	83.5
563.229	94.5
563.441	78.5
563.653	91.5
563.865	106.5
564.077	103.5
564.289	95.5
564.501	88.5
564.713	109.5
564.925	101.5
565.137	100.5
565.349	88.5
565.561	93.5
565.773	95.5
565.985	89.5
566.197	98.5
566.408	102.5
566.62	102.5
566.832	101.5
567.044	115.5
567.255	106.5
567.467	102.5
567.679	104.5
567.891	94.5
568.102	97.5
568.314	109.5
568.526	88.5
568.737	97.5
568.949	109.5
569.161	106.5
569.372	106.5
569.584	92.5
569.795	116.5
570.007	97.5
570.218	93.5
570.43	85.5
570.641	91.5
570.853	100.5
571.064	102.5
571.276	85.5
571.487	89.5
571.698	86.5
571.91	89.5
572.121	88.5
572.333	92.5
572.544	89.5
572.755	91.5
572.966	90.5
573.178	92.5
573.389	85.5
573.6	83.5
573.811	83.5
574.023	89.5
574.234	85.5
574.445	75.5
574.656	94.5
574.867	69.5
575.078	95.5
575.289	76.5
575.501	82.5
575.712	91.5
575.923	94.5
576.134	94.5
576.345	89.5
576.556	89.5
576.767	85.5
576.978	96.5
577.188	90.5
577.399	85.5
577.61	83.5
577.821	97.5
578.032	84.5
578.243	100.5
578.454	86.5
578.665	73.5
578.875	90.5
579.086	84.5
579.297	93.5
579.508	92.5
579.718	94.5
579.929	81.5
580.14	88.5
580.35	86.5
580.561	93.5
580.772	88.5
580.982	98.5
581.193	71.5
581.403	86.5
581.614	89.5
581.825	79.5
582.035	96.5
582.246	82.5
582.456	75.5
582.667	101.5
582.877	104.5
583.087	84.5
583.298	100.5
583.508	101.5
583.719	98.5
583.929	79.5
584.139	90.5
584.35	85.5
584.56	108.5
584.77	87.5
584.981	96.5
585.191	89.5
585.401	104.5
585.611	89.5
585.821	95.5
586.032	98.5
586.242	81.5
586.452	95.5
586.662	87.5
586.872	97.5
587.082	87.5
587.292	79.5
587.502	80.5
587.713	81.5
587.923	87.5
588.133	87.5
588.343	78.5
588.553	81.5
588.762	97.5
588.972	93.5
589.182	87.5
589.392	94.5
589.602	89.5
589.812	81.5
590.022	96.5
590.232	85.5
590.441	96.5
590.651	96.5
590.861	75.5
591.071	85.5
591.281	105.5
591.49	101.5
591.7	92.5
591.91	88.5
592.119	79.5
592.329	75.5
592.539	91.5
592.748	82.5
592.958	86.5
593.167	82.5
593.377	105.5
593.587	92.5
593.796	96.5
594.006	98.5
594.215	94.5
594.424	78.5
594.634	97.5
594.843	93.5
595.053	75.5
595.262	86.5
595.472	87.5
595.681	86.5
595.89	98.5
596.1	81.5
596.309	90.5
596.518	85.5
596.727	87.5
596.937	89.5
597.146	78.5
597.355	83.5
597.564	89.5
597.774	98.5
597.983	73.5
598.192	80.5
598.401	85.5
598.61	85.5
598.819	82.5
599.028	73.5
599.237	87.5
599.446	93.5
599.655	102.5
599.864	69.5
600.073	84.5
600.282	86.5
600.491	63.5
600.7	79.5
600.909	93.5
601.118	88.5
601.327	96.5
601.536	79.5
601.745	82.5
601.953	87.5
602.162	87.5
602.371	89.5
602.58	64.5
602.789	84.5
602.997	86.5
603.206	87.5
603.415	90.5
603.623	83.5
603.832	90.5
604.041	78.5
604.249	83.5
604.458	72.5
604.666	77.5
604.875	90.5
605.084	95.5
605.292	88.5
605.501	86.5
605.709	90.5
605.918	91.5
606.126	103.5
606.334	105.5
606.543	87.5
606.751	93.5
606.96	82.5
607.168	83.5
607.376	86.5
607.585	92.5
607.793	92.5
608.001	91.5
608.21	74.5
608.418	85.5
608.626	81.5
608.834	81.5
609.043	78.5
609.251	86.5
609.459	96.5
609.667	100.5
609.875	87.5
610.083	92.5
610.291	97.5
610.499	104.5
610.707	86.5
610.916	76.5
611.124	78.5
611.332	89.5
611.54	89.5
611.748	80.5
611.955	77.5
612.163	99.5
612.371	81.5
612.579	100.5
612.787	80.5
612.995	81.5
613.203	92.5
613.411	93.5
613.618	81.5
613.826	85.5
614.034	82.5
614.242	81.5
614.449	86.5
614.657	97.5
614.865	96.5
615.072	72.5
615.28	77.5
615.488	93.5
615.695	90.5
615.903	86.5
616.111	81.5
616.318	86.5
616.526	83.5
616.733	97.5
616.941	85.5
617.148	91.5
617.356	98.5
617.563	78.5
617.771	88.5
617.978	92.5
618.185	86.5
618.393	90.5
618.6	84.5
618.807	80.5
619.015	78.5
619.222	73.5
619.429	80.5
619.637	81.5
619.844	78.5
620.051	94.5
620.258	85.5
620.466	78.5
620.673	97.5
620.88	86.5
621.087	81.5
621.294	68.5
621.501	88.5
621.708	88.5
621.915	97.5
622.122	78.5
622.329	83.5
622.536	93.5
622.743	91.5
622.95	75.5
623.157	89.5
623.364	77.5
623.571	89.5
623.778	93.5
623.985	77.5
624.192	80.5
624.399	95.5
624.606	82.5
624.812	68.5
625.019	82.5
625.226	75.5
625.433	70.5
625.639	77.5
625.846	79.5
626.053	89.5
626.259	84.5
626.466	78.5
626.673	84.5
626.879	86.5
627.086	78.5
627.293	75.5
627.499	79.5
627.706	81.5
627.912	70.5
628.119	72.5
628.325	91.5
628.532	85.5
628.738	91.5
628.945	72.5
629.151	85.5
629.357	91.5
629.564	70.5
629.77	84.5
629.976	98.5
630.183	77.5
630.389	90.5
630.595	95.5
630.802	86.5
631.008	79.5
631.214	86.5
631.42	83.5
631.627	85.5
631.833	78.5
632.039	83.5
632.245	79.5
632.451	85.5
632.657	96.5
632.863	91.5
633.069	72.5
633.275	81.5
633.481	82.5
633.688	83.5
633.893	79.5
634.099	79.5
634.305	98.5
634.511	81.5
634.717	96.5
634.923	84.5
635.129	72.5
635.335	78.5
635.541	86.5
635.747	96.5
635.952	73.5
636.158	88.5
636.364	97.5
636.57	95.5
636.775	86.5
636.981	110.5
637.187	85.5
637.392	78.5
637.598	74.5
637.804	82.5
638.009	70.5
638.215	86.5
638.421	82.5
638.626	85.5
638.832	73.5
639.037	75.5
639.243	80.5
639.448	81.5
639.654	80.5
639.859	101.5
640.065	77.5
640.27	89.5
640.475	84.5
640.681	82.5
640.886	70.5
641.091	85.5
641.297	89.5
641.502	80.5
641.707	82.5
641.913	79.5
642.118	71.5
642.323	87.5
642.528	85.5
642.733	89.5
642.939	76.5
643.144	72.5
643.349	92.5
643.554	95.5
643.759	74.5
643.964	74.5
644.169	83.5
644.374	83.5
644.579	69.5
644.784	90.5
644.989	85.5
645.194	97.5
645.399	78.5
645.604	63.5
645.809	89.5
646.014	82.5
646.219	78.5
646.423	81.5
646.628	85.5
646.833	83.5
647.038	86.5
647.243	87.5
647.447	88.5
647.652	94.5
647.857	71.5
648.062	77.5
648.266	76.5
648.471	89.5
648.676	96.5
648.88	93.5
649.085	76.5
649.289	86.5
649.494	74.5
649.698	80.5
649.903	75.5
650.107	90.5
650.312	85.5
650.516	83.5
650.721	69.5
650.925	86.5
651.13	96.5
651.334	79.5
651.539	68.5
651.743	87.5
651.947	80.5
652.152	79.5
652.356	76.5
652.56	76.5
652.764	70.5
652.969	87.5
653.173	77.5
653.377	90.5
653.581	94.5
653.785	67.5
653.99	74.5
654.194	82.5
654.398	77.5
654.602	71.5
654.806	81.5
655.01	71.5
655.214	93.5
655.418	70.5
655.622	76.5
655.826	94.5
656.03	77.5
656.234	87.5
656.438	89.5
656.642	105.5
656.846	90.5
657.049	85.5
657.253	69.5
657.457	76.5
657.661	70.5
657.865	80.5
658.068	80.5
658.272	89.5
658.476	75.5
658.68	82.5
658.883	82.5
659.087	65.5
659.291	72.5
659.494	82.5
659.698	80.5
659.901	90.5
660.105	87.5
660.309	77.5
660.512	80.5
660.716	77.5
660.919	70.5
661.123	96.5
661.326	73.5
661.53	72.5
661.733	102.5
661.936	91.5
662.14	82.5
662.343	85.5
662.546	65.5
662.75	77.5
662.953	80.5
663.156	74.5
663.36	75.5
663.563	86.5
663.766	82.5
663.969	75.5
664.173	87.5
664.376	81.5
664.579	78.5
664.782	90.5
664.985	89.5
665.188	81.5
665.391	85.5
665.594	69.5
665.797	67.5
666	91.5
666.203	63.5
666.406	83.5
666.609	88.5
666.812	80.5
667.015	82.5
667.218	88.5
667.421	76.5
667.624	89.5
667.827	75.5
668.03	76.5
668.232	77.5
668.435	73.5
668.638	83.5
668.841	80.5
669.043	74.5
669.246	95.5
669.449	72.5
669.651	74.5
669.854	82.5
670.057	79.5
670.259	84.5
670.462	69.5
670.665	91.5
670.867	85.5
671.07	86.5
671.272	73.5
671.475	81.5
671.677	73.5
671.88	71.5
672.082	79.5
672.284	82.5
672.487	77.5
672.689	86.5
672.892	84.5
