Data from Location5.07152019.Energy5.Lamp.07192019.3%Agarose_HRD10591_15-38-42-387.txt Node
Date: Fri Jul 19 15:38:42 EDT 2019
User: cochatt
Spectrometer: HR+D1059
Trigger mode: 1
Integration Time (sec): 1.000000E-1
Scans to average: 1
Electric dark correction enabled: true
Nonlinearity correction enabled: false
Boxcar width: 0
XAxis mode: Wavelengths
Number of Pixels in Spectrum: 2048
>>>>>Begin Spectral Data<<<<<
223.165	-12.88
223.4	-12.88
223.635	-12.88
223.869	-21.88
224.104	-30.88
224.338	2.12
224.573	-14.88
224.808	-17.88
225.042	-1.88
225.277	-10.88
225.511	10.12
225.746	-0.88
225.98	6.12
226.215	-0.88
226.449	15.12
226.683	27.12
226.918	30.12
227.152	22.12
227.387	33.12
227.621	27.12
227.856	42.12
228.09	46.12
228.324	60.12
228.559	56.12
228.793	67.12
229.027	63.12
229.262	61.12
229.496	61.12
229.73	63.12
229.964	78.12
230.199	82.12
230.433	70.12
230.667	60.12
230.901	75.12
231.136	76.12
231.37	83.12
231.604	74.12
231.838	75.12
232.072	74.12
232.306	86.12
232.541	76.12
232.775	76.12
233.009	83.12
233.243	82.12
233.477	70.12
233.711	81.12
233.945	82.12
234.179	77.12
234.413	78.12
234.647	79.12
234.881	80.12
235.115	95.12
235.349	87.12
235.583	100.12
235.817	72.12
236.051	74.12
236.285	78.12
236.519	83.12
236.753	88.12
236.987	71.12
237.221	84.12
237.455	76.12
237.689	87.12
237.922	66.12
238.156	76.12
238.39	79.12
238.624	71.12
238.858	71.12
239.091	71.12
239.325	91.12
239.559	86.12
239.793	60.12
240.027	82.12
240.26	73.12
240.494	78.12
240.728	79.12
240.961	77.12
241.195	83.12
241.429	77.12
241.662	84.12
241.896	78.12
242.13	84.12
242.363	60.12
242.597	60.12
242.83	69.12
243.064	89.12
243.298	73.12
243.531	64.12
243.765	65.12
243.998	65.12
244.232	66.12
244.465	78.12
244.699	82.12
244.932	83.12
245.166	82.12
245.399	78.12
245.633	87.12
245.866	76.12
246.099	73.12
246.333	89.12
246.566	76.12
246.8	75.12
247.033	80.12
247.266	82.12
247.5	86.12
247.733	78.12
247.966	81.12
248.2	74.12
248.433	87.12
248.666	75.12
248.899	83.12
249.133	74.12
249.366	77.12
249.599	90.12
249.832	67.12
250.066	65.12
250.299	79.12
250.532	88.12
250.765	68.12
250.998	74.12
251.231	55.12
251.465	73.12
251.698	85.12
251.931	89.12
252.164	75.12
252.397	75.12
252.63	79.12
252.863	81.12
253.096	83.12
253.329	83.12
253.562	84.12
253.795	79.12
254.028	81.12
254.261	84.12
254.494	76.12
254.727	75.12
254.96	84.12
255.193	89.12
255.426	84.12
255.659	70.12
255.892	89.12
256.124	85.12
256.357	70.12
256.59	79.12
256.823	72.12
257.056	86.12
257.289	80.12
257.521	90.12
257.754	93.12
257.987	85.12
258.22	80.12
258.452	89.12
258.685	81.12
258.918	77.12
259.151	92.12
259.383	75.12
259.616	82.12
259.849	78.12
260.081	89.12
260.314	74.12
260.547	74.12
260.779	73.12
261.012	74.12
261.244	75.12
261.477	83.12
261.71	75.12
261.942	68.12
262.175	90.12
262.407	84.12
262.64	78.12
262.872	83.12
263.105	85.12
263.337	79.12
263.57	85.12
263.802	90.12
264.035	87.12
264.267	86.12
264.499	73.12
264.732	97.12
264.964	89.12
265.197	91.12
265.429	50.12
265.661	82.12
265.894	79.12
266.126	83.12
266.358	86.12
266.591	68.12
266.823	82.12
267.055	77.12
267.287	78.12
267.52	71.12
267.752	87.12
267.984	89.12
268.216	83.12
268.448	93.12
268.681	97.12
268.913	83.12
269.145	82.12
269.377	80.12
269.609	95.12
269.841	77.12
270.073	87.12
270.306	80.12
270.538	75.12
270.77	88.12
271.002	89.12
271.234	82.12
271.466	92.12
271.698	84.12
271.93	85.12
272.162	76.12
272.394	87.12
272.626	75.12
272.858	78.12
273.09	87.12
273.322	88.12
273.553	84.12
273.785	74.12
274.017	89.12
274.249	83.12
274.481	78.12
274.713	78.12
274.945	70.12
275.176	81.12
275.408	81.12
275.64	83.12
275.872	78.12
276.104	81.12
276.335	89.12
276.567	78.12
276.799	75.12
277.031	82.12
277.262	82.12
277.494	86.12
277.726	79.12
277.957	78.12
278.189	87.12
278.421	73.12
278.652	80.12
278.884	86.12
279.115	83.12
279.347	90.12
279.579	80.12
279.81	88.12
280.042	80.12
280.273	82.12
280.505	86.12
280.736	89.12
280.968	86.12
281.199	90.12
281.431	80.12
281.662	99.12
281.894	79.12
282.125	92.12
282.356	80.12
282.588	82.12
282.819	81.12
283.051	75.12
283.282	83.12
283.513	80.12
283.745	79.12
283.976	74.12
284.207	95.12
284.439	84.12
284.67	96.12
284.901	90.12
285.132	87.12
285.364	92.12
285.595	83.12
285.826	75.12
286.057	86.12
286.288	77.12
286.52	103.12
286.751	75.12
286.982	96.12
287.213	96.12
287.444	85.12
287.675	79.12
287.906	89.12
288.138	82.12
288.369	76.12
288.6	94.12
288.831	83.12
289.062	94.12
289.293	88.12
289.524	83.12
289.755	87.12
289.986	75.12
290.217	88.12
290.448	80.12
290.679	78.12
290.91	86.12
291.141	101.12
291.371	91.12
291.602	92.12
291.833	84.12
292.064	99.12
292.295	90.12
292.526	86.12
292.757	75.12
292.987	98.12
293.218	96.12
293.449	84.12
293.68	91.12
293.91	107.12
294.141	86.12
294.372	96.12
294.603	87.12
294.833	91.12
295.064	88.12
295.295	77.12
295.525	80.12
295.756	76.12
295.987	87.12
296.217	94.12
296.448	94.12
296.679	84.12
296.909	86.12
297.14	85.12
297.37	84.12
297.601	78.12
297.831	82.12
298.062	86.12
298.292	76.12
298.523	84.12
298.753	84.12
298.984	76.12
299.214	90.12
299.445	81.12
299.675	75.12
299.905	89.12
300.136	87.12
300.366	94.12
300.597	97.12
300.827	92.12
301.057	85.12
301.288	85.12
301.518	92.12
301.748	87.12
301.979	95.12
302.209	84.12
302.439	103.12
302.669	81.12
302.9	94.12
303.13	87.12
303.36	94.12
303.59	92.12
303.82	76.12
304.051	87.12
304.281	89.12
304.511	80.12
304.741	95.12
304.971	89.12
305.201	85.12
305.431	67.12
305.661	88.12
305.891	73.12
306.121	75.12
306.352	73.12
306.582	80.12
306.812	78.12
307.042	92.12
307.272	78.12
307.502	87.12
307.731	100.12
307.961	82.12
308.191	80.12
308.421	74.12
308.651	77.12
308.881	92.12
309.111	84.12
309.341	97.12
309.571	66.12
309.8	95.12
310.03	93.12
310.26	83.12
310.49	101.12
310.72	74.12
310.949	86.12
311.179	89.12
311.409	87.12
311.639	102.12
311.868	91.12
312.098	87.12
312.328	77.12
312.557	89.12
312.787	96.12
313.017	80.12
313.246	85.12
313.476	88.12
313.706	84.12
313.935	92.12
314.165	83.12
314.394	66.12
314.624	91.12
314.853	89.12
315.083	83.12
315.312	101.12
315.542	99.12
315.771	88.12
316.001	84.12
316.23	77.12
316.46	82.12
316.689	82.12
316.919	78.12
317.148	78.12
317.377	87.12
317.607	86.12
317.836	94.12
318.065	81.12
318.295	80.12
318.524	91.12
318.753	78.12
318.983	89.12
319.212	94.12
319.441	86.12
319.67	74.12
319.9	87.12
320.129	89.12
320.358	82.12
320.587	80.12
320.816	79.12
321.046	79.12
321.275	94.12
321.504	87.12
321.733	96.12
321.962	90.12
322.191	80.12
322.42	98.12
322.649	98.12
322.878	90.12
323.108	82.12
323.337	86.12
323.566	68.12
323.795	77.12
324.024	81.12
324.253	86.12
324.482	89.12
324.71	86.12
324.939	95.12
325.168	86.12
325.397	104.12
325.626	89.12
325.855	81.12
326.084	80.12
326.313	85.12
326.542	81.12
326.77	81.12
326.999	75.12
327.228	80.12
327.457	82.12
327.686	100.12
327.914	84.12
328.143	87.12
328.372	79.12
328.6	96.12
328.829	80.12
329.058	85.12
329.287	92.12
329.515	88.12
329.744	70.12
329.972	97.12
330.201	94.12
330.43	78.12
330.658	96.12
330.887	73.12
331.115	86.12
331.344	82.12
331.572	89.12
331.801	71.12
332.03	83.12
332.258	81.12
332.486	76.12
332.715	90.12
332.943	84.12
333.172	91.12
333.4	79.12
333.629	76.12
333.857	97.12
334.085	88.12
334.314	82.12
334.542	89.12
334.771	81.12
334.999	82.12
335.227	93.12
335.455	79.12
335.684	82.12
335.912	74.12
336.14	78.12
336.369	86.12
336.597	84.12
336.825	87.12
337.053	74.12
337.281	78.12
337.51	88.12
337.738	89.12
337.966	80.12
338.194	71.12
338.422	76.12
338.65	84.12
338.878	82.12
339.106	84.12
339.334	81.12
339.562	86.12
339.79	97.12
340.018	85.12
340.246	86.12
340.474	95.12
340.702	78.12
340.93	82.12
341.158	70.12
341.386	85.12
341.614	91.12
341.842	83.12
342.07	102.12
342.298	82.12
342.526	89.12
342.754	82.12
342.981	86.12
343.209	87.12
343.437	79.12
343.665	96.12
343.893	101.12
344.12	74.12
344.348	85.12
344.576	88.12
344.804	94.12
345.031	96.12
345.259	81.12
345.487	85.12
345.714	86.12
345.942	90.12
346.17	88.12
346.397	97.12
346.625	86.12
346.853	82.12
347.08	70.12
347.308	74.12
347.535	76.12
347.763	90.12
347.99	82.12
348.218	84.12
348.445	82.12
348.673	71.12
348.9	80.12
349.128	84.12
349.355	89.12
349.583	84.12
349.81	92.12
350.037	97.12
350.265	87.12
350.492	82.12
350.72	67.12
350.947	77.12
351.174	91.12
351.402	81.12
351.629	81.12
351.856	73.12
352.083	78.12
352.311	84.12
352.538	80.12
352.765	99.12
352.992	83.12
353.22	82.12
353.447	86.12
353.674	87.12
353.901	83.12
354.128	85.12
354.355	81.12
354.583	80.12
354.81	83.12
355.037	90.12
355.264	77.12
355.491	79.12
355.718	88.12
355.945	85.12
356.172	88.12
356.399	84.12
356.626	90.12
356.853	89.12
357.08	96.12
357.307	97.12
357.534	101.12
357.761	91.12
357.988	84.12
358.215	70.12
358.441	72.12
358.668	85.12
358.895	91.12
359.122	76.12
359.349	76.12
359.576	80.12
359.802	70.12
360.029	85.12
360.256	63.12
360.483	84.12
360.709	80.12
360.936	84.12
361.163	84.12
361.39	84.12
361.616	75.12
361.843	93.12
362.07	95.12
362.296	84.12
362.523	84.12
362.749	87.12
362.976	76.12
363.203	97.12
363.429	98.12
363.656	79.12
363.882	84.12
364.109	76.12
364.335	94.12
364.562	78.12
364.788	89.12
365.015	77.12
365.241	76.12
365.468	92.12
365.694	91.12
365.92	88.12
366.147	88.12
366.373	92.12
366.599	81.12
366.826	81.12
367.052	88.12
367.278	74.12
367.505	80.12
367.731	74.12
367.957	86.12
368.184	79.12
368.41	87.12
368.636	104.12
368.862	77.12
369.089	74.12
369.315	80.12
369.541	81.12
369.767	78.12
369.993	81.12
370.219	84.12
370.445	81.12
370.672	79.12
370.898	95.12
371.124	69.12
371.35	83.12
371.576	86.12
371.802	80.12
372.028	70.12
372.254	76.12
372.48	75.12
372.706	86.12
372.932	80.12
373.158	93.12
373.384	79.12
373.61	87.12
373.835	84.12
374.061	96.12
374.287	80.12
374.513	101.12
374.739	74.12
374.965	90.12
375.191	81.12
375.416	79.12
375.642	88.12
375.868	79.12
376.094	84.12
376.319	85.12
376.545	92.12
376.771	81.12
376.997	84.12
377.222	72.12
377.448	85.12
377.674	71.12
377.899	84.12
378.125	79.12
378.35	75.12
378.576	88.12
378.802	92.12
379.027	85.12
379.253	88.12
379.478	93.12
379.704	84.12
379.929	71.12
380.155	87.12
380.38	103.12
380.606	73.12
380.831	84.12
381.057	82.12
381.282	83.12
381.507	86.12
381.733	82.12
381.958	79.12
382.184	85.12
382.409	80.12
382.634	84.12
382.86	82.12
383.085	76.12
383.31	84.12
383.535	86.12
383.761	92.12
383.986	84.12
384.211	105.12
384.436	91.12
384.662	86.12
384.887	90.12
385.112	76.12
385.337	86.12
385.562	77.12
385.787	96.12
386.013	91.12
386.238	79.12
386.463	82.12
386.688	89.12
386.913	82.12
387.138	96.12
387.363	102.12
387.588	78.12
387.813	87.12
388.038	74.12
388.263	92.12
388.488	88.12
388.713	79.12
388.938	81.12
389.163	86.12
389.387	95.12
389.612	79.12
389.837	86.12
390.062	78.12
390.287	76.12
390.512	91.12
390.736	86.12
390.961	81.12
391.186	78.12
391.411	73.12
391.636	75.12
391.86	72.12
392.085	96.12
392.31	91.12
392.534	81.12
392.759	78.12
392.984	83.12
393.208	71.12
393.433	88.12
393.658	83.12
393.882	97.12
394.107	94.12
394.331	78.12
394.556	96.12
394.78	100.12
395.005	83.12
395.229	97.12
395.454	92.12
395.678	77.12
395.903	90.12
396.127	93.12
396.352	86.12
396.576	79.12
396.801	92.12
397.025	84.12
397.249	89.12
397.474	76.12
397.698	81.12
397.922	98.12
398.147	97.12
398.371	88.12
398.595	98.12
398.82	79.12
399.044	98.12
399.268	92.12
399.492	106.12
399.717	89.12
399.941	95.12
400.165	77.12
400.389	94.12
400.613	70.12
400.837	87.12
401.062	92.12
401.286	75.12
401.51	74.12
401.734	84.12
401.958	80.12
402.182	99.12
402.406	93.12
402.63	86.12
402.854	80.12
403.078	71.12
403.302	88.12
403.526	96.12
403.75	100.12
403.974	77.12
404.198	82.12
404.422	95.12
404.645	85.12
404.869	78.12
405.093	87.12
405.317	84.12
405.541	91.12
405.765	91.12
405.988	89.12
406.212	94.12
406.436	93.12
406.66	102.12
406.883	88.12
407.107	94.12
407.331	74.12
407.555	94.12
407.778	102.12
408.002	97.12
408.226	83.12
408.449	86.12
408.673	67.12
408.896	92.12
409.12	80.12
409.344	82.12
409.567	101.12
409.791	98.12
410.014	96.12
410.238	71.12
410.461	92.12
410.685	91.12
410.908	91.12
411.132	91.12
411.355	86.12
411.578	89.12
411.802	88.12
412.025	91.12
412.249	93.12
412.472	85.12
412.695	105.12
412.919	95.12
413.142	105.12
413.365	98.12
413.589	89.12
413.812	89.12
414.035	74.12
414.258	89.12
414.482	97.12
414.705	106.12
414.928	101.12
415.151	94.12
415.374	93.12
415.597	89.12
415.821	95.12
416.044	70.12
416.267	95.12
416.49	93.12
416.713	84.12
416.936	98.12
417.159	85.12
417.382	82.12
417.605	94.12
417.828	84.12
418.051	103.12
418.274	103.12
418.497	83.12
418.72	91.12
418.943	108.12
419.166	97.12
419.389	104.12
419.611	96.12
419.834	93.12
420.057	102.12
420.28	98.12
420.503	92.12
420.726	101.12
420.948	102.12
421.171	91.12
421.394	99.12
421.617	94.12
421.839	95.12
422.062	104.12
422.285	73.12
422.507	90.12
422.73	91.12
422.953	87.12
423.175	91.12
423.398	98.12
423.621	105.12
423.843	86.12
424.066	91.12
424.288	79.12
424.511	77.12
424.733	90.12
424.956	90.12
425.178	89.12
425.401	91.12
425.623	87.12
425.846	84.12
426.068	96.12
426.291	89.12
426.513	106.12
426.735	88.12
426.958	85.12
427.18	96.12
427.402	86.12
427.625	98.12
427.847	82.12
428.069	96.12
428.292	95.12
428.514	95.12
428.736	95.12
428.958	82.12
429.181	94.12
429.403	97.12
429.625	89.12
429.847	98.12
430.069	88.12
430.292	94.12
430.514	96.12
430.736	82.12
430.958	94.12
431.18	100.12
431.402	80.12
431.624	88.12
431.846	88.12
432.068	107.12
432.29	74.12
432.512	85.12
432.734	90.12
432.956	89.12
433.178	90.12
433.4	85.12
433.622	95.12
433.844	82.12
434.066	86.12
434.287	78.12
434.509	86.12
434.731	83.12
434.953	86.12
435.175	93.12
435.397	89.12
435.618	91.12
435.84	90.12
436.062	88.12
436.284	100.12
436.505	90.12
436.727	88.12
436.949	102.12
437.17	99.12
437.392	90.12
437.614	82.12
437.835	76.12
438.057	91.12
438.278	91.12
438.5	92.12
438.721	102.12
438.943	86.12
439.165	108.12
439.386	82.12
439.608	105.12
439.829	98.12
440.05	98.12
440.272	99.12
440.493	98.12
440.715	97.12
440.936	93.12
441.158	83.12
441.379	95.12
441.6	103.12
441.822	99.12
442.043	99.12
442.264	84.12
442.486	97.12
442.707	82.12
442.928	76.12
443.149	91.12
443.371	93.12
443.592	87.12
443.813	97.12
444.034	97.12
444.255	99.12
444.476	89.12
444.698	84.12
444.919	103.12
445.14	199.12
445.361	138.12
445.582	113.12
445.803	93.12
446.024	93.12
446.245	108.12
446.466	88.12
446.687	90.12
446.908	93.12
447.129	85.12
447.35	104.12
447.571	96.12
447.792	99.12
448.013	100.12
448.234	91.12
448.455	99.12
448.675	88.12
448.896	96.12
449.117	82.12
449.338	84.12
449.559	86.12
449.779	110.12
450	87.12
450.221	74.12
450.442	96.12
450.662	97.12
450.883	89.12
451.104	83.12
451.324	93.12
451.545	85.12
451.766	84.12
451.986	85.12
452.207	84.12
452.428	111.12
452.648	88.12
452.869	97.12
453.089	91.12
453.31	73.12
453.53	94.12
453.751	101.12
453.971	77.12
454.192	75.12
454.412	75.12
454.633	83.12
454.853	97.12
455.073	89.12
455.294	90.12
455.514	97.12
455.734	87.12
455.955	87.12
456.175	86.12
456.395	92.12
456.616	95.12
456.836	79.12
457.056	79.12
457.276	61.12
457.497	90.12
457.717	90.12
457.937	81.12
458.157	90.12
458.377	96.12
458.598	77.12
458.818	81.12
459.038	88.12
459.258	95.12
459.478	79.12
459.698	82.12
459.918	91.12
460.138	93.12
460.358	75.12
460.578	90.12
460.798	100.12
461.018	88.12
461.238	73.12
461.458	84.12
461.678	91.12
461.898	89.12
462.118	84.12
462.338	80.12
462.558	86.12
462.777	96.12
462.997	88.12
463.217	79.12
463.437	84.12
463.657	75.12
463.876	92.12
464.096	85.12
464.316	88.12
464.536	84.12
464.755	92.12
464.975	96.12
465.195	86.12
465.414	89.12
465.634	87.12
465.854	100.12
466.073	94.12
466.293	82.12
466.512	95.12
466.732	87.12
466.951	103.12
467.171	95.12
467.391	87.12
467.61	102.12
467.829	87.12
468.049	91.12
468.268	95.12
468.488	101.12
468.707	98.12
468.927	96.12
469.146	92.12
469.365	92.12
469.585	93.12
469.804	95.12
470.023	94.12
470.243	98.12
470.462	86.12
470.681	96.12
470.901	100.12
471.12	100.12
471.339	100.12
471.558	98.12
471.777	88.12
471.997	91.12
472.216	86.12
472.435	80.12
472.654	90.12
472.873	96.12
473.092	76.12
473.311	105.12
473.53	83.12
473.749	107.12
473.968	99.12
474.187	88.12
474.406	84.12
474.625	102.12
474.844	80.12
475.063	80.12
475.282	87.12
475.501	83.12
475.72	79.12
475.939	99.12
476.158	96.12
476.377	107.12
476.596	91.12
476.814	76.12
477.033	90.12
477.252	81.12
477.471	96.12
477.69	103.12
477.908	88.12
478.127	97.12
478.346	90.12
478.564	80.12
478.783	97.12
479.002	103.12
479.22	98.12
479.439	81.12
479.658	83.12
479.876	79.12
480.095	95.12
480.313	94.12
480.532	79.12
480.751	92.12
480.969	90.12
481.188	80.12
481.406	76.12
481.624	80.12
481.843	93.12
482.061	100.12
482.28	100.12
482.498	81.12
482.717	84.12
482.935	88.12
483.153	89.12
483.372	110.12
483.59	99.12
483.808	103.12
484.027	83.12
484.245	95.12
484.463	100.12
484.681	97.12
484.9	92.12
485.118	98.12
485.336	97.12
485.554	90.12
485.772	84.12
485.99	81.12
486.209	83.12
486.427	86.12
486.645	87.12
486.863	80.12
487.081	89.12
487.299	103.12
487.517	94.12
487.735	100.12
487.953	114.12
488.171	114.12
488.389	99.12
488.607	95.12
488.825	95.12
489.043	102.12
489.261	97.12
489.479	81.12
489.696	99.12
489.914	88.12
490.132	90.12
490.35	102.12
490.568	104.12
490.786	93.12
491.003	101.12
491.221	110.12
491.439	114.12
491.657	110.12
491.874	118.12
492.092	111.12
492.31	128.12
492.527	132.12
492.745	95.12
492.963	102.12
493.18	110.12
493.398	99.12
493.615	104.12
493.833	106.12
494.05	108.12
494.268	100.12
494.485	89.12
494.703	110.12
494.92	105.12
495.138	108.12
495.355	105.12
495.573	106.12
495.79	101.12
496.008	94.12
496.225	106.12
496.442	103.12
496.66	98.12
496.877	99.12
497.094	99.12
497.312	107.12
497.529	110.12
497.746	104.12
497.963	105.12
498.181	101.12
498.398	79.12
498.615	104.12
498.832	87.12
499.049	95.12
499.267	89.12
499.484	97.12
499.701	100.12
499.918	104.12
500.135	86.12
500.352	86.12
500.569	84.12
500.786	95.12
501.003	99.12
501.22	98.12
501.437	94.12
501.654	89.12
501.871	96.12
502.088	101.12
502.305	102.12
502.522	94.12
502.739	88.12
502.956	99.12
503.172	82.12
503.389	83.12
503.606	97.12
503.823	102.12
504.04	90.12
504.256	92.12
504.473	73.12
504.69	98.12
504.907	95.12
505.123	81.12
505.34	94.12
505.557	99.12
505.773	85.12
505.99	86.12
506.207	92.12
506.423	77.12
506.64	95.12
506.856	95.12
507.073	99.12
507.289	82.12
507.506	86.12
507.722	84.12
507.939	96.12
508.155	86.12
508.372	94.12
508.588	80.12
508.805	91.12
509.021	89.12
509.238	83.12
509.454	94.12
509.67	94.12
509.887	74.12
510.103	78.12
510.319	103.12
510.536	87.12
510.752	73.12
510.968	91.12
511.184	86.12
511.401	89.12
511.617	83.12
511.833	88.12
512.049	95.12
512.265	83.12
512.481	88.12
512.698	91.12
512.914	74.12
513.13	81.12
513.346	98.12
513.562	77.12
513.778	87.12
513.994	91.12
514.21	95.12
514.426	93.12
514.642	88.12
514.858	85.12
515.074	86.12
515.29	89.12
515.506	73.12
515.721	91.12
515.937	96.12
516.153	83.12
516.369	69.12
516.585	86.12
516.801	78.12
517.016	84.12
517.232	80.12
517.448	83.12
517.664	87.12
517.879	81.12
518.095	90.12
518.311	82.12
518.527	91.12
518.742	82.12
518.958	83.12
519.173	98.12
519.389	87.12
519.605	84.12
519.82	91.12
520.036	94.12
520.251	93.12
520.467	82.12
520.682	76.12
520.898	92.12
521.113	88.12
521.329	90.12
521.544	83.12
521.76	97.12
521.975	79.12
522.19	81.12
522.406	84.12
522.621	88.12
522.836	95.12
523.052	111.12
523.267	71.12
523.482	99.12
523.698	95.12
523.913	96.12
524.128	95.12
524.343	95.12
524.559	92.12
524.774	100.12
524.989	99.12
525.204	91.12
525.419	90.12
525.634	89.12
525.849	87.12
526.064	94.12
526.28	86.12
526.495	87.12
526.71	80.12
526.925	70.12
527.14	93.12
527.355	94.12
527.57	94.12
527.785	77.12
527.999	81.12
528.214	103.12
528.429	103.12
528.644	86.12
528.859	99.12
529.074	99.12
529.289	106.12
529.503	102.12
529.718	107.12
529.933	88.12
530.148	87.12
530.363	92.12
530.577	87.12
530.792	84.12
531.007	86.12
531.221	80.12
531.436	87.12
531.651	89.12
531.865	75.12
532.08	84.12
532.295	89.12
532.509	95.12
532.724	83.12
532.938	80.12
533.153	90.12
533.367	97.12
533.582	115.12
533.796	101.12
534.011	92.12
534.225	72.12
534.44	94.12
534.654	92.12
534.868	93.12
535.083	90.12
535.297	80.12
535.511	95.12
535.726	81.12
535.94	89.12
536.154	93.12
536.369	83.12
536.583	89.12
536.797	81.12
537.011	76.12
537.225	70.12
537.44	100.12
537.654	83.12
537.868	94.12
538.082	74.12
538.296	91.12
538.51	91.12
538.724	90.12
538.938	87.12
539.153	86.12
539.367	101.12
539.581	91.12
539.795	94.12
540.009	86.12
540.222	80.12
540.436	75.12
540.65	83.12
540.864	78.12
541.078	90.12
541.292	116.12
541.506	124.12
541.72	112.12
541.934	123.12
542.147	122.12
542.361	113.12
542.575	116.12
542.789	112.12
543.002	103.12
543.216	103.12
543.43	95.12
543.644	98.12
543.857	96.12
544.071	114.12
544.285	106.12
544.498	110.12
544.712	108.12
544.925	117.12
545.139	106.12
545.352	110.12
545.566	99.12
545.779	95.12
545.993	101.12
546.206	104.12
546.42	103.12
546.633	97.12
546.847	108.12
547.06	106.12
547.274	99.12
547.487	110.12
547.7	105.12
547.914	103.12
548.127	104.12
548.34	99.12
548.554	102.12
548.767	120.12
548.98	92.12
549.193	95.12
549.407	114.12
549.62	97.12
549.833	97.12
550.046	102.12
550.259	110.12
550.473	120.12
550.686	101.12
550.899	112.12
551.112	109.12
551.325	103.12
551.538	93.12
551.751	96.12
551.964	102.12
552.177	102.12
552.39	92.12
552.603	107.12
552.816	112.12
553.029	102.12
553.242	106.12
553.455	111.12
553.667	117.12
553.88	94.12
554.093	100.12
554.306	105.12
554.519	111.12
554.732	105.12
554.944	103.12
555.157	102.12
555.37	113.12
555.583	101.12
555.795	92.12
556.008	92.12
556.221	101.12
556.433	94.12
556.646	97.12
556.859	97.12
557.071	100.12
557.284	90.12
557.496	91.12
557.709	102.12
557.921	100.12
558.134	92.12
558.346	104.12
558.559	95.12
558.771	94.12
558.984	105.12
559.196	95.12
559.409	104.12
559.621	102.12
559.833	103.12
560.046	82.12
560.258	113.12
560.47	90.12
560.683	98.12
560.895	98.12
561.107	102.12
561.32	102.12
561.532	106.12
561.744	95.12
561.956	102.12
562.168	99.12
562.381	88.12
562.593	87.12
562.805	89.12
563.017	103.12
563.229	87.12
563.441	94.12
563.653	97.12
563.865	101.12
564.077	91.12
564.289	91.12
564.501	95.12
564.713	90.12
564.925	86.12
565.137	90.12
565.349	87.12
565.561	96.12
565.773	104.12
565.985	78.12
566.197	83.12
566.408	98.12
566.62	89.12
566.832	102.12
567.044	98.12
567.255	87.12
567.467	86.12
567.679	100.12
567.891	94.12
568.102	88.12
568.314	84.12
568.526	71.12
568.737	78.12
568.949	85.12
569.161	94.12
569.372	80.12
569.584	83.12
569.795	74.12
570.007	80.12
570.218	82.12
570.43	88.12
570.641	82.12
570.853	79.12
571.064	91.12
571.276	85.12
571.487	84.12
571.698	106.12
571.91	80.12
572.121	89.12
572.333	90.12
572.544	86.12
572.755	85.12
572.966	85.12
573.178	88.12
573.389	93.12
573.6	94.12
573.811	88.12
574.023	81.12
574.234	96.12
574.445	87.12
574.656	105.12
574.867	92.12
575.078	82.12
575.289	93.12
575.501	93.12
575.712	79.12
575.923	76.12
576.134	80.12
576.345	75.12
576.556	75.12
576.767	96.12
576.978	78.12
577.188	88.12
577.399	77.12
577.61	87.12
577.821	82.12
578.032	83.12
578.243	82.12
578.454	98.12
578.665	93.12
578.875	67.12
579.086	89.12
579.297	84.12
579.508	77.12
579.718	91.12
579.929	82.12
580.14	87.12
580.35	95.12
580.561	76.12
580.772	83.12
580.982	89.12
581.193	84.12
581.403	79.12
581.614	79.12
581.825	84.12
582.035	91.12
582.246	95.12
582.456	75.12
582.667	88.12
582.877	79.12
583.087	72.12
583.298	98.12
583.508	84.12
583.719	85.12
583.929	89.12
584.139	78.12
584.35	97.12
584.56	98.12
584.77	96.12
584.981	78.12
585.191	96.12
585.401	81.12
585.611	92.12
585.821	88.12
586.032	91.12
586.242	92.12
586.452	83.12
586.662	78.12
586.872	76.12
587.082	92.12
587.292	97.12
587.502	76.12
587.713	82.12
587.923	90.12
588.133	91.12
588.343	82.12
588.553	83.12
588.762	83.12
588.972	76.12
589.182	76.12
589.392	81.12
589.602	91.12
589.812	83.12
590.022	84.12
590.232	82.12
590.441	82.12
590.651	82.12
590.861	78.12
591.071	91.12
591.281	83.12
591.49	86.12
591.7	76.12
591.91	75.12
592.119	89.12
592.329	85.12
592.539	94.12
592.748	79.12
592.958	86.12
593.167	77.12
593.377	98.12
593.587	92.12
593.796	91.12
594.006	73.12
594.215	80.12
594.424	73.12
594.634	85.12
594.843	98.12
595.053	77.12
595.262	91.12
595.472	85.12
595.681	79.12
595.89	98.12
596.1	92.12
596.309	84.12
596.518	82.12
596.727	96.12
596.937	91.12
597.146	93.12
597.355	86.12
597.564	76.12
597.774	95.12
597.983	76.12
598.192	84.12
598.401	81.12
598.61	86.12
598.819	79.12
599.028	89.12
599.237	88.12
599.446	99.12
599.655	86.12
599.864	80.12
600.073	87.12
600.282	90.12
600.491	98.12
600.7	75.12
600.909	84.12
601.118	86.12
601.327	80.12
601.536	92.12
601.745	85.12
601.953	92.12
602.162	89.12
602.371	94.12
602.58	85.12
602.789	95.12
602.997	101.12
603.206	94.12
603.415	105.12
603.623	86.12
603.832	88.12
604.041	93.12
604.249	98.12
604.458	95.12
604.666	99.12
604.875	90.12
605.084	92.12
605.292	79.12
605.501	88.12
605.709	90.12
605.918	75.12
606.126	97.12
606.334	94.12
606.543	86.12
606.751	88.12
606.96	96.12
607.168	82.12
607.376	95.12
607.585	107.12
607.793	87.12
608.001	84.12
608.21	82.12
608.418	99.12
608.626	88.12
608.834	99.12
609.043	94.12
609.251	101.12
609.459	102.12
609.667	98.12
609.875	105.12
610.083	106.12
610.291	95.12
610.499	102.12
610.707	103.12
610.916	93.12
611.124	108.12
611.332	99.12
611.54	96.12
611.748	111.12
611.955	91.12
612.163	103.12
612.371	108.12
612.579	92.12
612.787	90.12
612.995	87.12
613.203	94.12
613.411	93.12
613.618	70.12
613.826	64.12
614.034	93.12
614.242	93.12
614.449	96.12
614.657	92.12
614.865	87.12
615.072	65.12
615.28	92.12
615.488	89.12
615.695	88.12
615.903	76.12
616.111	87.12
616.318	96.12
616.526	94.12
616.733	86.12
616.941	93.12
617.148	96.12
617.356	100.12
617.563	103.12
617.771	86.12
617.978	92.12
618.185	83.12
618.393	80.12
618.6	96.12
618.807	87.12
619.015	91.12
619.222	86.12
619.429	97.12
619.637	92.12
619.844	78.12
620.051	91.12
620.258	84.12
620.466	101.12
620.673	104.12
620.88	89.12
621.087	87.12
621.294	92.12
621.501	88.12
621.708	89.12
621.915	84.12
622.122	86.12
622.329	94.12
622.536	95.12
622.743	95.12
622.95	99.12
623.157	68.12
623.364	91.12
623.571	113.12
623.778	95.12
623.985	105.12
624.192	91.12
624.399	90.12
624.606	89.12
624.812	97.12
625.019	88.12
625.226	82.12
625.433	97.12
625.639	86.12
625.846	86.12
626.053	92.12
626.259	87.12
626.466	92.12
626.673	84.12
626.879	95.12
627.086	91.12
627.293	80.12
627.499	73.12
627.706	105.12
627.912	88.12
628.119	98.12
628.325	80.12
628.532	76.12
628.738	83.12
628.945	96.12
629.151	80.12
629.357	98.12
629.564	93.12
629.77	101.12
629.976	96.12
630.183	91.12
630.389	86.12
630.595	80.12
630.802	95.12
631.008	86.12
631.214	81.12
631.42	103.12
631.627	83.12
631.833	94.12
632.039	86.12
632.245	77.12
632.451	95.12
632.657	75.12
632.863	81.12
633.069	95.12
633.275	84.12
633.481	81.12
633.688	80.12
633.893	91.12
634.099	84.12
634.305	84.12
634.511	83.12
634.717	95.12
634.923	84.12
635.129	100.12
635.335	88.12
635.541	76.12
635.747	91.12
635.952	94.12
636.158	84.12
636.364	87.12
636.57	85.12
636.775	92.12
636.981	75.12
637.187	94.12
637.392	92.12
637.598	90.12
637.804	93.12
638.009	70.12
638.215	90.12
638.421	84.12
638.626	71.12
638.832	95.12
639.037	87.12
639.243	88.12
639.448	99.12
639.654	94.12
639.859	90.12
640.065	92.12
640.27	102.12
640.475	82.12
640.681	94.12
640.886	96.12
641.091	82.12
641.297	92.12
641.502	88.12
641.707	87.12
641.913	99.12
642.118	96.12
642.323	77.12
642.528	102.12
642.733	88.12
642.939	94.12
643.144	88.12
643.349	89.12
643.554	73.12
643.759	90.12
643.964	88.12
644.169	88.12
644.374	95.12
644.579	101.12
644.784	87.12
644.989	84.12
645.194	99.12
645.399	97.12
645.604	92.12
645.809	92.12
646.014	99.12
646.219	98.12
646.423	92.12
646.628	79.12
646.833	99.12
647.038	106.12
647.243	93.12
647.447	86.12
647.652	92.12
647.857	81.12
648.062	75.12
648.266	103.12
648.471	93.12
648.676	88.12
648.88	99.12
649.085	90.12
649.289	90.12
649.494	88.12
649.698	95.12
649.903	88.12
650.107	84.12
650.312	102.12
650.516	83.12
650.721	88.12
650.925	85.12
651.13	84.12
651.334	95.12
651.539	97.12
651.743	88.12
651.947	96.12
652.152	82.12
652.356	86.12
652.56	93.12
652.764	98.12
652.969	78.12
653.173	86.12
653.377	87.12
653.581	97.12
653.785	98.12
653.99	83.12
654.194	96.12
654.398	91.12
654.602	98.12
654.806	71.12
655.01	73.12
655.214	106.12
655.418	89.12
655.622	91.12
655.826	105.12
656.03	94.12
656.234	86.12
656.438	92.12
656.642	99.12
656.846	84.12
657.049	98.12
657.253	85.12
657.457	82.12
657.661	95.12
657.865	82.12
658.068	84.12
658.272	80.12
658.476	79.12
658.68	81.12
658.883	82.12
659.087	72.12
659.291	82.12
659.494	94.12
659.698	79.12
659.901	90.12
660.105	89.12
660.309	80.12
660.512	81.12
660.716	83.12
660.919	86.12
661.123	93.12
661.326	89.12
661.53	72.12
661.733	71.12
661.936	68.12
662.14	85.12
662.343	74.12
662.546	76.12
662.75	75.12
662.953	86.12
663.156	73.12
663.36	79.12
663.563	83.12
663.766	81.12
663.969	74.12
664.173	84.12
664.376	95.12
664.579	76.12
664.782	88.12
664.985	86.12
665.188	80.12
665.391	88.12
665.594	89.12
665.797	80.12
666	84.12
666.203	76.12
666.406	94.12
666.609	79.12
666.812	84.12
667.015	87.12
667.218	95.12
667.421	76.12
667.624	102.12
667.827	85.12
668.03	86.12
668.232	77.12
668.435	86.12
668.638	82.12
668.841	73.12
669.043	72.12
669.246	91.12
669.449	90.12
669.651	82.12
669.854	79.12
670.057	83.12
670.259	84.12
670.462	82.12
670.665	80.12
670.867	86.12
671.07	83.12
671.272	78.12
671.475	85.12
671.677	80.12
671.88	73.12
672.082	86.12
672.284	74.12
672.487	65.12
672.689	75.12
672.892	82.12
