Data from Location5.07152019.Energy5.Lamp.07192019.3%Agarose_HRD10591_16-03-19-629.txt Node
Date: Fri Jul 19 16:03:19 EDT 2019
User: cochatt
Spectrometer: HR+D1059
Trigger mode: 1
Integration Time (sec): 1.000000E-1
Scans to average: 1
Electric dark correction enabled: true
Nonlinearity correction enabled: false
Boxcar width: 0
XAxis mode: Wavelengths
Number of Pixels in Spectrum: 2048
>>>>>Begin Spectral Data<<<<<
223.165	-7.38
223.4	-7.38
223.635	-7.38
223.869	-9.38
224.104	-35.38
224.338	-10.38
224.573	-11.38
224.808	-0.38
225.042	-8.38
225.277	-5.38
225.511	-1.38
225.746	-0.38
225.98	7.62
226.215	17.62
226.449	6.62
226.683	12.62
226.918	21.62
227.152	23.62
227.387	25.62
227.621	38.62
227.856	41.62
228.09	28.62
228.324	28.62
228.559	51.62
228.793	57.62
229.027	53.62
229.262	66.62
229.496	57.62
229.73	55.62
229.964	62.62
230.199	79.62
230.433	72.62
230.667	86.62
230.901	73.62
231.136	82.62
231.37	68.62
231.604	87.62
231.838	83.62
232.072	92.62
232.306	77.62
232.541	70.62
232.775	72.62
233.009	91.62
233.243	81.62
233.477	83.62
233.711	80.62
233.945	82.62
234.179	102.62
234.413	73.62
234.647	81.62
234.881	89.62
235.115	80.62
235.349	80.62
235.583	70.62
235.817	68.62
236.051	68.62
236.285	77.62
236.519	84.62
236.753	84.62
236.987	68.62
237.221	59.62
237.455	82.62
237.689	76.62
237.922	74.62
238.156	77.62
238.39	68.62
238.624	69.62
238.858	66.62
239.091	72.62
239.325	82.62
239.559	77.62
239.793	80.62
240.027	73.62
240.26	73.62
240.494	81.62
240.728	84.62
240.961	86.62
241.195	74.62
241.429	77.62
241.662	70.62
241.896	85.62
242.13	69.62
242.363	77.62
242.597	62.62
242.83	92.62
243.064	63.62
243.298	65.62
243.531	73.62
243.765	79.62
243.998	83.62
244.232	81.62
244.465	74.62
244.699	78.62
244.932	75.62
245.166	62.62
245.399	92.62
245.633	77.62
245.866	74.62
246.099	83.62
246.333	78.62
246.566	69.62
246.8	79.62
247.033	84.62
247.266	63.62
247.5	71.62
247.733	87.62
247.966	92.62
248.2	78.62
248.433	77.62
248.666	78.62
248.899	82.62
249.133	65.62
249.366	89.62
249.599	72.62
249.832	89.62
250.066	79.62
250.299	79.62
250.532	70.62
250.765	76.62
250.998	94.62
251.231	74.62
251.465	92.62
251.698	80.62
251.931	75.62
252.164	87.62
252.397	73.62
252.63	80.62
252.863	71.62
253.096	83.62
253.329	84.62
253.562	72.62
253.795	69.62
254.028	79.62
254.261	72.62
254.494	79.62
254.727	76.62
254.96	80.62
255.193	91.62
255.426	85.62
255.659	72.62
255.892	81.62
256.124	73.62
256.357	78.62
256.59	70.62
256.823	64.62
257.056	84.62
257.289	86.62
257.521	79.62
257.754	72.62
257.987	84.62
258.22	92.62
258.452	78.62
258.685	68.62
258.918	86.62
259.151	87.62
259.383	85.62
259.616	91.62
259.849	70.62
260.081	82.62
260.314	83.62
260.547	82.62
260.779	94.62
261.012	79.62
261.244	81.62
261.477	74.62
261.71	89.62
261.942	68.62
262.175	83.62
262.407	86.62
262.64	77.62
262.872	94.62
263.105	74.62
263.337	83.62
263.57	76.62
263.802	78.62
264.035	80.62
264.267	94.62
264.499	90.62
264.732	82.62
264.964	74.62
265.197	86.62
265.429	82.62
265.661	78.62
265.894	74.62
266.126	101.62
266.358	78.62
266.591	79.62
266.823	74.62
267.055	78.62
267.287	98.62
267.52	88.62
267.752	80.62
267.984	90.62
268.216	68.62
268.448	74.62
268.681	88.62
268.913	88.62
269.145	70.62
269.377	75.62
269.609	73.62
269.841	87.62
270.073	89.62
270.306	86.62
270.538	92.62
270.77	99.62
271.002	84.62
271.234	88.62
271.466	90.62
271.698	81.62
271.93	83.62
272.162	82.62
272.394	87.62
272.626	85.62
272.858	87.62
273.09	84.62
273.322	84.62
273.553	82.62
273.785	76.62
274.017	70.62
274.249	100.62
274.481	94.62
274.713	82.62
274.945	88.62
275.176	88.62
275.408	90.62
275.64	78.62
275.872	91.62
276.104	84.62
276.335	90.62
276.567	91.62
276.799	90.62
277.031	86.62
277.262	70.62
277.494	83.62
277.726	88.62
277.957	79.62
278.189	80.62
278.421	74.62
278.652	74.62
278.884	87.62
279.115	91.62
279.347	92.62
279.579	83.62
279.81	92.62
280.042	86.62
280.273	81.62
280.505	87.62
280.736	92.62
280.968	72.62
281.199	77.62
281.431	99.62
281.662	99.62
281.894	93.62
282.125	78.62
282.356	85.62
282.588	78.62
282.819	72.62
283.051	84.62
283.282	95.62
283.513	85.62
283.745	91.62
283.976	69.62
284.207	81.62
284.439	109.62
284.67	93.62
284.901	95.62
285.132	87.62
285.364	95.62
285.595	75.62
285.826	90.62
286.057	84.62
286.288	87.62
286.52	87.62
286.751	94.62
286.982	91.62
287.213	81.62
287.444	85.62
287.675	88.62
287.906	90.62
288.138	76.62
288.369	90.62
288.6	81.62
288.831	97.62
289.062	109.62
289.293	83.62
289.524	77.62
289.755	81.62
289.986	89.62
290.217	83.62
290.448	85.62
290.679	92.62
290.91	90.62
291.141	82.62
291.371	92.62
291.602	89.62
291.833	88.62
292.064	98.62
292.295	76.62
292.526	77.62
292.757	73.62
292.987	85.62
293.218	79.62
293.449	86.62
293.68	89.62
293.91	88.62
294.141	80.62
294.372	87.62
294.603	97.62
294.833	85.62
295.064	107.62
295.295	90.62
295.525	91.62
295.756	88.62
295.987	110.62
296.217	64.62
296.448	82.62
296.679	92.62
296.909	88.62
297.14	90.62
297.37	103.62
297.601	94.62
297.831	98.62
298.062	89.62
298.292	83.62
298.523	93.62
298.753	81.62
298.984	87.62
299.214	101.62
299.445	89.62
299.675	79.62
299.905	98.62
300.136	97.62
300.366	83.62
300.597	79.62
300.827	84.62
301.057	68.62
301.288	90.62
301.518	99.62
301.748	95.62
301.979	92.62
302.209	93.62
302.439	85.62
302.669	109.62
302.9	89.62
303.13	75.62
303.36	89.62
303.59	102.62
303.82	80.62
304.051	87.62
304.281	97.62
304.511	94.62
304.741	94.62
304.971	95.62
305.201	87.62
305.431	73.62
305.661	86.62
305.891	93.62
306.121	105.62
306.352	94.62
306.582	84.62
306.812	95.62
307.042	84.62
307.272	94.62
307.502	84.62
307.731	110.62
307.961	102.62
308.191	81.62
308.421	76.62
308.651	84.62
308.881	85.62
309.111	77.62
309.341	104.62
309.571	103.62
309.8	79.62
310.03	92.62
310.26	85.62
310.49	94.62
310.72	77.62
310.949	97.62
311.179	110.62
311.409	98.62
311.639	86.62
311.868	91.62
312.098	94.62
312.328	78.62
312.557	80.62
312.787	93.62
313.017	84.62
313.246	92.62
313.476	91.62
313.706	96.62
313.935	82.62
314.165	98.62
314.394	87.62
314.624	84.62
314.853	92.62
315.083	89.62
315.312	99.62
315.542	81.62
315.771	83.62
316.001	81.62
316.23	85.62
316.46	76.62
316.689	85.62
316.919	96.62
317.148	84.62
317.377	73.62
317.607	88.62
317.836	90.62
318.065	85.62
318.295	88.62
318.524	92.62
318.753	101.62
318.983	89.62
319.212	86.62
319.441	89.62
319.67	86.62
319.9	95.62
320.129	83.62
320.358	89.62
320.587	74.62
320.816	67.62
321.046	80.62
321.275	90.62
321.504	90.62
321.733	91.62
321.962	92.62
322.191	94.62
322.42	95.62
322.649	99.62
322.878	88.62
323.108	96.62
323.337	93.62
323.566	82.62
323.795	90.62
324.024	77.62
324.253	91.62
324.482	96.62
324.71	89.62
324.939	101.62
325.168	97.62
325.397	91.62
325.626	102.62
325.855	84.62
326.084	89.62
326.313	92.62
326.542	96.62
326.77	90.62
326.999	100.62
327.228	81.62
327.457	78.62
327.686	94.62
327.914	80.62
328.143	100.62
328.372	90.62
328.6	88.62
328.829	89.62
329.058	78.62
329.287	95.62
329.515	95.62
329.744	87.62
329.972	96.62
330.201	96.62
330.43	94.62
330.658	94.62
330.887	87.62
331.115	86.62
331.344	92.62
331.572	82.62
331.801	99.62
332.03	97.62
332.258	96.62
332.486	97.62
332.715	81.62
332.943	94.62
333.172	88.62
333.4	89.62
333.629	89.62
333.857	96.62
334.085	83.62
334.314	99.62
334.542	87.62
334.771	97.62
334.999	105.62
335.227	94.62
335.455	88.62
335.684	105.62
335.912	83.62
336.14	89.62
336.369	101.62
336.597	104.62
336.825	87.62
337.053	106.62
337.281	81.62
337.51	92.62
337.738	98.62
337.966	86.62
338.194	89.62
338.422	77.62
338.65	93.62
338.878	93.62
339.106	91.62
339.334	87.62
339.562	93.62
339.79	89.62
340.018	90.62
340.246	89.62
340.474	86.62
340.702	89.62
340.93	96.62
341.158	93.62
341.386	90.62
341.614	95.62
341.842	93.62
342.07	88.62
342.298	105.62
342.526	90.62
342.754	96.62
342.981	100.62
343.209	99.62
343.437	93.62
343.665	103.62
343.893	90.62
344.12	103.62
344.348	87.62
344.576	83.62
344.804	111.62
345.031	94.62
345.259	94.62
345.487	84.62
345.714	99.62
345.942	79.62
346.17	94.62
346.397	89.62
346.625	84.62
346.853	84.62
347.08	73.62
347.308	97.62
347.535	92.62
347.763	115.62
347.99	104.62
348.218	98.62
348.445	97.62
348.673	90.62
348.9	97.62
349.128	101.62
349.355	100.62
349.583	80.62
349.81	76.62
350.037	90.62
350.265	97.62
350.492	100.62
350.72	92.62
350.947	97.62
351.174	85.62
351.402	81.62
351.629	86.62
351.856	87.62
352.083	73.62
352.311	74.62
352.538	86.62
352.765	97.62
352.992	91.62
353.22	88.62
353.447	79.62
353.674	92.62
353.901	91.62
354.128	94.62
354.355	97.62
354.583	90.62
354.81	99.62
355.037	95.62
355.264	82.62
355.491	83.62
355.718	110.62
355.945	88.62
356.172	77.62
356.399	98.62
356.626	96.62
356.853	98.62
357.08	86.62
357.307	95.62
357.534	83.62
357.761	72.62
357.988	110.62
358.215	81.62
358.441	89.62
358.668	91.62
358.895	79.62
359.122	76.62
359.349	93.62
359.576	99.62
359.802	86.62
360.029	84.62
360.256	90.62
360.483	77.62
360.709	98.62
360.936	74.62
361.163	91.62
361.39	84.62
361.616	79.62
361.843	93.62
362.07	78.62
362.296	88.62
362.523	99.62
362.749	88.62
362.976	87.62
363.203	99.62
363.429	86.62
363.656	98.62
363.882	94.62
364.109	88.62
364.335	83.62
364.562	79.62
364.788	100.62
365.015	101.62
365.241	88.62
365.468	96.62
365.694	82.62
365.92	81.62
366.147	81.62
366.373	81.62
366.599	89.62
366.826	92.62
367.052	102.62
367.278	74.62
367.505	98.62
367.731	88.62
367.957	94.62
368.184	88.62
368.41	95.62
368.636	97.62
368.862	97.62
369.089	97.62
369.315	85.62
369.541	90.62
369.767	91.62
369.993	90.62
370.219	84.62
370.445	95.62
370.672	96.62
370.898	81.62
371.124	90.62
371.35	90.62
371.576	96.62
371.802	81.62
372.028	90.62
372.254	80.62
372.48	90.62
372.706	99.62
372.932	95.62
373.158	76.62
373.384	88.62
373.61	80.62
373.835	104.62
374.061	87.62
374.287	84.62
374.513	84.62
374.739	92.62
374.965	85.62
375.191	77.62
375.416	95.62
375.642	96.62
375.868	95.62
376.094	89.62
376.319	92.62
376.545	94.62
376.771	87.62
376.997	94.62
377.222	97.62
377.448	85.62
377.674	80.62
377.899	98.62
378.125	90.62
378.35	98.62
378.576	84.62
378.802	83.62
379.027	86.62
379.253	86.62
379.478	90.62
379.704	82.62
379.929	98.62
380.155	91.62
380.38	97.62
380.606	89.62
380.831	101.62
381.057	90.62
381.282	90.62
381.507	100.62
381.733	94.62
381.958	86.62
382.184	100.62
382.409	96.62
382.634	94.62
382.86	111.62
383.085	104.62
383.31	93.62
383.535	83.62
383.761	102.62
383.986	100.62
384.211	82.62
384.436	100.62
384.662	88.62
384.887	90.62
385.112	96.62
385.337	78.62
385.562	86.62
385.787	97.62
386.013	96.62
386.238	87.62
386.463	86.62
386.688	91.62
386.913	93.62
387.138	98.62
387.363	103.62
387.588	98.62
387.813	106.62
388.038	82.62
388.263	89.62
388.488	89.62
388.713	88.62
388.938	99.62
389.163	89.62
389.387	101.62
389.612	92.62
389.837	101.62
390.062	96.62
390.287	81.62
390.512	90.62
390.736	86.62
390.961	98.62
391.186	90.62
391.411	82.62
391.636	104.62
391.86	101.62
392.085	94.62
392.31	106.62
392.534	87.62
392.759	103.62
392.984	99.62
393.208	87.62
393.433	81.62
393.658	89.62
393.882	98.62
394.107	102.62
394.331	106.62
394.556	104.62
394.78	102.62
395.005	109.62
395.229	85.62
395.454	92.62
395.678	86.62
395.903	94.62
396.127	90.62
396.352	104.62
396.576	105.62
396.801	95.62
397.025	91.62
397.249	97.62
397.474	96.62
397.698	89.62
397.922	98.62
398.147	82.62
398.371	103.62
398.595	102.62
398.82	101.62
399.044	78.62
399.268	105.62
399.492	104.62
399.717	107.62
399.941	107.62
400.165	116.62
400.389	95.62
400.613	100.62
400.837	101.62
401.062	85.62
401.286	104.62
401.51	90.62
401.734	86.62
401.958	105.62
402.182	110.62
402.406	99.62
402.63	99.62
402.854	100.62
403.078	94.62
403.302	98.62
403.526	90.62
403.75	102.62
403.974	96.62
404.198	99.62
404.422	105.62
404.645	103.62
404.869	110.62
405.093	107.62
405.317	94.62
405.541	87.62
405.765	96.62
405.988	111.62
406.212	82.62
406.436	94.62
406.66	104.62
406.883	105.62
407.107	92.62
407.331	88.62
407.555	102.62
407.778	114.62
408.002	104.62
408.226	96.62
408.449	98.62
408.673	109.62
408.896	113.62
409.12	96.62
409.344	110.62
409.567	101.62
409.791	108.62
410.014	96.62
410.238	103.62
410.461	93.62
410.685	96.62
410.908	93.62
411.132	86.62
411.355	89.62
411.578	101.62
411.802	103.62
412.025	91.62
412.249	101.62
412.472	90.62
412.695	106.62
412.919	101.62
413.142	92.62
413.365	113.62
413.589	95.62
413.812	93.62
414.035	101.62
414.258	104.62
414.482	89.62
414.705	93.62
414.928	120.62
415.151	97.62
415.374	95.62
415.597	105.62
415.821	93.62
416.044	78.62
416.267	85.62
416.49	111.62
416.713	105.62
416.936	101.62
417.159	97.62
417.382	105.62
417.605	98.62
417.828	95.62
418.051	89.62
418.274	89.62
418.497	100.62
418.72	100.62
418.943	97.62
419.166	111.62
419.389	108.62
419.611	85.62
419.834	89.62
420.057	103.62
420.28	104.62
420.503	93.62
420.726	99.62
420.948	90.62
421.171	82.62
421.394	75.62
421.617	103.62
421.839	100.62
422.062	104.62
422.285	101.62
422.507	95.62
422.73	100.62
422.953	109.62
423.175	98.62
423.398	92.62
423.621	99.62
423.843	99.62
424.066	97.62
424.288	108.62
424.511	100.62
424.733	98.62
424.956	98.62
425.178	100.62
425.401	93.62
425.623	98.62
425.846	83.62
426.068	92.62
426.291	99.62
426.513	97.62
426.735	89.62
426.958	95.62
427.18	106.62
427.402	88.62
427.625	89.62
427.847	102.62
428.069	93.62
428.292	89.62
428.514	88.62
428.736	92.62
428.958	97.62
429.181	89.62
429.403	100.62
429.625	96.62
429.847	96.62
430.069	87.62
430.292	108.62
430.514	102.62
430.736	88.62
430.958	82.62
431.18	89.62
431.402	96.62
431.624	95.62
431.846	97.62
432.068	111.62
432.29	97.62
432.512	103.62
432.734	103.62
432.956	111.62
433.178	110.62
433.4	88.62
433.622	120.62
433.844	102.62
434.066	94.62
434.287	100.62
434.509	90.62
434.731	98.62
434.953	79.62
435.175	94.62
435.397	89.62
435.618	102.62
435.84	113.62
436.062	100.62
436.284	90.62
436.505	98.62
436.727	99.62
436.949	100.62
437.17	117.62
437.392	93.62
437.614	80.62
437.835	98.62
438.057	92.62
438.278	95.62
438.5	84.62
438.721	85.62
438.943	89.62
439.165	91.62
439.386	96.62
439.608	97.62
439.829	96.62
440.05	103.62
440.272	98.62
440.493	90.62
440.715	94.62
440.936	96.62
441.158	89.62
441.379	97.62
441.6	87.62
441.822	90.62
442.043	100.62
442.264	95.62
442.486	95.62
442.707	93.62
442.928	94.62
443.149	99.62
443.371	104.62
443.592	92.62
443.813	82.62
444.034	93.62
444.255	94.62
444.476	103.62
444.698	113.62
444.919	96.62
445.14	204.62
445.361	145.62
445.582	85.62
445.803	99.62
446.024	110.62
446.245	85.62
446.466	77.62
446.687	94.62
446.908	108.62
447.129	113.62
447.35	91.62
447.571	114.62
447.792	99.62
448.013	73.62
448.234	97.62
448.455	101.62
448.675	109.62
448.896	82.62
449.117	85.62
449.338	89.62
449.559	105.62
449.779	98.62
450	78.62
450.221	77.62
450.442	87.62
450.662	96.62
450.883	86.62
451.104	99.62
451.324	97.62
451.545	89.62
451.766	101.62
451.986	92.62
452.207	102.62
452.428	87.62
452.648	92.62
452.869	109.62
453.089	90.62
453.31	91.62
453.53	104.62
453.751	79.62
453.971	88.62
454.192	94.62
454.412	99.62
454.633	88.62
454.853	99.62
455.073	102.62
455.294	82.62
455.514	96.62
455.734	91.62
455.955	101.62
456.175	86.62
456.395	99.62
456.616	87.62
456.836	100.62
457.056	102.62
457.276	87.62
457.497	87.62
457.717	86.62
457.937	89.62
458.157	89.62
458.377	94.62
458.598	99.62
458.818	93.62
459.038	72.62
459.258	90.62
459.478	97.62
459.698	92.62
459.918	93.62
460.138	90.62
460.358	101.62
460.578	98.62
460.798	89.62
461.018	88.62
461.238	97.62
461.458	98.62
461.678	93.62
461.898	94.62
462.118	107.62
462.338	106.62
462.558	110.62
462.777	108.62
462.997	115.62
463.217	96.62
463.437	104.62
463.657	97.62
463.876	102.62
464.096	108.62
464.316	111.62
464.536	116.62
464.755	109.62
464.975	110.62
465.195	110.62
465.414	115.62
465.634	86.62
465.854	106.62
466.073	114.62
466.293	85.62
466.512	92.62
466.732	90.62
466.951	96.62
467.171	103.62
467.391	93.62
467.61	95.62
467.829	89.62
468.049	97.62
468.268	84.62
468.488	99.62
468.707	102.62
468.927	104.62
469.146	114.62
469.365	117.62
469.585	94.62
469.804	101.62
470.023	94.62
470.243	110.62
470.462	97.62
470.681	110.62
470.901	108.62
471.12	102.62
471.339	105.62
471.558	94.62
471.777	102.62
471.997	97.62
472.216	94.62
472.435	82.62
472.654	87.62
472.873	84.62
473.092	98.62
473.311	101.62
473.53	87.62
473.749	92.62
473.968	98.62
474.187	83.62
474.406	85.62
474.625	94.62
474.844	105.62
475.063	102.62
475.282	110.62
475.501	96.62
475.72	114.62
475.939	98.62
476.158	116.62
476.377	101.62
476.596	104.62
476.814	89.62
477.033	104.62
477.252	95.62
477.471	80.62
477.69	97.62
477.908	105.62
478.127	112.62
478.346	103.62
478.564	92.62
478.783	104.62
479.002	98.62
479.22	103.62
479.439	92.62
479.658	104.62
479.876	107.62
480.095	103.62
480.313	94.62
480.532	112.62
480.751	114.62
480.969	84.62
481.188	113.62
481.406	98.62
481.624	96.62
481.843	98.62
482.061	105.62
482.28	105.62
482.498	89.62
482.717	100.62
482.935	85.62
483.153	90.62
483.372	110.62
483.59	108.62
483.808	105.62
484.027	97.62
484.245	93.62
484.463	109.62
484.681	104.62
484.9	108.62
485.118	94.62
485.336	110.62
485.554	106.62
485.772	102.62
485.99	99.62
486.209	111.62
486.427	96.62
486.645	104.62
486.863	101.62
487.081	97.62
487.299	106.62
487.517	102.62
487.735	111.62
487.953	104.62
488.171	104.62
488.389	109.62
488.607	89.62
488.825	105.62
489.043	105.62
489.261	101.62
489.479	106.62
489.696	105.62
489.914	112.62
490.132	101.62
490.35	104.62
490.568	103.62
490.786	118.62
491.003	119.62
491.221	111.62
491.439	106.62
491.657	110.62
491.874	102.62
492.092	122.62
492.31	124.62
492.527	108.62
492.745	122.62
492.963	118.62
493.18	113.62
493.398	101.62
493.615	118.62
493.833	102.62
494.05	116.62
494.268	118.62
494.485	130.62
494.703	111.62
494.92	112.62
495.138	115.62
495.355	125.62
495.573	120.62
495.79	111.62
496.008	112.62
496.225	121.62
496.442	128.62
496.66	121.62
496.877	109.62
497.094	109.62
497.312	121.62
497.529	121.62
497.746	127.62
497.963	110.62
498.181	121.62
498.398	131.62
498.615	127.62
498.832	121.62
499.049	114.62
499.267	124.62
499.484	135.62
499.701	144.62
499.918	154.62
500.135	150.62
500.352	161.62
500.569	156.62
500.786	181.62
501.003	162.62
501.22	151.62
501.437	135.62
501.654	118.62
501.871	124.62
502.088	136.62
502.305	123.62
502.522	116.62
502.739	118.62
502.956	101.62
503.172	122.62
503.389	117.62
503.606	101.62
503.823	116.62
504.04	114.62
504.256	120.62
504.473	126.62
504.69	111.62
504.907	105.62
505.123	120.62
505.34	105.62
505.557	114.62
505.773	113.62
505.99	105.62
506.207	101.62
506.423	111.62
506.64	102.62
506.856	117.62
507.073	96.62
507.289	117.62
507.506	113.62
507.722	95.62
507.939	106.62
508.155	88.62
508.372	100.62
508.588	102.62
508.805	101.62
509.021	115.62
509.238	104.62
509.454	100.62
509.67	97.62
509.887	105.62
510.103	95.62
510.319	106.62
510.536	99.62
510.752	108.62
510.968	102.62
511.184	101.62
511.401	104.62
511.617	108.62
511.833	103.62
512.049	102.62
512.265	107.62
512.481	110.62
512.698	103.62
512.914	108.62
513.13	102.62
513.346	88.62
513.562	100.62
513.778	88.62
513.994	108.62
514.21	82.62
514.426	105.62
514.642	103.62
514.858	100.62
515.074	105.62
515.29	103.62
515.506	91.62
515.721	107.62
515.937	101.62
516.153	108.62
516.369	106.62
516.585	92.62
516.801	119.62
517.016	119.62
517.232	95.62
517.448	120.62
517.664	108.62
517.879	94.62
518.095	104.62
518.311	109.62
518.527	112.62
518.742	108.62
518.958	109.62
519.173	100.62
519.389	101.62
519.605	100.62
519.82	111.62
520.036	94.62
520.251	120.62
520.467	97.62
520.682	95.62
520.898	101.62
521.113	99.62
521.329	102.62
521.544	90.62
521.76	95.62
521.975	110.62
522.19	116.62
522.406	94.62
522.621	91.62
522.836	91.62
523.052	97.62
523.267	105.62
523.482	110.62
523.698	112.62
523.913	101.62
524.128	114.62
524.343	104.62
524.559	101.62
524.774	94.62
524.989	105.62
525.204	108.62
525.419	116.62
525.634	100.62
525.849	108.62
526.064	108.62
526.28	97.62
526.495	87.62
526.71	88.62
526.925	87.62
527.14	121.62
527.355	112.62
527.57	105.62
527.785	108.62
527.999	96.62
528.214	101.62
528.429	89.62
528.644	89.62
528.859	99.62
529.074	101.62
529.289	115.62
529.503	100.62
529.718	109.62
529.933	102.62
530.148	100.62
530.363	98.62
530.577	104.62
530.792	98.62
531.007	89.62
531.221	106.62
531.436	105.62
531.651	97.62
531.865	94.62
532.08	108.62
532.295	102.62
532.509	90.62
532.724	98.62
532.938	115.62
533.153	96.62
533.367	87.62
533.582	103.62
533.796	90.62
534.011	93.62
534.225	104.62
534.44	101.62
534.654	93.62
534.868	96.62
535.083	87.62
535.297	92.62
535.511	101.62
535.726	111.62
535.94	115.62
536.154	98.62
536.369	82.62
536.583	85.62
536.797	97.62
537.011	94.62
537.225	98.62
537.44	86.62
537.654	98.62
537.868	94.62
538.082	96.62
538.296	98.62
538.51	113.62
538.724	84.62
538.938	100.62
539.153	112.62
539.367	108.62
539.581	110.62
539.795	93.62
540.009	94.62
540.222	102.62
540.436	87.62
540.65	84.62
540.864	95.62
541.078	96.62
541.292	104.62
541.506	117.62
541.72	115.62
541.934	108.62
542.147	110.62
542.361	115.62
542.575	95.62
542.789	110.62
543.002	98.62
543.216	102.62
543.43	97.62
543.644	109.62
543.857	103.62
544.071	108.62
544.285	104.62
544.498	99.62
544.712	104.62
544.925	88.62
545.139	108.62
545.352	99.62
545.566	119.62
545.779	94.62
545.993	108.62
546.206	88.62
546.42	98.62
546.633	87.62
546.847	106.62
547.06	111.62
547.274	105.62
547.487	109.62
547.7	107.62
547.914	84.62
548.127	114.62
548.34	119.62
548.554	99.62
548.767	98.62
548.98	83.62
549.193	106.62
549.407	109.62
549.62	103.62
549.833	104.62
550.046	122.62
550.259	101.62
550.473	108.62
550.686	98.62
550.899	96.62
551.112	102.62
551.325	97.62
551.538	106.62
551.751	96.62
551.964	95.62
552.177	102.62
552.39	94.62
552.603	88.62
552.816	102.62
553.029	77.62
553.242	100.62
553.455	87.62
553.667	110.62
553.88	110.62
554.093	103.62
554.306	102.62
554.519	96.62
554.732	102.62
554.944	101.62
555.157	101.62
555.37	99.62
555.583	105.62
555.795	89.62
556.008	82.62
556.221	96.62
556.433	99.62
556.646	106.62
556.859	96.62
557.071	94.62
557.284	97.62
557.496	95.62
557.709	97.62
557.921	106.62
558.134	96.62
558.346	92.62
558.559	87.62
558.771	104.62
558.984	108.62
559.196	92.62
559.409	105.62
559.621	86.62
559.833	97.62
560.046	94.62
560.258	92.62
560.47	93.62
560.683	95.62
560.895	99.62
561.107	107.62
561.32	88.62
561.532	83.62
561.744	86.62
561.956	108.62
562.168	88.62
562.381	91.62
562.593	98.62
562.805	88.62
563.017	104.62
563.229	92.62
563.441	103.62
563.653	95.62
563.865	92.62
564.077	88.62
564.289	101.62
564.501	95.62
564.713	114.62
564.925	96.62
565.137	100.62
565.349	98.62
565.561	105.62
565.773	86.62
565.985	95.62
566.197	116.62
566.408	93.62
566.62	114.62
566.832	100.62
567.044	100.62
567.255	112.62
567.467	124.62
567.679	103.62
567.891	107.62
568.102	95.62
568.314	100.62
568.526	108.62
568.737	88.62
568.949	93.62
569.161	95.62
569.372	92.62
569.584	84.62
569.795	93.62
570.007	86.62
570.218	99.62
570.43	84.62
570.641	81.62
570.853	108.62
571.064	98.62
571.276	86.62
571.487	90.62
571.698	98.62
571.91	99.62
572.121	86.62
572.333	96.62
572.544	86.62
572.755	76.62
572.966	92.62
573.178	86.62
573.389	89.62
573.6	92.62
573.811	98.62
574.023	109.62
574.234	90.62
574.445	90.62
574.656	94.62
574.867	90.62
575.078	90.62
575.289	91.62
575.501	94.62
575.712	79.62
575.923	90.62
576.134	88.62
576.345	93.62
576.556	69.62
576.767	88.62
576.978	91.62
577.188	80.62
577.399	90.62
577.61	97.62
577.821	92.62
578.032	99.62
578.243	105.62
578.454	85.62
578.665	88.62
578.875	95.62
579.086	92.62
579.297	96.62
579.508	95.62
579.718	97.62
579.929	96.62
580.14	84.62
580.35	97.62
580.561	79.62
580.772	87.62
580.982	83.62
581.193	104.62
581.403	92.62
581.614	81.62
581.825	82.62
582.035	100.62
582.246	90.62
582.456	79.62
582.667	72.62
582.877	82.62
583.087	92.62
583.298	86.62
583.508	84.62
583.719	93.62
583.929	93.62
584.139	97.62
584.35	83.62
584.56	83.62
584.77	97.62
584.981	83.62
585.191	105.62
585.401	93.62
585.611	97.62
585.821	99.62
586.032	93.62
586.242	77.62
586.452	84.62
586.662	88.62
586.872	72.62
587.082	85.62
587.292	90.62
587.502	94.62
587.713	86.62
587.923	92.62
588.133	93.62
588.343	83.62
588.553	101.62
588.762	94.62
588.972	92.62
589.182	104.62
589.392	89.62
589.602	84.62
589.812	98.62
590.022	101.62
590.232	93.62
590.441	94.62
590.651	99.62
590.861	82.62
591.071	75.62
591.281	77.62
591.49	83.62
591.7	105.62
591.91	88.62
592.119	95.62
592.329	84.62
592.539	89.62
592.748	93.62
592.958	81.62
593.167	99.62
593.377	96.62
593.587	101.62
593.796	98.62
594.006	92.62
594.215	99.62
594.424	82.62
594.634	93.62
594.843	84.62
595.053	82.62
595.262	83.62
595.472	82.62
595.681	84.62
595.89	96.62
596.1	97.62
596.309	86.62
596.518	86.62
596.727	82.62
596.937	87.62
597.146	82.62
597.355	99.62
597.564	86.62
597.774	90.62
597.983	95.62
598.192	75.62
598.401	71.62
598.61	89.62
598.819	81.62
599.028	89.62
599.237	96.62
599.446	85.62
599.655	80.62
599.864	84.62
600.073	86.62
600.282	88.62
600.491	87.62
600.7	99.62
600.909	81.62
601.118	93.62
601.327	88.62
601.536	101.62
601.745	82.62
601.953	78.62
602.162	83.62
602.371	92.62
602.58	88.62
602.789	93.62
602.997	86.62
603.206	90.62
603.415	85.62
603.623	89.62
603.832	88.62
604.041	85.62
604.249	108.62
604.458	78.62
604.666	90.62
604.875	84.62
605.084	101.62
605.292	87.62
605.501	101.62
605.709	96.62
605.918	93.62
606.126	95.62
606.334	85.62
606.543	89.62
606.751	86.62
606.96	85.62
607.168	69.62
607.376	76.62
607.585	100.62
607.793	88.62
608.001	89.62
608.21	81.62
608.418	89.62
608.626	83.62
608.834	92.62
609.043	93.62
609.251	78.62
609.459	88.62
609.667	93.62
609.875	87.62
610.083	89.62
610.291	88.62
610.499	79.62
610.707	89.62
610.916	93.62
611.124	102.62
611.332	89.62
611.54	85.62
611.748	87.62
611.955	85.62
612.163	86.62
612.371	79.62
612.579	92.62
612.787	74.62
612.995	91.62
613.203	99.62
613.411	94.62
613.618	96.62
613.826	90.62
614.034	84.62
614.242	90.62
614.449	88.62
614.657	85.62
614.865	90.62
615.072	73.62
615.28	68.62
615.488	68.62
615.695	84.62
615.903	91.62
616.111	102.62
616.318	90.62
616.526	89.62
616.733	100.62
616.941	89.62
617.148	88.62
617.356	75.62
617.563	86.62
617.771	94.62
617.978	78.62
618.185	93.62
618.393	81.62
618.6	81.62
618.807	87.62
619.015	92.62
619.222	82.62
619.429	78.62
619.637	87.62
619.844	80.62
620.051	81.62
620.258	85.62
620.466	92.62
620.673	71.62
620.88	86.62
621.087	83.62
621.294	96.62
621.501	73.62
621.708	67.62
621.915	88.62
622.122	86.62
622.329	82.62
622.536	81.62
622.743	91.62
622.95	88.62
623.157	87.62
623.364	85.62
623.571	84.62
623.778	85.62
623.985	81.62
624.192	89.62
624.399	89.62
624.606	93.62
624.812	87.62
625.019	90.62
625.226	85.62
625.433	84.62
625.639	92.62
625.846	85.62
626.053	81.62
626.259	90.62
626.466	87.62
626.673	70.62
626.879	82.62
627.086	73.62
627.293	93.62
627.499	86.62
627.706	97.62
627.912	92.62
628.119	75.62
628.325	77.62
628.532	81.62
628.738	92.62
628.945	77.62
629.151	84.62
629.357	76.62
629.564	98.62
629.77	86.62
629.976	86.62
630.183	79.62
630.389	90.62
630.595	96.62
630.802	81.62
631.008	98.62
631.214	74.62
631.42	85.62
631.627	91.62
631.833	81.62
632.039	87.62
632.245	79.62
632.451	91.62
632.657	92.62
632.863	90.62
633.069	93.62
633.275	91.62
633.481	72.62
633.688	93.62
633.893	85.62
634.099	89.62
634.305	93.62
634.511	89.62
634.717	84.62
634.923	89.62
635.129	80.62
635.335	82.62
635.541	93.62
635.747	99.62
635.952	70.62
636.158	91.62
636.364	78.62
636.57	67.62
636.775	83.62
636.981	84.62
637.187	83.62
637.392	96.62
637.598	79.62
637.804	94.62
638.009	96.62
638.215	89.62
638.421	89.62
638.626	83.62
638.832	88.62
639.037	100.62
639.243	68.62
639.448	84.62
639.654	89.62
639.859	86.62
640.065	78.62
640.27	81.62
640.475	67.62
640.681	80.62
640.886	76.62
641.091	87.62
641.297	91.62
641.502	91.62
641.707	83.62
641.913	77.62
642.118	87.62
642.323	58.62
642.528	93.62
642.733	84.62
642.939	84.62
643.144	94.62
643.349	87.62
643.554	90.62
643.759	81.62
643.964	97.62
644.169	76.62
644.374	94.62
644.579	79.62
644.784	80.62
644.989	84.62
645.194	91.62
645.399	96.62
645.604	87.62
645.809	90.62
646.014	72.62
646.219	78.62
646.423	91.62
646.628	84.62
646.833	82.62
647.038	93.62
647.243	91.62
647.447	80.62
647.652	85.62
647.857	100.62
648.062	82.62
648.266	79.62
648.471	88.62
648.676	95.62
648.88	89.62
649.085	85.62
649.289	82.62
649.494	72.62
649.698	102.62
649.903	94.62
650.107	93.62
650.312	96.62
650.516	72.62
650.721	72.62
650.925	89.62
651.13	78.62
651.334	94.62
651.539	98.62
651.743	95.62
651.947	85.62
652.152	61.62
652.356	70.62
652.56	94.62
652.764	92.62
652.969	81.62
653.173	92.62
653.377	79.62
653.581	77.62
653.785	73.62
653.99	88.62
654.194	84.62
654.398	73.62
654.602	74.62
654.806	73.62
655.01	86.62
655.214	77.62
655.418	88.62
655.622	75.62
655.826	72.62
656.03	86.62
656.234	95.62
656.438	76.62
656.642	95.62
656.846	85.62
657.049	86.62
657.253	88.62
657.457	80.62
657.661	74.62
657.865	80.62
658.068	84.62
658.272	88.62
658.476	103.62
658.68	95.62
658.883	79.62
659.087	67.62
659.291	83.62
659.494	83.62
659.698	74.62
659.901	89.62
660.105	69.62
660.309	96.62
660.512	84.62
660.716	80.62
660.919	93.62
661.123	87.62
661.326	75.62
661.53	97.62
661.733	88.62
661.936	69.62
662.14	85.62
662.343	86.62
662.546	80.62
662.75	76.62
662.953	84.62
663.156	82.62
663.36	65.62
663.563	88.62
663.766	79.62
663.969	56.62
664.173	70.62
664.376	87.62
664.579	82.62
664.782	79.62
664.985	91.62
665.188	81.62
665.391	84.62
665.594	80.62
665.797	81.62
666	71.62
666.203	78.62
666.406	72.62
666.609	90.62
666.812	85.62
667.015	82.62
667.218	84.62
667.421	75.62
667.624	87.62
667.827	82.62
668.03	79.62
668.232	73.62
668.435	78.62
668.638	80.62
668.841	75.62
669.043	93.62
669.246	78.62
669.449	86.62
669.651	77.62
669.854	83.62
670.057	78.62
670.259	78.62
670.462	68.62
670.665	87.62
670.867	77.62
671.07	75.62
671.272	88.62
671.475	73.62
671.677	79.62
671.88	83.62
672.082	78.62
672.284	88.62
672.487	69.62
672.689	85.62
672.892	66.62
