Data from Location5.07152019.Energy5.Lamp.07192019.3%Agarose_HRD10591_16-02-37-628.txt Node
Date: Fri Jul 19 16:02:37 EDT 2019
User: cochatt
Spectrometer: HR+D1059
Trigger mode: 1
Integration Time (sec): 1.000000E-1
Scans to average: 1
Electric dark correction enabled: true
Nonlinearity correction enabled: false
Boxcar width: 0
XAxis mode: Wavelengths
Number of Pixels in Spectrum: 2048
>>>>>Begin Spectral Data<<<<<
223.165	-21.06
223.4	-21.06
223.635	-21.06
223.869	-21.06
224.104	-22.06
224.338	-22.06
224.573	-16.06
224.808	-15.06
225.042	-12.06
225.277	-5.06
225.511	4.94
225.746	8.94
225.98	19.94
226.215	13.94
226.449	28.94
226.683	23.94
226.918	24.94
227.152	8.94
227.387	20.94
227.621	32.94
227.856	39.94
228.09	54.94
228.324	54.94
228.559	44.94
228.793	63.94
229.027	58.94
229.262	58.94
229.496	64.94
229.73	65.94
229.964	68.94
230.199	64.94
230.433	77.94
230.667	85.94
230.901	74.94
231.136	91.94
231.37	84.94
231.604	83.94
231.838	81.94
232.072	77.94
232.306	88.94
232.541	82.94
232.775	78.94
233.009	81.94
233.243	78.94
233.477	99.94
233.711	82.94
233.945	71.94
234.179	83.94
234.413	74.94
234.647	78.94
234.881	83.94
235.115	73.94
235.349	73.94
235.583	89.94
235.817	72.94
236.051	84.94
236.285	80.94
236.519	90.94
236.753	88.94
236.987	76.94
237.221	101.94
237.455	78.94
237.689	84.94
237.922	83.94
238.156	72.94
238.39	80.94
238.624	81.94
238.858	81.94
239.091	81.94
239.325	79.94
239.559	86.94
239.793	71.94
240.027	70.94
240.26	71.94
240.494	74.94
240.728	91.94
240.961	62.94
241.195	80.94
241.429	63.94
241.662	70.94
241.896	78.94
242.13	78.94
242.363	84.94
242.597	81.94
242.83	75.94
243.064	88.94
243.298	66.94
243.531	64.94
243.765	75.94
243.998	72.94
244.232	71.94
244.465	79.94
244.699	86.94
244.932	60.94
245.166	72.94
245.399	73.94
245.633	97.94
245.866	82.94
246.099	67.94
246.333	84.94
246.566	72.94
246.8	82.94
247.033	90.94
247.266	78.94
247.5	77.94
247.733	82.94
247.966	85.94
248.2	93.94
248.433	80.94
248.666	73.94
248.899	66.94
249.133	89.94
249.366	78.94
249.599	87.94
249.832	76.94
250.066	88.94
250.299	85.94
250.532	86.94
250.765	68.94
250.998	91.94
251.231	91.94
251.465	83.94
251.698	74.94
251.931	85.94
252.164	69.94
252.397	76.94
252.63	91.94
252.863	79.94
253.096	84.94
253.329	77.94
253.562	69.94
253.795	75.94
254.028	84.94
254.261	69.94
254.494	72.94
254.727	94.94
254.96	84.94
255.193	86.94
255.426	72.94
255.659	82.94
255.892	83.94
256.124	81.94
256.357	88.94
256.59	84.94
256.823	85.94
257.056	78.94
257.289	77.94
257.521	87.94
257.754	83.94
257.987	92.94
258.22	96.94
258.452	79.94
258.685	83.94
258.918	81.94
259.151	77.94
259.383	92.94
259.616	112.94
259.849	89.94
260.081	89.94
260.314	87.94
260.547	77.94
260.779	90.94
261.012	85.94
261.244	79.94
261.477	93.94
261.71	88.94
261.942	86.94
262.175	88.94
262.407	75.94
262.64	90.94
262.872	92.94
263.105	95.94
263.337	89.94
263.57	77.94
263.802	84.94
264.035	86.94
264.267	84.94
264.499	89.94
264.732	85.94
264.964	73.94
265.197	96.94
265.429	99.94
265.661	89.94
265.894	89.94
266.126	93.94
266.358	71.94
266.591	84.94
266.823	100.94
267.055	87.94
267.287	86.94
267.52	82.94
267.752	90.94
267.984	80.94
268.216	76.94
268.448	93.94
268.681	105.94
268.913	88.94
269.145	84.94
269.377	86.94
269.609	92.94
269.841	94.94
270.073	99.94
270.306	82.94
270.538	86.94
270.77	99.94
271.002	85.94
271.234	112.94
271.466	99.94
271.698	68.94
271.93	93.94
272.162	95.94
272.394	86.94
272.626	93.94
272.858	92.94
273.09	95.94
273.322	74.94
273.553	92.94
273.785	76.94
274.017	77.94
274.249	105.94
274.481	96.94
274.713	93.94
274.945	95.94
275.176	78.94
275.408	84.94
275.64	80.94
275.872	90.94
276.104	91.94
276.335	93.94
276.567	97.94
276.799	89.94
277.031	90.94
277.262	85.94
277.494	78.94
277.726	96.94
277.957	92.94
278.189	80.94
278.421	88.94
278.652	90.94
278.884	77.94
279.115	87.94
279.347	117.94
279.579	92.94
279.81	102.94
280.042	105.94
280.273	91.94
280.505	91.94
280.736	94.94
280.968	88.94
281.199	67.94
281.431	93.94
281.662	94.94
281.894	105.94
282.125	92.94
282.356	91.94
282.588	96.94
282.819	87.94
283.051	74.94
283.282	79.94
283.513	104.94
283.745	102.94
283.976	91.94
284.207	97.94
284.439	99.94
284.67	91.94
284.901	84.94
285.132	84.94
285.364	90.94
285.595	101.94
285.826	93.94
286.057	81.94
286.288	86.94
286.52	104.94
286.751	93.94
286.982	82.94
287.213	88.94
287.444	107.94
287.675	71.94
287.906	91.94
288.138	86.94
288.369	92.94
288.6	81.94
288.831	78.94
289.062	89.94
289.293	85.94
289.524	87.94
289.755	90.94
289.986	86.94
290.217	80.94
290.448	95.94
290.679	96.94
290.91	87.94
291.141	106.94
291.371	101.94
291.602	89.94
291.833	90.94
292.064	92.94
292.295	87.94
292.526	101.94
292.757	88.94
292.987	90.94
293.218	90.94
293.449	89.94
293.68	86.94
293.91	96.94
294.141	79.94
294.372	84.94
294.603	87.94
294.833	89.94
295.064	80.94
295.295	77.94
295.525	105.94
295.756	101.94
295.987	85.94
296.217	96.94
296.448	82.94
296.679	102.94
296.909	89.94
297.14	90.94
297.37	95.94
297.601	86.94
297.831	98.94
298.062	91.94
298.292	92.94
298.523	92.94
298.753	107.94
298.984	101.94
299.214	103.94
299.445	97.94
299.675	81.94
299.905	102.94
300.136	83.94
300.366	98.94
300.597	96.94
300.827	91.94
301.057	91.94
301.288	86.94
301.518	85.94
301.748	94.94
301.979	95.94
302.209	92.94
302.439	90.94
302.669	100.94
302.9	93.94
303.13	89.94
303.36	78.94
303.59	90.94
303.82	84.94
304.051	84.94
304.281	101.94
304.511	101.94
304.741	92.94
304.971	87.94
305.201	86.94
305.431	84.94
305.661	86.94
305.891	83.94
306.121	95.94
306.352	86.94
306.582	92.94
306.812	94.94
307.042	89.94
307.272	79.94
307.502	85.94
307.731	85.94
307.961	91.94
308.191	71.94
308.421	93.94
308.651	101.94
308.881	96.94
309.111	103.94
309.341	89.94
309.571	88.94
309.8	101.94
310.03	71.94
310.26	84.94
310.49	95.94
310.72	82.94
310.949	100.94
311.179	84.94
311.409	77.94
311.639	96.94
311.868	101.94
312.098	81.94
312.328	99.94
312.557	98.94
312.787	101.94
313.017	84.94
313.246	88.94
313.476	101.94
313.706	92.94
313.935	92.94
314.165	86.94
314.394	100.94
314.624	78.94
314.853	88.94
315.083	88.94
315.312	94.94
315.542	87.94
315.771	90.94
316.001	101.94
316.23	89.94
316.46	90.94
316.689	88.94
316.919	93.94
317.148	98.94
317.377	94.94
317.607	93.94
317.836	96.94
318.065	99.94
318.295	91.94
318.524	98.94
318.753	99.94
318.983	89.94
319.212	91.94
319.441	99.94
319.67	92.94
319.9	92.94
320.129	93.94
320.358	98.94
320.587	92.94
320.816	83.94
321.046	94.94
321.275	88.94
321.504	100.94
321.733	90.94
321.962	92.94
322.191	86.94
322.42	99.94
322.649	102.94
322.878	104.94
323.108	96.94
323.337	96.94
323.566	110.94
323.795	93.94
324.024	95.94
324.253	91.94
324.482	88.94
324.71	91.94
324.939	84.94
325.168	96.94
325.397	90.94
325.626	99.94
325.855	91.94
326.084	90.94
326.313	85.94
326.542	78.94
326.77	107.94
326.999	84.94
327.228	112.94
327.457	97.94
327.686	92.94
327.914	94.94
328.143	101.94
328.372	88.94
328.6	76.94
328.829	95.94
329.058	103.94
329.287	100.94
329.515	97.94
329.744	82.94
329.972	89.94
330.201	91.94
330.43	84.94
330.658	90.94
330.887	98.94
331.115	81.94
331.344	103.94
331.572	99.94
331.801	103.94
332.03	88.94
332.258	88.94
332.486	94.94
332.715	93.94
332.943	83.94
333.172	84.94
333.4	96.94
333.629	108.94
333.857	96.94
334.085	106.94
334.314	112.94
334.542	82.94
334.771	90.94
334.999	104.94
335.227	102.94
335.455	96.94
335.684	88.94
335.912	109.94
336.14	107.94
336.369	105.94
336.597	100.94
336.825	100.94
337.053	88.94
337.281	91.94
337.51	82.94
337.738	81.94
337.966	87.94
338.194	84.94
338.422	101.94
338.65	101.94
338.878	96.94
339.106	86.94
339.334	106.94
339.562	98.94
339.79	99.94
340.018	96.94
340.246	87.94
340.474	93.94
340.702	87.94
340.93	105.94
341.158	109.94
341.386	96.94
341.614	93.94
341.842	89.94
342.07	98.94
342.298	97.94
342.526	89.94
342.754	99.94
342.981	96.94
343.209	101.94
343.437	97.94
343.665	97.94
343.893	94.94
344.12	94.94
344.348	83.94
344.576	98.94
344.804	88.94
345.031	91.94
345.259	99.94
345.487	105.94
345.714	100.94
345.942	90.94
346.17	88.94
346.397	95.94
346.625	99.94
346.853	89.94
347.08	94.94
347.308	90.94
347.535	88.94
347.763	96.94
347.99	104.94
348.218	101.94
348.445	107.94
348.673	92.94
348.9	94.94
349.128	101.94
349.355	92.94
349.583	90.94
349.81	93.94
350.037	85.94
350.265	90.94
350.492	96.94
350.72	102.94
350.947	85.94
351.174	96.94
351.402	97.94
351.629	102.94
351.856	94.94
352.083	91.94
352.311	102.94
352.538	91.94
352.765	94.94
352.992	91.94
353.22	92.94
353.447	91.94
353.674	85.94
353.901	94.94
354.128	87.94
354.355	90.94
354.583	87.94
354.81	105.94
355.037	95.94
355.264	99.94
355.491	101.94
355.718	95.94
355.945	97.94
356.172	99.94
356.399	88.94
356.626	94.94
356.853	87.94
357.08	97.94
357.307	94.94
357.534	97.94
357.761	88.94
357.988	97.94
358.215	95.94
358.441	112.94
358.668	77.94
358.895	93.94
359.122	103.94
359.349	101.94
359.576	104.94
359.802	93.94
360.029	76.94
360.256	98.94
360.483	89.94
360.709	92.94
360.936	104.94
361.163	97.94
361.39	94.94
361.616	86.94
361.843	87.94
362.07	102.94
362.296	105.94
362.523	82.94
362.749	85.94
362.976	92.94
363.203	100.94
363.429	116.94
363.656	92.94
363.882	83.94
364.109	90.94
364.335	95.94
364.562	91.94
364.788	92.94
365.015	88.94
365.241	93.94
365.468	97.94
365.694	79.94
365.92	95.94
366.147	95.94
366.373	91.94
366.599	80.94
366.826	97.94
367.052	95.94
367.278	90.94
367.505	101.94
367.731	100.94
367.957	95.94
368.184	105.94
368.41	90.94
368.636	91.94
368.862	90.94
369.089	84.94
369.315	87.94
369.541	75.94
369.767	105.94
369.993	66.94
370.219	98.94
370.445	93.94
370.672	108.94
370.898	99.94
371.124	88.94
371.35	97.94
371.576	82.94
371.802	85.94
372.028	84.94
372.254	93.94
372.48	98.94
372.706	87.94
372.932	91.94
373.158	100.94
373.384	89.94
373.61	98.94
373.835	106.94
374.061	98.94
374.287	99.94
374.513	109.94
374.739	103.94
374.965	98.94
375.191	98.94
375.416	104.94
375.642	101.94
375.868	92.94
376.094	89.94
376.319	101.94
376.545	93.94
376.771	91.94
376.997	102.94
377.222	106.94
377.448	99.94
377.674	72.94
377.899	91.94
378.125	91.94
378.35	91.94
378.576	88.94
378.802	80.94
379.027	99.94
379.253	93.94
379.478	95.94
379.704	95.94
379.929	91.94
380.155	96.94
380.38	96.94
380.606	92.94
380.831	88.94
381.057	94.94
381.282	97.94
381.507	96.94
381.733	106.94
381.958	89.94
382.184	112.94
382.409	106.94
382.634	104.94
382.86	110.94
383.085	100.94
383.31	106.94
383.535	91.94
383.761	106.94
383.986	105.94
384.211	99.94
384.436	101.94
384.662	87.94
384.887	89.94
385.112	86.94
385.337	90.94
385.562	96.94
385.787	109.94
386.013	100.94
386.238	89.94
386.463	104.94
386.688	96.94
386.913	97.94
387.138	66.94
387.363	95.94
387.588	100.94
387.813	91.94
388.038	98.94
388.263	105.94
388.488	91.94
388.713	98.94
388.938	108.94
389.163	84.94
389.387	104.94
389.612	84.94
389.837	98.94
390.062	124.94
390.287	92.94
390.512	86.94
390.736	93.94
390.961	94.94
391.186	106.94
391.411	103.94
391.636	94.94
391.86	95.94
392.085	96.94
392.31	101.94
392.534	97.94
392.759	94.94
392.984	91.94
393.208	90.94
393.433	106.94
393.658	93.94
393.882	93.94
394.107	95.94
394.331	84.94
394.556	99.94
394.78	95.94
395.005	98.94
395.229	87.94
395.454	99.94
395.678	101.94
395.903	93.94
396.127	98.94
396.352	92.94
396.576	92.94
396.801	86.94
397.025	106.94
397.249	90.94
397.474	118.94
397.698	94.94
397.922	100.94
398.147	99.94
398.371	93.94
398.595	106.94
398.82	90.94
399.044	109.94
399.268	100.94
399.492	101.94
399.717	103.94
399.941	114.94
400.165	96.94
400.389	100.94
400.613	99.94
400.837	100.94
401.062	96.94
401.286	95.94
401.51	104.94
401.734	94.94
401.958	93.94
402.182	102.94
402.406	116.94
402.63	108.94
402.854	87.94
403.078	97.94
403.302	115.94
403.526	126.94
403.75	98.94
403.974	112.94
404.198	100.94
404.422	101.94
404.645	105.94
404.869	101.94
405.093	100.94
405.317	102.94
405.541	113.94
405.765	101.94
405.988	91.94
406.212	114.94
406.436	114.94
406.66	113.94
406.883	110.94
407.107	106.94
407.331	95.94
407.555	100.94
407.778	98.94
408.002	94.94
408.226	97.94
408.449	105.94
408.673	112.94
408.896	107.94
409.12	100.94
409.344	109.94
409.567	97.94
409.791	91.94
410.014	99.94
410.238	84.94
410.461	101.94
410.685	91.94
410.908	99.94
411.132	93.94
411.355	101.94
411.578	96.94
411.802	98.94
412.025	98.94
412.249	88.94
412.472	94.94
412.695	101.94
412.919	107.94
413.142	89.94
413.365	116.94
413.589	109.94
413.812	96.94
414.035	94.94
414.258	91.94
414.482	109.94
414.705	97.94
414.928	97.94
415.151	116.94
415.374	98.94
415.597	102.94
415.821	109.94
416.044	97.94
416.267	101.94
416.49	87.94
416.713	93.94
416.936	104.94
417.159	103.94
417.382	99.94
417.605	101.94
417.828	100.94
418.051	101.94
418.274	106.94
418.497	106.94
418.72	103.94
418.943	93.94
419.166	104.94
419.389	99.94
419.611	110.94
419.834	108.94
420.057	89.94
420.28	104.94
420.503	100.94
420.726	93.94
420.948	102.94
421.171	92.94
421.394	94.94
421.617	98.94
421.839	91.94
422.062	101.94
422.285	102.94
422.507	90.94
422.73	105.94
422.953	104.94
423.175	96.94
423.398	94.94
423.621	118.94
423.843	102.94
424.066	102.94
424.288	93.94
424.511	109.94
424.733	102.94
424.956	94.94
425.178	123.94
425.401	93.94
425.623	110.94
425.846	102.94
426.068	101.94
426.291	106.94
426.513	91.94
426.735	107.94
426.958	101.94
427.18	104.94
427.402	106.94
427.625	88.94
427.847	93.94
428.069	90.94
428.292	99.94
428.514	107.94
428.736	106.94
428.958	112.94
429.181	98.94
429.403	97.94
429.625	88.94
429.847	106.94
430.069	96.94
430.292	99.94
430.514	91.94
430.736	86.94
430.958	90.94
431.18	89.94
431.402	91.94
431.624	97.94
431.846	81.94
432.068	107.94
432.29	108.94
432.512	89.94
432.734	92.94
432.956	100.94
433.178	111.94
433.4	101.94
433.622	90.94
433.844	98.94
434.066	100.94
434.287	99.94
434.509	105.94
434.731	100.94
434.953	91.94
435.175	105.94
435.397	93.94
435.618	98.94
435.84	84.94
436.062	92.94
436.284	97.94
436.505	86.94
436.727	103.94
436.949	92.94
437.17	86.94
437.392	91.94
437.614	111.94
437.835	116.94
438.057	88.94
438.278	99.94
438.5	84.94
438.721	106.94
438.943	102.94
439.165	92.94
439.386	104.94
439.608	96.94
439.829	107.94
440.05	100.94
440.272	89.94
440.493	91.94
440.715	109.94
440.936	104.94
441.158	93.94
441.379	93.94
441.6	98.94
441.822	85.94
442.043	97.94
442.264	93.94
442.486	94.94
442.707	96.94
442.928	101.94
443.149	97.94
443.371	102.94
443.592	103.94
443.813	103.94
444.034	97.94
444.255	96.94
444.476	79.94
444.698	116.94
444.919	112.94
445.14	227.94
445.361	155.94
445.582	107.94
445.803	100.94
446.024	114.94
446.245	96.94
446.466	97.94
446.687	108.94
446.908	120.94
447.129	93.94
447.35	98.94
447.571	101.94
447.792	99.94
448.013	94.94
448.234	103.94
448.455	78.94
448.675	99.94
448.896	89.94
449.117	99.94
449.338	93.94
449.559	94.94
449.779	90.94
450	88.94
450.221	94.94
450.442	94.94
450.662	97.94
450.883	78.94
451.104	99.94
451.324	101.94
451.545	82.94
451.766	89.94
451.986	84.94
452.207	93.94
452.428	101.94
452.648	112.94
452.869	89.94
453.089	86.94
453.31	97.94
453.53	75.94
453.751	98.94
453.971	105.94
454.192	103.94
454.412	96.94
454.633	91.94
454.853	85.94
455.073	96.94
455.294	91.94
455.514	83.94
455.734	107.94
455.955	93.94
456.175	90.94
456.395	98.94
456.616	98.94
456.836	105.94
457.056	90.94
457.276	84.94
457.497	74.94
457.717	82.94
457.937	97.94
458.157	87.94
458.377	96.94
458.598	101.94
458.818	93.94
459.038	94.94
459.258	87.94
459.478	90.94
459.698	93.94
459.918	115.94
460.138	104.94
460.358	116.94
460.578	90.94
460.798	90.94
461.018	98.94
461.238	99.94
461.458	88.94
461.678	101.94
461.898	97.94
462.118	85.94
462.338	101.94
462.558	103.94
462.777	112.94
462.997	117.94
463.217	100.94
463.437	108.94
463.657	103.94
463.876	106.94
464.096	101.94
464.316	98.94
464.536	107.94
464.755	105.94
464.975	100.94
465.195	94.94
465.414	106.94
465.634	112.94
465.854	113.94
466.073	81.94
466.293	88.94
466.512	102.94
466.732	95.94
466.951	107.94
467.171	107.94
467.391	112.94
467.61	99.94
467.829	100.94
468.049	89.94
468.268	105.94
468.488	92.94
468.707	82.94
468.927	88.94
469.146	94.94
469.365	94.94
469.585	92.94
469.804	95.94
470.023	100.94
470.243	83.94
470.462	111.94
470.681	99.94
470.901	94.94
471.12	101.94
471.339	90.94
471.558	101.94
471.777	106.94
471.997	92.94
472.216	104.94
472.435	101.94
472.654	95.94
472.873	101.94
473.092	96.94
473.311	106.94
473.53	105.94
473.749	109.94
473.968	97.94
474.187	95.94
474.406	99.94
474.625	102.94
474.844	103.94
475.063	99.94
475.282	87.94
475.501	104.94
475.72	95.94
475.939	92.94
476.158	102.94
476.377	95.94
476.596	97.94
476.814	89.94
477.033	90.94
477.252	100.94
477.471	110.94
477.69	99.94
477.908	105.94
478.127	112.94
478.346	105.94
478.564	96.94
478.783	109.94
479.002	92.94
479.22	106.94
479.439	101.94
479.658	93.94
479.876	104.94
480.095	96.94
480.313	93.94
480.532	112.94
480.751	112.94
480.969	121.94
481.188	108.94
481.406	85.94
481.624	104.94
481.843	93.94
482.061	107.94
482.28	100.94
482.498	103.94
482.717	109.94
482.935	97.94
483.153	123.94
483.372	95.94
483.59	124.94
483.808	103.94
484.027	111.94
484.245	96.94
484.463	98.94
484.681	106.94
484.9	104.94
485.118	104.94
485.336	105.94
485.554	106.94
485.772	105.94
485.99	91.94
486.209	112.94
486.427	70.94
486.645	108.94
486.863	109.94
487.081	118.94
487.299	106.94
487.517	94.94
487.735	105.94
487.953	104.94
488.171	116.94
488.389	104.94
488.607	112.94
488.825	108.94
489.043	122.94
489.261	97.94
489.479	104.94
489.696	106.94
489.914	116.94
490.132	96.94
490.35	103.94
490.568	103.94
490.786	112.94
491.003	121.94
491.221	108.94
491.439	104.94
491.657	105.94
491.874	109.94
492.092	124.94
492.31	129.94
492.527	107.94
492.745	116.94
492.963	120.94
493.18	126.94
493.398	118.94
493.615	127.94
493.833	117.94
494.05	105.94
494.268	116.94
494.485	104.94
494.703	109.94
494.92	126.94
495.138	116.94
495.355	121.94
495.573	108.94
495.79	116.94
496.008	121.94
496.225	113.94
496.442	115.94
496.66	116.94
496.877	120.94
497.094	110.94
497.312	126.94
497.529	98.94
497.746	103.94
497.963	109.94
498.181	113.94
498.398	122.94
498.615	100.94
498.832	116.94
499.049	132.94
499.267	123.94
499.484	147.94
499.701	146.94
499.918	159.94
500.135	150.94
500.352	139.94
500.569	173.94
500.786	174.94
501.003	165.94
501.22	146.94
501.437	137.94
501.654	123.94
501.871	115.94
502.088	132.94
502.305	105.94
502.522	118.94
502.739	128.94
502.956	124.94
503.172	104.94
503.389	102.94
503.606	110.94
503.823	113.94
504.04	116.94
504.256	121.94
504.473	115.94
504.69	125.94
504.907	113.94
505.123	102.94
505.34	111.94
505.557	107.94
505.773	111.94
505.99	114.94
506.207	103.94
506.423	105.94
506.64	102.94
506.856	102.94
507.073	111.94
507.289	107.94
507.506	105.94
507.722	106.94
507.939	106.94
508.155	102.94
508.372	106.94
508.588	118.94
508.805	113.94
509.021	102.94
509.238	110.94
509.454	100.94
509.67	98.94
509.887	106.94
510.103	95.94
510.319	99.94
510.536	112.94
510.752	102.94
510.968	93.94
511.184	96.94
511.401	71.94
511.617	103.94
511.833	100.94
512.049	108.94
512.265	119.94
512.481	114.94
512.698	89.94
512.914	100.94
513.13	110.94
513.346	97.94
513.562	94.94
513.778	98.94
513.994	92.94
514.21	101.94
514.426	101.94
514.642	101.94
514.858	108.94
515.074	110.94
515.29	109.94
515.506	99.94
515.721	97.94
515.937	97.94
516.153	113.94
516.369	89.94
516.585	108.94
516.801	106.94
517.016	108.94
517.232	120.94
517.448	99.94
517.664	116.94
517.879	97.94
518.095	114.94
518.311	113.94
518.527	96.94
518.742	104.94
518.958	98.94
519.173	104.94
519.389	107.94
519.605	108.94
519.82	110.94
520.036	100.94
520.251	103.94
520.467	89.94
520.682	88.94
520.898	108.94
521.113	104.94
521.329	106.94
521.544	90.94
521.76	110.94
521.975	94.94
522.19	107.94
522.406	109.94
522.621	113.94
522.836	98.94
523.052	94.94
523.267	110.94
523.482	89.94
523.698	101.94
523.913	99.94
524.128	90.94
524.343	106.94
524.559	109.94
524.774	95.94
524.989	108.94
525.204	106.94
525.419	100.94
525.634	111.94
525.849	109.94
526.064	94.94
526.28	100.94
526.495	99.94
526.71	96.94
526.925	99.94
527.14	87.94
527.355	108.94
527.57	99.94
527.785	92.94
527.999	92.94
528.214	102.94
528.429	108.94
528.644	91.94
528.859	97.94
529.074	112.94
529.289	113.94
529.503	116.94
529.718	98.94
529.933	97.94
530.148	90.94
530.363	104.94
530.577	110.94
530.792	104.94
531.007	100.94
531.221	103.94
531.436	100.94
531.651	99.94
531.865	92.94
532.08	98.94
532.295	97.94
532.509	107.94
532.724	98.94
532.938	99.94
533.153	107.94
533.367	95.94
533.582	101.94
533.796	97.94
534.011	108.94
534.225	110.94
534.44	99.94
534.654	107.94
534.868	106.94
535.083	100.94
535.297	95.94
535.511	93.94
535.726	106.94
535.94	100.94
536.154	104.94
536.369	100.94
536.583	104.94
536.797	101.94
537.011	90.94
537.225	95.94
537.44	112.94
537.654	92.94
537.868	102.94
538.082	104.94
538.296	99.94
538.51	101.94
538.724	99.94
538.938	102.94
539.153	93.94
539.367	107.94
539.581	115.94
539.795	110.94
540.009	100.94
540.222	99.94
540.436	105.94
540.65	101.94
540.864	98.94
541.078	102.94
541.292	99.94
541.506	109.94
541.72	113.94
541.934	114.94
542.147	104.94
542.361	106.94
542.575	93.94
542.789	107.94
543.002	102.94
543.216	105.94
543.43	92.94
543.644	100.94
543.857	118.94
544.071	91.94
544.285	110.94
544.498	97.94
544.712	101.94
544.925	97.94
545.139	101.94
545.352	108.94
545.566	105.94
545.779	102.94
545.993	115.94
546.206	124.94
546.42	105.94
546.633	108.94
546.847	110.94
547.06	102.94
547.274	101.94
547.487	92.94
547.7	81.94
547.914	103.94
548.127	105.94
548.34	113.94
548.554	98.94
548.767	115.94
548.98	120.94
549.193	107.94
549.407	100.94
549.62	97.94
549.833	110.94
550.046	91.94
550.259	112.94
550.473	105.94
550.686	98.94
550.899	99.94
551.112	114.94
551.325	101.94
551.538	91.94
551.751	109.94
551.964	102.94
552.177	111.94
552.39	106.94
552.603	104.94
552.816	114.94
553.029	110.94
553.242	108.94
553.455	115.94
553.667	105.94
553.88	99.94
554.093	100.94
554.306	106.94
554.519	97.94
554.732	102.94
554.944	110.94
555.157	108.94
555.37	101.94
555.583	92.94
555.795	89.94
556.008	103.94
556.221	100.94
556.433	98.94
556.646	106.94
556.859	114.94
557.071	99.94
557.284	101.94
557.496	102.94
557.709	107.94
557.921	121.94
558.134	103.94
558.346	118.94
558.559	96.94
558.771	98.94
558.984	104.94
559.196	118.94
559.409	94.94
559.621	104.94
559.833	99.94
560.046	100.94
560.258	113.94
560.47	87.94
560.683	99.94
560.895	98.94
561.107	91.94
561.32	112.94
561.532	113.94
561.744	89.94
561.956	105.94
562.168	91.94
562.381	84.94
562.593	97.94
562.805	96.94
563.017	98.94
563.229	93.94
563.441	107.94
563.653	107.94
563.865	97.94
564.077	92.94
564.289	79.94
564.501	102.94
564.713	106.94
564.925	106.94
565.137	112.94
565.349	112.94
565.561	111.94
565.773	116.94
565.985	104.94
566.197	114.94
566.408	98.94
566.62	98.94
566.832	105.94
567.044	103.94
567.255	121.94
567.467	114.94
567.679	106.94
567.891	116.94
568.102	120.94
568.314	123.94
568.526	107.94
568.737	104.94
568.949	102.94
569.161	83.94
569.372	83.94
569.584	88.94
569.795	91.94
570.007	106.94
570.218	85.94
570.43	104.94
570.641	84.94
570.853	97.94
571.064	98.94
571.276	106.94
571.487	87.94
571.698	97.94
571.91	99.94
572.121	96.94
572.333	94.94
572.544	94.94
572.755	94.94
572.966	89.94
573.178	107.94
573.389	106.94
573.6	88.94
573.811	99.94
574.023	93.94
574.234	106.94
574.445	97.94
574.656	86.94
574.867	81.94
575.078	96.94
575.289	77.94
575.501	102.94
575.712	91.94
575.923	98.94
576.134	98.94
576.345	101.94
576.556	104.94
576.767	93.94
576.978	94.94
577.188	99.94
577.399	99.94
577.61	85.94
577.821	101.94
578.032	96.94
578.243	91.94
578.454	98.94
578.665	86.94
578.875	97.94
579.086	101.94
579.297	93.94
579.508	86.94
579.718	87.94
579.929	90.94
580.14	85.94
580.35	95.94
580.561	84.94
580.772	92.94
580.982	91.94
581.193	85.94
581.403	100.94
581.614	102.94
581.825	93.94
582.035	94.94
582.246	100.94
582.456	99.94
582.667	108.94
582.877	102.94
583.087	80.94
583.298	85.94
583.508	86.94
583.719	90.94
583.929	93.94
584.139	96.94
584.35	84.94
584.56	86.94
584.77	100.94
584.981	92.94
585.191	88.94
585.401	101.94
585.611	92.94
585.821	90.94
586.032	94.94
586.242	113.94
586.452	90.94
586.662	88.94
586.872	97.94
587.082	80.94
587.292	84.94
587.502	93.94
587.713	99.94
587.923	102.94
588.133	92.94
588.343	104.94
588.553	95.94
588.762	93.94
588.972	92.94
589.182	112.94
589.392	100.94
589.602	97.94
589.812	100.94
590.022	106.94
590.232	98.94
590.441	85.94
590.651	85.94
590.861	86.94
591.071	99.94
591.281	104.94
591.49	92.94
591.7	87.94
591.91	94.94
592.119	90.94
592.329	105.94
592.539	82.94
592.748	100.94
592.958	81.94
593.167	104.94
593.377	100.94
593.587	116.94
593.796	90.94
594.006	90.94
594.215	97.94
594.424	117.94
594.634	101.94
594.843	95.94
595.053	106.94
595.262	96.94
595.472	89.94
595.681	101.94
595.89	73.94
596.1	98.94
596.309	85.94
596.518	101.94
596.727	89.94
596.937	92.94
597.146	89.94
597.355	101.94
597.564	74.94
597.774	92.94
597.983	92.94
598.192	82.94
598.401	78.94
598.61	89.94
598.819	104.94
599.028	86.94
599.237	96.94
599.446	101.94
599.655	83.94
599.864	86.94
600.073	84.94
600.282	86.94
600.491	94.94
600.7	81.94
600.909	81.94
601.118	95.94
601.327	87.94
601.536	87.94
601.745	105.94
601.953	97.94
602.162	83.94
602.371	91.94
602.58	100.94
602.789	95.94
602.997	90.94
603.206	96.94
603.415	97.94
603.623	97.94
603.832	93.94
604.041	78.94
604.249	91.94
604.458	105.94
604.666	90.94
604.875	86.94
605.084	87.94
605.292	89.94
605.501	92.94
605.709	93.94
605.918	106.94
606.126	94.94
606.334	85.94
606.543	100.94
606.751	90.94
606.96	98.94
607.168	100.94
607.376	97.94
607.585	94.94
607.793	93.94
608.001	88.94
608.21	93.94
608.418	85.94
608.626	93.94
608.834	97.94
609.043	102.94
609.251	79.94
609.459	80.94
609.667	92.94
609.875	92.94
610.083	96.94
610.291	89.94
610.499	88.94
610.707	85.94
610.916	101.94
611.124	82.94
611.332	91.94
611.54	88.94
611.748	97.94
611.955	98.94
612.163	90.94
612.371	98.94
612.579	90.94
612.787	94.94
612.995	88.94
613.203	92.94
613.411	105.94
613.618	94.94
613.826	102.94
614.034	86.94
614.242	89.94
614.449	87.94
614.657	85.94
614.865	78.94
615.072	92.94
615.28	100.94
615.488	80.94
615.695	90.94
615.903	92.94
616.111	97.94
616.318	93.94
616.526	92.94
616.733	97.94
616.941	87.94
617.148	88.94
617.356	86.94
617.563	90.94
617.771	92.94
617.978	79.94
618.185	93.94
618.393	72.94
618.6	91.94
618.807	84.94
619.015	85.94
619.222	92.94
619.429	115.94
619.637	74.94
619.844	84.94
620.051	89.94
620.258	88.94
620.466	97.94
620.673	91.94
620.88	87.94
621.087	98.94
621.294	91.94
621.501	78.94
621.708	73.94
621.915	95.94
622.122	89.94
622.329	78.94
622.536	96.94
622.743	88.94
622.95	92.94
623.157	79.94
623.364	89.94
623.571	101.94
623.778	96.94
623.985	106.94
624.192	86.94
624.399	79.94
624.606	94.94
624.812	93.94
625.019	97.94
625.226	86.94
625.433	88.94
625.639	89.94
625.846	89.94
626.053	96.94
626.259	98.94
626.466	73.94
626.673	74.94
626.879	89.94
627.086	86.94
627.293	88.94
627.499	86.94
627.706	87.94
627.912	76.94
628.119	82.94
628.325	87.94
628.532	85.94
628.738	80.94
628.945	86.94
629.151	82.94
629.357	102.94
629.564	90.94
629.77	93.94
629.976	87.94
630.183	98.94
630.389	96.94
630.595	98.94
630.802	75.94
631.008	71.94
631.214	90.94
631.42	77.94
631.627	76.94
631.833	88.94
632.039	89.94
632.245	79.94
632.451	95.94
632.657	78.94
632.863	86.94
633.069	81.94
633.275	94.94
633.481	98.94
633.688	90.94
633.893	89.94
634.099	99.94
634.305	83.94
634.511	94.94
634.717	85.94
634.923	105.94
635.129	80.94
635.335	79.94
635.541	91.94
635.747	100.94
635.952	89.94
636.158	98.94
636.364	90.94
636.57	80.94
636.775	83.94
636.981	85.94
637.187	92.94
637.392	93.94
637.598	100.94
637.804	94.94
638.009	92.94
638.215	87.94
638.421	85.94
638.626	79.94
638.832	96.94
639.037	78.94
639.243	74.94
639.448	90.94
639.654	84.94
639.859	77.94
640.065	87.94
640.27	99.94
640.475	93.94
640.681	84.94
640.886	73.94
641.091	85.94
641.297	92.94
641.502	87.94
641.707	85.94
641.913	87.94
642.118	82.94
642.323	80.94
642.528	77.94
642.733	87.94
642.939	87.94
643.144	73.94
643.349	90.94
643.554	102.94
643.759	112.94
643.964	75.94
644.169	84.94
644.374	91.94
644.579	81.94
644.784	87.94
644.989	91.94
645.194	82.94
645.399	81.94
645.604	79.94
645.809	92.94
646.014	96.94
646.219	94.94
646.423	82.94
646.628	83.94
646.833	90.94
647.038	72.94
647.243	106.94
647.447	84.94
647.652	93.94
647.857	90.94
648.062	96.94
648.266	74.94
648.471	98.94
648.676	94.94
648.88	86.94
649.085	68.94
649.289	79.94
649.494	77.94
649.698	73.94
649.903	83.94
650.107	75.94
650.312	92.94
650.516	96.94
650.721	71.94
650.925	84.94
651.13	85.94
651.334	82.94
651.539	81.94
651.743	83.94
651.947	93.94
652.152	85.94
652.356	78.94
652.56	82.94
652.764	78.94
652.969	89.94
653.173	90.94
653.377	88.94
653.581	89.94
653.785	85.94
653.99	94.94
654.194	92.94
654.398	91.94
654.602	70.94
654.806	80.94
655.01	74.94
655.214	106.94
655.418	76.94
655.622	82.94
655.826	85.94
656.03	89.94
656.234	84.94
656.438	85.94
656.642	81.94
656.846	93.94
657.049	97.94
657.253	84.94
657.457	100.94
657.661	80.94
657.865	87.94
658.068	71.94
658.272	78.94
658.476	77.94
658.68	65.94
658.883	94.94
659.087	81.94
659.291	77.94
659.494	78.94
659.698	75.94
659.901	83.94
660.105	86.94
660.309	82.94
660.512	81.94
660.716	95.94
660.919	84.94
661.123	85.94
661.326	78.94
661.53	92.94
661.733	85.94
661.936	76.94
662.14	74.94
662.343	80.94
662.546	81.94
662.75	79.94
662.953	90.94
663.156	78.94
663.36	94.94
663.563	95.94
663.766	88.94
663.969	90.94
664.173	70.94
664.376	83.94
664.579	86.94
664.782	76.94
664.985	74.94
665.188	79.94
665.391	76.94
665.594	75.94
665.797	94.94
666	78.94
666.203	82.94
666.406	84.94
666.609	81.94
666.812	72.94
667.015	81.94
667.218	78.94
667.421	91.94
667.624	72.94
667.827	63.94
668.03	95.94
668.232	77.94
668.435	99.94
668.638	84.94
668.841	91.94
669.043	69.94
669.246	89.94
669.449	79.94
669.651	84.94
669.854	79.94
670.057	74.94
670.259	84.94
670.462	80.94
670.665	77.94
670.867	73.94
671.07	77.94
671.272	81.94
671.475	80.94
671.677	87.94
671.88	73.94
672.082	78.94
672.284	78.94
672.487	86.94
672.689	80.94
672.892	88.94
