Data from Location5.07152019.Energy5.Lamp.07192019.3%Agarose_HRD10591_15-37-38-387.txt Node
Date: Fri Jul 19 15:37:38 EDT 2019
User: cochatt
Spectrometer: HR+D1059
Trigger mode: 1
Integration Time (sec): 1.000000E-1
Scans to average: 1
Electric dark correction enabled: true
Nonlinearity correction enabled: false
Boxcar width: 0
XAxis mode: Wavelengths
Number of Pixels in Spectrum: 2048
>>>>>Begin Spectral Data<<<<<
223.165	-9.19
223.4	-9.19
223.635	-9.19
223.869	-25.19
224.104	-15.19
224.338	-2.19
224.573	-14.19
224.808	-14.19
225.042	-2.19
225.277	-3.19
225.511	11.81
225.746	2.81
225.98	4.81
226.215	1.81
226.449	8.81
226.683	14.81
226.918	22.81
227.152	17.81
227.387	34.81
227.621	32.81
227.856	31.81
228.09	29.81
228.324	45.81
228.559	61.81
228.793	53.81
229.027	50.81
229.262	59.81
229.496	54.81
229.73	66.81
229.964	88.81
230.199	65.81
230.433	79.81
230.667	64.81
230.901	74.81
231.136	76.81
231.37	74.81
231.604	84.81
231.838	82.81
232.072	76.81
232.306	77.81
232.541	79.81
232.775	88.81
233.009	67.81
233.243	77.81
233.477	83.81
233.711	84.81
233.945	82.81
234.179	79.81
234.413	77.81
234.647	86.81
234.881	73.81
235.115	84.81
235.349	87.81
235.583	74.81
235.817	69.81
236.051	81.81
236.285	67.81
236.519	69.81
236.753	73.81
236.987	88.81
237.221	66.81
237.455	80.81
237.689	66.81
237.922	65.81
238.156	70.81
238.39	65.81
238.624	60.81
238.858	79.81
239.091	65.81
239.325	71.81
239.559	82.81
239.793	75.81
240.027	80.81
240.26	65.81
240.494	79.81
240.728	76.81
240.961	84.81
241.195	70.81
241.429	63.81
241.662	77.81
241.896	70.81
242.13	56.81
242.363	78.81
242.597	69.81
242.83	76.81
243.064	73.81
243.298	77.81
243.531	75.81
243.765	86.81
243.998	78.81
244.232	75.81
244.465	76.81
244.699	75.81
244.932	80.81
245.166	81.81
245.399	66.81
245.633	81.81
245.866	76.81
246.099	77.81
246.333	87.81
246.566	69.81
246.8	63.81
247.033	79.81
247.266	69.81
247.5	63.81
247.733	81.81
247.966	80.81
248.2	71.81
248.433	73.81
248.666	69.81
248.899	68.81
249.133	86.81
249.366	87.81
249.599	86.81
249.832	80.81
250.066	66.81
250.299	78.81
250.532	75.81
250.765	87.81
250.998	66.81
251.231	79.81
251.465	83.81
251.698	72.81
251.931	72.81
252.164	72.81
252.397	77.81
252.63	67.81
252.863	59.81
253.096	78.81
253.329	86.81
253.562	91.81
253.795	69.81
254.028	79.81
254.261	82.81
254.494	97.81
254.727	69.81
254.96	71.81
255.193	66.81
255.426	61.81
255.659	78.81
255.892	75.81
256.124	65.81
256.357	84.81
256.59	81.81
256.823	75.81
257.056	79.81
257.289	70.81
257.521	61.81
257.754	77.81
257.987	83.81
258.22	85.81
258.452	82.81
258.685	74.81
258.918	65.81
259.151	96.81
259.383	90.81
259.616	73.81
259.849	71.81
260.081	76.81
260.314	96.81
260.547	82.81
260.779	73.81
261.012	77.81
261.244	58.81
261.477	96.81
261.71	78.81
261.942	83.81
262.175	96.81
262.407	77.81
262.64	70.81
262.872	75.81
263.105	78.81
263.337	80.81
263.57	64.81
263.802	69.81
264.035	84.81
264.267	82.81
264.499	77.81
264.732	75.81
264.964	75.81
265.197	71.81
265.429	70.81
265.661	88.81
265.894	99.81
266.126	68.81
266.358	83.81
266.591	91.81
266.823	83.81
267.055	77.81
267.287	84.81
267.52	82.81
267.752	72.81
267.984	91.81
268.216	81.81
268.448	70.81
268.681	75.81
268.913	80.81
269.145	80.81
269.377	78.81
269.609	63.81
269.841	90.81
270.073	79.81
270.306	78.81
270.538	87.81
270.77	74.81
271.002	87.81
271.234	78.81
271.466	77.81
271.698	82.81
271.93	76.81
272.162	74.81
272.394	84.81
272.626	89.81
272.858	70.81
273.09	88.81
273.322	79.81
273.553	77.81
273.785	77.81
274.017	67.81
274.249	77.81
274.481	86.81
274.713	79.81
274.945	75.81
275.176	72.81
275.408	78.81
275.64	83.81
275.872	82.81
276.104	69.81
276.335	84.81
276.567	86.81
276.799	84.81
277.031	88.81
277.262	84.81
277.494	69.81
277.726	79.81
277.957	71.81
278.189	80.81
278.421	75.81
278.652	84.81
278.884	79.81
279.115	78.81
279.347	80.81
279.579	78.81
279.81	77.81
280.042	77.81
280.273	93.81
280.505	86.81
280.736	89.81
280.968	85.81
281.199	86.81
281.431	87.81
281.662	91.81
281.894	78.81
282.125	75.81
282.356	71.81
282.588	82.81
282.819	86.81
283.051	78.81
283.282	67.81
283.513	83.81
283.745	78.81
283.976	90.81
284.207	76.81
284.439	86.81
284.67	77.81
284.901	87.81
285.132	72.81
285.364	92.81
285.595	76.81
285.826	89.81
286.057	79.81
286.288	78.81
286.52	76.81
286.751	90.81
286.982	86.81
287.213	70.81
287.444	76.81
287.675	66.81
287.906	77.81
288.138	77.81
288.369	78.81
288.6	74.81
288.831	65.81
289.062	91.81
289.293	95.81
289.524	79.81
289.755	78.81
289.986	61.81
290.217	73.81
290.448	79.81
290.679	77.81
290.91	86.81
291.141	81.81
291.371	81.81
291.602	82.81
291.833	77.81
292.064	74.81
292.295	81.81
292.526	91.81
292.757	70.81
292.987	79.81
293.218	86.81
293.449	76.81
293.68	76.81
293.91	74.81
294.141	76.81
294.372	82.81
294.603	80.81
294.833	81.81
295.064	67.81
295.295	80.81
295.525	88.81
295.756	92.81
295.987	65.81
296.217	81.81
296.448	74.81
296.679	85.81
296.909	74.81
297.14	92.81
297.37	78.81
297.601	82.81
297.831	83.81
298.062	69.81
298.292	74.81
298.523	81.81
298.753	80.81
298.984	77.81
299.214	80.81
299.445	81.81
299.675	84.81
299.905	76.81
300.136	92.81
300.366	76.81
300.597	92.81
300.827	76.81
301.057	89.81
301.288	65.81
301.518	85.81
301.748	87.81
301.979	90.81
302.209	85.81
302.439	83.81
302.669	94.81
302.9	89.81
303.13	77.81
303.36	86.81
303.59	77.81
303.82	74.81
304.051	91.81
304.281	73.81
304.511	81.81
304.741	82.81
304.971	75.81
305.201	80.81
305.431	80.81
305.661	89.81
305.891	79.81
306.121	86.81
306.352	81.81
306.582	78.81
306.812	81.81
307.042	84.81
307.272	71.81
307.502	90.81
307.731	93.81
307.961	69.81
308.191	75.81
308.421	80.81
308.651	81.81
308.881	83.81
309.111	88.81
309.341	75.81
309.571	86.81
309.8	78.81
310.03	79.81
310.26	81.81
310.49	73.81
310.72	67.81
310.949	84.81
311.179	83.81
311.409	87.81
311.639	98.81
311.868	81.81
312.098	87.81
312.328	91.81
312.557	72.81
312.787	83.81
313.017	80.81
313.246	84.81
313.476	92.81
313.706	83.81
313.935	84.81
314.165	81.81
314.394	79.81
314.624	71.81
314.853	67.81
315.083	78.81
315.312	82.81
315.542	73.81
315.771	84.81
316.001	74.81
316.23	82.81
316.46	77.81
316.689	72.81
316.919	82.81
317.148	92.81
317.377	74.81
317.607	86.81
317.836	81.81
318.065	76.81
318.295	74.81
318.524	84.81
318.753	79.81
318.983	88.81
319.212	82.81
319.441	61.81
319.67	73.81
319.9	71.81
320.129	92.81
320.358	83.81
320.587	88.81
320.816	79.81
321.046	89.81
321.275	75.81
321.504	84.81
321.733	84.81
321.962	87.81
322.191	87.81
322.42	66.81
322.649	88.81
322.878	77.81
323.108	85.81
323.337	89.81
323.566	86.81
323.795	92.81
324.024	77.81
324.253	86.81
324.482	82.81
324.71	78.81
324.939	73.81
325.168	85.81
325.397	68.81
325.626	67.81
325.855	74.81
326.084	81.81
326.313	95.81
326.542	88.81
326.77	82.81
326.999	79.81
327.228	89.81
327.457	81.81
327.686	73.81
327.914	90.81
328.143	83.81
328.372	82.81
328.6	71.81
328.829	77.81
329.058	76.81
329.287	92.81
329.515	69.81
329.744	80.81
329.972	88.81
330.201	80.81
330.43	63.81
330.658	87.81
330.887	74.81
331.115	81.81
331.344	88.81
331.572	80.81
331.801	77.81
332.03	98.81
332.258	81.81
332.486	81.81
332.715	69.81
332.943	81.81
333.172	78.81
333.4	72.81
333.629	90.81
333.857	89.81
334.085	82.81
334.314	90.81
334.542	87.81
334.771	82.81
334.999	69.81
335.227	82.81
335.455	79.81
335.684	80.81
335.912	77.81
336.14	72.81
336.369	77.81
336.597	82.81
336.825	80.81
337.053	75.81
337.281	85.81
337.51	64.81
337.738	92.81
337.966	74.81
338.194	74.81
338.422	87.81
338.65	83.81
338.878	89.81
339.106	87.81
339.334	90.81
339.562	87.81
339.79	83.81
340.018	85.81
340.246	74.81
340.474	78.81
340.702	79.81
340.93	85.81
341.158	68.81
341.386	67.81
341.614	79.81
341.842	70.81
342.07	82.81
342.298	70.81
342.526	76.81
342.754	79.81
342.981	75.81
343.209	78.81
343.437	91.81
343.665	78.81
343.893	81.81
344.12	80.81
344.348	74.81
344.576	78.81
344.804	79.81
345.031	78.81
345.259	61.81
345.487	90.81
345.714	77.81
345.942	86.81
346.17	91.81
346.397	85.81
346.625	70.81
346.853	84.81
347.08	71.81
347.308	94.81
347.535	77.81
347.763	82.81
347.99	83.81
348.218	79.81
348.445	76.81
348.673	78.81
348.9	93.81
349.128	69.81
349.355	71.81
349.583	89.81
349.81	79.81
350.037	85.81
350.265	86.81
350.492	79.81
350.72	83.81
350.947	75.81
351.174	86.81
351.402	93.81
351.629	78.81
351.856	71.81
352.083	71.81
352.311	75.81
352.538	77.81
352.765	84.81
352.992	83.81
353.22	79.81
353.447	86.81
353.674	77.81
353.901	74.81
354.128	86.81
354.355	74.81
354.583	64.81
354.81	88.81
355.037	76.81
355.264	81.81
355.491	86.81
355.718	74.81
355.945	77.81
356.172	78.81
356.399	68.81
356.626	77.81
356.853	72.81
357.08	77.81
357.307	84.81
357.534	80.81
357.761	63.81
357.988	79.81
358.215	85.81
358.441	75.81
358.668	71.81
358.895	71.81
359.122	82.81
359.349	78.81
359.576	81.81
359.802	90.81
360.029	100.81
360.256	77.81
360.483	78.81
360.709	82.81
360.936	93.81
361.163	81.81
361.39	69.81
361.616	82.81
361.843	83.81
362.07	79.81
362.296	63.81
362.523	83.81
362.749	80.81
362.976	81.81
363.203	92.81
363.429	66.81
363.656	79.81
363.882	83.81
364.109	78.81
364.335	92.81
364.562	74.81
364.788	70.81
365.015	84.81
365.241	77.81
365.468	86.81
365.694	89.81
365.92	94.81
366.147	70.81
366.373	68.81
366.599	84.81
366.826	78.81
367.052	88.81
367.278	91.81
367.505	85.81
367.731	84.81
367.957	87.81
368.184	81.81
368.41	69.81
368.636	70.81
368.862	67.81
369.089	83.81
369.315	79.81
369.541	79.81
369.767	94.81
369.993	79.81
370.219	71.81
370.445	97.81
370.672	86.81
370.898	75.81
371.124	71.81
371.35	84.81
371.576	87.81
371.802	78.81
372.028	85.81
372.254	74.81
372.48	82.81
372.706	70.81
372.932	70.81
373.158	78.81
373.384	83.81
373.61	85.81
373.835	87.81
374.061	74.81
374.287	90.81
374.513	77.81
374.739	75.81
374.965	76.81
375.191	78.81
375.416	71.81
375.642	83.81
375.868	92.81
376.094	84.81
376.319	78.81
376.545	78.81
376.771	75.81
376.997	93.81
377.222	67.81
377.448	79.81
377.674	77.81
377.899	69.81
378.125	77.81
378.35	77.81
378.576	78.81
378.802	71.81
379.027	85.81
379.253	77.81
379.478	78.81
379.704	82.81
379.929	82.81
380.155	68.81
380.38	65.81
380.606	91.81
380.831	76.81
381.057	85.81
381.282	86.81
381.507	85.81
381.733	74.81
381.958	85.81
382.184	76.81
382.409	70.81
382.634	92.81
382.86	97.81
383.085	84.81
383.31	83.81
383.535	73.81
383.761	88.81
383.986	91.81
384.211	76.81
384.436	70.81
384.662	72.81
384.887	68.81
385.112	70.81
385.337	90.81
385.562	92.81
385.787	84.81
386.013	95.81
386.238	82.81
386.463	88.81
386.688	80.81
386.913	92.81
387.138	88.81
387.363	84.81
387.588	86.81
387.813	74.81
388.038	84.81
388.263	78.81
388.488	77.81
388.713	80.81
388.938	85.81
389.163	82.81
389.387	79.81
389.612	77.81
389.837	86.81
390.062	95.81
390.287	80.81
390.512	83.81
390.736	84.81
390.961	79.81
391.186	85.81
391.411	81.81
391.636	75.81
391.86	72.81
392.085	76.81
392.31	93.81
392.534	92.81
392.759	99.81
392.984	82.81
393.208	90.81
393.433	84.81
393.658	70.81
393.882	81.81
394.107	73.81
394.331	78.81
394.556	79.81
394.78	66.81
395.005	79.81
395.229	86.81
395.454	78.81
395.678	97.81
395.903	86.81
396.127	78.81
396.352	86.81
396.576	77.81
396.801	86.81
397.025	85.81
397.249	91.81
397.474	89.81
397.698	84.81
397.922	85.81
398.147	83.81
398.371	90.81
398.595	83.81
398.82	77.81
399.044	79.81
399.268	83.81
399.492	77.81
399.717	70.81
399.941	69.81
400.165	67.81
400.389	81.81
400.613	88.81
400.837	87.81
401.062	92.81
401.286	70.81
401.51	80.81
401.734	89.81
401.958	68.81
402.182	79.81
402.406	73.81
402.63	93.81
402.854	78.81
403.078	82.81
403.302	85.81
403.526	90.81
403.75	75.81
403.974	81.81
404.198	91.81
404.422	83.81
404.645	83.81
404.869	73.81
405.093	78.81
405.317	83.81
405.541	84.81
405.765	87.81
405.988	90.81
406.212	84.81
406.436	75.81
406.66	81.81
406.883	90.81
407.107	82.81
407.331	79.81
407.555	88.81
407.778	83.81
408.002	87.81
408.226	78.81
408.449	100.81
408.673	72.81
408.896	86.81
409.12	90.81
409.344	79.81
409.567	86.81
409.791	86.81
410.014	75.81
410.238	71.81
410.461	94.81
410.685	93.81
410.908	82.81
411.132	84.81
411.355	87.81
411.578	84.81
411.802	81.81
412.025	83.81
412.249	74.81
412.472	71.81
412.695	76.81
412.919	80.81
413.142	95.81
413.365	90.81
413.589	82.81
413.812	89.81
414.035	83.81
414.258	87.81
414.482	92.81
414.705	96.81
414.928	100.81
415.151	68.81
415.374	78.81
415.597	97.81
415.821	77.81
416.044	91.81
416.267	86.81
416.49	87.81
416.713	81.81
416.936	88.81
417.159	82.81
417.382	86.81
417.605	94.81
417.828	90.81
418.051	98.81
418.274	81.81
418.497	88.81
418.72	111.81
418.943	90.81
419.166	82.81
419.389	84.81
419.611	102.81
419.834	88.81
420.057	81.81
420.28	81.81
420.503	101.81
420.726	98.81
420.948	77.81
421.171	84.81
421.394	87.81
421.617	83.81
421.839	83.81
422.062	89.81
422.285	80.81
422.507	109.81
422.73	77.81
422.953	85.81
423.175	95.81
423.398	96.81
423.621	87.81
423.843	86.81
424.066	72.81
424.288	87.81
424.511	79.81
424.733	83.81
424.956	90.81
425.178	93.81
425.401	89.81
425.623	89.81
425.846	92.81
426.068	96.81
426.291	94.81
426.513	91.81
426.735	86.81
426.958	73.81
427.18	89.81
427.402	97.81
427.625	84.81
427.847	92.81
428.069	70.81
428.292	74.81
428.514	78.81
428.736	80.81
428.958	95.81
429.181	72.81
429.403	79.81
429.625	87.81
429.847	75.81
430.069	81.81
430.292	90.81
430.514	71.81
430.736	108.81
430.958	92.81
431.18	79.81
431.402	76.81
431.624	85.81
431.846	82.81
432.068	74.81
432.29	74.81
432.512	89.81
432.734	77.81
432.956	89.81
433.178	86.81
433.4	80.81
433.622	108.81
433.844	107.81
434.066	96.81
434.287	86.81
434.509	78.81
434.731	87.81
434.953	82.81
435.175	71.81
435.397	87.81
435.618	85.81
435.84	86.81
436.062	79.81
436.284	99.81
436.505	87.81
436.727	83.81
436.949	93.81
437.17	85.81
437.392	96.81
437.614	82.81
437.835	89.81
438.057	78.81
438.278	81.81
438.5	83.81
438.721	79.81
438.943	98.81
439.165	82.81
439.386	91.81
439.608	100.81
439.829	105.81
440.05	81.81
440.272	86.81
440.493	71.81
440.715	81.81
440.936	94.81
441.158	92.81
441.379	93.81
441.6	89.81
441.822	79.81
442.043	97.81
442.264	101.81
442.486	98.81
442.707	108.81
442.928	94.81
443.149	99.81
443.371	99.81
443.592	89.81
443.813	86.81
444.034	81.81
444.255	87.81
444.476	92.81
444.698	95.81
444.919	94.81
445.14	222.81
445.361	130.81
445.582	98.81
445.803	83.81
446.024	89.81
446.245	86.81
446.466	95.81
446.687	83.81
446.908	92.81
447.129	91.81
447.35	85.81
447.571	95.81
447.792	91.81
448.013	88.81
448.234	90.81
448.455	82.81
448.675	87.81
448.896	90.81
449.117	86.81
449.338	92.81
449.559	100.81
449.779	81.81
450	95.81
450.221	100.81
450.442	84.81
450.662	94.81
450.883	95.81
451.104	92.81
451.324	97.81
451.545	85.81
451.766	84.81
451.986	84.81
452.207	90.81
452.428	100.81
452.648	82.81
452.869	79.81
453.089	94.81
453.31	89.81
453.53	93.81
453.751	93.81
453.971	88.81
454.192	86.81
454.412	93.81
454.633	97.81
454.853	70.81
455.073	91.81
455.294	92.81
455.514	85.81
455.734	89.81
455.955	85.81
456.175	101.81
456.395	92.81
456.616	98.81
456.836	101.81
457.056	79.81
457.276	75.81
457.497	67.81
457.717	72.81
457.937	78.81
458.157	81.81
458.377	82.81
458.598	93.81
458.818	87.81
459.038	113.81
459.258	80.81
459.478	74.81
459.698	97.81
459.918	89.81
460.138	88.81
460.358	77.81
460.578	104.81
460.798	91.81
461.018	83.81
461.238	89.81
461.458	75.81
461.678	90.81
461.898	80.81
462.118	86.81
462.338	87.81
462.558	88.81
462.777	85.81
462.997	84.81
463.217	79.81
463.437	93.81
463.657	85.81
463.876	100.81
464.096	78.81
464.316	85.81
464.536	79.81
464.755	85.81
464.975	73.81
465.195	84.81
465.414	81.81
465.634	75.81
465.854	92.81
466.073	78.81
466.293	85.81
466.512	70.81
466.732	98.81
466.951	101.81
467.171	85.81
467.391	77.81
467.61	93.81
467.829	74.81
468.049	87.81
468.268	96.81
468.488	84.81
468.707	84.81
468.927	94.81
469.146	84.81
469.365	99.81
469.585	89.81
469.804	94.81
470.023	99.81
470.243	91.81
470.462	97.81
470.681	107.81
470.901	95.81
471.12	91.81
471.339	97.81
471.558	100.81
471.777	89.81
471.997	79.81
472.216	103.81
472.435	84.81
472.654	78.81
472.873	76.81
473.092	78.81
473.311	80.81
473.53	78.81
473.749	90.81
473.968	102.81
474.187	90.81
474.406	90.81
474.625	91.81
474.844	84.81
475.063	89.81
475.282	94.81
475.501	101.81
475.72	105.81
475.939	92.81
476.158	87.81
476.377	75.81
476.596	89.81
476.814	88.81
477.033	93.81
477.252	87.81
477.471	82.81
477.69	86.81
477.908	94.81
478.127	99.81
478.346	80.81
478.564	90.81
478.783	86.81
479.002	88.81
479.22	95.81
479.439	98.81
479.658	93.81
479.876	70.81
480.095	86.81
480.313	101.81
480.532	91.81
480.751	80.81
480.969	67.81
481.188	85.81
481.406	89.81
481.624	87.81
481.843	85.81
482.061	77.81
482.28	90.81
482.498	90.81
482.717	94.81
482.935	98.81
483.153	80.81
483.372	92.81
483.59	90.81
483.808	89.81
484.027	99.81
484.245	95.81
484.463	89.81
484.681	98.81
484.9	94.81
485.118	91.81
485.336	71.81
485.554	74.81
485.772	81.81
485.99	83.81
486.209	77.81
486.427	81.81
486.645	93.81
486.863	75.81
487.081	88.81
487.299	92.81
487.517	97.81
487.735	92.81
487.953	104.81
488.171	106.81
488.389	94.81
488.607	102.81
488.825	86.81
489.043	91.81
489.261	90.81
489.479	93.81
489.696	102.81
489.914	82.81
490.132	78.81
490.35	89.81
490.568	102.81
490.786	99.81
491.003	101.81
491.221	109.81
491.439	115.81
491.657	110.81
491.874	101.81
492.092	126.81
492.31	138.81
492.527	102.81
492.745	102.81
492.963	96.81
493.18	121.81
493.398	105.81
493.615	95.81
493.833	95.81
494.05	107.81
494.268	105.81
494.485	100.81
494.703	104.81
494.92	90.81
495.138	94.81
495.355	114.81
495.573	101.81
495.79	96.81
496.008	91.81
496.225	91.81
496.442	102.81
496.66	98.81
496.877	102.81
497.094	91.81
497.312	97.81
497.529	107.81
497.746	102.81
497.963	81.81
498.181	93.81
498.398	96.81
498.615	93.81
498.832	92.81
499.049	101.81
499.267	99.81
499.484	92.81
499.701	81.81
499.918	84.81
500.135	94.81
500.352	86.81
500.569	86.81
500.786	94.81
501.003	101.81
501.22	93.81
501.437	95.81
501.654	90.81
501.871	81.81
502.088	97.81
502.305	88.81
502.522	82.81
502.739	86.81
502.956	93.81
503.172	95.81
503.389	84.81
503.606	80.81
503.823	84.81
504.04	75.81
504.256	86.81
504.473	73.81
504.69	84.81
504.907	94.81
505.123	76.81
505.34	87.81
505.557	95.81
505.773	94.81
505.99	89.81
506.207	91.81
506.423	87.81
506.64	91.81
506.856	78.81
507.073	81.81
507.289	84.81
507.506	86.81
507.722	91.81
507.939	73.81
508.155	96.81
508.372	93.81
508.588	83.81
508.805	100.81
509.021	85.81
509.238	83.81
509.454	76.81
509.67	86.81
509.887	75.81
510.103	78.81
510.319	83.81
510.536	80.81
510.752	82.81
510.968	77.81
511.184	65.81
511.401	75.81
511.617	85.81
511.833	76.81
512.049	91.81
512.265	81.81
512.481	69.81
512.698	80.81
512.914	78.81
513.13	77.81
513.346	81.81
513.562	83.81
513.778	77.81
513.994	57.81
514.21	84.81
514.426	81.81
514.642	84.81
514.858	86.81
515.074	92.81
515.29	78.81
515.506	84.81
515.721	95.81
515.937	84.81
516.153	83.81
516.369	87.81
516.585	80.81
516.801	75.81
517.016	85.81
517.232	75.81
517.448	84.81
517.664	70.81
517.879	87.81
518.095	92.81
518.311	80.81
518.527	86.81
518.742	69.81
518.958	88.81
519.173	84.81
519.389	85.81
519.605	90.81
519.82	70.81
520.036	78.81
520.251	62.81
520.467	75.81
520.682	79.81
520.898	83.81
521.113	82.81
521.329	75.81
521.544	82.81
521.76	76.81
521.975	74.81
522.19	74.81
522.406	87.81
522.621	92.81
522.836	84.81
523.052	87.81
523.267	103.81
523.482	91.81
523.698	82.81
523.913	91.81
524.128	74.81
524.343	98.81
524.559	82.81
524.774	89.81
524.989	98.81
525.204	105.81
525.419	85.81
525.634	86.81
525.849	92.81
526.064	76.81
526.28	70.81
526.495	85.81
526.71	65.81
526.925	77.81
527.14	86.81
527.355	69.81
527.57	79.81
527.785	83.81
527.999	80.81
528.214	91.81
528.429	97.81
528.644	97.81
528.859	92.81
529.074	86.81
529.289	91.81
529.503	102.81
529.718	94.81
529.933	87.81
530.148	73.81
530.363	88.81
530.577	90.81
530.792	78.81
531.007	78.81
531.221	76.81
531.436	73.81
531.651	73.81
531.865	99.81
532.08	57.81
532.295	89.81
532.509	88.81
532.724	90.81
532.938	90.81
533.153	81.81
533.367	78.81
533.582	90.81
533.796	90.81
534.011	85.81
534.225	64.81
534.44	94.81
534.654	79.81
534.868	87.81
535.083	99.81
535.297	85.81
535.511	98.81
535.726	85.81
535.94	69.81
536.154	78.81
536.369	77.81
536.583	63.81
536.797	99.81
537.011	75.81
537.225	87.81
537.44	74.81
537.654	86.81
537.868	81.81
538.082	77.81
538.296	94.81
538.51	91.81
538.724	79.81
538.938	67.81
539.153	97.81
539.367	91.81
539.581	89.81
539.795	81.81
540.009	78.81
540.222	84.81
540.436	86.81
540.65	79.81
540.864	86.81
541.078	84.81
541.292	96.81
541.506	112.81
541.72	111.81
541.934	107.81
542.147	116.81
542.361	115.81
542.575	109.81
542.789	98.81
543.002	96.81
543.216	94.81
543.43	98.81
543.644	86.81
543.857	100.81
544.071	105.81
544.285	109.81
544.498	108.81
544.712	93.81
544.925	101.81
545.139	109.81
545.352	100.81
545.566	107.81
545.779	102.81
545.993	105.81
546.206	96.81
546.42	102.81
546.633	102.81
546.847	102.81
547.06	93.81
547.274	102.81
547.487	106.81
547.7	107.81
547.914	103.81
548.127	94.81
548.34	111.81
548.554	98.81
548.767	100.81
548.98	101.81
549.193	112.81
549.407	117.81
549.62	91.81
549.833	97.81
550.046	102.81
550.259	114.81
550.473	95.81
550.686	98.81
550.899	98.81
551.112	103.81
551.325	97.81
551.538	109.81
551.751	97.81
551.964	94.81
552.177	90.81
552.39	97.81
552.603	98.81
552.816	104.81
553.029	106.81
553.242	102.81
553.455	118.81
553.667	109.81
553.88	94.81
554.093	88.81
554.306	90.81
554.519	99.81
554.732	97.81
554.944	101.81
555.157	95.81
555.37	105.81
555.583	95.81
555.795	106.81
556.008	91.81
556.221	96.81
556.433	84.81
556.646	102.81
556.859	89.81
557.071	89.81
557.284	91.81
557.496	91.81
557.709	105.81
557.921	89.81
558.134	89.81
558.346	98.81
558.559	100.81
558.771	79.81
558.984	84.81
559.196	99.81
559.409	105.81
559.621	97.81
559.833	91.81
560.046	95.81
560.258	81.81
560.47	90.81
560.683	94.81
560.895	103.81
561.107	85.81
561.32	84.81
561.532	73.81
561.744	98.81
561.956	88.81
562.168	90.81
562.381	93.81
562.593	89.81
562.805	88.81
563.017	86.81
563.229	97.81
563.441	79.81
563.653	98.81
563.865	104.81
564.077	67.81
564.289	89.81
564.501	90.81
564.713	86.81
564.925	94.81
565.137	87.81
565.349	89.81
565.561	89.81
565.773	93.81
565.985	83.81
566.197	87.81
566.408	83.81
566.62	80.81
566.832	86.81
567.044	96.81
567.255	89.81
567.467	83.81
567.679	79.81
567.891	70.81
568.102	71.81
568.314	90.81
568.526	87.81
568.737	90.81
568.949	77.81
569.161	80.81
569.372	80.81
569.584	93.81
569.795	89.81
570.007	81.81
570.218	71.81
570.43	76.81
570.641	81.81
570.853	83.81
571.064	72.81
571.276	96.81
571.487	89.81
571.698	96.81
571.91	82.81
572.121	79.81
572.333	66.81
572.544	73.81
572.755	91.81
572.966	70.81
573.178	86.81
573.389	79.81
573.6	81.81
573.811	79.81
574.023	77.81
574.234	81.81
574.445	86.81
574.656	86.81
574.867	91.81
575.078	83.81
575.289	86.81
575.501	94.81
575.712	85.81
575.923	84.81
576.134	79.81
576.345	80.81
576.556	91.81
576.767	86.81
576.978	73.81
577.188	74.81
577.399	90.81
577.61	89.81
577.821	79.81
578.032	75.81
578.243	82.81
578.454	81.81
578.665	88.81
578.875	66.81
579.086	77.81
579.297	77.81
579.508	81.81
579.718	70.81
579.929	89.81
580.14	84.81
580.35	93.81
580.561	81.81
580.772	89.81
580.982	81.81
581.193	76.81
581.403	67.81
581.614	82.81
581.825	81.81
582.035	92.81
582.246	79.81
582.456	83.81
582.667	85.81
582.877	91.81
583.087	80.81
583.298	84.81
583.508	71.81
583.719	86.81
583.929	93.81
584.139	77.81
584.35	79.81
584.56	94.81
584.77	73.81
584.981	88.81
585.191	81.81
585.401	77.81
585.611	77.81
585.821	100.81
586.032	83.81
586.242	63.81
586.452	85.81
586.662	81.81
586.872	88.81
587.082	72.81
587.292	78.81
587.502	70.81
587.713	70.81
587.923	67.81
588.133	91.81
588.343	70.81
588.553	77.81
588.762	78.81
588.972	76.81
589.182	76.81
589.392	77.81
589.602	78.81
589.812	73.81
590.022	78.81
590.232	75.81
590.441	90.81
590.651	80.81
590.861	71.81
591.071	78.81
591.281	89.81
591.49	100.81
591.7	92.81
591.91	84.81
592.119	93.81
592.329	76.81
592.539	86.81
592.748	81.81
592.958	85.81
593.167	71.81
593.377	70.81
593.587	95.81
593.796	73.81
594.006	86.81
594.215	81.81
594.424	69.81
594.634	88.81
594.843	89.81
595.053	77.81
595.262	90.81
595.472	76.81
595.681	77.81
595.89	77.81
596.1	83.81
596.309	76.81
596.518	72.81
596.727	85.81
596.937	90.81
597.146	90.81
597.355	81.81
597.564	87.81
597.774	85.81
597.983	62.81
598.192	83.81
598.401	89.81
598.61	78.81
598.819	92.81
599.028	76.81
599.237	81.81
599.446	77.81
599.655	76.81
599.864	86.81
600.073	75.81
600.282	91.81
600.491	93.81
600.7	82.81
600.909	73.81
601.118	81.81
601.327	87.81
601.536	78.81
601.745	65.81
601.953	90.81
602.162	94.81
602.371	87.81
602.58	86.81
602.789	96.81
602.997	103.81
603.206	94.81
603.415	85.81
603.623	83.81
603.832	90.81
604.041	101.81
604.249	82.81
604.458	85.81
604.666	94.81
604.875	87.81
605.084	86.81
605.292	82.81
605.501	88.81
605.709	83.81
605.918	92.81
606.126	93.81
606.334	92.81
606.543	101.81
606.751	85.81
606.96	95.81
607.168	92.81
607.376	86.81
607.585	80.81
607.793	70.81
608.001	68.81
608.21	80.81
608.418	107.81
608.626	93.81
608.834	96.81
609.043	102.81
609.251	91.81
609.459	81.81
609.667	98.81
609.875	91.81
610.083	78.81
610.291	83.81
610.499	75.81
610.707	80.81
610.916	79.81
611.124	96.81
611.332	85.81
611.54	101.81
611.748	88.81
611.955	84.81
612.163	96.81
612.371	95.81
612.579	83.81
612.787	87.81
612.995	97.81
613.203	89.81
613.411	80.81
613.618	80.81
613.826	90.81
614.034	84.81
614.242	87.81
614.449	86.81
614.657	87.81
614.865	93.81
615.072	97.81
615.28	91.81
615.488	95.81
615.695	84.81
615.903	75.81
616.111	79.81
616.318	81.81
616.526	93.81
616.733	94.81
616.941	83.81
617.148	83.81
617.356	72.81
617.563	78.81
617.771	82.81
617.978	80.81
618.185	78.81
618.393	84.81
618.6	100.81
618.807	90.81
619.015	86.81
619.222	81.81
619.429	83.81
619.637	89.81
619.844	90.81
620.051	82.81
620.258	89.81
620.466	78.81
620.673	78.81
620.88	83.81
621.087	82.81
621.294	83.81
621.501	80.81
621.708	83.81
621.915	71.81
622.122	84.81
622.329	93.81
622.536	91.81
622.743	98.81
622.95	84.81
623.157	81.81
623.364	92.81
623.571	99.81
623.778	93.81
623.985	88.81
624.192	82.81
624.399	96.81
624.606	75.81
624.812	83.81
625.019	82.81
625.226	80.81
625.433	87.81
625.639	94.81
625.846	92.81
626.053	89.81
626.259	76.81
626.466	85.81
626.673	79.81
626.879	65.81
627.086	83.81
627.293	76.81
627.499	84.81
627.706	99.81
627.912	70.81
628.119	78.81
628.325	86.81
628.532	86.81
628.738	92.81
628.945	77.81
629.151	75.81
629.357	95.81
629.564	92.81
629.77	101.81
629.976	98.81
630.183	82.81
630.389	78.81
630.595	78.81
630.802	93.81
631.008	79.81
631.214	101.81
631.42	80.81
631.627	87.81
631.833	74.81
632.039	78.81
632.245	81.81
632.451	85.81
632.657	73.81
632.863	83.81
633.069	83.81
633.275	76.81
633.481	79.81
633.688	88.81
633.893	85.81
634.099	71.81
634.305	91.81
634.511	91.81
634.717	89.81
634.923	72.81
635.129	85.81
635.335	88.81
635.541	91.81
635.747	100.81
635.952	83.81
636.158	72.81
636.364	82.81
636.57	86.81
636.775	75.81
636.981	82.81
637.187	73.81
637.392	82.81
637.598	93.81
637.804	81.81
638.009	79.81
638.215	76.81
638.421	81.81
638.626	90.81
638.832	93.81
639.037	92.81
639.243	93.81
639.448	87.81
639.654	102.81
639.859	77.81
640.065	89.81
640.27	84.81
640.475	78.81
640.681	84.81
640.886	84.81
641.091	93.81
641.297	107.81
641.502	97.81
641.707	82.81
641.913	79.81
642.118	76.81
642.323	94.81
642.528	95.81
642.733	95.81
642.939	80.81
643.144	74.81
643.349	85.81
643.554	93.81
643.759	82.81
643.964	77.81
644.169	90.81
644.374	74.81
644.579	81.81
644.784	77.81
644.989	90.81
645.194	83.81
645.399	92.81
645.604	65.81
645.809	83.81
646.014	88.81
646.219	92.81
646.423	94.81
646.628	61.81
646.833	67.81
647.038	89.81
647.243	76.81
647.447	76.81
647.652	64.81
647.857	83.81
648.062	84.81
648.266	82.81
648.471	87.81
648.676	83.81
648.88	82.81
649.085	81.81
649.289	86.81
649.494	82.81
649.698	101.81
649.903	86.81
650.107	84.81
650.312	85.81
650.516	74.81
650.721	81.81
650.925	75.81
651.13	84.81
651.334	74.81
651.539	82.81
651.743	99.81
651.947	88.81
652.152	81.81
652.356	81.81
652.56	85.81
652.764	76.81
652.969	85.81
653.173	82.81
653.377	95.81
653.581	73.81
653.785	83.81
653.99	71.81
654.194	84.81
654.398	78.81
654.602	82.81
654.806	81.81
655.01	73.81
655.214	63.81
655.418	80.81
655.622	81.81
655.826	90.81
656.03	85.81
656.234	85.81
656.438	99.81
656.642	80.81
656.846	70.81
657.049	67.81
657.253	82.81
657.457	81.81
657.661	81.81
657.865	83.81
658.068	81.81
658.272	79.81
658.476	82.81
658.68	72.81
658.883	75.81
659.087	66.81
659.291	88.81
659.494	79.81
659.698	79.81
659.901	75.81
660.105	73.81
660.309	82.81
660.512	86.81
660.716	82.81
660.919	77.81
661.123	89.81
661.326	86.81
661.53	72.81
661.733	83.81
661.936	81.81
662.14	73.81
662.343	84.81
662.546	75.81
662.75	84.81
662.953	88.81
663.156	76.81
663.36	86.81
663.563	94.81
663.766	83.81
663.969	82.81
664.173	83.81
664.376	86.81
664.579	77.81
664.782	76.81
664.985	78.81
665.188	74.81
665.391	70.81
665.594	81.81
665.797	74.81
666	74.81
666.203	85.81
666.406	76.81
666.609	77.81
666.812	86.81
667.015	71.81
667.218	75.81
667.421	78.81
667.624	73.81
667.827	75.81
668.03	80.81
668.232	69.81
668.435	85.81
668.638	70.81
668.841	57.81
669.043	81.81
669.246	79.81
669.449	74.81
669.651	73.81
669.854	77.81
670.057	72.81
670.259	78.81
670.462	79.81
670.665	76.81
670.867	81.81
671.07	94.81
671.272	74.81
671.475	95.81
671.677	76.81
671.88	71.81
672.082	81.81
672.284	68.81
672.487	58.81
672.689	75.81
672.892	69.81
