Data from Location5.07152019.Energy5.Lamp.07192019.3%Agarose_HRD10591_16-05-26-629.txt Node
Date: Fri Jul 19 16:05:26 EDT 2019
User: cochatt
Spectrometer: HR+D1059
Trigger mode: 1
Integration Time (sec): 1.000000E-1
Scans to average: 1
Electric dark correction enabled: true
Nonlinearity correction enabled: false
Boxcar width: 0
XAxis mode: Wavelengths
Number of Pixels in Spectrum: 2048
>>>>>Begin Spectral Data<<<<<
223.165	-12.88
223.4	-12.88
223.635	-12.88
223.869	-11.88
224.104	-9.88
224.338	-23.88
224.573	-10.88
224.808	-14.88
225.042	-14.88
225.277	-2.88
225.511	-6.88
225.746	17.12
225.98	-5.88
226.215	15.12
226.449	15.12
226.683	12.12
226.918	22.12
227.152	33.12
227.387	34.12
227.621	37.12
227.856	45.12
228.09	48.12
228.324	36.12
228.559	62.12
228.793	55.12
229.027	57.12
229.262	65.12
229.496	52.12
229.73	77.12
229.964	69.12
230.199	69.12
230.433	63.12
230.667	75.12
230.901	81.12
231.136	66.12
231.37	84.12
231.604	61.12
231.838	74.12
232.072	81.12
232.306	73.12
232.541	94.12
232.775	92.12
233.009	84.12
233.243	86.12
233.477	93.12
233.711	83.12
233.945	84.12
234.179	69.12
234.413	83.12
234.647	85.12
234.881	83.12
235.115	71.12
235.349	69.12
235.583	90.12
235.817	79.12
236.051	89.12
236.285	62.12
236.519	79.12
236.753	71.12
236.987	71.12
237.221	74.12
237.455	81.12
237.689	81.12
237.922	81.12
238.156	80.12
238.39	66.12
238.624	79.12
238.858	69.12
239.091	87.12
239.325	84.12
239.559	94.12
239.793	71.12
240.027	85.12
240.26	90.12
240.494	70.12
240.728	77.12
240.961	67.12
241.195	85.12
241.429	76.12
241.662	73.12
241.896	73.12
242.13	81.12
242.363	69.12
242.597	91.12
242.83	80.12
243.064	72.12
243.298	77.12
243.531	73.12
243.765	83.12
243.998	92.12
244.232	83.12
244.465	82.12
244.699	87.12
244.932	63.12
245.166	75.12
245.399	75.12
245.633	78.12
245.866	81.12
246.099	63.12
246.333	92.12
246.566	68.12
246.8	72.12
247.033	66.12
247.266	75.12
247.5	79.12
247.733	63.12
247.966	78.12
248.2	76.12
248.433	81.12
248.666	76.12
248.899	73.12
249.133	71.12
249.366	88.12
249.599	71.12
249.832	84.12
250.066	83.12
250.299	74.12
250.532	79.12
250.765	66.12
250.998	70.12
251.231	78.12
251.465	90.12
251.698	83.12
251.931	69.12
252.164	74.12
252.397	81.12
252.63	81.12
252.863	82.12
253.096	86.12
253.329	91.12
253.562	82.12
253.795	80.12
254.028	101.12
254.261	95.12
254.494	78.12
254.727	87.12
254.96	81.12
255.193	93.12
255.426	85.12
255.659	77.12
255.892	80.12
256.124	89.12
256.357	77.12
256.59	82.12
256.823	95.12
257.056	76.12
257.289	78.12
257.521	81.12
257.754	77.12
257.987	82.12
258.22	75.12
258.452	74.12
258.685	88.12
258.918	86.12
259.151	64.12
259.383	75.12
259.616	69.12
259.849	85.12
260.081	79.12
260.314	80.12
260.547	81.12
260.779	94.12
261.012	81.12
261.244	82.12
261.477	76.12
261.71	63.12
261.942	81.12
262.175	71.12
262.407	78.12
262.64	78.12
262.872	88.12
263.105	86.12
263.337	75.12
263.57	73.12
263.802	72.12
264.035	70.12
264.267	84.12
264.499	79.12
264.732	97.12
264.964	89.12
265.197	69.12
265.429	77.12
265.661	90.12
265.894	77.12
266.126	98.12
266.358	73.12
266.591	72.12
266.823	82.12
267.055	69.12
267.287	76.12
267.52	82.12
267.752	87.12
267.984	81.12
268.216	82.12
268.448	98.12
268.681	86.12
268.913	87.12
269.145	77.12
269.377	90.12
269.609	74.12
269.841	90.12
270.073	85.12
270.306	70.12
270.538	82.12
270.77	85.12
271.002	83.12
271.234	89.12
271.466	93.12
271.698	87.12
271.93	80.12
272.162	96.12
272.394	95.12
272.626	93.12
272.858	85.12
273.09	82.12
273.322	83.12
273.553	87.12
273.785	82.12
274.017	89.12
274.249	88.12
274.481	79.12
274.713	89.12
274.945	88.12
275.176	88.12
275.408	90.12
275.64	79.12
275.872	80.12
276.104	95.12
276.335	86.12
276.567	91.12
276.799	88.12
277.031	80.12
277.262	81.12
277.494	93.12
277.726	80.12
277.957	89.12
278.189	78.12
278.421	89.12
278.652	74.12
278.884	87.12
279.115	87.12
279.347	82.12
279.579	79.12
279.81	78.12
280.042	87.12
280.273	97.12
280.505	95.12
280.736	78.12
280.968	87.12
281.199	89.12
281.431	81.12
281.662	97.12
281.894	80.12
282.125	86.12
282.356	83.12
282.588	95.12
282.819	87.12
283.051	85.12
283.282	101.12
283.513	85.12
283.745	90.12
283.976	93.12
284.207	81.12
284.439	94.12
284.67	86.12
284.901	78.12
285.132	85.12
285.364	99.12
285.595	83.12
285.826	94.12
286.057	94.12
286.288	88.12
286.52	93.12
286.751	93.12
286.982	88.12
287.213	85.12
287.444	96.12
287.675	74.12
287.906	71.12
288.138	96.12
288.369	86.12
288.6	90.12
288.831	89.12
289.062	72.12
289.293	78.12
289.524	82.12
289.755	85.12
289.986	84.12
290.217	91.12
290.448	85.12
290.679	99.12
290.91	103.12
291.141	97.12
291.371	83.12
291.602	83.12
291.833	82.12
292.064	90.12
292.295	78.12
292.526	95.12
292.757	88.12
292.987	76.12
293.218	87.12
293.449	97.12
293.68	86.12
293.91	67.12
294.141	102.12
294.372	87.12
294.603	91.12
294.833	94.12
295.064	90.12
295.295	83.12
295.525	91.12
295.756	85.12
295.987	92.12
296.217	87.12
296.448	83.12
296.679	98.12
296.909	98.12
297.14	77.12
297.37	92.12
297.601	103.12
297.831	94.12
298.062	94.12
298.292	86.12
298.523	96.12
298.753	91.12
298.984	92.12
299.214	86.12
299.445	95.12
299.675	96.12
299.905	109.12
300.136	92.12
300.366	80.12
300.597	85.12
300.827	98.12
301.057	90.12
301.288	88.12
301.518	97.12
301.748	89.12
301.979	83.12
302.209	90.12
302.439	94.12
302.669	97.12
302.9	78.12
303.13	89.12
303.36	98.12
303.59	87.12
303.82	73.12
304.051	101.12
304.281	85.12
304.511	98.12
304.741	92.12
304.971	73.12
305.201	96.12
305.431	92.12
305.661	86.12
305.891	87.12
306.121	82.12
306.352	75.12
306.582	94.12
306.812	87.12
307.042	103.12
307.272	94.12
307.502	95.12
307.731	95.12
307.961	103.12
308.191	112.12
308.421	104.12
308.651	81.12
308.881	89.12
309.111	88.12
309.341	98.12
309.571	94.12
309.8	89.12
310.03	94.12
310.26	93.12
310.49	87.12
310.72	84.12
310.949	87.12
311.179	95.12
311.409	90.12
311.639	78.12
311.868	90.12
312.098	89.12
312.328	79.12
312.557	92.12
312.787	94.12
313.017	81.12
313.246	110.12
313.476	101.12
313.706	101.12
313.935	85.12
314.165	99.12
314.394	85.12
314.624	88.12
314.853	76.12
315.083	84.12
315.312	99.12
315.542	85.12
315.771	95.12
316.001	98.12
316.23	79.12
316.46	88.12
316.689	87.12
316.919	88.12
317.148	103.12
317.377	94.12
317.607	93.12
317.836	105.12
318.065	87.12
318.295	81.12
318.524	81.12
318.753	80.12
318.983	103.12
319.212	105.12
319.441	90.12
319.67	90.12
319.9	89.12
320.129	84.12
320.358	93.12
320.587	74.12
320.816	86.12
321.046	88.12
321.275	90.12
321.504	97.12
321.733	93.12
321.962	96.12
322.191	80.12
322.42	82.12
322.649	96.12
322.878	99.12
323.108	85.12
323.337	98.12
323.566	102.12
323.795	92.12
324.024	100.12
324.253	106.12
324.482	99.12
324.71	75.12
324.939	88.12
325.168	89.12
325.397	87.12
325.626	92.12
325.855	92.12
326.084	82.12
326.313	83.12
326.542	85.12
326.77	96.12
326.999	85.12
327.228	89.12
327.457	94.12
327.686	96.12
327.914	75.12
328.143	83.12
328.372	86.12
328.6	99.12
328.829	100.12
329.058	82.12
329.287	84.12
329.515	83.12
329.744	86.12
329.972	73.12
330.201	96.12
330.43	97.12
330.658	89.12
330.887	89.12
331.115	80.12
331.344	76.12
331.572	87.12
331.801	101.12
332.03	99.12
332.258	100.12
332.486	107.12
332.715	98.12
332.943	95.12
333.172	109.12
333.4	89.12
333.629	94.12
333.857	95.12
334.085	101.12
334.314	101.12
334.542	89.12
334.771	84.12
334.999	88.12
335.227	89.12
335.455	85.12
335.684	99.12
335.912	107.12
336.14	98.12
336.369	87.12
336.597	104.12
336.825	92.12
337.053	106.12
337.281	78.12
337.51	95.12
337.738	89.12
337.966	99.12
338.194	106.12
338.422	88.12
338.65	91.12
338.878	95.12
339.106	70.12
339.334	81.12
339.562	96.12
339.79	86.12
340.018	87.12
340.246	82.12
340.474	90.12
340.702	84.12
340.93	99.12
341.158	98.12
341.386	92.12
341.614	86.12
341.842	95.12
342.07	102.12
342.298	100.12
342.526	90.12
342.754	89.12
342.981	85.12
343.209	89.12
343.437	95.12
343.665	97.12
343.893	94.12
344.12	88.12
344.348	101.12
344.576	94.12
344.804	96.12
345.031	97.12
345.259	94.12
345.487	83.12
345.714	80.12
345.942	94.12
346.17	89.12
346.397	106.12
346.625	103.12
346.853	96.12
347.08	81.12
347.308	90.12
347.535	91.12
347.763	90.12
347.99	94.12
348.218	92.12
348.445	98.12
348.673	81.12
348.9	78.12
349.128	101.12
349.355	83.12
349.583	84.12
349.81	84.12
350.037	96.12
350.265	91.12
350.492	88.12
350.72	84.12
350.947	106.12
351.174	73.12
351.402	97.12
351.629	81.12
351.856	102.12
352.083	94.12
352.311	82.12
352.538	78.12
352.765	78.12
352.992	99.12
353.22	101.12
353.447	93.12
353.674	89.12
353.901	73.12
354.128	107.12
354.355	90.12
354.583	98.12
354.81	83.12
355.037	101.12
355.264	90.12
355.491	86.12
355.718	96.12
355.945	84.12
356.172	96.12
356.399	96.12
356.626	82.12
356.853	89.12
357.08	90.12
357.307	66.12
357.534	81.12
357.761	95.12
357.988	93.12
358.215	90.12
358.441	94.12
358.668	80.12
358.895	71.12
359.122	90.12
359.349	90.12
359.576	89.12
359.802	97.12
360.029	90.12
360.256	72.12
360.483	81.12
360.709	78.12
360.936	84.12
361.163	86.12
361.39	88.12
361.616	83.12
361.843	91.12
362.07	80.12
362.296	92.12
362.523	96.12
362.749	95.12
362.976	86.12
363.203	74.12
363.429	89.12
363.656	95.12
363.882	91.12
364.109	100.12
364.335	98.12
364.562	101.12
364.788	86.12
365.015	89.12
365.241	78.12
365.468	95.12
365.694	87.12
365.92	82.12
366.147	97.12
366.373	88.12
366.599	102.12
366.826	82.12
367.052	83.12
367.278	89.12
367.505	91.12
367.731	102.12
367.957	88.12
368.184	83.12
368.41	88.12
368.636	84.12
368.862	103.12
369.089	96.12
369.315	90.12
369.541	95.12
369.767	98.12
369.993	75.12
370.219	84.12
370.445	85.12
370.672	77.12
370.898	85.12
371.124	100.12
371.35	95.12
371.576	96.12
371.802	90.12
372.028	77.12
372.254	86.12
372.48	101.12
372.706	85.12
372.932	91.12
373.158	96.12
373.384	97.12
373.61	80.12
373.835	91.12
374.061	98.12
374.287	90.12
374.513	97.12
374.739	96.12
374.965	105.12
375.191	102.12
375.416	89.12
375.642	96.12
375.868	90.12
376.094	88.12
376.319	88.12
376.545	99.12
376.771	89.12
376.997	80.12
377.222	90.12
377.448	91.12
377.674	99.12
377.899	94.12
378.125	100.12
378.35	99.12
378.576	104.12
378.802	97.12
379.027	87.12
379.253	81.12
379.478	78.12
379.704	76.12
379.929	94.12
380.155	90.12
380.38	98.12
380.606	97.12
380.831	93.12
381.057	99.12
381.282	101.12
381.507	86.12
381.733	90.12
381.958	74.12
382.184	86.12
382.409	86.12
382.634	79.12
382.86	82.12
383.085	81.12
383.31	84.12
383.535	102.12
383.761	83.12
383.986	86.12
384.211	93.12
384.436	91.12
384.662	92.12
384.887	88.12
385.112	96.12
385.337	86.12
385.562	76.12
385.787	91.12
386.013	87.12
386.238	91.12
386.463	103.12
386.688	100.12
386.913	104.12
387.138	78.12
387.363	90.12
387.588	90.12
387.813	84.12
388.038	104.12
388.263	89.12
388.488	96.12
388.713	93.12
388.938	93.12
389.163	90.12
389.387	100.12
389.612	85.12
389.837	100.12
390.062	82.12
390.287	90.12
390.512	95.12
390.736	93.12
390.961	96.12
391.186	87.12
391.411	94.12
391.636	102.12
391.86	101.12
392.085	98.12
392.31	103.12
392.534	98.12
392.759	80.12
392.984	95.12
393.208	103.12
393.433	100.12
393.658	81.12
393.882	103.12
394.107	95.12
394.331	110.12
394.556	80.12
394.78	89.12
395.005	98.12
395.229	76.12
395.454	96.12
395.678	76.12
395.903	107.12
396.127	101.12
396.352	80.12
396.576	90.12
396.801	88.12
397.025	104.12
397.249	94.12
397.474	93.12
397.698	95.12
397.922	94.12
398.147	93.12
398.371	107.12
398.595	100.12
398.82	103.12
399.044	94.12
399.268	97.12
399.492	99.12
399.717	110.12
399.941	106.12
400.165	102.12
400.389	89.12
400.613	102.12
400.837	90.12
401.062	91.12
401.286	94.12
401.51	86.12
401.734	96.12
401.958	104.12
402.182	86.12
402.406	101.12
402.63	105.12
402.854	95.12
403.078	83.12
403.302	89.12
403.526	102.12
403.75	101.12
403.974	103.12
404.198	74.12
404.422	93.12
404.645	106.12
404.869	90.12
405.093	110.12
405.317	100.12
405.541	90.12
405.765	97.12
405.988	106.12
406.212	96.12
406.436	109.12
406.66	82.12
406.883	109.12
407.107	109.12
407.331	109.12
407.555	115.12
407.778	96.12
408.002	103.12
408.226	98.12
408.449	107.12
408.673	96.12
408.896	95.12
409.12	95.12
409.344	85.12
409.567	92.12
409.791	89.12
410.014	85.12
410.238	101.12
410.461	86.12
410.685	98.12
410.908	96.12
411.132	104.12
411.355	99.12
411.578	101.12
411.802	100.12
412.025	96.12
412.249	85.12
412.472	86.12
412.695	92.12
412.919	91.12
413.142	106.12
413.365	95.12
413.589	99.12
413.812	90.12
414.035	96.12
414.258	88.12
414.482	99.12
414.705	86.12
414.928	101.12
415.151	85.12
415.374	100.12
415.597	95.12
415.821	94.12
416.044	88.12
416.267	94.12
416.49	83.12
416.713	91.12
416.936	102.12
417.159	101.12
417.382	91.12
417.605	104.12
417.828	96.12
418.051	98.12
418.274	88.12
418.497	93.12
418.72	94.12
418.943	109.12
419.166	93.12
419.389	104.12
419.611	104.12
419.834	101.12
420.057	94.12
420.28	87.12
420.503	94.12
420.726	91.12
420.948	101.12
421.171	91.12
421.394	105.12
421.617	93.12
421.839	99.12
422.062	90.12
422.285	87.12
422.507	79.12
422.73	99.12
422.953	70.12
423.175	93.12
423.398	83.12
423.621	104.12
423.843	95.12
424.066	95.12
424.288	98.12
424.511	86.12
424.733	97.12
424.956	89.12
425.178	94.12
425.401	95.12
425.623	99.12
425.846	86.12
426.068	98.12
426.291	96.12
426.513	84.12
426.735	88.12
426.958	88.12
427.18	94.12
427.402	85.12
427.625	76.12
427.847	79.12
428.069	89.12
428.292	85.12
428.514	89.12
428.736	79.12
428.958	98.12
429.181	96.12
429.403	98.12
429.625	86.12
429.847	77.12
430.069	75.12
430.292	93.12
430.514	102.12
430.736	95.12
430.958	95.12
431.18	89.12
431.402	94.12
431.624	87.12
431.846	111.12
432.068	98.12
432.29	85.12
432.512	91.12
432.734	102.12
432.956	86.12
433.178	107.12
433.4	93.12
433.622	89.12
433.844	85.12
434.066	93.12
434.287	81.12
434.509	93.12
434.731	93.12
434.953	85.12
435.175	99.12
435.397	108.12
435.618	87.12
435.84	93.12
436.062	94.12
436.284	103.12
436.505	85.12
436.727	89.12
436.949	81.12
437.17	79.12
437.392	86.12
437.614	88.12
437.835	101.12
438.057	100.12
438.278	92.12
438.5	87.12
438.721	94.12
438.943	86.12
439.165	102.12
439.386	88.12
439.608	93.12
439.829	104.12
440.05	108.12
440.272	91.12
440.493	93.12
440.715	102.12
440.936	86.12
441.158	101.12
441.379	95.12
441.6	104.12
441.822	93.12
442.043	86.12
442.264	101.12
442.486	100.12
442.707	94.12
442.928	90.12
443.149	81.12
443.371	97.12
443.592	87.12
443.813	85.12
444.034	89.12
444.255	103.12
444.476	94.12
444.698	94.12
444.919	97.12
445.14	225.12
445.361	155.12
445.582	93.12
445.803	91.12
446.024	83.12
446.245	74.12
446.466	93.12
446.687	87.12
446.908	98.12
447.129	90.12
447.35	95.12
447.571	93.12
447.792	104.12
448.013	101.12
448.234	93.12
448.455	83.12
448.675	84.12
448.896	93.12
449.117	88.12
449.338	97.12
449.559	91.12
449.779	97.12
450	95.12
450.221	94.12
450.442	83.12
450.662	95.12
450.883	93.12
451.104	81.12
451.324	89.12
451.545	83.12
451.766	87.12
451.986	101.12
452.207	90.12
452.428	98.12
452.648	97.12
452.869	80.12
453.089	99.12
453.31	78.12
453.53	83.12
453.751	83.12
453.971	82.12
454.192	96.12
454.412	98.12
454.633	94.12
454.853	93.12
455.073	93.12
455.294	93.12
455.514	111.12
455.734	87.12
455.955	83.12
456.175	95.12
456.395	86.12
456.616	88.12
456.836	94.12
457.056	84.12
457.276	89.12
457.497	92.12
457.717	88.12
457.937	90.12
458.157	79.12
458.377	92.12
458.598	104.12
458.818	105.12
459.038	87.12
459.258	95.12
459.478	94.12
459.698	100.12
459.918	97.12
460.138	102.12
460.358	94.12
460.578	98.12
460.798	94.12
461.018	106.12
461.238	75.12
461.458	106.12
461.678	103.12
461.898	102.12
462.118	93.12
462.338	91.12
462.558	94.12
462.777	103.12
462.997	94.12
463.217	109.12
463.437	100.12
463.657	92.12
463.876	99.12
464.096	102.12
464.316	89.12
464.536	95.12
464.755	94.12
464.975	105.12
465.195	104.12
465.414	82.12
465.634	98.12
465.854	90.12
466.073	86.12
466.293	87.12
466.512	91.12
466.732	97.12
466.951	103.12
467.171	98.12
467.391	91.12
467.61	81.12
467.829	98.12
468.049	86.12
468.268	96.12
468.488	83.12
468.707	93.12
468.927	101.12
469.146	101.12
469.365	98.12
469.585	89.12
469.804	94.12
470.023	97.12
470.243	94.12
470.462	103.12
470.681	108.12
470.901	88.12
471.12	86.12
471.339	109.12
471.558	102.12
471.777	99.12
471.997	96.12
472.216	96.12
472.435	102.12
472.654	86.12
472.873	91.12
473.092	88.12
473.311	86.12
473.53	92.12
473.749	91.12
473.968	86.12
474.187	100.12
474.406	95.12
474.625	101.12
474.844	95.12
475.063	99.12
475.282	85.12
475.501	98.12
475.72	112.12
475.939	83.12
476.158	101.12
476.377	95.12
476.596	83.12
476.814	86.12
477.033	101.12
477.252	92.12
477.471	100.12
477.69	97.12
477.908	88.12
478.127	93.12
478.346	86.12
478.564	110.12
478.783	94.12
479.002	97.12
479.22	105.12
479.439	102.12
479.658	100.12
479.876	92.12
480.095	93.12
480.313	96.12
480.532	105.12
480.751	100.12
480.969	88.12
481.188	92.12
481.406	99.12
481.624	87.12
481.843	81.12
482.061	103.12
482.28	95.12
482.498	103.12
482.717	80.12
482.935	97.12
483.153	99.12
483.372	96.12
483.59	100.12
483.808	111.12
484.027	96.12
484.245	111.12
484.463	97.12
484.681	107.12
484.9	105.12
485.118	101.12
485.336	91.12
485.554	91.12
485.772	101.12
485.99	99.12
486.209	114.12
486.427	103.12
486.645	101.12
486.863	106.12
487.081	108.12
487.299	107.12
487.517	109.12
487.735	120.12
487.953	112.12
488.171	102.12
488.389	107.12
488.607	105.12
488.825	98.12
489.043	96.12
489.261	108.12
489.479	96.12
489.696	83.12
489.914	82.12
490.132	112.12
490.35	104.12
490.568	117.12
490.786	112.12
491.003	109.12
491.221	103.12
491.439	117.12
491.657	101.12
491.874	119.12
492.092	105.12
492.31	117.12
492.527	115.12
492.745	123.12
492.963	107.12
493.18	104.12
493.398	104.12
493.615	102.12
493.833	117.12
494.05	101.12
494.268	107.12
494.485	116.12
494.703	104.12
494.92	96.12
495.138	114.12
495.355	97.12
495.573	100.12
495.79	99.12
496.008	114.12
496.225	111.12
496.442	110.12
496.66	102.12
496.877	115.12
497.094	102.12
497.312	103.12
497.529	106.12
497.746	105.12
497.963	114.12
498.181	113.12
498.398	110.12
498.615	111.12
498.832	98.12
499.049	125.12
499.267	111.12
499.484	123.12
499.701	127.12
499.918	135.12
500.135	144.12
500.352	150.12
500.569	148.12
500.786	140.12
501.003	138.12
501.22	149.12
501.437	131.12
501.654	135.12
501.871	114.12
502.088	111.12
502.305	107.12
502.522	119.12
502.739	102.12
502.956	116.12
503.172	104.12
503.389	113.12
503.606	125.12
503.823	111.12
504.04	110.12
504.256	105.12
504.473	98.12
504.69	120.12
504.907	107.12
505.123	121.12
505.34	91.12
505.557	112.12
505.773	111.12
505.99	104.12
506.207	96.12
506.423	94.12
506.64	86.12
506.856	97.12
507.073	112.12
507.289	117.12
507.506	102.12
507.722	103.12
507.939	99.12
508.155	105.12
508.372	99.12
508.588	101.12
508.805	94.12
509.021	96.12
509.238	113.12
509.454	98.12
509.67	95.12
509.887	95.12
510.103	87.12
510.319	88.12
510.536	79.12
510.752	93.12
510.968	95.12
511.184	109.12
511.401	106.12
511.617	85.12
511.833	82.12
512.049	95.12
512.265	89.12
512.481	84.12
512.698	94.12
512.914	84.12
513.13	92.12
513.346	94.12
513.562	92.12
513.778	109.12
513.994	93.12
514.21	96.12
514.426	91.12
514.642	104.12
514.858	106.12
515.074	110.12
515.29	102.12
515.506	101.12
515.721	89.12
515.937	89.12
516.153	89.12
516.369	101.12
516.585	97.12
516.801	94.12
517.016	90.12
517.232	113.12
517.448	90.12
517.664	99.12
517.879	109.12
518.095	111.12
518.311	110.12
518.527	107.12
518.742	98.12
518.958	104.12
519.173	94.12
519.389	90.12
519.605	112.12
519.82	102.12
520.036	93.12
520.251	93.12
520.467	99.12
520.682	105.12
520.898	104.12
521.113	85.12
521.329	87.12
521.544	93.12
521.76	99.12
521.975	97.12
522.19	111.12
522.406	104.12
522.621	95.12
522.836	91.12
523.052	103.12
523.267	81.12
523.482	97.12
523.698	101.12
523.913	100.12
524.128	118.12
524.343	98.12
524.559	89.12
524.774	98.12
524.989	105.12
525.204	86.12
525.419	112.12
525.634	109.12
525.849	104.12
526.064	104.12
526.28	92.12
526.495	95.12
526.71	94.12
526.925	91.12
527.14	72.12
527.355	95.12
527.57	86.12
527.785	101.12
527.999	101.12
528.214	100.12
528.429	80.12
528.644	91.12
528.859	108.12
529.074	100.12
529.289	121.12
529.503	102.12
529.718	101.12
529.933	98.12
530.148	101.12
530.363	92.12
530.577	96.12
530.792	98.12
531.007	94.12
531.221	85.12
531.436	108.12
531.651	90.12
531.865	99.12
532.08	91.12
532.295	89.12
532.509	94.12
532.724	104.12
532.938	112.12
533.153	104.12
533.367	87.12
533.582	97.12
533.796	93.12
534.011	102.12
534.225	98.12
534.44	103.12
534.654	99.12
534.868	105.12
535.083	94.12
535.297	77.12
535.511	107.12
535.726	88.12
535.94	99.12
536.154	89.12
536.369	102.12
536.583	89.12
536.797	88.12
537.011	99.12
537.225	98.12
537.44	96.12
537.654	96.12
537.868	102.12
538.082	106.12
538.296	97.12
538.51	101.12
538.724	103.12
538.938	105.12
539.153	100.12
539.367	103.12
539.581	114.12
539.795	83.12
540.009	102.12
540.222	78.12
540.436	91.12
540.65	96.12
540.864	100.12
541.078	106.12
541.292	92.12
541.506	105.12
541.72	100.12
541.934	102.12
542.147	97.12
542.361	109.12
542.575	111.12
542.789	94.12
543.002	86.12
543.216	106.12
543.43	97.12
543.644	93.12
543.857	92.12
544.071	93.12
544.285	94.12
544.498	110.12
544.712	95.12
544.925	100.12
545.139	112.12
545.352	102.12
545.566	88.12
545.779	101.12
545.993	95.12
546.206	105.12
546.42	86.12
546.633	102.12
546.847	110.12
547.06	105.12
547.274	102.12
547.487	108.12
547.7	107.12
547.914	117.12
548.127	99.12
548.34	98.12
548.554	101.12
548.767	102.12
548.98	99.12
549.193	96.12
549.407	121.12
549.62	97.12
549.833	94.12
550.046	98.12
550.259	103.12
550.473	98.12
550.686	100.12
550.899	111.12
551.112	99.12
551.325	97.12
551.538	103.12
551.751	103.12
551.964	96.12
552.177	106.12
552.39	90.12
552.603	100.12
552.816	92.12
553.029	108.12
553.242	82.12
553.455	121.12
553.667	119.12
553.88	110.12
554.093	101.12
554.306	104.12
554.519	87.12
554.732	98.12
554.944	103.12
555.157	98.12
555.37	82.12
555.583	99.12
555.795	123.12
556.008	104.12
556.221	95.12
556.433	92.12
556.646	88.12
556.859	106.12
557.071	83.12
557.284	99.12
557.496	114.12
557.709	83.12
557.921	98.12
558.134	95.12
558.346	95.12
558.559	99.12
558.771	102.12
558.984	96.12
559.196	98.12
559.409	95.12
559.621	111.12
559.833	91.12
560.046	93.12
560.258	93.12
560.47	101.12
560.683	90.12
560.895	91.12
561.107	100.12
561.32	85.12
561.532	89.12
561.744	88.12
561.956	95.12
562.168	93.12
562.381	91.12
562.593	102.12
562.805	102.12
563.017	100.12
563.229	98.12
563.441	102.12
563.653	88.12
563.865	95.12
564.077	111.12
564.289	101.12
564.501	97.12
564.713	97.12
564.925	102.12
565.137	94.12
565.349	88.12
565.561	84.12
565.773	110.12
565.985	93.12
566.197	89.12
566.408	102.12
566.62	98.12
566.832	101.12
567.044	93.12
567.255	110.12
567.467	99.12
567.679	107.12
567.891	100.12
568.102	99.12
568.314	106.12
568.526	120.12
568.737	111.12
568.949	94.12
569.161	90.12
569.372	100.12
569.584	87.12
569.795	106.12
570.007	80.12
570.218	98.12
570.43	85.12
570.641	83.12
570.853	85.12
571.064	87.12
571.276	90.12
571.487	79.12
571.698	88.12
571.91	86.12
572.121	74.12
572.333	101.12
572.544	89.12
572.755	91.12
572.966	88.12
573.178	91.12
573.389	84.12
573.6	89.12
573.811	82.12
574.023	87.12
574.234	88.12
574.445	94.12
574.656	84.12
574.867	88.12
575.078	93.12
575.289	83.12
575.501	105.12
575.712	87.12
575.923	107.12
576.134	96.12
576.345	92.12
576.556	90.12
576.767	106.12
576.978	99.12
577.188	80.12
577.399	92.12
577.61	104.12
577.821	90.12
578.032	96.12
578.243	89.12
578.454	102.12
578.665	91.12
578.875	90.12
579.086	88.12
579.297	96.12
579.508	99.12
579.718	106.12
579.929	95.12
580.14	97.12
580.35	87.12
580.561	98.12
580.772	82.12
580.982	102.12
581.193	84.12
581.403	93.12
581.614	87.12
581.825	92.12
582.035	91.12
582.246	83.12
582.456	81.12
582.667	77.12
582.877	86.12
583.087	85.12
583.298	81.12
583.508	96.12
583.719	89.12
583.929	80.12
584.139	73.12
584.35	88.12
584.56	82.12
584.77	94.12
584.981	90.12
585.191	87.12
585.401	96.12
585.611	79.12
585.821	81.12
586.032	90.12
586.242	88.12
586.452	67.12
586.662	92.12
586.872	85.12
587.082	84.12
587.292	84.12
587.502	78.12
587.713	89.12
587.923	96.12
588.133	82.12
588.343	85.12
588.553	86.12
588.762	86.12
588.972	95.12
589.182	93.12
589.392	99.12
589.602	104.12
589.812	89.12
590.022	93.12
590.232	89.12
590.441	81.12
590.651	78.12
590.861	87.12
591.071	74.12
591.281	78.12
591.49	78.12
591.7	88.12
591.91	99.12
592.119	85.12
592.329	84.12
592.539	77.12
592.748	85.12
592.958	95.12
593.167	98.12
593.377	93.12
593.587	87.12
593.796	75.12
594.006	74.12
594.215	79.12
594.424	102.12
594.634	71.12
594.843	103.12
595.053	83.12
595.262	85.12
595.472	79.12
595.681	76.12
595.89	82.12
596.1	95.12
596.309	78.12
596.518	76.12
596.727	76.12
596.937	94.12
597.146	97.12
597.355	95.12
597.564	85.12
597.774	78.12
597.983	96.12
598.192	90.12
598.401	105.12
598.61	85.12
598.819	80.12
599.028	87.12
599.237	88.12
599.446	85.12
599.655	87.12
599.864	89.12
600.073	86.12
600.282	84.12
600.491	81.12
600.7	74.12
600.909	93.12
601.118	94.12
601.327	89.12
601.536	95.12
601.745	82.12
601.953	79.12
602.162	90.12
602.371	97.12
602.58	90.12
602.789	94.12
602.997	81.12
603.206	85.12
603.415	90.12
603.623	81.12
603.832	98.12
604.041	87.12
604.249	90.12
604.458	91.12
604.666	81.12
604.875	87.12
605.084	77.12
605.292	77.12
605.501	83.12
605.709	105.12
605.918	96.12
606.126	82.12
606.334	80.12
606.543	93.12
606.751	93.12
606.96	86.12
607.168	81.12
607.376	78.12
607.585	95.12
607.793	93.12
608.001	73.12
608.21	90.12
608.418	87.12
608.626	98.12
608.834	97.12
609.043	102.12
609.251	88.12
609.459	77.12
609.667	81.12
609.875	84.12
610.083	79.12
610.291	78.12
610.499	81.12
610.707	96.12
610.916	92.12
611.124	82.12
611.332	89.12
611.54	94.12
611.748	87.12
611.955	86.12
612.163	81.12
612.371	93.12
612.579	86.12
612.787	102.12
612.995	87.12
613.203	93.12
613.411	96.12
613.618	67.12
613.826	76.12
614.034	82.12
614.242	97.12
614.449	92.12
614.657	85.12
614.865	83.12
615.072	80.12
615.28	83.12
615.488	80.12
615.695	93.12
615.903	90.12
616.111	86.12
616.318	98.12
616.526	92.12
616.733	95.12
616.941	88.12
617.148	86.12
617.356	79.12
617.563	81.12
617.771	86.12
617.978	92.12
618.185	77.12
618.393	89.12
618.6	86.12
618.807	90.12
619.015	103.12
619.222	83.12
619.429	95.12
619.637	95.12
619.844	96.12
620.051	79.12
620.258	92.12
620.466	85.12
620.673	81.12
620.88	83.12
621.087	72.12
621.294	89.12
621.501	84.12
621.708	106.12
621.915	94.12
622.122	84.12
622.329	90.12
622.536	91.12
622.743	96.12
622.95	108.12
623.157	78.12
623.364	84.12
623.571	81.12
623.778	89.12
623.985	91.12
624.192	99.12
624.399	88.12
624.606	97.12
624.812	93.12
625.019	79.12
625.226	76.12
625.433	94.12
625.639	82.12
625.846	97.12
626.053	82.12
626.259	75.12
626.466	89.12
626.673	73.12
626.879	88.12
627.086	105.12
627.293	86.12
627.499	96.12
627.706	94.12
627.912	79.12
628.119	75.12
628.325	88.12
628.532	90.12
628.738	97.12
628.945	99.12
629.151	97.12
629.357	90.12
629.564	74.12
629.77	88.12
629.976	79.12
630.183	79.12
630.389	73.12
630.595	81.12
630.802	77.12
631.008	88.12
631.214	68.12
631.42	91.12
631.627	87.12
631.833	75.12
632.039	73.12
632.245	95.12
632.451	90.12
632.657	81.12
632.863	85.12
633.069	82.12
633.275	82.12
633.481	69.12
633.688	57.12
633.893	80.12
634.099	70.12
634.305	81.12
634.511	81.12
634.717	80.12
634.923	75.12
635.129	90.12
635.335	72.12
635.541	88.12
635.747	76.12
635.952	90.12
636.158	74.12
636.364	87.12
636.57	83.12
636.775	85.12
636.981	94.12
637.187	85.12
637.392	81.12
637.598	82.12
637.804	83.12
638.009	87.12
638.215	81.12
638.421	74.12
638.626	91.12
638.832	105.12
639.037	78.12
639.243	73.12
639.448	75.12
639.654	92.12
639.859	78.12
640.065	74.12
640.27	102.12
640.475	82.12
640.681	95.12
640.886	91.12
641.091	89.12
641.297	80.12
641.502	89.12
641.707	90.12
641.913	86.12
642.118	83.12
642.323	80.12
642.528	85.12
642.733	85.12
642.939	94.12
643.144	109.12
643.349	75.12
643.554	86.12
643.759	72.12
643.964	73.12
644.169	80.12
644.374	84.12
644.579	83.12
644.784	95.12
644.989	95.12
645.194	95.12
645.399	94.12
645.604	85.12
645.809	89.12
646.014	79.12
646.219	80.12
646.423	91.12
646.628	105.12
646.833	91.12
647.038	95.12
647.243	80.12
647.447	85.12
647.652	88.12
647.857	73.12
648.062	86.12
648.266	74.12
648.471	82.12
648.676	90.12
648.88	81.12
649.085	93.12
649.289	90.12
649.494	97.12
649.698	90.12
649.903	74.12
650.107	88.12
650.312	86.12
650.516	63.12
650.721	83.12
650.925	83.12
651.13	103.12
651.334	92.12
651.539	74.12
651.743	74.12
651.947	93.12
652.152	81.12
652.356	97.12
652.56	73.12
652.764	74.12
652.969	79.12
653.173	85.12
653.377	98.12
653.581	89.12
653.785	76.12
653.99	88.12
654.194	84.12
654.398	85.12
654.602	76.12
654.806	93.12
655.01	76.12
655.214	85.12
655.418	86.12
655.622	87.12
655.826	67.12
656.03	82.12
656.234	81.12
656.438	79.12
656.642	77.12
656.846	81.12
657.049	82.12
657.253	81.12
657.457	71.12
657.661	99.12
657.865	89.12
658.068	78.12
658.272	83.12
658.476	97.12
658.68	91.12
658.883	81.12
659.087	87.12
659.291	80.12
659.494	84.12
659.698	74.12
659.901	91.12
660.105	79.12
660.309	91.12
660.512	66.12
660.716	87.12
660.919	89.12
661.123	77.12
661.326	88.12
661.53	72.12
661.733	70.12
661.936	88.12
662.14	76.12
662.343	87.12
662.546	82.12
662.75	74.12
662.953	88.12
663.156	84.12
663.36	81.12
663.563	77.12
663.766	75.12
663.969	79.12
664.173	89.12
664.376	79.12
664.579	92.12
664.782	79.12
664.985	80.12
665.188	82.12
665.391	81.12
665.594	73.12
665.797	81.12
666	71.12
666.203	71.12
666.406	84.12
666.609	81.12
666.812	87.12
667.015	78.12
667.218	75.12
667.421	83.12
667.624	88.12
667.827	77.12
668.03	100.12
668.232	76.12
668.435	89.12
668.638	82.12
668.841	81.12
669.043	66.12
669.246	81.12
669.449	76.12
669.651	80.12
669.854	78.12
670.057	98.12
670.259	74.12
670.462	71.12
670.665	69.12
670.867	90.12
671.07	80.12
671.272	87.12
671.475	81.12
671.677	78.12
671.88	97.12
672.082	88.12
672.284	95.12
672.487	79.12
672.689	84.12
672.892	77.12
