Data from Location5.07152019.Energy5.Lamp.07192019.3%Agarose_HRD10591_15-38-52-388.txt Node
Date: Fri Jul 19 15:38:52 EDT 2019
User: cochatt
Spectrometer: HR+D1059
Trigger mode: 1
Integration Time (sec): 1.000000E-1
Scans to average: 1
Electric dark correction enabled: true
Nonlinearity correction enabled: false
Boxcar width: 0
XAxis mode: Wavelengths
Number of Pixels in Spectrum: 2048
>>>>>Begin Spectral Data<<<<<
223.165	-11.5
223.4	-11.5
223.635	-11.5
223.869	-17.5
224.104	-19.5
224.338	-9.5
224.573	-14.5
224.808	-13.5
225.042	-2.5
225.277	-0.5
225.511	5.5
225.746	5.5
225.98	1.5
226.215	-1.5
226.449	14.5
226.683	23.5
226.918	20.5
227.152	19.5
227.387	41.5
227.621	43.5
227.856	44.5
228.09	41.5
228.324	44.5
228.559	62.5
228.793	62.5
229.027	57.5
229.262	63.5
229.496	59.5
229.73	61.5
229.964	61.5
230.199	80.5
230.433	73.5
230.667	80.5
230.901	79.5
231.136	88.5
231.37	85.5
231.604	81.5
231.838	78.5
232.072	78.5
232.306	69.5
232.541	80.5
232.775	75.5
233.009	74.5
233.243	77.5
233.477	84.5
233.711	60.5
233.945	78.5
234.179	83.5
234.413	69.5
234.647	81.5
234.881	85.5
235.115	77.5
235.349	84.5
235.583	72.5
235.817	62.5
236.051	78.5
236.285	85.5
236.519	70.5
236.753	90.5
236.987	84.5
237.221	70.5
237.455	71.5
237.689	69.5
237.922	78.5
238.156	81.5
238.39	83.5
238.624	69.5
238.858	72.5
239.091	72.5
239.325	71.5
239.559	76.5
239.793	72.5
240.027	89.5
240.26	80.5
240.494	67.5
240.728	60.5
240.961	78.5
241.195	75.5
241.429	73.5
241.662	73.5
241.896	72.5
242.13	79.5
242.363	68.5
242.597	78.5
242.83	82.5
243.064	80.5
243.298	67.5
243.531	72.5
243.765	75.5
243.998	77.5
244.232	81.5
244.465	82.5
244.699	92.5
244.932	83.5
245.166	84.5
245.399	82.5
245.633	80.5
245.866	82.5
246.099	84.5
246.333	94.5
246.566	87.5
246.8	87.5
247.033	87.5
247.266	64.5
247.5	86.5
247.733	89.5
247.966	86.5
248.2	59.5
248.433	76.5
248.666	65.5
248.899	82.5
249.133	66.5
249.366	71.5
249.599	76.5
249.832	74.5
250.066	81.5
250.299	76.5
250.532	78.5
250.765	85.5
250.998	74.5
251.231	92.5
251.465	71.5
251.698	83.5
251.931	72.5
252.164	70.5
252.397	78.5
252.63	79.5
252.863	85.5
253.096	87.5
253.329	81.5
253.562	89.5
253.795	84.5
254.028	85.5
254.261	81.5
254.494	82.5
254.727	85.5
254.96	80.5
255.193	84.5
255.426	89.5
255.659	74.5
255.892	76.5
256.124	84.5
256.357	79.5
256.59	67.5
256.823	88.5
257.056	87.5
257.289	76.5
257.521	68.5
257.754	68.5
257.987	62.5
258.22	97.5
258.452	71.5
258.685	62.5
258.918	76.5
259.151	82.5
259.383	85.5
259.616	82.5
259.849	67.5
260.081	79.5
260.314	93.5
260.547	78.5
260.779	74.5
261.012	93.5
261.244	91.5
261.477	87.5
261.71	79.5
261.942	78.5
262.175	75.5
262.407	92.5
262.64	71.5
262.872	79.5
263.105	81.5
263.337	100.5
263.57	82.5
263.802	72.5
264.035	82.5
264.267	78.5
264.499	70.5
264.732	78.5
264.964	80.5
265.197	90.5
265.429	88.5
265.661	90.5
265.894	71.5
266.126	83.5
266.358	80.5
266.591	85.5
266.823	78.5
267.055	78.5
267.287	86.5
267.52	91.5
267.752	76.5
267.984	85.5
268.216	101.5
268.448	95.5
268.681	95.5
268.913	81.5
269.145	94.5
269.377	77.5
269.609	82.5
269.841	83.5
270.073	84.5
270.306	83.5
270.538	87.5
270.77	79.5
271.002	73.5
271.234	81.5
271.466	79.5
271.698	88.5
271.93	85.5
272.162	89.5
272.394	93.5
272.626	78.5
272.858	87.5
273.09	83.5
273.322	82.5
273.553	78.5
273.785	79.5
274.017	83.5
274.249	83.5
274.481	78.5
274.713	70.5
274.945	80.5
275.176	89.5
275.408	80.5
275.64	71.5
275.872	78.5
276.104	71.5
276.335	93.5
276.567	81.5
276.799	62.5
277.031	83.5
277.262	84.5
277.494	85.5
277.726	74.5
277.957	81.5
278.189	84.5
278.421	78.5
278.652	72.5
278.884	92.5
279.115	88.5
279.347	95.5
279.579	84.5
279.81	72.5
280.042	85.5
280.273	84.5
280.505	83.5
280.736	80.5
280.968	78.5
281.199	72.5
281.431	74.5
281.662	89.5
281.894	83.5
282.125	67.5
282.356	78.5
282.588	84.5
282.819	75.5
283.051	83.5
283.282	80.5
283.513	86.5
283.745	86.5
283.976	72.5
284.207	81.5
284.439	81.5
284.67	97.5
284.901	90.5
285.132	78.5
285.364	76.5
285.595	87.5
285.826	81.5
286.057	78.5
286.288	79.5
286.52	79.5
286.751	72.5
286.982	87.5
287.213	67.5
287.444	84.5
287.675	86.5
287.906	83.5
288.138	87.5
288.369	89.5
288.6	79.5
288.831	97.5
289.062	79.5
289.293	82.5
289.524	85.5
289.755	86.5
289.986	92.5
290.217	92.5
290.448	87.5
290.679	76.5
290.91	86.5
291.141	83.5
291.371	83.5
291.602	84.5
291.833	73.5
292.064	80.5
292.295	72.5
292.526	76.5
292.757	78.5
292.987	83.5
293.218	58.5
293.449	92.5
293.68	102.5
293.91	93.5
294.141	87.5
294.372	73.5
294.603	75.5
294.833	89.5
295.064	83.5
295.295	74.5
295.525	94.5
295.756	86.5
295.987	97.5
296.217	76.5
296.448	73.5
296.679	77.5
296.909	92.5
297.14	88.5
297.37	80.5
297.601	82.5
297.831	78.5
298.062	82.5
298.292	73.5
298.523	80.5
298.753	90.5
298.984	74.5
299.214	79.5
299.445	81.5
299.675	74.5
299.905	79.5
300.136	90.5
300.366	88.5
300.597	90.5
300.827	82.5
301.057	71.5
301.288	83.5
301.518	78.5
301.748	84.5
301.979	89.5
302.209	84.5
302.439	75.5
302.669	90.5
302.9	79.5
303.13	99.5
303.36	73.5
303.59	91.5
303.82	92.5
304.051	86.5
304.281	84.5
304.511	84.5
304.741	72.5
304.971	88.5
305.201	81.5
305.431	86.5
305.661	85.5
305.891	81.5
306.121	87.5
306.352	76.5
306.582	68.5
306.812	86.5
307.042	78.5
307.272	96.5
307.502	78.5
307.731	85.5
307.961	100.5
308.191	74.5
308.421	77.5
308.651	75.5
308.881	80.5
309.111	87.5
309.341	74.5
309.571	74.5
309.8	97.5
310.03	82.5
310.26	75.5
310.49	76.5
310.72	84.5
310.949	76.5
311.179	76.5
311.409	97.5
311.639	74.5
311.868	68.5
312.098	84.5
312.328	88.5
312.557	98.5
312.787	62.5
313.017	74.5
313.246	85.5
313.476	78.5
313.706	92.5
313.935	76.5
314.165	81.5
314.394	78.5
314.624	77.5
314.853	71.5
315.083	90.5
315.312	63.5
315.542	83.5
315.771	77.5
316.001	83.5
316.23	88.5
316.46	75.5
316.689	81.5
316.919	78.5
317.148	85.5
317.377	80.5
317.607	73.5
317.836	90.5
318.065	73.5
318.295	72.5
318.524	89.5
318.753	85.5
318.983	93.5
319.212	101.5
319.441	84.5
319.67	88.5
319.9	71.5
320.129	80.5
320.358	86.5
320.587	86.5
320.816	82.5
321.046	87.5
321.275	95.5
321.504	84.5
321.733	85.5
321.962	74.5
322.191	96.5
322.42	79.5
322.649	87.5
322.878	92.5
323.108	74.5
323.337	73.5
323.566	88.5
323.795	92.5
324.024	79.5
324.253	86.5
324.482	78.5
324.71	73.5
324.939	81.5
325.168	92.5
325.397	71.5
325.626	68.5
325.855	90.5
326.084	82.5
326.313	84.5
326.542	85.5
326.77	79.5
326.999	78.5
327.228	65.5
327.457	76.5
327.686	84.5
327.914	78.5
328.143	92.5
328.372	99.5
328.6	80.5
328.829	86.5
329.058	97.5
329.287	94.5
329.515	82.5
329.744	84.5
329.972	79.5
330.201	65.5
330.43	84.5
330.658	86.5
330.887	91.5
331.115	88.5
331.344	80.5
331.572	73.5
331.801	86.5
332.03	82.5
332.258	90.5
332.486	83.5
332.715	85.5
332.943	89.5
333.172	72.5
333.4	81.5
333.629	79.5
333.857	97.5
334.085	72.5
334.314	88.5
334.542	80.5
334.771	89.5
334.999	84.5
335.227	79.5
335.455	81.5
335.684	94.5
335.912	74.5
336.14	73.5
336.369	82.5
336.597	80.5
336.825	71.5
337.053	89.5
337.281	79.5
337.51	78.5
337.738	86.5
337.966	73.5
338.194	86.5
338.422	75.5
338.65	86.5
338.878	87.5
339.106	79.5
339.334	96.5
339.562	79.5
339.79	95.5
340.018	87.5
340.246	73.5
340.474	73.5
340.702	72.5
340.93	76.5
341.158	86.5
341.386	82.5
341.614	89.5
341.842	73.5
342.07	92.5
342.298	93.5
342.526	77.5
342.754	82.5
342.981	78.5
343.209	79.5
343.437	87.5
343.665	76.5
343.893	76.5
344.12	82.5
344.348	85.5
344.576	91.5
344.804	78.5
345.031	74.5
345.259	75.5
345.487	89.5
345.714	82.5
345.942	82.5
346.17	80.5
346.397	77.5
346.625	94.5
346.853	77.5
347.08	76.5
347.308	86.5
347.535	84.5
347.763	95.5
347.99	81.5
348.218	89.5
348.445	77.5
348.673	81.5
348.9	68.5
349.128	85.5
349.355	75.5
349.583	80.5
349.81	79.5
350.037	80.5
350.265	77.5
350.492	83.5
350.72	83.5
350.947	86.5
351.174	81.5
351.402	82.5
351.629	94.5
351.856	78.5
352.083	72.5
352.311	87.5
352.538	77.5
352.765	82.5
352.992	80.5
353.22	87.5
353.447	78.5
353.674	87.5
353.901	81.5
354.128	80.5
354.355	72.5
354.583	76.5
354.81	87.5
355.037	88.5
355.264	85.5
355.491	82.5
355.718	85.5
355.945	76.5
356.172	89.5
356.399	87.5
356.626	67.5
356.853	87.5
357.08	88.5
357.307	93.5
357.534	88.5
357.761	72.5
357.988	72.5
358.215	78.5
358.441	88.5
358.668	84.5
358.895	82.5
359.122	85.5
359.349	80.5
359.576	72.5
359.802	84.5
360.029	81.5
360.256	79.5
360.483	74.5
360.709	68.5
360.936	76.5
361.163	84.5
361.39	84.5
361.616	85.5
361.843	92.5
362.07	70.5
362.296	76.5
362.523	85.5
362.749	88.5
362.976	72.5
363.203	105.5
363.429	89.5
363.656	79.5
363.882	95.5
364.109	92.5
364.335	81.5
364.562	81.5
364.788	82.5
365.015	73.5
365.241	69.5
365.468	80.5
365.694	81.5
365.92	90.5
366.147	74.5
366.373	82.5
366.599	79.5
366.826	74.5
367.052	72.5
367.278	85.5
367.505	84.5
367.731	100.5
367.957	78.5
368.184	74.5
368.41	80.5
368.636	79.5
368.862	92.5
369.089	93.5
369.315	73.5
369.541	102.5
369.767	88.5
369.993	82.5
370.219	84.5
370.445	76.5
370.672	74.5
370.898	86.5
371.124	73.5
371.35	82.5
371.576	77.5
371.802	81.5
372.028	80.5
372.254	82.5
372.48	75.5
372.706	84.5
372.932	83.5
373.158	71.5
373.384	79.5
373.61	79.5
373.835	70.5
374.061	85.5
374.287	79.5
374.513	82.5
374.739	98.5
374.965	92.5
375.191	85.5
375.416	85.5
375.642	90.5
375.868	95.5
376.094	85.5
376.319	70.5
376.545	89.5
376.771	95.5
376.997	84.5
377.222	70.5
377.448	70.5
377.674	71.5
377.899	73.5
378.125	73.5
378.35	81.5
378.576	95.5
378.802	77.5
379.027	83.5
379.253	89.5
379.478	78.5
379.704	86.5
379.929	84.5
380.155	73.5
380.38	81.5
380.606	69.5
380.831	71.5
381.057	84.5
381.282	64.5
381.507	69.5
381.733	85.5
381.958	100.5
382.184	81.5
382.409	85.5
382.634	72.5
382.86	75.5
383.085	94.5
383.31	90.5
383.535	89.5
383.761	92.5
383.986	82.5
384.211	79.5
384.436	82.5
384.662	82.5
384.887	73.5
385.112	100.5
385.337	71.5
385.562	63.5
385.787	85.5
386.013	87.5
386.238	84.5
386.463	77.5
386.688	98.5
386.913	87.5
387.138	74.5
387.363	84.5
387.588	79.5
387.813	81.5
388.038	84.5
388.263	72.5
388.488	70.5
388.713	74.5
388.938	80.5
389.163	76.5
389.387	76.5
389.612	91.5
389.837	81.5
390.062	85.5
390.287	92.5
390.512	95.5
390.736	83.5
390.961	78.5
391.186	101.5
391.411	70.5
391.636	86.5
391.86	90.5
392.085	76.5
392.31	82.5
392.534	70.5
392.759	83.5
392.984	80.5
393.208	85.5
393.433	82.5
393.658	75.5
393.882	89.5
394.107	86.5
394.331	83.5
394.556	82.5
394.78	78.5
395.005	84.5
395.229	78.5
395.454	87.5
395.678	78.5
395.903	70.5
396.127	84.5
396.352	73.5
396.576	79.5
396.801	79.5
397.025	76.5
397.249	92.5
397.474	88.5
397.698	73.5
397.922	70.5
398.147	87.5
398.371	86.5
398.595	89.5
398.82	87.5
399.044	80.5
399.268	74.5
399.492	84.5
399.717	82.5
399.941	72.5
400.165	90.5
400.389	90.5
400.613	70.5
400.837	89.5
401.062	103.5
401.286	90.5
401.51	96.5
401.734	81.5
401.958	74.5
402.182	71.5
402.406	92.5
402.63	76.5
402.854	74.5
403.078	78.5
403.302	65.5
403.526	91.5
403.75	100.5
403.974	81.5
404.198	74.5
404.422	84.5
404.645	90.5
404.869	89.5
405.093	85.5
405.317	99.5
405.541	92.5
405.765	90.5
405.988	85.5
406.212	89.5
406.436	100.5
406.66	79.5
406.883	78.5
407.107	85.5
407.331	88.5
407.555	74.5
407.778	95.5
408.002	87.5
408.226	88.5
408.449	83.5
408.673	82.5
408.896	96.5
409.12	92.5
409.344	86.5
409.567	81.5
409.791	81.5
410.014	92.5
410.238	91.5
410.461	74.5
410.685	80.5
410.908	83.5
411.132	83.5
411.355	100.5
411.578	76.5
411.802	86.5
412.025	96.5
412.249	102.5
412.472	84.5
412.695	74.5
412.919	88.5
413.142	85.5
413.365	75.5
413.589	85.5
413.812	92.5
414.035	97.5
414.258	97.5
414.482	86.5
414.705	78.5
414.928	99.5
415.151	80.5
415.374	80.5
415.597	87.5
415.821	84.5
416.044	87.5
416.267	86.5
416.49	98.5
416.713	85.5
416.936	93.5
417.159	84.5
417.382	97.5
417.605	79.5
417.828	86.5
418.051	88.5
418.274	96.5
418.497	92.5
418.72	94.5
418.943	94.5
419.166	81.5
419.389	68.5
419.611	92.5
419.834	90.5
420.057	104.5
420.28	95.5
420.503	97.5
420.726	76.5
420.948	90.5
421.171	84.5
421.394	90.5
421.617	86.5
421.839	97.5
422.062	88.5
422.285	107.5
422.507	92.5
422.73	84.5
422.953	86.5
423.175	87.5
423.398	75.5
423.621	90.5
423.843	92.5
424.066	96.5
424.288	89.5
424.511	89.5
424.733	95.5
424.956	107.5
425.178	99.5
425.401	93.5
425.623	102.5
425.846	103.5
426.068	90.5
426.291	76.5
426.513	75.5
426.735	85.5
426.958	85.5
427.18	95.5
427.402	96.5
427.625	102.5
427.847	99.5
428.069	82.5
428.292	89.5
428.514	79.5
428.736	85.5
428.958	98.5
429.181	79.5
429.403	88.5
429.625	81.5
429.847	96.5
430.069	89.5
430.292	80.5
430.514	77.5
430.736	88.5
430.958	96.5
431.18	90.5
431.402	92.5
431.624	92.5
431.846	97.5
432.068	90.5
432.29	79.5
432.512	76.5
432.734	84.5
432.956	88.5
433.178	87.5
433.4	84.5
433.622	105.5
433.844	98.5
434.066	96.5
434.287	93.5
434.509	83.5
434.731	89.5
434.953	80.5
435.175	83.5
435.397	96.5
435.618	96.5
435.84	97.5
436.062	85.5
436.284	108.5
436.505	91.5
436.727	97.5
436.949	89.5
437.17	89.5
437.392	87.5
437.614	89.5
437.835	89.5
438.057	82.5
438.278	89.5
438.5	98.5
438.721	98.5
438.943	104.5
439.165	85.5
439.386	102.5
439.608	90.5
439.829	89.5
440.05	78.5
440.272	92.5
440.493	82.5
440.715	93.5
440.936	93.5
441.158	99.5
441.379	80.5
441.6	88.5
441.822	106.5
442.043	83.5
442.264	98.5
442.486	94.5
442.707	84.5
442.928	91.5
443.149	79.5
443.371	94.5
443.592	83.5
443.813	85.5
444.034	80.5
444.255	88.5
444.476	82.5
444.698	98.5
444.919	89.5
445.14	197.5
445.361	154.5
445.582	105.5
445.803	90.5
446.024	105.5
446.245	89.5
446.466	97.5
446.687	94.5
446.908	94.5
447.129	102.5
447.35	104.5
447.571	89.5
447.792	86.5
448.013	91.5
448.234	90.5
448.455	86.5
448.675	102.5
448.896	83.5
449.117	78.5
449.338	93.5
449.559	97.5
449.779	109.5
450	93.5
450.221	77.5
450.442	92.5
450.662	80.5
450.883	81.5
451.104	103.5
451.324	90.5
451.545	93.5
451.766	88.5
451.986	85.5
452.207	82.5
452.428	93.5
452.648	97.5
452.869	79.5
453.089	87.5
453.31	103.5
453.53	90.5
453.751	87.5
453.971	87.5
454.192	88.5
454.412	93.5
454.633	92.5
454.853	95.5
455.073	82.5
455.294	90.5
455.514	90.5
455.734	83.5
455.955	89.5
456.175	88.5
456.395	82.5
456.616	88.5
456.836	87.5
457.056	97.5
457.276	86.5
457.497	90.5
457.717	88.5
457.937	86.5
458.157	87.5
458.377	82.5
458.598	82.5
458.818	72.5
459.038	67.5
459.258	60.5
459.478	86.5
459.698	90.5
459.918	95.5
460.138	89.5
460.358	72.5
460.578	101.5
460.798	79.5
461.018	85.5
461.238	94.5
461.458	91.5
461.678	82.5
461.898	96.5
462.118	89.5
462.338	90.5
462.558	88.5
462.777	98.5
462.997	68.5
463.217	87.5
463.437	74.5
463.657	90.5
463.876	73.5
464.096	88.5
464.316	78.5
464.536	84.5
464.755	92.5
464.975	91.5
465.195	61.5
465.414	83.5
465.634	78.5
465.854	95.5
466.073	84.5
466.293	87.5
466.512	98.5
466.732	91.5
466.951	94.5
467.171	106.5
467.391	93.5
467.61	94.5
467.829	88.5
468.049	93.5
468.268	86.5
468.488	93.5
468.707	81.5
468.927	94.5
469.146	88.5
469.365	87.5
469.585	89.5
469.804	103.5
470.023	93.5
470.243	98.5
470.462	92.5
470.681	106.5
470.901	102.5
471.12	91.5
471.339	103.5
471.558	100.5
471.777	85.5
471.997	86.5
472.216	70.5
472.435	90.5
472.654	90.5
472.873	97.5
473.092	108.5
473.311	99.5
473.53	100.5
473.749	93.5
473.968	88.5
474.187	76.5
474.406	85.5
474.625	78.5
474.844	80.5
475.063	105.5
475.282	91.5
475.501	73.5
475.72	89.5
475.939	87.5
476.158	108.5
476.377	104.5
476.596	75.5
476.814	99.5
477.033	80.5
477.252	82.5
477.471	86.5
477.69	87.5
477.908	97.5
478.127	88.5
478.346	95.5
478.564	96.5
478.783	93.5
479.002	94.5
479.22	77.5
479.439	101.5
479.658	92.5
479.876	100.5
480.095	89.5
480.313	100.5
480.532	88.5
480.751	85.5
480.969	78.5
481.188	72.5
481.406	75.5
481.624	74.5
481.843	74.5
482.061	83.5
482.28	78.5
482.498	87.5
482.717	78.5
482.935	84.5
483.153	90.5
483.372	81.5
483.59	110.5
483.808	100.5
484.027	109.5
484.245	86.5
484.463	86.5
484.681	92.5
484.9	95.5
485.118	98.5
485.336	97.5
485.554	106.5
485.772	87.5
485.99	97.5
486.209	80.5
486.427	93.5
486.645	98.5
486.863	92.5
487.081	104.5
487.299	94.5
487.517	90.5
487.735	89.5
487.953	93.5
488.171	102.5
488.389	97.5
488.607	95.5
488.825	83.5
489.043	87.5
489.261	82.5
489.479	92.5
489.696	93.5
489.914	95.5
490.132	104.5
490.35	104.5
490.568	101.5
490.786	125.5
491.003	101.5
491.221	99.5
491.439	119.5
491.657	101.5
491.874	115.5
492.092	120.5
492.31	118.5
492.527	104.5
492.745	108.5
492.963	94.5
493.18	124.5
493.398	121.5
493.615	103.5
493.833	98.5
494.05	94.5
494.268	113.5
494.485	107.5
494.703	105.5
494.92	105.5
495.138	97.5
495.355	93.5
495.573	114.5
495.79	110.5
496.008	103.5
496.225	99.5
496.442	116.5
496.66	106.5
496.877	80.5
497.094	101.5
497.312	101.5
497.529	89.5
497.746	102.5
497.963	84.5
498.181	99.5
498.398	97.5
498.615	81.5
498.832	86.5
499.049	95.5
499.267	88.5
499.484	76.5
499.701	84.5
499.918	84.5
500.135	90.5
500.352	85.5
500.569	90.5
500.786	109.5
501.003	95.5
501.22	94.5
501.437	102.5
501.654	86.5
501.871	90.5
502.088	89.5
502.305	89.5
502.522	85.5
502.739	99.5
502.956	92.5
503.172	87.5
503.389	101.5
503.606	85.5
503.823	89.5
504.04	88.5
504.256	87.5
504.473	86.5
504.69	92.5
504.907	97.5
505.123	94.5
505.34	85.5
505.557	95.5
505.773	97.5
505.99	85.5
506.207	90.5
506.423	81.5
506.64	87.5
506.856	83.5
507.073	100.5
507.289	101.5
507.506	87.5
507.722	96.5
507.939	79.5
508.155	93.5
508.372	86.5
508.588	108.5
508.805	92.5
509.021	90.5
509.238	74.5
509.454	81.5
509.67	95.5
509.887	88.5
510.103	71.5
510.319	81.5
510.536	89.5
510.752	77.5
510.968	88.5
511.184	66.5
511.401	85.5
511.617	84.5
511.833	86.5
512.049	74.5
512.265	74.5
512.481	81.5
512.698	84.5
512.914	76.5
513.13	77.5
513.346	76.5
513.562	82.5
513.778	80.5
513.994	92.5
514.21	84.5
514.426	85.5
514.642	84.5
514.858	93.5
515.074	75.5
515.29	81.5
515.506	72.5
515.721	89.5
515.937	86.5
516.153	89.5
516.369	76.5
516.585	78.5
516.801	89.5
517.016	94.5
517.232	86.5
517.448	90.5
517.664	84.5
517.879	93.5
518.095	71.5
518.311	89.5
518.527	85.5
518.742	101.5
518.958	85.5
519.173	77.5
519.389	79.5
519.605	84.5
519.82	93.5
520.036	98.5
520.251	92.5
520.467	89.5
520.682	88.5
520.898	78.5
521.113	90.5
521.329	73.5
521.544	96.5
521.76	78.5
521.975	88.5
522.19	80.5
522.406	86.5
522.621	86.5
522.836	92.5
523.052	86.5
523.267	88.5
523.482	81.5
523.698	80.5
523.913	90.5
524.128	80.5
524.343	78.5
524.559	97.5
524.774	94.5
524.989	94.5
525.204	104.5
525.419	84.5
525.634	92.5
525.849	102.5
526.064	79.5
526.28	99.5
526.495	88.5
526.71	74.5
526.925	76.5
527.14	93.5
527.355	73.5
527.57	82.5
527.785	61.5
527.999	80.5
528.214	88.5
528.429	84.5
528.644	95.5
528.859	77.5
529.074	86.5
529.289	102.5
529.503	95.5
529.718	95.5
529.933	82.5
530.148	101.5
530.363	86.5
530.577	81.5
530.792	81.5
531.007	85.5
531.221	82.5
531.436	69.5
531.651	89.5
531.865	85.5
532.08	92.5
532.295	87.5
532.509	77.5
532.724	73.5
532.938	83.5
533.153	88.5
533.367	97.5
533.582	104.5
533.796	88.5
534.011	84.5
534.225	87.5
534.44	90.5
534.654	95.5
534.868	93.5
535.083	78.5
535.297	69.5
535.511	90.5
535.726	86.5
535.94	86.5
536.154	84.5
536.369	90.5
536.583	89.5
536.797	86.5
537.011	101.5
537.225	72.5
537.44	90.5
537.654	73.5
537.868	79.5
538.082	78.5
538.296	77.5
538.51	87.5
538.724	107.5
538.938	88.5
539.153	89.5
539.367	93.5
539.581	103.5
539.795	86.5
540.009	96.5
540.222	95.5
540.436	89.5
540.65	96.5
540.864	97.5
541.078	101.5
541.292	100.5
541.506	101.5
541.72	104.5
541.934	120.5
542.147	112.5
542.361	111.5
542.575	91.5
542.789	89.5
543.002	85.5
543.216	89.5
543.43	92.5
543.644	103.5
543.857	92.5
544.071	94.5
544.285	105.5
544.498	101.5
544.712	100.5
544.925	104.5
545.139	101.5
545.352	91.5
545.566	110.5
545.779	103.5
545.993	108.5
546.206	101.5
546.42	106.5
546.633	114.5
546.847	112.5
547.06	101.5
547.274	98.5
547.487	122.5
547.7	119.5
547.914	94.5
548.127	108.5
548.34	101.5
548.554	102.5
548.767	94.5
548.98	102.5
549.193	95.5
549.407	109.5
549.62	111.5
549.833	103.5
550.046	97.5
550.259	113.5
550.473	107.5
550.686	108.5
550.899	86.5
551.112	92.5
551.325	94.5
551.538	96.5
551.751	101.5
551.964	92.5
552.177	78.5
552.39	102.5
552.603	116.5
552.816	100.5
553.029	95.5
553.242	100.5
553.455	118.5
553.667	104.5
553.88	100.5
554.093	100.5
554.306	103.5
554.519	102.5
554.732	105.5
554.944	89.5
555.157	98.5
555.37	103.5
555.583	103.5
555.795	108.5
556.008	100.5
556.221	92.5
556.433	87.5
556.646	89.5
556.859	108.5
557.071	92.5
557.284	85.5
557.496	87.5
557.709	90.5
557.921	96.5
558.134	117.5
558.346	95.5
558.559	82.5
558.771	118.5
558.984	92.5
559.196	94.5
559.409	97.5
559.621	96.5
559.833	84.5
560.046	98.5
560.258	90.5
560.47	83.5
560.683	94.5
560.895	92.5
561.107	90.5
561.32	98.5
561.532	100.5
561.744	105.5
561.956	106.5
562.168	97.5
562.381	99.5
562.593	78.5
562.805	89.5
563.017	97.5
563.229	95.5
563.441	100.5
563.653	84.5
563.865	89.5
564.077	89.5
564.289	87.5
564.501	94.5
564.713	110.5
564.925	96.5
565.137	100.5
565.349	100.5
565.561	95.5
565.773	98.5
565.985	88.5
566.197	91.5
566.408	89.5
566.62	84.5
566.832	103.5
567.044	93.5
567.255	84.5
567.467	98.5
567.679	86.5
567.891	86.5
568.102	80.5
568.314	80.5
568.526	68.5
568.737	78.5
568.949	85.5
569.161	83.5
569.372	85.5
569.584	77.5
569.795	99.5
570.007	77.5
570.218	75.5
570.43	65.5
570.641	91.5
570.853	78.5
571.064	74.5
571.276	79.5
571.487	87.5
571.698	94.5
571.91	78.5
572.121	77.5
572.333	81.5
572.544	92.5
572.755	86.5
572.966	72.5
573.178	77.5
573.389	84.5
573.6	69.5
573.811	84.5
574.023	96.5
574.234	77.5
574.445	78.5
574.656	89.5
574.867	87.5
575.078	88.5
575.289	80.5
575.501	82.5
575.712	75.5
575.923	90.5
576.134	75.5
576.345	88.5
576.556	85.5
576.767	78.5
576.978	95.5
577.188	96.5
577.399	98.5
577.61	84.5
577.821	88.5
578.032	86.5
578.243	89.5
578.454	103.5
578.665	81.5
578.875	89.5
579.086	82.5
579.297	89.5
579.508	83.5
579.718	78.5
579.929	73.5
580.14	84.5
580.35	77.5
580.561	78.5
580.772	90.5
580.982	83.5
581.193	96.5
581.403	77.5
581.614	78.5
581.825	82.5
582.035	81.5
582.246	81.5
582.456	87.5
582.667	88.5
582.877	68.5
583.087	92.5
583.298	71.5
583.508	96.5
583.719	95.5
583.929	82.5
584.139	90.5
584.35	80.5
584.56	92.5
584.77	87.5
584.981	88.5
585.191	78.5
585.401	82.5
585.611	78.5
585.821	81.5
586.032	73.5
586.242	80.5
586.452	86.5
586.662	71.5
586.872	74.5
587.082	93.5
587.292	81.5
587.502	83.5
587.713	88.5
587.923	92.5
588.133	76.5
588.343	93.5
588.553	80.5
588.762	89.5
588.972	75.5
589.182	65.5
589.392	82.5
589.602	90.5
589.812	83.5
590.022	78.5
590.232	71.5
590.441	78.5
590.651	74.5
590.861	81.5
591.071	78.5
591.281	85.5
591.49	77.5
591.7	80.5
591.91	80.5
592.119	74.5
592.329	74.5
592.539	74.5
592.748	81.5
592.958	83.5
593.167	83.5
593.377	89.5
593.587	100.5
593.796	89.5
594.006	97.5
594.215	83.5
594.424	78.5
594.634	83.5
594.843	88.5
595.053	81.5
595.262	87.5
595.472	88.5
595.681	80.5
595.89	73.5
596.1	97.5
596.309	94.5
596.518	93.5
596.727	86.5
596.937	83.5
597.146	86.5
597.355	71.5
597.564	82.5
597.774	83.5
597.983	86.5
598.192	88.5
598.401	78.5
598.61	86.5
598.819	71.5
599.028	81.5
599.237	81.5
599.446	94.5
599.655	88.5
599.864	101.5
600.073	80.5
600.282	78.5
600.491	82.5
600.7	87.5
600.909	84.5
601.118	93.5
601.327	88.5
601.536	89.5
601.745	92.5
601.953	93.5
602.162	94.5
602.371	92.5
602.58	78.5
602.789	62.5
602.997	93.5
603.206	86.5
603.415	90.5
603.623	71.5
603.832	98.5
604.041	83.5
604.249	89.5
604.458	80.5
604.666	81.5
604.875	96.5
605.084	97.5
605.292	89.5
605.501	97.5
605.709	80.5
605.918	96.5
606.126	97.5
606.334	85.5
606.543	89.5
606.751	93.5
606.96	78.5
607.168	82.5
607.376	106.5
607.585	105.5
607.793	89.5
608.001	92.5
608.21	78.5
608.418	82.5
608.626	90.5
608.834	93.5
609.043	91.5
609.251	90.5
609.459	99.5
609.667	91.5
609.875	98.5
610.083	85.5
610.291	94.5
610.499	81.5
610.707	111.5
610.916	94.5
611.124	98.5
611.332	81.5
611.54	87.5
611.748	94.5
611.955	89.5
612.163	89.5
612.371	86.5
612.579	93.5
612.787	98.5
612.995	97.5
613.203	96.5
613.411	99.5
613.618	99.5
613.826	77.5
614.034	97.5
614.242	114.5
614.449	102.5
614.657	92.5
614.865	93.5
615.072	105.5
615.28	101.5
615.488	88.5
615.695	88.5
615.903	87.5
616.111	112.5
616.318	88.5
616.526	89.5
616.733	84.5
616.941	87.5
617.148	91.5
617.356	87.5
617.563	88.5
617.771	88.5
617.978	103.5
618.185	85.5
618.393	91.5
618.6	96.5
618.807	103.5
619.015	88.5
619.222	88.5
619.429	86.5
619.637	85.5
619.844	95.5
620.051	82.5
620.258	79.5
620.466	98.5
620.673	103.5
620.88	90.5
621.087	85.5
621.294	86.5
621.501	76.5
621.708	92.5
621.915	88.5
622.122	81.5
622.329	95.5
622.536	85.5
622.743	70.5
622.95	92.5
623.157	96.5
623.364	70.5
623.571	89.5
623.778	94.5
623.985	86.5
624.192	93.5
624.399	99.5
624.606	97.5
624.812	83.5
625.019	95.5
625.226	93.5
625.433	82.5
625.639	88.5
625.846	99.5
626.053	87.5
626.259	74.5
626.466	88.5
626.673	84.5
626.879	78.5
627.086	89.5
627.293	81.5
627.499	94.5
627.706	79.5
627.912	83.5
628.119	88.5
628.325	79.5
628.532	86.5
628.738	86.5
628.945	95.5
629.151	81.5
629.357	87.5
629.564	90.5
629.77	86.5
629.976	90.5
630.183	73.5
630.389	86.5
630.595	78.5
630.802	70.5
631.008	91.5
631.214	94.5
631.42	94.5
631.627	97.5
631.833	89.5
632.039	83.5
632.245	85.5
632.451	85.5
632.657	93.5
632.863	84.5
633.069	89.5
633.275	91.5
633.481	69.5
633.688	84.5
633.893	77.5
634.099	86.5
634.305	68.5
634.511	87.5
634.717	87.5
634.923	103.5
635.129	85.5
635.335	73.5
635.541	95.5
635.747	100.5
635.952	82.5
636.158	89.5
636.364	83.5
636.57	96.5
636.775	82.5
636.981	88.5
637.187	99.5
637.392	100.5
637.598	69.5
637.804	88.5
638.009	93.5
638.215	84.5
638.421	74.5
638.626	92.5
638.832	80.5
639.037	69.5
639.243	88.5
639.448	88.5
639.654	92.5
639.859	72.5
640.065	72.5
640.27	97.5
640.475	82.5
640.681	97.5
640.886	88.5
641.091	79.5
641.297	87.5
641.502	78.5
641.707	93.5
641.913	90.5
642.118	67.5
642.323	89.5
642.528	87.5
642.733	94.5
642.939	96.5
643.144	86.5
643.349	94.5
643.554	93.5
643.759	87.5
643.964	77.5
644.169	92.5
644.374	98.5
644.579	80.5
644.784	84.5
644.989	97.5
645.194	98.5
645.399	97.5
645.604	94.5
645.809	88.5
646.014	84.5
646.219	80.5
646.423	74.5
646.628	86.5
646.833	93.5
647.038	109.5
647.243	84.5
647.447	92.5
647.652	88.5
647.857	80.5
648.062	89.5
648.266	76.5
648.471	84.5
648.676	88.5
648.88	88.5
649.085	84.5
649.289	92.5
649.494	77.5
649.698	95.5
649.903	83.5
650.107	84.5
650.312	81.5
650.516	77.5
650.721	92.5
650.925	78.5
651.13	86.5
651.334	88.5
651.539	99.5
651.743	88.5
651.947	69.5
652.152	85.5
652.356	80.5
652.56	65.5
652.764	84.5
652.969	93.5
653.173	78.5
653.377	89.5
653.581	77.5
653.785	100.5
653.99	90.5
654.194	83.5
654.398	85.5
654.602	73.5
654.806	80.5
655.01	95.5
655.214	103.5
655.418	81.5
655.622	86.5
655.826	68.5
656.03	79.5
656.234	81.5
656.438	62.5
656.642	87.5
656.846	73.5
657.049	84.5
657.253	84.5
657.457	84.5
657.661	82.5
657.865	76.5
658.068	82.5
658.272	92.5
658.476	84.5
658.68	86.5
658.883	92.5
659.087	69.5
659.291	85.5
659.494	77.5
659.698	99.5
659.901	86.5
660.105	80.5
660.309	89.5
660.512	76.5
660.716	67.5
660.919	94.5
661.123	94.5
661.326	83.5
661.53	87.5
661.733	80.5
661.936	80.5
662.14	89.5
662.343	60.5
662.546	80.5
662.75	89.5
662.953	91.5
663.156	88.5
663.36	70.5
663.563	75.5
663.766	78.5
663.969	93.5
664.173	68.5
664.376	85.5
664.579	84.5
664.782	77.5
664.985	94.5
665.188	74.5
665.391	86.5
665.594	81.5
665.797	77.5
666	95.5
666.203	78.5
666.406	76.5
666.609	75.5
666.812	78.5
667.015	81.5
667.218	77.5
667.421	89.5
667.624	71.5
667.827	80.5
668.03	83.5
668.232	79.5
668.435	79.5
668.638	79.5
668.841	85.5
669.043	88.5
669.246	89.5
669.449	70.5
669.651	93.5
669.854	68.5
670.057	79.5
670.259	84.5
670.462	74.5
670.665	83.5
670.867	88.5
671.07	102.5
671.272	98.5
671.475	81.5
671.677	84.5
671.88	80.5
672.082	70.5
672.284	78.5
672.487	83.5
672.689	83.5
672.892	66.5
