Data from Location5.07152019.Energy5.Lamp.07192019.3%Agarose_HRD10591_16-04-44-629.txt Node
Date: Fri Jul 19 16:04:44 EDT 2019
User: cochatt
Spectrometer: HR+D1059
Trigger mode: 1
Integration Time (sec): 1.000000E-1
Scans to average: 1
Electric dark correction enabled: true
Nonlinearity correction enabled: false
Boxcar width: 0
XAxis mode: Wavelengths
Number of Pixels in Spectrum: 2048
>>>>>Begin Spectral Data<<<<<
223.165	-17.69
223.4	-17.69
223.635	-17.69
223.869	-16.69
224.104	-15.69
224.338	-16.69
224.573	-9.69
224.808	-4.69
225.042	-15.69
225.277	-3.69
225.511	1.31
225.746	0.31
225.98	2.31
226.215	5.31
226.449	23.31
226.683	8.31
226.918	27.31
227.152	32.31
227.387	47.31
227.621	31.31
227.856	32.31
228.09	44.31
228.324	52.31
228.559	49.31
228.793	57.31
229.027	75.31
229.262	59.31
229.496	54.31
229.73	77.31
229.964	82.31
230.199	69.31
230.433	78.31
230.667	79.31
230.901	82.31
231.136	82.31
231.37	80.31
231.604	88.31
231.838	76.31
232.072	81.31
232.306	87.31
232.541	76.31
232.775	87.31
233.009	87.31
233.243	74.31
233.477	90.31
233.711	82.31
233.945	77.31
234.179	83.31
234.413	72.31
234.647	81.31
234.881	64.31
235.115	86.31
235.349	63.31
235.583	83.31
235.817	76.31
236.051	82.31
236.285	69.31
236.519	93.31
236.753	82.31
236.987	95.31
237.221	79.31
237.455	73.31
237.689	74.31
237.922	75.31
238.156	72.31
238.39	72.31
238.624	81.31
238.858	81.31
239.091	84.31
239.325	93.31
239.559	74.31
239.793	87.31
240.027	80.31
240.26	77.31
240.494	84.31
240.728	91.31
240.961	72.31
241.195	81.31
241.429	92.31
241.662	75.31
241.896	94.31
242.13	77.31
242.363	91.31
242.597	73.31
242.83	81.31
243.064	68.31
243.298	76.31
243.531	81.31
243.765	83.31
243.998	67.31
244.232	76.31
244.465	88.31
244.699	91.31
244.932	77.31
245.166	80.31
245.399	81.31
245.633	81.31
245.866	77.31
246.099	77.31
246.333	75.31
246.566	75.31
246.8	75.31
247.033	79.31
247.266	85.31
247.5	86.31
247.733	79.31
247.966	73.31
248.2	68.31
248.433	82.31
248.666	73.31
248.899	87.31
249.133	79.31
249.366	91.31
249.599	80.31
249.832	85.31
250.066	96.31
250.299	80.31
250.532	74.31
250.765	81.31
250.998	86.31
251.231	80.31
251.465	87.31
251.698	64.31
251.931	80.31
252.164	89.31
252.397	75.31
252.63	82.31
252.863	82.31
253.096	76.31
253.329	88.31
253.562	70.31
253.795	89.31
254.028	95.31
254.261	72.31
254.494	87.31
254.727	95.31
254.96	84.31
255.193	80.31
255.426	83.31
255.659	82.31
255.892	94.31
256.124	98.31
256.357	76.31
256.59	87.31
256.823	90.31
257.056	84.31
257.289	87.31
257.521	88.31
257.754	84.31
257.987	74.31
258.22	85.31
258.452	95.31
258.685	92.31
258.918	84.31
259.151	80.31
259.383	91.31
259.616	89.31
259.849	75.31
260.081	63.31
260.314	74.31
260.547	79.31
260.779	73.31
261.012	71.31
261.244	89.31
261.477	91.31
261.71	92.31
261.942	94.31
262.175	88.31
262.407	92.31
262.64	96.31
262.872	84.31
263.105	73.31
263.337	78.31
263.57	92.31
263.802	87.31
264.035	93.31
264.267	85.31
264.499	91.31
264.732	95.31
264.964	78.31
265.197	84.31
265.429	83.31
265.661	95.31
265.894	88.31
266.126	97.31
266.358	76.31
266.591	83.31
266.823	77.31
267.055	85.31
267.287	87.31
267.52	87.31
267.752	95.31
267.984	83.31
268.216	78.31
268.448	83.31
268.681	81.31
268.913	82.31
269.145	75.31
269.377	83.31
269.609	86.31
269.841	89.31
270.073	79.31
270.306	82.31
270.538	89.31
270.77	87.31
271.002	79.31
271.234	81.31
271.466	95.31
271.698	89.31
271.93	80.31
272.162	86.31
272.394	85.31
272.626	84.31
272.858	80.31
273.09	78.31
273.322	86.31
273.553	91.31
273.785	85.31
274.017	89.31
274.249	79.31
274.481	67.31
274.713	85.31
274.945	83.31
275.176	79.31
275.408	85.31
275.64	81.31
275.872	91.31
276.104	83.31
276.335	90.31
276.567	80.31
276.799	83.31
277.031	90.31
277.262	80.31
277.494	84.31
277.726	86.31
277.957	85.31
278.189	80.31
278.421	78.31
278.652	90.31
278.884	86.31
279.115	89.31
279.347	80.31
279.579	77.31
279.81	85.31
280.042	91.31
280.273	83.31
280.505	80.31
280.736	94.31
280.968	85.31
281.199	90.31
281.431	84.31
281.662	88.31
281.894	96.31
282.125	81.31
282.356	101.31
282.588	103.31
282.819	82.31
283.051	86.31
283.282	84.31
283.513	80.31
283.745	87.31
283.976	104.31
284.207	83.31
284.439	94.31
284.67	83.31
284.901	96.31
285.132	84.31
285.364	81.31
285.595	84.31
285.826	100.31
286.057	77.31
286.288	85.31
286.52	80.31
286.751	92.31
286.982	71.31
287.213	94.31
287.444	95.31
287.675	91.31
287.906	98.31
288.138	97.31
288.369	92.31
288.6	105.31
288.831	94.31
289.062	89.31
289.293	91.31
289.524	84.31
289.755	84.31
289.986	92.31
290.217	96.31
290.448	85.31
290.679	90.31
290.91	81.31
291.141	85.31
291.371	100.31
291.602	93.31
291.833	89.31
292.064	92.31
292.295	86.31
292.526	85.31
292.757	89.31
292.987	83.31
293.218	96.31
293.449	85.31
293.68	98.31
293.91	93.31
294.141	88.31
294.372	102.31
294.603	99.31
294.833	83.31
295.064	93.31
295.295	94.31
295.525	78.31
295.756	89.31
295.987	104.31
296.217	91.31
296.448	96.31
296.679	104.31
296.909	86.31
297.14	96.31
297.37	94.31
297.601	84.31
297.831	87.31
298.062	87.31
298.292	89.31
298.523	95.31
298.753	100.31
298.984	78.31
299.214	95.31
299.445	104.31
299.675	86.31
299.905	90.31
300.136	91.31
300.366	80.31
300.597	106.31
300.827	89.31
301.057	88.31
301.288	100.31
301.518	88.31
301.748	91.31
301.979	82.31
302.209	82.31
302.439	92.31
302.669	96.31
302.9	93.31
303.13	104.31
303.36	96.31
303.59	80.31
303.82	103.31
304.051	84.31
304.281	93.31
304.511	100.31
304.741	81.31
304.971	91.31
305.201	90.31
305.431	101.31
305.661	86.31
305.891	79.31
306.121	83.31
306.352	104.31
306.582	88.31
306.812	76.31
307.042	81.31
307.272	96.31
307.502	107.31
307.731	91.31
307.961	95.31
308.191	76.31
308.421	83.31
308.651	86.31
308.881	77.31
309.111	95.31
309.341	85.31
309.571	82.31
309.8	93.31
310.03	77.31
310.26	82.31
310.49	86.31
310.72	69.31
310.949	101.31
311.179	91.31
311.409	84.31
311.639	95.31
311.868	79.31
312.098	98.31
312.328	92.31
312.557	85.31
312.787	93.31
313.017	78.31
313.246	85.31
313.476	90.31
313.706	100.31
313.935	82.31
314.165	83.31
314.394	96.31
314.624	77.31
314.853	88.31
315.083	79.31
315.312	93.31
315.542	92.31
315.771	79.31
316.001	69.31
316.23	86.31
316.46	93.31
316.689	80.31
316.919	83.31
317.148	94.31
317.377	65.31
317.607	105.31
317.836	96.31
318.065	97.31
318.295	94.31
318.524	83.31
318.753	90.31
318.983	93.31
319.212	95.31
319.441	77.31
319.67	90.31
319.9	96.31
320.129	86.31
320.358	104.31
320.587	98.31
320.816	95.31
321.046	95.31
321.275	92.31
321.504	94.31
321.733	74.31
321.962	84.31
322.191	91.31
322.42	94.31
322.649	90.31
322.878	99.31
323.108	107.31
323.337	92.31
323.566	84.31
323.795	95.31
324.024	105.31
324.253	93.31
324.482	87.31
324.71	75.31
324.939	90.31
325.168	91.31
325.397	87.31
325.626	100.31
325.855	92.31
326.084	96.31
326.313	111.31
326.542	85.31
326.77	88.31
326.999	88.31
327.228	97.31
327.457	94.31
327.686	98.31
327.914	89.31
328.143	95.31
328.372	99.31
328.6	86.31
328.829	86.31
329.058	92.31
329.287	96.31
329.515	93.31
329.744	89.31
329.972	98.31
330.201	95.31
330.43	98.31
330.658	85.31
330.887	90.31
331.115	84.31
331.344	88.31
331.572	100.31
331.801	91.31
332.03	100.31
332.258	103.31
332.486	94.31
332.715	97.31
332.943	94.31
333.172	97.31
333.4	86.31
333.629	102.31
333.857	94.31
334.085	89.31
334.314	97.31
334.542	75.31
334.771	87.31
334.999	97.31
335.227	80.31
335.455	101.31
335.684	100.31
335.912	103.31
336.14	103.31
336.369	91.31
336.597	105.31
336.825	106.31
337.053	89.31
337.281	97.31
337.51	101.31
337.738	85.31
337.966	90.31
338.194	91.31
338.422	84.31
338.65	93.31
338.878	85.31
339.106	97.31
339.334	104.31
339.562	84.31
339.79	84.31
340.018	99.31
340.246	106.31
340.474	88.31
340.702	96.31
340.93	100.31
341.158	101.31
341.386	99.31
341.614	95.31
341.842	95.31
342.07	101.31
342.298	87.31
342.526	95.31
342.754	82.31
342.981	76.31
343.209	81.31
343.437	89.31
343.665	96.31
343.893	84.31
344.12	97.31
344.348	91.31
344.576	93.31
344.804	91.31
345.031	91.31
345.259	75.31
345.487	94.31
345.714	89.31
345.942	84.31
346.17	84.31
346.397	99.31
346.625	101.31
346.853	90.31
347.08	86.31
347.308	102.31
347.535	95.31
347.763	95.31
347.99	100.31
348.218	99.31
348.445	82.31
348.673	102.31
348.9	95.31
349.128	87.31
349.355	82.31
349.583	96.31
349.81	111.31
350.037	81.31
350.265	103.31
350.492	91.31
350.72	98.31
350.947	91.31
351.174	87.31
351.402	81.31
351.629	85.31
351.856	87.31
352.083	74.31
352.311	99.31
352.538	83.31
352.765	92.31
352.992	100.31
353.22	98.31
353.447	81.31
353.674	103.31
353.901	93.31
354.128	89.31
354.355	91.31
354.583	92.31
354.81	92.31
355.037	87.31
355.264	95.31
355.491	98.31
355.718	89.31
355.945	89.31
356.172	80.31
356.399	93.31
356.626	90.31
356.853	91.31
357.08	96.31
357.307	102.31
357.534	90.31
357.761	99.31
357.988	81.31
358.215	85.31
358.441	100.31
358.668	88.31
358.895	96.31
359.122	92.31
359.349	98.31
359.576	108.31
359.802	105.31
360.029	97.31
360.256	77.31
360.483	89.31
360.709	95.31
360.936	83.31
361.163	85.31
361.39	103.31
361.616	100.31
361.843	92.31
362.07	89.31
362.296	78.31
362.523	83.31
362.749	90.31
362.976	84.31
363.203	89.31
363.429	98.31
363.656	91.31
363.882	96.31
364.109	76.31
364.335	89.31
364.562	89.31
364.788	102.31
365.015	98.31
365.241	93.31
365.468	100.31
365.694	74.31
365.92	89.31
366.147	91.31
366.373	109.31
366.599	82.31
366.826	90.31
367.052	91.31
367.278	83.31
367.505	98.31
367.731	91.31
367.957	90.31
368.184	75.31
368.41	91.31
368.636	85.31
368.862	100.31
369.089	100.31
369.315	105.31
369.541	92.31
369.767	92.31
369.993	85.31
370.219	82.31
370.445	96.31
370.672	81.31
370.898	97.31
371.124	92.31
371.35	90.31
371.576	89.31
371.802	93.31
372.028	82.31
372.254	99.31
372.48	83.31
372.706	93.31
372.932	97.31
373.158	103.31
373.384	89.31
373.61	86.31
373.835	98.31
374.061	86.31
374.287	88.31
374.513	80.31
374.739	89.31
374.965	96.31
375.191	104.31
375.416	100.31
375.642	85.31
375.868	101.31
376.094	90.31
376.319	98.31
376.545	95.31
376.771	88.31
376.997	83.31
377.222	97.31
377.448	87.31
377.674	93.31
377.899	101.31
378.125	103.31
378.35	94.31
378.576	95.31
378.802	88.31
379.027	97.31
379.253	102.31
379.478	98.31
379.704	85.31
379.929	91.31
380.155	96.31
380.38	91.31
380.606	101.31
380.831	109.31
381.057	104.31
381.282	96.31
381.507	105.31
381.733	90.31
381.958	93.31
382.184	90.31
382.409	96.31
382.634	80.31
382.86	104.31
383.085	92.31
383.31	105.31
383.535	94.31
383.761	78.31
383.986	95.31
384.211	87.31
384.436	94.31
384.662	97.31
384.887	96.31
385.112	95.31
385.337	91.31
385.562	87.31
385.787	96.31
386.013	106.31
386.238	75.31
386.463	85.31
386.688	91.31
386.913	91.31
387.138	93.31
387.363	93.31
387.588	107.31
387.813	111.31
388.038	103.31
388.263	111.31
388.488	112.31
388.713	92.31
388.938	104.31
389.163	104.31
389.387	91.31
389.612	92.31
389.837	86.31
390.062	99.31
390.287	89.31
390.512	89.31
390.736	91.31
390.961	89.31
391.186	87.31
391.411	79.31
391.636	73.31
391.86	102.31
392.085	100.31
392.31	89.31
392.534	97.31
392.759	93.31
392.984	98.31
393.208	90.31
393.433	106.31
393.658	97.31
393.882	97.31
394.107	95.31
394.331	101.31
394.556	97.31
394.78	108.31
395.005	102.31
395.229	92.31
395.454	97.31
395.678	96.31
395.903	99.31
396.127	100.31
396.352	90.31
396.576	84.31
396.801	92.31
397.025	100.31
397.249	100.31
397.474	101.31
397.698	91.31
397.922	109.31
398.147	85.31
398.371	92.31
398.595	95.31
398.82	95.31
399.044	96.31
399.268	89.31
399.492	97.31
399.717	104.31
399.941	99.31
400.165	96.31
400.389	90.31
400.613	95.31
400.837	102.31
401.062	85.31
401.286	103.31
401.51	108.31
401.734	96.31
401.958	102.31
402.182	85.31
402.406	95.31
402.63	86.31
402.854	104.31
403.078	113.31
403.302	103.31
403.526	115.31
403.75	97.31
403.974	93.31
404.198	102.31
404.422	97.31
404.645	99.31
404.869	93.31
405.093	101.31
405.317	108.31
405.541	99.31
405.765	97.31
405.988	102.31
406.212	89.31
406.436	80.31
406.66	99.31
406.883	101.31
407.107	85.31
407.331	109.31
407.555	128.31
407.778	99.31
408.002	111.31
408.226	98.31
408.449	95.31
408.673	102.31
408.896	96.31
409.12	103.31
409.344	105.31
409.567	86.31
409.791	100.31
410.014	113.31
410.238	106.31
410.461	101.31
410.685	100.31
410.908	80.31
411.132	94.31
411.355	91.31
411.578	100.31
411.802	107.31
412.025	96.31
412.249	106.31
412.472	97.31
412.695	97.31
412.919	97.31
413.142	100.31
413.365	103.31
413.589	97.31
413.812	94.31
414.035	113.31
414.258	92.31
414.482	84.31
414.705	99.31
414.928	98.31
415.151	103.31
415.374	100.31
415.597	79.31
415.821	103.31
416.044	84.31
416.267	96.31
416.49	82.31
416.713	115.31
416.936	93.31
417.159	96.31
417.382	107.31
417.605	92.31
417.828	102.31
418.051	99.31
418.274	109.31
418.497	108.31
418.72	105.31
418.943	97.31
419.166	107.31
419.389	101.31
419.611	107.31
419.834	96.31
420.057	88.31
420.28	94.31
420.503	88.31
420.726	86.31
420.948	93.31
421.171	104.31
421.394	96.31
421.617	115.31
421.839	111.31
422.062	106.31
422.285	94.31
422.507	111.31
422.73	109.31
422.953	95.31
423.175	91.31
423.398	108.31
423.621	117.31
423.843	103.31
424.066	95.31
424.288	100.31
424.511	107.31
424.733	92.31
424.956	98.31
425.178	96.31
425.401	94.31
425.623	112.31
425.846	102.31
426.068	84.31
426.291	91.31
426.513	98.31
426.735	111.31
426.958	101.31
427.18	92.31
427.402	89.31
427.625	113.31
427.847	89.31
428.069	92.31
428.292	104.31
428.514	80.31
428.736	97.31
428.958	93.31
429.181	96.31
429.403	96.31
429.625	97.31
429.847	97.31
430.069	101.31
430.292	99.31
430.514	88.31
430.736	100.31
430.958	98.31
431.18	84.31
431.402	77.31
431.624	90.31
431.846	88.31
432.068	89.31
432.29	91.31
432.512	104.31
432.734	95.31
432.956	90.31
433.178	107.31
433.4	97.31
433.622	91.31
433.844	98.31
434.066	89.31
434.287	97.31
434.509	95.31
434.731	91.31
434.953	105.31
435.175	89.31
435.397	97.31
435.618	89.31
435.84	97.31
436.062	98.31
436.284	87.31
436.505	90.31
436.727	83.31
436.949	82.31
437.17	103.31
437.392	108.31
437.614	101.31
437.835	99.31
438.057	97.31
438.278	101.31
438.5	70.31
438.721	98.31
438.943	99.31
439.165	91.31
439.386	94.31
439.608	102.31
439.829	92.31
440.05	99.31
440.272	104.31
440.493	87.31
440.715	85.31
440.936	98.31
441.158	106.31
441.379	116.31
441.6	90.31
441.822	90.31
442.043	108.31
442.264	81.31
442.486	102.31
442.707	105.31
442.928	118.31
443.149	93.31
443.371	95.31
443.592	94.31
443.813	94.31
444.034	92.31
444.255	100.31
444.476	116.31
444.698	76.31
444.919	109.31
445.14	215.31
445.361	161.31
445.582	105.31
445.803	101.31
446.024	104.31
446.245	98.31
446.466	107.31
446.687	96.31
446.908	91.31
447.129	79.31
447.35	106.31
447.571	103.31
447.792	93.31
448.013	92.31
448.234	89.31
448.455	98.31
448.675	77.31
448.896	105.31
449.117	74.31
449.338	103.31
449.559	95.31
449.779	87.31
450	91.31
450.221	93.31
450.442	82.31
450.662	85.31
450.883	91.31
451.104	96.31
451.324	97.31
451.545	90.31
451.766	95.31
451.986	106.31
452.207	108.31
452.428	93.31
452.648	88.31
452.869	111.31
453.089	90.31
453.31	106.31
453.53	87.31
453.751	93.31
453.971	88.31
454.192	114.31
454.412	95.31
454.633	103.31
454.853	98.31
455.073	89.31
455.294	97.31
455.514	88.31
455.734	90.31
455.955	91.31
456.175	94.31
456.395	80.31
456.616	97.31
456.836	96.31
457.056	88.31
457.276	100.31
457.497	85.31
457.717	93.31
457.937	91.31
458.157	97.31
458.377	96.31
458.598	81.31
458.818	88.31
459.038	90.31
459.258	86.31
459.478	87.31
459.698	97.31
459.918	103.31
460.138	81.31
460.358	90.31
460.578	93.31
460.798	84.31
461.018	84.31
461.238	105.31
461.458	83.31
461.678	95.31
461.898	81.31
462.118	86.31
462.338	101.31
462.558	108.31
462.777	96.31
462.997	111.31
463.217	106.31
463.437	102.31
463.657	92.31
463.876	114.31
464.096	110.31
464.316	98.31
464.536	107.31
464.755	99.31
464.975	93.31
465.195	89.31
465.414	87.31
465.634	93.31
465.854	102.31
466.073	108.31
466.293	96.31
466.512	89.31
466.732	96.31
466.951	102.31
467.171	97.31
467.391	109.31
467.61	99.31
467.829	104.31
468.049	92.31
468.268	93.31
468.488	85.31
468.707	96.31
468.927	100.31
469.146	97.31
469.365	98.31
469.585	100.31
469.804	95.31
470.023	99.31
470.243	88.31
470.462	103.31
470.681	79.31
470.901	104.31
471.12	97.31
471.339	97.31
471.558	101.31
471.777	105.31
471.997	99.31
472.216	92.31
472.435	98.31
472.654	98.31
472.873	93.31
473.092	98.31
473.311	85.31
473.53	90.31
473.749	83.31
473.968	105.31
474.187	103.31
474.406	83.31
474.625	93.31
474.844	108.31
475.063	99.31
475.282	99.31
475.501	97.31
475.72	102.31
475.939	94.31
476.158	105.31
476.377	94.31
476.596	98.31
476.814	93.31
477.033	95.31
477.252	102.31
477.471	88.31
477.69	97.31
477.908	108.31
478.127	102.31
478.346	83.31
478.564	90.31
478.783	101.31
479.002	117.31
479.22	101.31
479.439	90.31
479.658	99.31
479.876	103.31
480.095	108.31
480.313	106.31
480.532	108.31
480.751	96.31
480.969	100.31
481.188	96.31
481.406	92.31
481.624	94.31
481.843	85.31
482.061	101.31
482.28	94.31
482.498	111.31
482.717	101.31
482.935	116.31
483.153	111.31
483.372	102.31
483.59	107.31
483.808	92.31
484.027	104.31
484.245	112.31
484.463	78.31
484.681	106.31
484.9	94.31
485.118	89.31
485.336	93.31
485.554	92.31
485.772	102.31
485.99	90.31
486.209	89.31
486.427	106.31
486.645	106.31
486.863	112.31
487.081	91.31
487.299	113.31
487.517	104.31
487.735	92.31
487.953	120.31
488.171	113.31
488.389	100.31
488.607	121.31
488.825	98.31
489.043	95.31
489.261	112.31
489.479	101.31
489.696	107.31
489.914	109.31
490.132	120.31
490.35	111.31
490.568	107.31
490.786	123.31
491.003	121.31
491.221	92.31
491.439	115.31
491.657	116.31
491.874	115.31
492.092	123.31
492.31	122.31
492.527	114.31
492.745	102.31
492.963	113.31
493.18	105.31
493.398	106.31
493.615	127.31
493.833	114.31
494.05	106.31
494.268	106.31
494.485	110.31
494.703	109.31
494.92	125.31
495.138	116.31
495.355	123.31
495.573	102.31
495.79	106.31
496.008	113.31
496.225	116.31
496.442	109.31
496.66	116.31
496.877	105.31
497.094	115.31
497.312	115.31
497.529	104.31
497.746	106.31
497.963	104.31
498.181	113.31
498.398	118.31
498.615	104.31
498.832	112.31
499.049	117.31
499.267	132.31
499.484	126.31
499.701	140.31
499.918	133.31
500.135	138.31
500.352	145.31
500.569	158.31
500.786	150.31
501.003	154.31
501.22	142.31
501.437	131.31
501.654	129.31
501.871	135.31
502.088	124.31
502.305	123.31
502.522	104.31
502.739	112.31
502.956	106.31
503.172	124.31
503.389	109.31
503.606	94.31
503.823	94.31
504.04	123.31
504.256	107.31
504.473	116.31
504.69	103.31
504.907	113.31
505.123	98.31
505.34	110.31
505.557	111.31
505.773	120.31
505.99	107.31
506.207	111.31
506.423	107.31
506.64	109.31
506.856	113.31
507.073	105.31
507.289	89.31
507.506	101.31
507.722	109.31
507.939	104.31
508.155	95.31
508.372	108.31
508.588	97.31
508.805	109.31
509.021	101.31
509.238	100.31
509.454	98.31
509.67	108.31
509.887	106.31
510.103	106.31
510.319	91.31
510.536	100.31
510.752	84.31
510.968	90.31
511.184	108.31
511.401	96.31
511.617	101.31
511.833	103.31
512.049	104.31
512.265	107.31
512.481	104.31
512.698	90.31
512.914	111.31
513.13	98.31
513.346	88.31
513.562	98.31
513.778	95.31
513.994	91.31
514.21	109.31
514.426	88.31
514.642	103.31
514.858	102.31
515.074	97.31
515.29	101.31
515.506	106.31
515.721	95.31
515.937	93.31
516.153	99.31
516.369	97.31
516.585	106.31
516.801	104.31
517.016	98.31
517.232	103.31
517.448	92.31
517.664	100.31
517.879	103.31
518.095	106.31
518.311	106.31
518.527	106.31
518.742	100.31
518.958	113.31
519.173	102.31
519.389	84.31
519.605	75.31
519.82	87.31
520.036	91.31
520.251	108.31
520.467	102.31
520.682	108.31
520.898	101.31
521.113	96.31
521.329	108.31
521.544	99.31
521.76	91.31
521.975	106.31
522.19	91.31
522.406	106.31
522.621	89.31
522.836	101.31
523.052	119.31
523.267	88.31
523.482	87.31
523.698	100.31
523.913	101.31
524.128	95.31
524.343	96.31
524.559	101.31
524.774	97.31
524.989	103.31
525.204	108.31
525.419	90.31
525.634	99.31
525.849	104.31
526.064	92.31
526.28	122.31
526.495	111.31
526.71	108.31
526.925	92.31
527.14	98.31
527.355	93.31
527.57	100.31
527.785	104.31
527.999	98.31
528.214	83.31
528.429	104.31
528.644	96.31
528.859	90.31
529.074	114.31
529.289	98.31
529.503	101.31
529.718	100.31
529.933	111.31
530.148	100.31
530.363	100.31
530.577	114.31
530.792	87.31
531.007	103.31
531.221	83.31
531.436	101.31
531.651	102.31
531.865	82.31
532.08	104.31
532.295	97.31
532.509	97.31
532.724	98.31
532.938	85.31
533.153	106.31
533.367	86.31
533.582	100.31
533.796	105.31
534.011	90.31
534.225	90.31
534.44	117.31
534.654	99.31
534.868	95.31
535.083	98.31
535.297	101.31
535.511	117.31
535.726	99.31
535.94	98.31
536.154	103.31
536.369	111.31
536.583	99.31
536.797	105.31
537.011	104.31
537.225	103.31
537.44	68.31
537.654	91.31
537.868	96.31
538.082	101.31
538.296	105.31
538.51	100.31
538.724	104.31
538.938	95.31
539.153	105.31
539.367	101.31
539.581	94.31
539.795	101.31
540.009	87.31
540.222	115.31
540.436	111.31
540.65	112.31
540.864	103.31
541.078	99.31
541.292	96.31
541.506	99.31
541.72	92.31
541.934	99.31
542.147	104.31
542.361	99.31
542.575	101.31
542.789	90.31
543.002	105.31
543.216	100.31
543.43	109.31
543.644	95.31
543.857	105.31
544.071	100.31
544.285	114.31
544.498	104.31
544.712	103.31
544.925	107.31
545.139	105.31
545.352	90.31
545.566	102.31
545.779	107.31
545.993	117.31
546.206	110.31
546.42	92.31
546.633	111.31
546.847	103.31
547.06	92.31
547.274	109.31
547.487	107.31
547.7	103.31
547.914	104.31
548.127	90.31
548.34	109.31
548.554	113.31
548.767	103.31
548.98	92.31
549.193	105.31
549.407	108.31
549.62	97.31
549.833	116.31
550.046	99.31
550.259	98.31
550.473	120.31
550.686	122.31
550.899	113.31
551.112	96.31
551.325	105.31
551.538	100.31
551.751	89.31
551.964	107.31
552.177	102.31
552.39	85.31
552.603	101.31
552.816	95.31
553.029	98.31
553.242	104.31
553.455	101.31
553.667	113.31
553.88	108.31
554.093	103.31
554.306	102.31
554.519	112.31
554.732	101.31
554.944	98.31
555.157	99.31
555.37	100.31
555.583	101.31
555.795	100.31
556.008	108.31
556.221	100.31
556.433	93.31
556.646	103.31
556.859	101.31
557.071	100.31
557.284	111.31
557.496	94.31
557.709	106.31
557.921	97.31
558.134	108.31
558.346	91.31
558.559	107.31
558.771	107.31
558.984	95.31
559.196	109.31
559.409	88.31
559.621	115.31
559.833	94.31
560.046	77.31
560.258	100.31
560.47	95.31
560.683	98.31
560.895	103.31
561.107	114.31
561.32	90.31
561.532	98.31
561.744	100.31
561.956	105.31
562.168	101.31
562.381	92.31
562.593	105.31
562.805	96.31
563.017	96.31
563.229	108.31
563.441	97.31
563.653	114.31
563.865	98.31
564.077	87.31
564.289	108.31
564.501	99.31
564.713	106.31
564.925	100.31
565.137	97.31
565.349	100.31
565.561	111.31
565.773	104.31
565.985	109.31
566.197	91.31
566.408	96.31
566.62	98.31
566.832	101.31
567.044	112.31
567.255	105.31
567.467	111.31
567.679	111.31
567.891	111.31
568.102	99.31
568.314	110.31
568.526	95.31
568.737	98.31
568.949	89.31
569.161	105.31
569.372	103.31
569.584	86.31
569.795	97.31
570.007	94.31
570.218	92.31
570.43	93.31
570.641	89.31
570.853	88.31
571.064	97.31
571.276	117.31
571.487	95.31
571.698	103.31
571.91	89.31
572.121	89.31
572.333	85.31
572.544	91.31
572.755	98.31
572.966	83.31
573.178	87.31
573.389	90.31
573.6	71.31
573.811	88.31
574.023	77.31
574.234	93.31
574.445	82.31
574.656	89.31
574.867	97.31
575.078	90.31
575.289	87.31
575.501	86.31
575.712	88.31
575.923	88.31
576.134	88.31
576.345	97.31
576.556	69.31
576.767	84.31
576.978	93.31
577.188	73.31
577.399	87.31
577.61	83.31
577.821	89.31
578.032	90.31
578.243	91.31
578.454	88.31
578.665	80.31
578.875	93.31
579.086	92.31
579.297	93.31
579.508	84.31
579.718	92.31
579.929	94.31
580.14	90.31
580.35	91.31
580.561	90.31
580.772	95.31
580.982	85.31
581.193	92.31
581.403	105.31
581.614	99.31
581.825	92.31
582.035	111.31
582.246	93.31
582.456	90.31
582.667	96.31
582.877	104.31
583.087	87.31
583.298	100.31
583.508	93.31
583.719	99.31
583.929	98.31
584.139	104.31
584.35	91.31
584.56	83.31
584.77	82.31
584.981	97.31
585.191	80.31
585.401	62.31
585.611	93.31
585.821	87.31
586.032	92.31
586.242	75.31
586.452	102.31
586.662	91.31
586.872	98.31
587.082	92.31
587.292	85.31
587.502	84.31
587.713	95.31
587.923	86.31
588.133	95.31
588.343	94.31
588.553	88.31
588.762	99.31
588.972	84.31
589.182	95.31
589.392	98.31
589.602	97.31
589.812	76.31
590.022	96.31
590.232	104.31
590.441	84.31
590.651	85.31
590.861	91.31
591.071	84.31
591.281	101.31
591.49	91.31
591.7	85.31
591.91	89.31
592.119	83.31
592.329	94.31
592.539	96.31
592.748	91.31
592.958	88.31
593.167	92.31
593.377	84.31
593.587	92.31
593.796	83.31
594.006	84.31
594.215	89.31
594.424	91.31
594.634	84.31
594.843	93.31
595.053	88.31
595.262	95.31
595.472	100.31
595.681	101.31
595.89	80.31
596.1	90.31
596.309	100.31
596.518	91.31
596.727	95.31
596.937	99.31
597.146	92.31
597.355	97.31
597.564	83.31
597.774	89.31
597.983	72.31
598.192	92.31
598.401	80.31
598.61	91.31
598.819	91.31
599.028	94.31
599.237	86.31
599.446	92.31
599.655	94.31
599.864	88.31
600.073	83.31
600.282	97.31
600.491	92.31
600.7	84.31
600.909	79.31
601.118	93.31
601.327	96.31
601.536	86.31
601.745	82.31
601.953	92.31
602.162	83.31
602.371	90.31
602.58	89.31
602.789	90.31
602.997	83.31
603.206	95.31
603.415	73.31
603.623	83.31
603.832	90.31
604.041	77.31
604.249	91.31
604.458	98.31
604.666	107.31
604.875	101.31
605.084	91.31
605.292	95.31
605.501	104.31
605.709	86.31
605.918	82.31
606.126	103.31
606.334	96.31
606.543	90.31
606.751	89.31
606.96	90.31
607.168	90.31
607.376	95.31
607.585	86.31
607.793	87.31
608.001	91.31
608.21	78.31
608.418	87.31
608.626	94.31
608.834	84.31
609.043	88.31
609.251	97.31
609.459	98.31
609.667	89.31
609.875	83.31
610.083	89.31
610.291	87.31
610.499	101.31
610.707	91.31
610.916	89.31
611.124	103.31
611.332	90.31
611.54	99.31
611.748	86.31
611.955	84.31
612.163	103.31
612.371	97.31
612.579	89.31
612.787	85.31
612.995	104.31
613.203	79.31
613.411	88.31
613.618	77.31
613.826	88.31
614.034	81.31
614.242	87.31
614.449	80.31
614.657	98.31
614.865	88.31
615.072	79.31
615.28	92.31
615.488	75.31
615.695	81.31
615.903	97.31
616.111	87.31
616.318	81.31
616.526	88.31
616.733	93.31
616.941	94.31
617.148	95.31
617.356	88.31
617.563	97.31
617.771	98.31
617.978	82.31
618.185	86.31
618.393	73.31
618.6	79.31
618.807	89.31
619.015	79.31
619.222	90.31
619.429	99.31
619.637	99.31
619.844	98.31
620.051	84.31
620.258	86.31
620.466	93.31
620.673	75.31
620.88	88.31
621.087	91.31
621.294	82.31
621.501	94.31
621.708	97.31
621.915	87.31
622.122	82.31
622.329	88.31
622.536	80.31
622.743	88.31
622.95	92.31
623.157	91.31
623.364	85.31
623.571	84.31
623.778	76.31
623.985	95.31
624.192	84.31
624.399	84.31
624.606	100.31
624.812	81.31
625.019	96.31
625.226	99.31
625.433	101.31
625.639	105.31
625.846	99.31
626.053	92.31
626.259	82.31
626.466	88.31
626.673	89.31
626.879	98.31
627.086	81.31
627.293	95.31
627.499	77.31
627.706	92.31
627.912	87.31
628.119	76.31
628.325	93.31
628.532	93.31
628.738	86.31
628.945	75.31
629.151	88.31
629.357	101.31
629.564	86.31
629.77	82.31
629.976	78.31
630.183	82.31
630.389	83.31
630.595	72.31
630.802	72.31
631.008	81.31
631.214	82.31
631.42	84.31
631.627	98.31
631.833	87.31
632.039	79.31
632.245	95.31
632.451	93.31
632.657	80.31
632.863	77.31
633.069	101.31
633.275	77.31
633.481	86.31
633.688	92.31
633.893	85.31
634.099	87.31
634.305	100.31
634.511	87.31
634.717	91.31
634.923	79.31
635.129	82.31
635.335	71.31
635.541	79.31
635.747	88.31
635.952	89.31
636.158	99.31
636.364	82.31
636.57	64.31
636.775	89.31
636.981	85.31
637.187	92.31
637.392	89.31
637.598	75.31
637.804	90.31
638.009	88.31
638.215	90.31
638.421	68.31
638.626	70.31
638.832	94.31
639.037	94.31
639.243	81.31
639.448	91.31
639.654	96.31
639.859	90.31
640.065	92.31
640.27	83.31
640.475	85.31
640.681	75.31
640.886	82.31
641.091	97.31
641.297	84.31
641.502	93.31
641.707	96.31
641.913	93.31
642.118	86.31
642.323	89.31
642.528	89.31
642.733	88.31
642.939	98.31
643.144	84.31
643.349	76.31
643.554	81.31
643.759	87.31
643.964	83.31
644.169	102.31
644.374	96.31
644.579	86.31
644.784	95.31
644.989	72.31
645.194	88.31
645.399	73.31
645.604	72.31
645.809	93.31
646.014	96.31
646.219	85.31
646.423	90.31
646.628	82.31
646.833	82.31
647.038	83.31
647.243	76.31
647.447	92.31
647.652	89.31
647.857	96.31
648.062	90.31
648.266	84.31
648.471	80.31
648.676	77.31
648.88	81.31
649.085	91.31
649.289	74.31
649.494	80.31
649.698	76.31
649.903	80.31
650.107	95.31
650.312	92.31
650.516	76.31
650.721	90.31
650.925	86.31
651.13	75.31
651.334	84.31
651.539	86.31
651.743	85.31
651.947	76.31
652.152	87.31
652.356	84.31
652.56	97.31
652.764	81.31
652.969	85.31
653.173	68.31
653.377	73.31
653.581	81.31
653.785	99.31
653.99	83.31
654.194	77.31
654.398	93.31
654.602	97.31
654.806	85.31
655.01	82.31
655.214	68.31
655.418	76.31
655.622	90.31
655.826	99.31
656.03	90.31
656.234	102.31
656.438	83.31
656.642	80.31
656.846	92.31
657.049	84.31
657.253	80.31
657.457	68.31
657.661	95.31
657.865	94.31
658.068	92.31
658.272	87.31
658.476	96.31
658.68	91.31
658.883	74.31
659.087	71.31
659.291	67.31
659.494	67.31
659.698	74.31
659.901	90.31
660.105	80.31
660.309	86.31
660.512	76.31
660.716	88.31
660.919	80.31
661.123	85.31
661.326	70.31
661.53	79.31
661.733	81.31
661.936	85.31
662.14	93.31
662.343	83.31
662.546	83.31
662.75	86.31
662.953	80.31
663.156	76.31
663.36	85.31
663.563	94.31
663.766	84.31
663.969	91.31
664.173	87.31
664.376	95.31
664.579	81.31
664.782	90.31
664.985	87.31
665.188	70.31
665.391	78.31
665.594	85.31
665.797	87.31
666	65.31
666.203	84.31
666.406	82.31
666.609	84.31
666.812	74.31
667.015	83.31
667.218	83.31
667.421	86.31
667.624	92.31
667.827	83.31
668.03	90.31
668.232	94.31
668.435	84.31
668.638	101.31
668.841	85.31
669.043	75.31
669.246	83.31
669.449	90.31
669.651	85.31
669.854	92.31
670.057	91.31
670.259	83.31
670.462	89.31
670.665	85.31
670.867	77.31
671.07	81.31
671.272	99.31
671.475	86.31
671.677	82.31
671.88	75.31
672.082	85.31
672.284	79.31
672.487	91.31
672.689	88.31
672.892	86.31
