Data from Location5.07152019.Energy5.Lamp.07192019.3%Agarose_HRD10591_16-04-34-629.txt Node
Date: Fri Jul 19 16:04:34 EDT 2019
User: cochatt
Spectrometer: HR+D1059
Trigger mode: 1
Integration Time (sec): 1.000000E-1
Scans to average: 1
Electric dark correction enabled: true
Nonlinearity correction enabled: false
Boxcar width: 0
XAxis mode: Wavelengths
Number of Pixels in Spectrum: 2048
>>>>>Begin Spectral Data<<<<<
223.165	-11.38
223.4	-11.38
223.635	-11.38
223.869	-17.38
224.104	-9.38
224.338	-12.38
224.573	-16.38
224.808	-16.38
225.042	-20.38
225.277	-15.38
225.511	-4.38
225.746	4.62
225.98	-2.38
226.215	19.62
226.449	17.62
226.683	19.62
226.918	22.62
227.152	41.62
227.387	33.62
227.621	28.62
227.856	49.62
228.09	40.62
228.324	42.62
228.559	58.62
228.793	52.62
229.027	54.62
229.262	52.62
229.496	67.62
229.73	70.62
229.964	80.62
230.199	74.62
230.433	88.62
230.667	62.62
230.901	73.62
231.136	81.62
231.37	75.62
231.604	79.62
231.838	90.62
232.072	82.62
232.306	85.62
232.541	77.62
232.775	82.62
233.009	78.62
233.243	86.62
233.477	82.62
233.711	80.62
233.945	89.62
234.179	84.62
234.413	79.62
234.647	89.62
234.881	88.62
235.115	74.62
235.349	86.62
235.583	92.62
235.817	75.62
236.051	89.62
236.285	71.62
236.519	89.62
236.753	78.62
236.987	88.62
237.221	74.62
237.455	71.62
237.689	73.62
237.922	75.62
238.156	68.62
238.39	75.62
238.624	65.62
238.858	69.62
239.091	64.62
239.325	84.62
239.559	79.62
239.793	73.62
240.027	68.62
240.26	71.62
240.494	77.62
240.728	75.62
240.961	81.62
241.195	69.62
241.429	80.62
241.662	79.62
241.896	68.62
242.13	74.62
242.363	67.62
242.597	88.62
242.83	79.62
243.064	60.62
243.298	67.62
243.531	72.62
243.765	69.62
243.998	76.62
244.232	71.62
244.465	80.62
244.699	65.62
244.932	68.62
245.166	75.62
245.399	90.62
245.633	85.62
245.866	75.62
246.099	57.62
246.333	75.62
246.566	71.62
246.8	62.62
247.033	75.62
247.266	78.62
247.5	70.62
247.733	80.62
247.966	70.62
248.2	74.62
248.433	77.62
248.666	78.62
248.899	75.62
249.133	85.62
249.366	79.62
249.599	86.62
249.832	77.62
250.066	80.62
250.299	78.62
250.532	68.62
250.765	66.62
250.998	73.62
251.231	77.62
251.465	77.62
251.698	76.62
251.931	89.62
252.164	72.62
252.397	79.62
252.63	75.62
252.863	71.62
253.096	80.62
253.329	80.62
253.562	91.62
253.795	88.62
254.028	83.62
254.261	88.62
254.494	88.62
254.727	80.62
254.96	90.62
255.193	68.62
255.426	84.62
255.659	86.62
255.892	73.62
256.124	80.62
256.357	70.62
256.59	85.62
256.823	81.62
257.056	86.62
257.289	74.62
257.521	82.62
257.754	81.62
257.987	86.62
258.22	78.62
258.452	69.62
258.685	79.62
258.918	89.62
259.151	66.62
259.383	83.62
259.616	98.62
259.849	83.62
260.081	83.62
260.314	89.62
260.547	74.62
260.779	82.62
261.012	100.62
261.244	80.62
261.477	87.62
261.71	81.62
261.942	97.62
262.175	82.62
262.407	70.62
262.64	75.62
262.872	87.62
263.105	89.62
263.337	86.62
263.57	72.62
263.802	82.62
264.035	95.62
264.267	99.62
264.499	87.62
264.732	86.62
264.964	78.62
265.197	82.62
265.429	91.62
265.661	75.62
265.894	74.62
266.126	82.62
266.358	88.62
266.591	81.62
266.823	95.62
267.055	97.62
267.287	90.62
267.52	73.62
267.752	95.62
267.984	77.62
268.216	82.62
268.448	80.62
268.681	86.62
268.913	95.62
269.145	82.62
269.377	80.62
269.609	89.62
269.841	82.62
270.073	91.62
270.306	83.62
270.538	84.62
270.77	101.62
271.002	71.62
271.234	76.62
271.466	91.62
271.698	84.62
271.93	84.62
272.162	79.62
272.394	74.62
272.626	72.62
272.858	90.62
273.09	84.62
273.322	89.62
273.553	83.62
273.785	78.62
274.017	82.62
274.249	89.62
274.481	79.62
274.713	95.62
274.945	83.62
275.176	86.62
275.408	94.62
275.64	74.62
275.872	75.62
276.104	94.62
276.335	86.62
276.567	78.62
276.799	88.62
277.031	91.62
277.262	91.62
277.494	90.62
277.726	80.62
277.957	86.62
278.189	98.62
278.421	81.62
278.652	79.62
278.884	81.62
279.115	89.62
279.347	99.62
279.579	96.62
279.81	82.62
280.042	102.62
280.273	96.62
280.505	94.62
280.736	78.62
280.968	96.62
281.199	93.62
281.431	84.62
281.662	84.62
281.894	76.62
282.125	88.62
282.356	85.62
282.588	79.62
282.819	81.62
283.051	96.62
283.282	97.62
283.513	87.62
283.745	68.62
283.976	93.62
284.207	75.62
284.439	77.62
284.67	90.62
284.901	97.62
285.132	91.62
285.364	92.62
285.595	89.62
285.826	95.62
286.057	84.62
286.288	95.62
286.52	93.62
286.751	95.62
286.982	74.62
287.213	80.62
287.444	85.62
287.675	89.62
287.906	86.62
288.138	97.62
288.369	87.62
288.6	93.62
288.831	86.62
289.062	87.62
289.293	85.62
289.524	80.62
289.755	94.62
289.986	89.62
290.217	78.62
290.448	94.62
290.679	89.62
290.91	70.62
291.141	83.62
291.371	91.62
291.602	92.62
291.833	97.62
292.064	94.62
292.295	86.62
292.526	88.62
292.757	81.62
292.987	79.62
293.218	91.62
293.449	92.62
293.68	74.62
293.91	81.62
294.141	82.62
294.372	103.62
294.603	105.62
294.833	94.62
295.064	85.62
295.295	82.62
295.525	89.62
295.756	86.62
295.987	95.62
296.217	79.62
296.448	93.62
296.679	89.62
296.909	83.62
297.14	95.62
297.37	86.62
297.601	64.62
297.831	79.62
298.062	82.62
298.292	94.62
298.523	100.62
298.753	96.62
298.984	102.62
299.214	94.62
299.445	89.62
299.675	78.62
299.905	82.62
300.136	81.62
300.366	72.62
300.597	86.62
300.827	88.62
301.057	98.62
301.288	101.62
301.518	102.62
301.748	85.62
301.979	92.62
302.209	87.62
302.439	92.62
302.669	73.62
302.9	87.62
303.13	102.62
303.36	84.62
303.59	82.62
303.82	76.62
304.051	87.62
304.281	78.62
304.511	80.62
304.741	70.62
304.971	81.62
305.201	94.62
305.431	92.62
305.661	94.62
305.891	95.62
306.121	98.62
306.352	91.62
306.582	91.62
306.812	82.62
307.042	78.62
307.272	80.62
307.502	84.62
307.731	94.62
307.961	75.62
308.191	94.62
308.421	91.62
308.651	91.62
308.881	97.62
309.111	100.62
309.341	82.62
309.571	95.62
309.8	96.62
310.03	92.62
310.26	99.62
310.49	84.62
310.72	108.62
310.949	78.62
311.179	89.62
311.409	87.62
311.639	83.62
311.868	92.62
312.098	94.62
312.328	86.62
312.557	78.62
312.787	89.62
313.017	88.62
313.246	88.62
313.476	94.62
313.706	95.62
313.935	100.62
314.165	87.62
314.394	85.62
314.624	85.62
314.853	111.62
315.083	101.62
315.312	93.62
315.542	90.62
315.771	90.62
316.001	86.62
316.23	87.62
316.46	84.62
316.689	100.62
316.919	88.62
317.148	92.62
317.377	98.62
317.607	94.62
317.836	109.62
318.065	96.62
318.295	86.62
318.524	98.62
318.753	78.62
318.983	95.62
319.212	100.62
319.441	91.62
319.67	95.62
319.9	83.62
320.129	93.62
320.358	104.62
320.587	90.62
320.816	86.62
321.046	94.62
321.275	96.62
321.504	74.62
321.733	87.62
321.962	96.62
322.191	81.62
322.42	99.62
322.649	87.62
322.878	87.62
323.108	96.62
323.337	82.62
323.566	97.62
323.795	102.62
324.024	93.62
324.253	86.62
324.482	105.62
324.71	98.62
324.939	108.62
325.168	100.62
325.397	75.62
325.626	87.62
325.855	88.62
326.084	104.62
326.313	99.62
326.542	96.62
326.77	88.62
326.999	97.62
327.228	108.62
327.457	96.62
327.686	94.62
327.914	95.62
328.143	96.62
328.372	87.62
328.6	89.62
328.829	105.62
329.058	91.62
329.287	104.62
329.515	83.62
329.744	100.62
329.972	98.62
330.201	97.62
330.43	92.62
330.658	101.62
330.887	91.62
331.115	91.62
331.344	94.62
331.572	99.62
331.801	98.62
332.03	99.62
332.258	94.62
332.486	87.62
332.715	79.62
332.943	81.62
333.172	101.62
333.4	84.62
333.629	100.62
333.857	94.62
334.085	99.62
334.314	85.62
334.542	93.62
334.771	95.62
334.999	77.62
335.227	82.62
335.455	90.62
335.684	85.62
335.912	101.62
336.14	95.62
336.369	91.62
336.597	97.62
336.825	102.62
337.053	105.62
337.281	95.62
337.51	87.62
337.738	86.62
337.966	100.62
338.194	84.62
338.422	88.62
338.65	80.62
338.878	82.62
339.106	100.62
339.334	87.62
339.562	101.62
339.79	92.62
340.018	69.62
340.246	91.62
340.474	93.62
340.702	93.62
340.93	94.62
341.158	89.62
341.386	92.62
341.614	95.62
341.842	88.62
342.07	105.62
342.298	89.62
342.526	91.62
342.754	71.62
342.981	87.62
343.209	91.62
343.437	102.62
343.665	88.62
343.893	90.62
344.12	86.62
344.348	107.62
344.576	90.62
344.804	95.62
345.031	101.62
345.259	94.62
345.487	95.62
345.714	91.62
345.942	82.62
346.17	86.62
346.397	85.62
346.625	104.62
346.853	92.62
347.08	97.62
347.308	90.62
347.535	93.62
347.763	80.62
347.99	104.62
348.218	86.62
348.445	83.62
348.673	87.62
348.9	93.62
349.128	96.62
349.355	101.62
349.583	87.62
349.81	82.62
350.037	100.62
350.265	71.62
350.492	100.62
350.72	75.62
350.947	80.62
351.174	94.62
351.402	100.62
351.629	90.62
351.856	85.62
352.083	92.62
352.311	82.62
352.538	83.62
352.765	87.62
352.992	99.62
353.22	87.62
353.447	88.62
353.674	96.62
353.901	91.62
354.128	90.62
354.355	86.62
354.583	82.62
354.81	86.62
355.037	98.62
355.264	86.62
355.491	88.62
355.718	82.62
355.945	90.62
356.172	100.62
356.399	102.62
356.626	91.62
356.853	85.62
357.08	94.62
357.307	99.62
357.534	82.62
357.761	77.62
357.988	103.62
358.215	83.62
358.441	93.62
358.668	82.62
358.895	100.62
359.122	85.62
359.349	81.62
359.576	88.62
359.802	86.62
360.029	85.62
360.256	78.62
360.483	83.62
360.709	88.62
360.936	105.62
361.163	89.62
361.39	96.62
361.616	90.62
361.843	96.62
362.07	91.62
362.296	86.62
362.523	105.62
362.749	90.62
362.976	91.62
363.203	95.62
363.429	97.62
363.656	97.62
363.882	100.62
364.109	87.62
364.335	83.62
364.562	102.62
364.788	81.62
365.015	81.62
365.241	91.62
365.468	82.62
365.694	82.62
365.92	74.62
366.147	102.62
366.373	79.62
366.599	99.62
366.826	78.62
367.052	82.62
367.278	81.62
367.505	104.62
367.731	99.62
367.957	91.62
368.184	97.62
368.41	83.62
368.636	90.62
368.862	81.62
369.089	95.62
369.315	101.62
369.541	99.62
369.767	87.62
369.993	96.62
370.219	89.62
370.445	92.62
370.672	92.62
370.898	91.62
371.124	96.62
371.35	91.62
371.576	115.62
371.802	104.62
372.028	102.62
372.254	93.62
372.48	101.62
372.706	100.62
372.932	88.62
373.158	99.62
373.384	101.62
373.61	102.62
373.835	88.62
374.061	88.62
374.287	83.62
374.513	76.62
374.739	85.62
374.965	80.62
375.191	92.62
375.416	90.62
375.642	81.62
375.868	95.62
376.094	106.62
376.319	89.62
376.545	91.62
376.771	95.62
376.997	95.62
377.222	85.62
377.448	93.62
377.674	85.62
377.899	71.62
378.125	99.62
378.35	90.62
378.576	90.62
378.802	77.62
379.027	81.62
379.253	90.62
379.478	96.62
379.704	94.62
379.929	87.62
380.155	86.62
380.38	84.62
380.606	88.62
380.831	71.62
381.057	84.62
381.282	83.62
381.507	80.62
381.733	86.62
381.958	101.62
382.184	81.62
382.409	92.62
382.634	92.62
382.86	97.62
383.085	94.62
383.31	97.62
383.535	105.62
383.761	102.62
383.986	103.62
384.211	95.62
384.436	79.62
384.662	95.62
384.887	102.62
385.112	90.62
385.337	101.62
385.562	103.62
385.787	88.62
386.013	92.62
386.238	91.62
386.463	105.62
386.688	93.62
386.913	99.62
387.138	89.62
387.363	95.62
387.588	87.62
387.813	91.62
388.038	89.62
388.263	92.62
388.488	86.62
388.713	101.62
388.938	93.62
389.163	94.62
389.387	85.62
389.612	86.62
389.837	98.62
390.062	91.62
390.287	82.62
390.512	76.62
390.736	96.62
390.961	99.62
391.186	96.62
391.411	103.62
391.636	97.62
391.86	89.62
392.085	100.62
392.31	93.62
392.534	86.62
392.759	100.62
392.984	88.62
393.208	97.62
393.433	87.62
393.658	98.62
393.882	85.62
394.107	93.62
394.331	89.62
394.556	88.62
394.78	96.62
395.005	105.62
395.229	90.62
395.454	96.62
395.678	98.62
395.903	96.62
396.127	101.62
396.352	102.62
396.576	98.62
396.801	97.62
397.025	87.62
397.249	87.62
397.474	93.62
397.698	97.62
397.922	99.62
398.147	107.62
398.371	87.62
398.595	96.62
398.82	99.62
399.044	97.62
399.268	76.62
399.492	87.62
399.717	115.62
399.941	101.62
400.165	114.62
400.389	106.62
400.613	103.62
400.837	95.62
401.062	100.62
401.286	106.62
401.51	98.62
401.734	96.62
401.958	89.62
402.182	92.62
402.406	115.62
402.63	97.62
402.854	94.62
403.078	85.62
403.302	83.62
403.526	106.62
403.75	90.62
403.974	103.62
404.198	95.62
404.422	81.62
404.645	107.62
404.869	95.62
405.093	96.62
405.317	102.62
405.541	90.62
405.765	81.62
405.988	93.62
406.212	99.62
406.436	93.62
406.66	99.62
406.883	94.62
407.107	107.62
407.331	107.62
407.555	103.62
407.778	95.62
408.002	104.62
408.226	102.62
408.449	85.62
408.673	85.62
408.896	97.62
409.12	112.62
409.344	106.62
409.567	100.62
409.791	95.62
410.014	90.62
410.238	86.62
410.461	93.62
410.685	86.62
410.908	96.62
411.132	108.62
411.355	93.62
411.578	79.62
411.802	106.62
412.025	95.62
412.249	90.62
412.472	84.62
412.695	100.62
412.919	93.62
413.142	101.62
413.365	94.62
413.589	87.62
413.812	99.62
414.035	103.62
414.258	100.62
414.482	94.62
414.705	84.62
414.928	106.62
415.151	102.62
415.374	91.62
415.597	99.62
415.821	118.62
416.044	94.62
416.267	98.62
416.49	94.62
416.713	95.62
416.936	100.62
417.159	90.62
417.382	85.62
417.605	86.62
417.828	95.62
418.051	92.62
418.274	103.62
418.497	105.62
418.72	84.62
418.943	101.62
419.166	96.62
419.389	86.62
419.611	97.62
419.834	94.62
420.057	94.62
420.28	102.62
420.503	100.62
420.726	105.62
420.948	87.62
421.171	107.62
421.394	99.62
421.617	97.62
421.839	92.62
422.062	82.62
422.285	99.62
422.507	97.62
422.73	83.62
422.953	103.62
423.175	85.62
423.398	83.62
423.621	108.62
423.843	102.62
424.066	103.62
424.288	86.62
424.511	81.62
424.733	98.62
424.956	104.62
425.178	92.62
425.401	96.62
425.623	90.62
425.846	87.62
426.068	78.62
426.291	85.62
426.513	101.62
426.735	95.62
426.958	89.62
427.18	98.62
427.402	95.62
427.625	94.62
427.847	75.62
428.069	79.62
428.292	89.62
428.514	99.62
428.736	104.62
428.958	82.62
429.181	87.62
429.403	103.62
429.625	85.62
429.847	93.62
430.069	87.62
430.292	92.62
430.514	92.62
430.736	86.62
430.958	90.62
431.18	96.62
431.402	84.62
431.624	90.62
431.846	100.62
432.068	101.62
432.29	110.62
432.512	95.62
432.734	98.62
432.956	93.62
433.178	97.62
433.4	106.62
433.622	75.62
433.844	99.62
434.066	106.62
434.287	80.62
434.509	82.62
434.731	91.62
434.953	77.62
435.175	79.62
435.397	95.62
435.618	94.62
435.84	100.62
436.062	109.62
436.284	90.62
436.505	98.62
436.727	99.62
436.949	86.62
437.17	83.62
437.392	82.62
437.614	92.62
437.835	103.62
438.057	96.62
438.278	85.62
438.5	89.62
438.721	102.62
438.943	91.62
439.165	94.62
439.386	102.62
439.608	80.62
439.829	102.62
440.05	109.62
440.272	98.62
440.493	75.62
440.715	92.62
440.936	94.62
441.158	94.62
441.379	93.62
441.6	111.62
441.822	84.62
442.043	105.62
442.264	94.62
442.486	87.62
442.707	91.62
442.928	86.62
443.149	94.62
443.371	101.62
443.592	85.62
443.813	85.62
444.034	96.62
444.255	95.62
444.476	89.62
444.698	94.62
444.919	96.62
445.14	210.62
445.361	145.62
445.582	82.62
445.803	95.62
446.024	93.62
446.245	98.62
446.466	102.62
446.687	88.62
446.908	81.62
447.129	98.62
447.35	97.62
447.571	84.62
447.792	106.62
448.013	94.62
448.234	100.62
448.455	91.62
448.675	88.62
448.896	96.62
449.117	96.62
449.338	72.62
449.559	88.62
449.779	90.62
450	91.62
450.221	85.62
450.442	105.62
450.662	86.62
450.883	95.62
451.104	82.62
451.324	88.62
451.545	95.62
451.766	104.62
451.986	93.62
452.207	97.62
452.428	92.62
452.648	91.62
452.869	87.62
453.089	86.62
453.31	75.62
453.53	85.62
453.751	71.62
453.971	90.62
454.192	88.62
454.412	91.62
454.633	84.62
454.853	85.62
455.073	87.62
455.294	94.62
455.514	92.62
455.734	93.62
455.955	101.62
456.175	106.62
456.395	85.62
456.616	99.62
456.836	88.62
457.056	85.62
457.276	85.62
457.497	98.62
457.717	87.62
457.937	80.62
458.157	87.62
458.377	78.62
458.598	101.62
458.818	89.62
459.038	85.62
459.258	96.62
459.478	95.62
459.698	110.62
459.918	101.62
460.138	95.62
460.358	99.62
460.578	105.62
460.798	90.62
461.018	96.62
461.238	94.62
461.458	98.62
461.678	102.62
461.898	99.62
462.118	88.62
462.338	100.62
462.558	95.62
462.777	89.62
462.997	99.62
463.217	98.62
463.437	106.62
463.657	90.62
463.876	103.62
464.096	120.62
464.316	85.62
464.536	102.62
464.755	115.62
464.975	98.62
465.195	98.62
465.414	89.62
465.634	98.62
465.854	96.62
466.073	96.62
466.293	105.62
466.512	94.62
466.732	97.62
466.951	93.62
467.171	83.62
467.391	87.62
467.61	96.62
467.829	100.62
468.049	92.62
468.268	95.62
468.488	92.62
468.707	104.62
468.927	102.62
469.146	83.62
469.365	97.62
469.585	80.62
469.804	89.62
470.023	85.62
470.243	94.62
470.462	100.62
470.681	104.62
470.901	78.62
471.12	88.62
471.339	89.62
471.558	103.62
471.777	109.62
471.997	85.62
472.216	94.62
472.435	93.62
472.654	93.62
472.873	106.62
473.092	93.62
473.311	102.62
473.53	97.62
473.749	88.62
473.968	100.62
474.187	92.62
474.406	90.62
474.625	85.62
474.844	94.62
475.063	97.62
475.282	88.62
475.501	100.62
475.72	102.62
475.939	82.62
476.158	94.62
476.377	85.62
476.596	81.62
476.814	100.62
477.033	87.62
477.252	98.62
477.471	107.62
477.69	98.62
477.908	102.62
478.127	107.62
478.346	94.62
478.564	92.62
478.783	101.62
479.002	103.62
479.22	103.62
479.439	100.62
479.658	85.62
479.876	98.62
480.095	98.62
480.313	116.62
480.532	101.62
480.751	107.62
480.969	92.62
481.188	94.62
481.406	91.62
481.624	85.62
481.843	79.62
482.061	98.62
482.28	90.62
482.498	104.62
482.717	93.62
482.935	91.62
483.153	111.62
483.372	101.62
483.59	106.62
483.808	102.62
484.027	106.62
484.245	96.62
484.463	101.62
484.681	106.62
484.9	89.62
485.118	96.62
485.336	109.62
485.554	104.62
485.772	109.62
485.99	104.62
486.209	106.62
486.427	85.62
486.645	96.62
486.863	95.62
487.081	96.62
487.299	91.62
487.517	91.62
487.735	112.62
487.953	107.62
488.171	120.62
488.389	104.62
488.607	116.62
488.825	112.62
489.043	94.62
489.261	100.62
489.479	90.62
489.696	112.62
489.914	104.62
490.132	101.62
490.35	103.62
490.568	97.62
490.786	101.62
491.003	102.62
491.221	119.62
491.439	105.62
491.657	107.62
491.874	117.62
492.092	109.62
492.31	127.62
492.527	126.62
492.745	93.62
492.963	122.62
493.18	125.62
493.398	114.62
493.615	116.62
493.833	103.62
494.05	98.62
494.268	101.62
494.485	113.62
494.703	113.62
494.92	115.62
495.138	108.62
495.355	99.62
495.573	99.62
495.79	118.62
496.008	105.62
496.225	107.62
496.442	112.62
496.66	118.62
496.877	115.62
497.094	123.62
497.312	101.62
497.529	109.62
497.746	101.62
497.963	111.62
498.181	102.62
498.398	118.62
498.615	118.62
498.832	113.62
499.049	130.62
499.267	116.62
499.484	127.62
499.701	140.62
499.918	115.62
500.135	137.62
500.352	141.62
500.569	163.62
500.786	170.62
501.003	157.62
501.22	154.62
501.437	130.62
501.654	130.62
501.871	121.62
502.088	116.62
502.305	106.62
502.522	112.62
502.739	103.62
502.956	121.62
503.172	106.62
503.389	111.62
503.606	121.62
503.823	123.62
504.04	110.62
504.256	122.62
504.473	101.62
504.69	109.62
504.907	90.62
505.123	104.62
505.34	117.62
505.557	107.62
505.773	96.62
505.99	95.62
506.207	115.62
506.423	110.62
506.64	112.62
506.856	96.62
507.073	108.62
507.289	96.62
507.506	102.62
507.722	112.62
507.939	101.62
508.155	93.62
508.372	102.62
508.588	95.62
508.805	114.62
509.021	93.62
509.238	112.62
509.454	94.62
509.67	98.62
509.887	87.62
510.103	100.62
510.319	93.62
510.536	110.62
510.752	99.62
510.968	98.62
511.184	99.62
511.401	116.62
511.617	104.62
511.833	104.62
512.049	103.62
512.265	101.62
512.481	98.62
512.698	99.62
512.914	99.62
513.13	110.62
513.346	90.62
513.562	103.62
513.778	101.62
513.994	114.62
514.21	95.62
514.426	105.62
514.642	95.62
514.858	106.62
515.074	78.62
515.29	82.62
515.506	93.62
515.721	111.62
515.937	104.62
516.153	95.62
516.369	102.62
516.585	103.62
516.801	118.62
517.016	106.62
517.232	94.62
517.448	94.62
517.664	116.62
517.879	121.62
518.095	125.62
518.311	114.62
518.527	113.62
518.742	100.62
518.958	102.62
519.173	110.62
519.389	99.62
519.605	101.62
519.82	98.62
520.036	97.62
520.251	109.62
520.467	100.62
520.682	104.62
520.898	92.62
521.113	100.62
521.329	104.62
521.544	112.62
521.76	87.62
521.975	103.62
522.19	101.62
522.406	102.62
522.621	98.62
522.836	84.62
523.052	107.62
523.267	79.62
523.482	100.62
523.698	96.62
523.913	101.62
524.128	107.62
524.343	98.62
524.559	99.62
524.774	102.62
524.989	93.62
525.204	91.62
525.419	99.62
525.634	105.62
525.849	96.62
526.064	95.62
526.28	103.62
526.495	89.62
526.71	102.62
526.925	99.62
527.14	104.62
527.355	87.62
527.57	101.62
527.785	92.62
527.999	107.62
528.214	88.62
528.429	95.62
528.644	88.62
528.859	106.62
529.074	101.62
529.289	101.62
529.503	90.62
529.718	96.62
529.933	85.62
530.148	109.62
530.363	102.62
530.577	99.62
530.792	94.62
531.007	96.62
531.221	110.62
531.436	86.62
531.651	103.62
531.865	95.62
532.08	98.62
532.295	100.62
532.509	93.62
532.724	92.62
532.938	105.62
533.153	98.62
533.367	85.62
533.582	103.62
533.796	98.62
534.011	88.62
534.225	97.62
534.44	90.62
534.654	85.62
534.868	97.62
535.083	90.62
535.297	93.62
535.511	101.62
535.726	99.62
535.94	94.62
536.154	93.62
536.369	92.62
536.583	94.62
536.797	82.62
537.011	90.62
537.225	87.62
537.44	109.62
537.654	98.62
537.868	95.62
538.082	74.62
538.296	83.62
538.51	99.62
538.724	109.62
538.938	97.62
539.153	99.62
539.367	95.62
539.581	105.62
539.795	116.62
540.009	115.62
540.222	101.62
540.436	108.62
540.65	90.62
540.864	96.62
541.078	94.62
541.292	103.62
541.506	99.62
541.72	83.62
541.934	106.62
542.147	107.62
542.361	99.62
542.575	105.62
542.789	106.62
543.002	86.62
543.216	94.62
543.43	100.62
543.644	111.62
543.857	114.62
544.071	101.62
544.285	81.62
544.498	101.62
544.712	106.62
544.925	106.62
545.139	105.62
545.352	102.62
545.566	100.62
545.779	85.62
545.993	99.62
546.206	100.62
546.42	109.62
546.633	103.62
546.847	106.62
547.06	93.62
547.274	105.62
547.487	111.62
547.7	97.62
547.914	99.62
548.127	108.62
548.34	98.62
548.554	97.62
548.767	102.62
548.98	106.62
549.193	80.62
549.407	98.62
549.62	120.62
549.833	110.62
550.046	110.62
550.259	97.62
550.473	90.62
550.686	107.62
550.899	91.62
551.112	99.62
551.325	102.62
551.538	106.62
551.751	98.62
551.964	101.62
552.177	91.62
552.39	100.62
552.603	93.62
552.816	104.62
553.029	103.62
553.242	110.62
553.455	100.62
553.667	102.62
553.88	111.62
554.093	113.62
554.306	98.62
554.519	103.62
554.732	104.62
554.944	105.62
555.157	101.62
555.37	98.62
555.583	103.62
555.795	109.62
556.008	102.62
556.221	100.62
556.433	94.62
556.646	106.62
556.859	97.62
557.071	96.62
557.284	105.62
557.496	98.62
557.709	101.62
557.921	91.62
558.134	89.62
558.346	102.62
558.559	106.62
558.771	106.62
558.984	103.62
559.196	89.62
559.409	99.62
559.621	97.62
559.833	94.62
560.046	89.62
560.258	89.62
560.47	107.62
560.683	91.62
560.895	88.62
561.107	96.62
561.32	69.62
561.532	87.62
561.744	103.62
561.956	88.62
562.168	109.62
562.381	109.62
562.593	104.62
562.805	99.62
563.017	89.62
563.229	92.62
563.441	95.62
563.653	90.62
563.865	99.62
564.077	91.62
564.289	106.62
564.501	104.62
564.713	91.62
564.925	103.62
565.137	99.62
565.349	111.62
565.561	100.62
565.773	104.62
565.985	100.62
566.197	101.62
566.408	81.62
566.62	99.62
566.832	98.62
567.044	106.62
567.255	106.62
567.467	85.62
567.679	99.62
567.891	112.62
568.102	120.62
568.314	98.62
568.526	99.62
568.737	113.62
568.949	97.62
569.161	108.62
569.372	96.62
569.584	93.62
569.795	94.62
570.007	98.62
570.218	93.62
570.43	101.62
570.641	93.62
570.853	90.62
571.064	83.62
571.276	97.62
571.487	84.62
571.698	90.62
571.91	94.62
572.121	92.62
572.333	89.62
572.544	93.62
572.755	113.62
572.966	90.62
573.178	100.62
573.389	83.62
573.6	83.62
573.811	92.62
574.023	96.62
574.234	97.62
574.445	91.62
574.656	97.62
574.867	114.62
575.078	98.62
575.289	93.62
575.501	93.62
575.712	90.62
575.923	78.62
576.134	77.62
576.345	99.62
576.556	88.62
576.767	91.62
576.978	77.62
577.188	84.62
577.399	96.62
577.61	97.62
577.821	75.62
578.032	98.62
578.243	91.62
578.454	97.62
578.665	88.62
578.875	103.62
579.086	96.62
579.297	89.62
579.508	79.62
579.718	84.62
579.929	91.62
580.14	83.62
580.35	90.62
580.561	73.62
580.772	91.62
580.982	91.62
581.193	83.62
581.403	76.62
581.614	79.62
581.825	90.62
582.035	87.62
582.246	82.62
582.456	95.62
582.667	99.62
582.877	95.62
583.087	91.62
583.298	93.62
583.508	103.62
583.719	96.62
583.929	91.62
584.139	106.62
584.35	89.62
584.56	90.62
584.77	90.62
584.981	101.62
585.191	84.62
585.401	90.62
585.611	90.62
585.821	88.62
586.032	79.62
586.242	83.62
586.452	84.62
586.662	90.62
586.872	87.62
587.082	116.62
587.292	99.62
587.502	95.62
587.713	98.62
587.923	86.62
588.133	70.62
588.343	87.62
588.553	74.62
588.762	81.62
588.972	91.62
589.182	106.62
589.392	109.62
589.602	92.62
589.812	109.62
590.022	103.62
590.232	94.62
590.441	92.62
590.651	99.62
590.861	82.62
591.071	79.62
591.281	98.62
591.49	92.62
591.7	74.62
591.91	95.62
592.119	93.62
592.329	99.62
592.539	97.62
592.748	85.62
592.958	92.62
593.167	93.62
593.377	105.62
593.587	97.62
593.796	90.62
594.006	86.62
594.215	86.62
594.424	104.62
594.634	88.62
594.843	89.62
595.053	81.62
595.262	89.62
595.472	95.62
595.681	86.62
595.89	99.62
596.1	97.62
596.309	96.62
596.518	87.62
596.727	81.62
596.937	91.62
597.146	75.62
597.355	97.62
597.564	75.62
597.774	96.62
597.983	107.62
598.192	89.62
598.401	95.62
598.61	97.62
598.819	75.62
599.028	90.62
599.237	82.62
599.446	85.62
599.655	81.62
599.864	84.62
600.073	90.62
600.282	71.62
600.491	81.62
600.7	86.62
600.909	101.62
601.118	88.62
601.327	86.62
601.536	90.62
601.745	85.62
601.953	96.62
602.162	91.62
602.371	98.62
602.58	85.62
602.789	94.62
602.997	104.62
603.206	94.62
603.415	86.62
603.623	84.62
603.832	92.62
604.041	85.62
604.249	85.62
604.458	104.62
604.666	91.62
604.875	81.62
605.084	73.62
605.292	77.62
605.501	80.62
605.709	79.62
605.918	91.62
606.126	80.62
606.334	92.62
606.543	95.62
606.751	90.62
606.96	90.62
607.168	90.62
607.376	92.62
607.585	103.62
607.793	97.62
608.001	93.62
608.21	83.62
608.418	92.62
608.626	93.62
608.834	91.62
609.043	79.62
609.251	90.62
609.459	90.62
609.667	90.62
609.875	97.62
610.083	92.62
610.291	85.62
610.499	93.62
610.707	100.62
610.916	79.62
611.124	88.62
611.332	77.62
611.54	90.62
611.748	89.62
611.955	89.62
612.163	93.62
612.371	90.62
612.579	91.62
612.787	82.62
612.995	86.62
613.203	76.62
613.411	87.62
613.618	86.62
613.826	91.62
614.034	81.62
614.242	87.62
614.449	98.62
614.657	89.62
614.865	94.62
615.072	80.62
615.28	98.62
615.488	98.62
615.695	94.62
615.903	84.62
616.111	112.62
616.318	94.62
616.526	86.62
616.733	91.62
616.941	74.62
617.148	89.62
617.356	81.62
617.563	93.62
617.771	95.62
617.978	91.62
618.185	94.62
618.393	92.62
618.6	89.62
618.807	82.62
619.015	80.62
619.222	91.62
619.429	89.62
619.637	81.62
619.844	93.62
620.051	83.62
620.258	88.62
620.466	85.62
620.673	86.62
620.88	90.62
621.087	98.62
621.294	94.62
621.501	78.62
621.708	87.62
621.915	84.62
622.122	97.62
622.329	78.62
622.536	100.62
622.743	81.62
622.95	78.62
623.157	99.62
623.364	81.62
623.571	79.62
623.778	82.62
623.985	85.62
624.192	86.62
624.399	95.62
624.606	106.62
624.812	97.62
625.019	88.62
625.226	85.62
625.433	89.62
625.639	78.62
625.846	87.62
626.053	81.62
626.259	79.62
626.466	96.62
626.673	103.62
626.879	88.62
627.086	87.62
627.293	100.62
627.499	81.62
627.706	89.62
627.912	93.62
628.119	95.62
628.325	97.62
628.532	96.62
628.738	81.62
628.945	83.62
629.151	95.62
629.357	96.62
629.564	99.62
629.77	95.62
629.976	90.62
630.183	85.62
630.389	85.62
630.595	88.62
630.802	79.62
631.008	89.62
631.214	93.62
631.42	93.62
631.627	85.62
631.833	83.62
632.039	93.62
632.245	89.62
632.451	83.62
632.657	90.62
632.863	89.62
633.069	74.62
633.275	81.62
633.481	86.62
633.688	93.62
633.893	87.62
634.099	92.62
634.305	88.62
634.511	86.62
634.717	74.62
634.923	62.62
635.129	87.62
635.335	71.62
635.541	73.62
635.747	93.62
635.952	93.62
636.158	87.62
636.364	75.62
636.57	86.62
636.775	83.62
636.981	93.62
637.187	88.62
637.392	79.62
637.598	72.62
637.804	89.62
638.009	84.62
638.215	87.62
638.421	93.62
638.626	93.62
638.832	90.62
639.037	107.62
639.243	81.62
639.448	74.62
639.654	96.62
639.859	74.62
640.065	93.62
640.27	91.62
640.475	87.62
640.681	95.62
640.886	98.62
641.091	91.62
641.297	97.62
641.502	86.62
641.707	75.62
641.913	79.62
642.118	102.62
642.323	68.62
642.528	86.62
642.733	86.62
642.939	60.62
643.144	93.62
643.349	94.62
643.554	84.62
643.759	103.62
643.964	82.62
644.169	85.62
644.374	88.62
644.579	90.62
644.784	87.62
644.989	89.62
645.194	82.62
645.399	85.62
645.604	84.62
645.809	69.62
646.014	77.62
646.219	89.62
646.423	93.62
646.628	82.62
646.833	82.62
647.038	81.62
647.243	86.62
647.447	90.62
647.652	91.62
647.857	81.62
648.062	83.62
648.266	78.62
648.471	83.62
648.676	94.62
648.88	90.62
649.085	79.62
649.289	72.62
649.494	78.62
649.698	96.62
649.903	85.62
650.107	85.62
650.312	83.62
650.516	77.62
650.721	83.62
650.925	98.62
651.13	85.62
651.334	81.62
651.539	82.62
651.743	85.62
651.947	87.62
652.152	87.62
652.356	83.62
652.56	101.62
652.764	95.62
652.969	92.62
653.173	80.62
653.377	87.62
653.581	89.62
653.785	78.62
653.99	83.62
654.194	88.62
654.398	95.62
654.602	89.62
654.806	85.62
655.01	96.62
655.214	68.62
655.418	82.62
655.622	95.62
655.826	81.62
656.03	82.62
656.234	85.62
656.438	95.62
656.642	103.62
656.846	92.62
657.049	80.62
657.253	74.62
657.457	79.62
657.661	81.62
657.865	80.62
658.068	78.62
658.272	79.62
658.476	85.62
658.68	85.62
658.883	88.62
659.087	80.62
659.291	86.62
659.494	81.62
659.698	74.62
659.901	73.62
660.105	82.62
660.309	82.62
660.512	87.62
660.716	85.62
660.919	86.62
661.123	80.62
661.326	68.62
661.53	80.62
661.733	79.62
661.936	70.62
662.14	80.62
662.343	81.62
662.546	80.62
662.75	75.62
662.953	92.62
663.156	85.62
663.36	81.62
663.563	81.62
663.766	80.62
663.969	63.62
664.173	85.62
664.376	83.62
664.579	73.62
664.782	75.62
664.985	79.62
665.188	87.62
665.391	81.62
665.594	75.62
665.797	65.62
666	68.62
666.203	89.62
666.406	77.62
666.609	89.62
666.812	99.62
667.015	90.62
667.218	87.62
667.421	80.62
667.624	71.62
667.827	87.62
668.03	90.62
668.232	74.62
668.435	85.62
668.638	74.62
668.841	76.62
669.043	77.62
669.246	87.62
669.449	75.62
669.651	84.62
669.854	77.62
670.057	93.62
670.259	90.62
670.462	82.62
670.665	94.62
670.867	94.62
671.07	81.62
671.272	87.62
671.475	71.62
671.677	85.62
671.88	86.62
672.082	72.62
672.284	92.62
672.487	75.62
672.689	85.62
672.892	77.62
