Data from Location5.07152019.Energy5.Lamp.07192019.3%Agarose_HRD10591_15-38-30-387.txt Node
Date: Fri Jul 19 15:38:30 EDT 2019
User: cochatt
Spectrometer: HR+D1059
Trigger mode: 1
Integration Time (sec): 1.000000E-1
Scans to average: 1
Electric dark correction enabled: true
Nonlinearity correction enabled: false
Boxcar width: 0
XAxis mode: Wavelengths
Number of Pixels in Spectrum: 2048
>>>>>Begin Spectral Data<<<<<
223.165	-13.25
223.4	-13.25
223.635	-13.25
223.869	-22.25
224.104	-28.25
224.338	-22.25
224.573	-1.25
224.808	-16.25
225.042	1.75
225.277	-16.25
225.511	-6.25
225.746	8.75
225.98	8.75
226.215	1.75
226.449	19.75
226.683	26.75
226.918	24.75
227.152	33.75
227.387	32.75
227.621	27.75
227.856	46.75
228.09	34.75
228.324	57.75
228.559	51.75
228.793	61.75
229.027	56.75
229.262	58.75
229.496	60.75
229.73	61.75
229.964	70.75
230.199	66.75
230.433	86.75
230.667	80.75
230.901	73.75
231.136	82.75
231.37	80.75
231.604	81.75
231.838	69.75
232.072	75.75
232.306	86.75
232.541	76.75
232.775	76.75
233.009	77.75
233.243	98.75
233.477	94.75
233.711	71.75
233.945	86.75
234.179	76.75
234.413	86.75
234.647	83.75
234.881	76.75
235.115	59.75
235.349	76.75
235.583	87.75
235.817	75.75
236.051	75.75
236.285	79.75
236.519	79.75
236.753	71.75
236.987	74.75
237.221	80.75
237.455	85.75
237.689	82.75
237.922	76.75
238.156	68.75
238.39	69.75
238.624	77.75
238.858	80.75
239.091	70.75
239.325	79.75
239.559	68.75
239.793	88.75
240.027	75.75
240.26	72.75
240.494	90.75
240.728	97.75
240.961	61.75
241.195	73.75
241.429	70.75
241.662	66.75
241.896	79.75
242.13	62.75
242.363	81.75
242.597	81.75
242.83	74.75
243.064	92.75
243.298	77.75
243.531	79.75
243.765	67.75
243.998	76.75
244.232	89.75
244.465	74.75
244.699	84.75
244.932	72.75
245.166	81.75
245.399	69.75
245.633	89.75
245.866	79.75
246.099	81.75
246.333	68.75
246.566	74.75
246.8	71.75
247.033	71.75
247.266	89.75
247.5	74.75
247.733	75.75
247.966	77.75
248.2	88.75
248.433	65.75
248.666	73.75
248.899	69.75
249.133	75.75
249.366	72.75
249.599	87.75
249.832	78.75
250.066	76.75
250.299	83.75
250.532	62.75
250.765	82.75
250.998	76.75
251.231	70.75
251.465	88.75
251.698	94.75
251.931	79.75
252.164	83.75
252.397	83.75
252.63	82.75
252.863	93.75
253.096	91.75
253.329	77.75
253.562	69.75
253.795	81.75
254.028	77.75
254.261	81.75
254.494	75.75
254.727	91.75
254.96	98.75
255.193	80.75
255.426	75.75
255.659	71.75
255.892	81.75
256.124	66.75
256.357	80.75
256.59	74.75
256.823	84.75
257.056	74.75
257.289	78.75
257.521	64.75
257.754	67.75
257.987	89.75
258.22	77.75
258.452	85.75
258.685	73.75
258.918	90.75
259.151	86.75
259.383	88.75
259.616	71.75
259.849	87.75
260.081	83.75
260.314	73.75
260.547	72.75
260.779	67.75
261.012	77.75
261.244	86.75
261.477	89.75
261.71	81.75
261.942	82.75
262.175	94.75
262.407	86.75
262.64	71.75
262.872	56.75
263.105	75.75
263.337	80.75
263.57	65.75
263.802	67.75
264.035	93.75
264.267	83.75
264.499	71.75
264.732	98.75
264.964	85.75
265.197	80.75
265.429	80.75
265.661	92.75
265.894	80.75
266.126	86.75
266.358	70.75
266.591	83.75
266.823	96.75
267.055	75.75
267.287	80.75
267.52	91.75
267.752	91.75
267.984	83.75
268.216	86.75
268.448	76.75
268.681	88.75
268.913	86.75
269.145	71.75
269.377	82.75
269.609	88.75
269.841	95.75
270.073	85.75
270.306	68.75
270.538	76.75
270.77	88.75
271.002	82.75
271.234	83.75
271.466	90.75
271.698	79.75
271.93	72.75
272.162	93.75
272.394	92.75
272.626	72.75
272.858	84.75
273.09	86.75
273.322	83.75
273.553	82.75
273.785	72.75
274.017	83.75
274.249	86.75
274.481	87.75
274.713	80.75
274.945	89.75
275.176	97.75
275.408	86.75
275.64	76.75
275.872	80.75
276.104	83.75
276.335	75.75
276.567	70.75
276.799	74.75
277.031	85.75
277.262	83.75
277.494	92.75
277.726	83.75
277.957	92.75
278.189	77.75
278.421	87.75
278.652	80.75
278.884	78.75
279.115	79.75
279.347	85.75
279.579	88.75
279.81	81.75
280.042	74.75
280.273	84.75
280.505	86.75
280.736	96.75
280.968	77.75
281.199	90.75
281.431	103.75
281.662	88.75
281.894	74.75
282.125	85.75
282.356	78.75
282.588	89.75
282.819	95.75
283.051	83.75
283.282	86.75
283.513	89.75
283.745	79.75
283.976	85.75
284.207	82.75
284.439	86.75
284.67	73.75
284.901	84.75
285.132	87.75
285.364	82.75
285.595	82.75
285.826	76.75
286.057	90.75
286.288	73.75
286.52	85.75
286.751	99.75
286.982	85.75
287.213	70.75
287.444	92.75
287.675	74.75
287.906	87.75
288.138	88.75
288.369	84.75
288.6	93.75
288.831	98.75
289.062	78.75
289.293	91.75
289.524	87.75
289.755	76.75
289.986	71.75
290.217	87.75
290.448	88.75
290.679	82.75
290.91	90.75
291.141	90.75
291.371	98.75
291.602	68.75
291.833	79.75
292.064	83.75
292.295	86.75
292.526	90.75
292.757	80.75
292.987	93.75
293.218	86.75
293.449	93.75
293.68	94.75
293.91	76.75
294.141	87.75
294.372	69.75
294.603	91.75
294.833	81.75
295.064	95.75
295.295	85.75
295.525	78.75
295.756	85.75
295.987	94.75
296.217	87.75
296.448	81.75
296.679	91.75
296.909	84.75
297.14	89.75
297.37	87.75
297.601	85.75
297.831	81.75
298.062	95.75
298.292	80.75
298.523	79.75
298.753	86.75
298.984	87.75
299.214	88.75
299.445	88.75
299.675	76.75
299.905	75.75
300.136	101.75
300.366	73.75
300.597	94.75
300.827	73.75
301.057	78.75
301.288	82.75
301.518	90.75
301.748	79.75
301.979	85.75
302.209	85.75
302.439	78.75
302.669	85.75
302.9	89.75
303.13	85.75
303.36	84.75
303.59	72.75
303.82	86.75
304.051	80.75
304.281	95.75
304.511	73.75
304.741	81.75
304.971	64.75
305.201	81.75
305.431	89.75
305.661	94.75
305.891	92.75
306.121	91.75
306.352	93.75
306.582	85.75
306.812	81.75
307.042	83.75
307.272	80.75
307.502	75.75
307.731	73.75
307.961	84.75
308.191	81.75
308.421	97.75
308.651	78.75
308.881	93.75
309.111	87.75
309.341	87.75
309.571	100.75
309.8	74.75
310.03	96.75
310.26	78.75
310.49	89.75
310.72	100.75
310.949	87.75
311.179	94.75
311.409	79.75
311.639	91.75
311.868	80.75
312.098	92.75
312.328	92.75
312.557	84.75
312.787	80.75
313.017	73.75
313.246	87.75
313.476	75.75
313.706	81.75
313.935	84.75
314.165	76.75
314.394	88.75
314.624	93.75
314.853	87.75
315.083	66.75
315.312	72.75
315.542	74.75
315.771	89.75
316.001	84.75
316.23	87.75
316.46	81.75
316.689	82.75
316.919	93.75
317.148	73.75
317.377	77.75
317.607	93.75
317.836	84.75
318.065	85.75
318.295	84.75
318.524	93.75
318.753	77.75
318.983	100.75
319.212	86.75
319.441	86.75
319.67	78.75
319.9	87.75
320.129	76.75
320.358	98.75
320.587	86.75
320.816	86.75
321.046	89.75
321.275	75.75
321.504	101.75
321.733	92.75
321.962	73.75
322.191	85.75
322.42	75.75
322.649	96.75
322.878	66.75
323.108	87.75
323.337	73.75
323.566	93.75
323.795	90.75
324.024	80.75
324.253	78.75
324.482	82.75
324.71	86.75
324.939	80.75
325.168	85.75
325.397	89.75
325.626	89.75
325.855	69.75
326.084	86.75
326.313	86.75
326.542	81.75
326.77	86.75
326.999	80.75
327.228	74.75
327.457	81.75
327.686	82.75
327.914	79.75
328.143	82.75
328.372	79.75
328.6	85.75
328.829	70.75
329.058	78.75
329.287	87.75
329.515	86.75
329.744	87.75
329.972	80.75
330.201	95.75
330.43	80.75
330.658	86.75
330.887	88.75
331.115	103.75
331.344	86.75
331.572	80.75
331.801	80.75
332.03	81.75
332.258	90.75
332.486	77.75
332.715	76.75
332.943	85.75
333.172	85.75
333.4	74.75
333.629	75.75
333.857	78.75
334.085	89.75
334.314	82.75
334.542	86.75
334.771	75.75
334.999	77.75
335.227	91.75
335.455	70.75
335.684	92.75
335.912	87.75
336.14	79.75
336.369	75.75
336.597	74.75
336.825	87.75
337.053	85.75
337.281	63.75
337.51	82.75
337.738	89.75
337.966	94.75
338.194	82.75
338.422	79.75
338.65	75.75
338.878	87.75
339.106	88.75
339.334	86.75
339.562	87.75
339.79	81.75
340.018	93.75
340.246	75.75
340.474	77.75
340.702	81.75
340.93	74.75
341.158	103.75
341.386	94.75
341.614	84.75
341.842	82.75
342.07	80.75
342.298	87.75
342.526	90.75
342.754	83.75
342.981	79.75
343.209	91.75
343.437	88.75
343.665	90.75
343.893	85.75
344.12	78.75
344.348	65.75
344.576	68.75
344.804	78.75
345.031	79.75
345.259	73.75
345.487	96.75
345.714	84.75
345.942	90.75
346.17	72.75
346.397	79.75
346.625	76.75
346.853	82.75
347.08	88.75
347.308	80.75
347.535	75.75
347.763	84.75
347.99	103.75
348.218	78.75
348.445	71.75
348.673	82.75
348.9	73.75
349.128	85.75
349.355	86.75
349.583	81.75
349.81	81.75
350.037	79.75
350.265	85.75
350.492	84.75
350.72	94.75
350.947	81.75
351.174	81.75
351.402	89.75
351.629	78.75
351.856	95.75
352.083	72.75
352.311	86.75
352.538	80.75
352.765	83.75
352.992	87.75
353.22	85.75
353.447	82.75
353.674	89.75
353.901	71.75
354.128	82.75
354.355	73.75
354.583	75.75
354.81	80.75
355.037	73.75
355.264	77.75
355.491	89.75
355.718	81.75
355.945	72.75
356.172	79.75
356.399	91.75
356.626	79.75
356.853	91.75
357.08	81.75
357.307	69.75
357.534	83.75
357.761	79.75
357.988	87.75
358.215	77.75
358.441	72.75
358.668	77.75
358.895	91.75
359.122	81.75
359.349	96.75
359.576	81.75
359.802	81.75
360.029	81.75
360.256	80.75
360.483	73.75
360.709	72.75
360.936	102.75
361.163	83.75
361.39	71.75
361.616	86.75
361.843	79.75
362.07	85.75
362.296	81.75
362.523	89.75
362.749	78.75
362.976	80.75
363.203	75.75
363.429	85.75
363.656	80.75
363.882	86.75
364.109	81.75
364.335	81.75
364.562	64.75
364.788	85.75
365.015	93.75
365.241	86.75
365.468	74.75
365.694	81.75
365.92	78.75
366.147	93.75
366.373	91.75
366.599	73.75
366.826	84.75
367.052	88.75
367.278	89.75
367.505	76.75
367.731	83.75
367.957	74.75
368.184	75.75
368.41	66.75
368.636	96.75
368.862	85.75
369.089	95.75
369.315	71.75
369.541	85.75
369.767	86.75
369.993	81.75
370.219	81.75
370.445	84.75
370.672	75.75
370.898	90.75
371.124	72.75
371.35	83.75
371.576	87.75
371.802	86.75
372.028	94.75
372.254	88.75
372.48	96.75
372.706	87.75
372.932	79.75
373.158	82.75
373.384	79.75
373.61	87.75
373.835	84.75
374.061	88.75
374.287	77.75
374.513	66.75
374.739	97.75
374.965	90.75
375.191	85.75
375.416	88.75
375.642	94.75
375.868	92.75
376.094	103.75
376.319	87.75
376.545	78.75
376.771	86.75
376.997	88.75
377.222	79.75
377.448	85.75
377.674	75.75
377.899	85.75
378.125	77.75
378.35	84.75
378.576	86.75
378.802	79.75
379.027	81.75
379.253	93.75
379.478	97.75
379.704	100.75
379.929	90.75
380.155	79.75
380.38	83.75
380.606	78.75
380.831	87.75
381.057	83.75
381.282	79.75
381.507	90.75
381.733	88.75
381.958	89.75
382.184	73.75
382.409	73.75
382.634	78.75
382.86	81.75
383.085	79.75
383.31	86.75
383.535	74.75
383.761	90.75
383.986	83.75
384.211	78.75
384.436	84.75
384.662	69.75
384.887	76.75
385.112	80.75
385.337	96.75
385.562	85.75
385.787	81.75
386.013	88.75
386.238	81.75
386.463	78.75
386.688	63.75
386.913	78.75
387.138	91.75
387.363	96.75
387.588	95.75
387.813	83.75
388.038	80.75
388.263	82.75
388.488	78.75
388.713	78.75
388.938	81.75
389.163	91.75
389.387	89.75
389.612	93.75
389.837	91.75
390.062	82.75
390.287	80.75
390.512	82.75
390.736	86.75
390.961	81.75
391.186	82.75
391.411	79.75
391.636	81.75
391.86	81.75
392.085	87.75
392.31	96.75
392.534	95.75
392.759	97.75
392.984	86.75
393.208	91.75
393.433	84.75
393.658	87.75
393.882	97.75
394.107	85.75
394.331	70.75
394.556	77.75
394.78	93.75
395.005	76.75
395.229	75.75
395.454	89.75
395.678	88.75
395.903	88.75
396.127	82.75
396.352	85.75
396.576	91.75
396.801	75.75
397.025	77.75
397.249	82.75
397.474	85.75
397.698	89.75
397.922	90.75
398.147	95.75
398.371	76.75
398.595	86.75
398.82	78.75
399.044	77.75
399.268	92.75
399.492	79.75
399.717	89.75
399.941	91.75
400.165	68.75
400.389	63.75
400.613	95.75
400.837	95.75
401.062	101.75
401.286	88.75
401.51	75.75
401.734	96.75
401.958	84.75
402.182	99.75
402.406	88.75
402.63	73.75
402.854	86.75
403.078	92.75
403.302	83.75
403.526	86.75
403.75	85.75
403.974	82.75
404.198	95.75
404.422	86.75
404.645	83.75
404.869	80.75
405.093	92.75
405.317	96.75
405.541	83.75
405.765	89.75
405.988	96.75
406.212	83.75
406.436	80.75
406.66	87.75
406.883	93.75
407.107	84.75
407.331	78.75
407.555	66.75
407.778	82.75
408.002	82.75
408.226	88.75
408.449	81.75
408.673	87.75
408.896	88.75
409.12	79.75
409.344	89.75
409.567	100.75
409.791	89.75
410.014	96.75
410.238	81.75
410.461	86.75
410.685	96.75
410.908	98.75
411.132	96.75
411.355	94.75
411.578	81.75
411.802	78.75
412.025	95.75
412.249	91.75
412.472	102.75
412.695	97.75
412.919	86.75
413.142	91.75
413.365	85.75
413.589	85.75
413.812	94.75
414.035	104.75
414.258	87.75
414.482	82.75
414.705	85.75
414.928	86.75
415.151	97.75
415.374	93.75
415.597	88.75
415.821	89.75
416.044	84.75
416.267	98.75
416.49	84.75
416.713	90.75
416.936	82.75
417.159	105.75
417.382	93.75
417.605	74.75
417.828	103.75
418.051	89.75
418.274	75.75
418.497	81.75
418.72	97.75
418.943	102.75
419.166	88.75
419.389	91.75
419.611	101.75
419.834	94.75
420.057	95.75
420.28	77.75
420.503	86.75
420.726	82.75
420.948	92.75
421.171	90.75
421.394	90.75
421.617	96.75
421.839	91.75
422.062	87.75
422.285	91.75
422.507	91.75
422.73	73.75
422.953	70.75
423.175	97.75
423.398	87.75
423.621	88.75
423.843	96.75
424.066	88.75
424.288	91.75
424.511	94.75
424.733	96.75
424.956	98.75
425.178	93.75
425.401	84.75
425.623	80.75
425.846	79.75
426.068	100.75
426.291	102.75
426.513	83.75
426.735	96.75
426.958	91.75
427.18	80.75
427.402	95.75
427.625	89.75
427.847	85.75
428.069	77.75
428.292	86.75
428.514	83.75
428.736	88.75
428.958	78.75
429.181	84.75
429.403	93.75
429.625	86.75
429.847	93.75
430.069	95.75
430.292	83.75
430.514	95.75
430.736	80.75
430.958	94.75
431.18	100.75
431.402	93.75
431.624	84.75
431.846	99.75
432.068	80.75
432.29	72.75
432.512	81.75
432.734	77.75
432.956	83.75
433.178	96.75
433.4	95.75
433.622	99.75
433.844	100.75
434.066	88.75
434.287	82.75
434.509	82.75
434.731	90.75
434.953	88.75
435.175	80.75
435.397	88.75
435.618	76.75
435.84	87.75
436.062	87.75
436.284	102.75
436.505	89.75
436.727	78.75
436.949	92.75
437.17	94.75
437.392	91.75
437.614	78.75
437.835	75.75
438.057	83.75
438.278	98.75
438.5	86.75
438.721	99.75
438.943	89.75
439.165	106.75
439.386	85.75
439.608	85.75
439.829	93.75
440.05	101.75
440.272	96.75
440.493	96.75
440.715	92.75
440.936	109.75
441.158	97.75
441.379	97.75
441.6	95.75
441.822	97.75
442.043	93.75
442.264	96.75
442.486	81.75
442.707	85.75
442.928	95.75
443.149	70.75
443.371	96.75
443.592	80.75
443.813	98.75
444.034	80.75
444.255	87.75
444.476	100.75
444.698	98.75
444.919	81.75
445.14	222.75
445.361	147.75
445.582	119.75
445.803	101.75
446.024	80.75
446.245	86.75
446.466	106.75
446.687	90.75
446.908	115.75
447.129	93.75
447.35	93.75
447.571	101.75
447.792	94.75
448.013	96.75
448.234	88.75
448.455	91.75
448.675	86.75
448.896	94.75
449.117	91.75
449.338	93.75
449.559	96.75
449.779	89.75
450	101.75
450.221	106.75
450.442	93.75
450.662	96.75
450.883	92.75
451.104	86.75
451.324	103.75
451.545	94.75
451.766	102.75
451.986	98.75
452.207	90.75
452.428	77.75
452.648	99.75
452.869	94.75
453.089	91.75
453.31	86.75
453.53	104.75
453.751	85.75
453.971	85.75
454.192	89.75
454.412	93.75
454.633	84.75
454.853	86.75
455.073	75.75
455.294	90.75
455.514	93.75
455.734	99.75
455.955	84.75
456.175	87.75
456.395	87.75
456.616	95.75
456.836	74.75
457.056	82.75
457.276	85.75
457.497	85.75
457.717	89.75
457.937	82.75
458.157	76.75
458.377	85.75
458.598	89.75
458.818	89.75
459.038	84.75
459.258	81.75
459.478	82.75
459.698	72.75
459.918	89.75
460.138	85.75
460.358	85.75
460.578	87.75
460.798	84.75
461.018	85.75
461.238	83.75
461.458	93.75
461.678	78.75
461.898	80.75
462.118	90.75
462.338	89.75
462.558	85.75
462.777	81.75
462.997	83.75
463.217	61.75
463.437	77.75
463.657	83.75
463.876	72.75
464.096	82.75
464.316	80.75
464.536	84.75
464.755	93.75
464.975	92.75
465.195	84.75
465.414	95.75
465.634	75.75
465.854	81.75
466.073	82.75
466.293	89.75
466.512	88.75
466.732	96.75
466.951	101.75
467.171	90.75
467.391	106.75
467.61	95.75
467.829	90.75
468.049	89.75
468.268	89.75
468.488	86.75
468.707	89.75
468.927	84.75
469.146	88.75
469.365	98.75
469.585	91.75
469.804	86.75
470.023	80.75
470.243	77.75
470.462	95.75
470.681	94.75
470.901	101.75
471.12	102.75
471.339	91.75
471.558	103.75
471.777	102.75
471.997	105.75
472.216	94.75
472.435	91.75
472.654	103.75
472.873	99.75
473.092	89.75
473.311	94.75
473.53	90.75
473.749	89.75
473.968	102.75
474.187	93.75
474.406	94.75
474.625	97.75
474.844	93.75
475.063	100.75
475.282	86.75
475.501	76.75
475.72	104.75
475.939	100.75
476.158	98.75
476.377	86.75
476.596	82.75
476.814	94.75
477.033	94.75
477.252	95.75
477.471	90.75
477.69	95.75
477.908	81.75
478.127	84.75
478.346	81.75
478.564	81.75
478.783	105.75
479.002	98.75
479.22	86.75
479.439	93.75
479.658	78.75
479.876	85.75
480.095	83.75
480.313	77.75
480.532	89.75
480.751	96.75
480.969	79.75
481.188	89.75
481.406	87.75
481.624	83.75
481.843	96.75
482.061	98.75
482.28	81.75
482.498	81.75
482.717	82.75
482.935	89.75
483.153	86.75
483.372	94.75
483.59	84.75
483.808	109.75
484.027	85.75
484.245	96.75
484.463	95.75
484.681	95.75
484.9	92.75
485.118	93.75
485.336	103.75
485.554	92.75
485.772	90.75
485.99	98.75
486.209	75.75
486.427	85.75
486.645	97.75
486.863	89.75
487.081	101.75
487.299	95.75
487.517	89.75
487.735	103.75
487.953	104.75
488.171	103.75
488.389	103.75
488.607	115.75
488.825	99.75
489.043	89.75
489.261	94.75
489.479	96.75
489.696	91.75
489.914	83.75
490.132	90.75
490.35	104.75
490.568	107.75
490.786	102.75
491.003	95.75
491.221	119.75
491.439	103.75
491.657	115.75
491.874	105.75
492.092	112.75
492.31	120.75
492.527	116.75
492.745	125.75
492.963	114.75
493.18	111.75
493.398	115.75
493.615	107.75
493.833	102.75
494.05	83.75
494.268	92.75
494.485	96.75
494.703	105.75
494.92	115.75
495.138	107.75
495.355	91.75
495.573	120.75
495.79	100.75
496.008	104.75
496.225	103.75
496.442	111.75
496.66	111.75
496.877	112.75
497.094	106.75
497.312	105.75
497.529	102.75
497.746	109.75
497.963	100.75
498.181	103.75
498.398	88.75
498.615	109.75
498.832	96.75
499.049	89.75
499.267	89.75
499.484	84.75
499.701	98.75
499.918	103.75
500.135	84.75
500.352	89.75
500.569	97.75
500.786	89.75
501.003	94.75
501.22	100.75
501.437	108.75
501.654	95.75
501.871	100.75
502.088	97.75
502.305	83.75
502.522	111.75
502.739	87.75
502.956	96.75
503.172	94.75
503.389	100.75
503.606	87.75
503.823	97.75
504.04	89.75
504.256	80.75
504.473	87.75
504.69	96.75
504.907	99.75
505.123	81.75
505.34	98.75
505.557	86.75
505.773	105.75
505.99	94.75
506.207	92.75
506.423	92.75
506.64	89.75
506.856	94.75
507.073	75.75
507.289	104.75
507.506	102.75
507.722	86.75
507.939	79.75
508.155	100.75
508.372	94.75
508.588	86.75
508.805	97.75
509.021	62.75
509.238	69.75
509.454	88.75
509.67	74.75
509.887	100.75
510.103	89.75
510.319	77.75
510.536	86.75
510.752	85.75
510.968	79.75
511.184	83.75
511.401	81.75
511.617	85.75
511.833	83.75
512.049	72.75
512.265	95.75
512.481	85.75
512.698	102.75
512.914	85.75
513.13	90.75
513.346	64.75
513.562	96.75
513.778	83.75
513.994	75.75
514.21	79.75
514.426	92.75
514.642	96.75
514.858	85.75
515.074	87.75
515.29	76.75
515.506	83.75
515.721	91.75
515.937	79.75
516.153	85.75
516.369	76.75
516.585	87.75
516.801	77.75
517.016	76.75
517.232	85.75
517.448	96.75
517.664	77.75
517.879	91.75
518.095	89.75
518.311	92.75
518.527	79.75
518.742	88.75
518.958	84.75
519.173	88.75
519.389	81.75
519.605	91.75
519.82	96.75
520.036	85.75
520.251	82.75
520.467	85.75
520.682	93.75
520.898	82.75
521.113	87.75
521.329	84.75
521.544	82.75
521.76	84.75
521.975	83.75
522.19	90.75
522.406	82.75
522.621	89.75
522.836	85.75
523.052	73.75
523.267	94.75
523.482	87.75
523.698	96.75
523.913	75.75
524.128	82.75
524.343	87.75
524.559	96.75
524.774	89.75
524.989	82.75
525.204	88.75
525.419	90.75
525.634	80.75
525.849	81.75
526.064	74.75
526.28	77.75
526.495	81.75
526.71	91.75
526.925	89.75
527.14	80.75
527.355	76.75
527.57	78.75
527.785	93.75
527.999	92.75
528.214	86.75
528.429	95.75
528.644	103.75
528.859	92.75
529.074	100.75
529.289	100.75
529.503	96.75
529.718	92.75
529.933	94.75
530.148	88.75
530.363	91.75
530.577	89.75
530.792	73.75
531.007	96.75
531.221	87.75
531.436	88.75
531.651	87.75
531.865	94.75
532.08	88.75
532.295	81.75
532.509	85.75
532.724	79.75
532.938	85.75
533.153	78.75
533.367	89.75
533.582	89.75
533.796	82.75
534.011	85.75
534.225	95.75
534.44	83.75
534.654	107.75
534.868	94.75
535.083	83.75
535.297	91.75
535.511	92.75
535.726	101.75
535.94	84.75
536.154	90.75
536.369	88.75
536.583	86.75
536.797	74.75
537.011	79.75
537.225	74.75
537.44	95.75
537.654	89.75
537.868	73.75
538.082	78.75
538.296	81.75
538.51	86.75
538.724	99.75
538.938	100.75
539.153	90.75
539.367	94.75
539.581	97.75
539.795	89.75
540.009	84.75
540.222	92.75
540.436	92.75
540.65	83.75
540.864	105.75
541.078	85.75
541.292	96.75
541.506	106.75
541.72	119.75
541.934	119.75
542.147	113.75
542.361	101.75
542.575	117.75
542.789	90.75
543.002	99.75
543.216	92.75
543.43	84.75
543.644	82.75
543.857	89.75
544.071	85.75
544.285	98.75
544.498	105.75
544.712	109.75
544.925	101.75
545.139	113.75
545.352	103.75
545.566	92.75
545.779	96.75
545.993	98.75
546.206	105.75
546.42	106.75
546.633	103.75
546.847	106.75
547.06	107.75
547.274	107.75
547.487	106.75
547.7	116.75
547.914	101.75
548.127	105.75
548.34	98.75
548.554	87.75
548.767	97.75
548.98	94.75
549.193	102.75
549.407	99.75
549.62	122.75
549.833	109.75
550.046	97.75
550.259	118.75
550.473	98.75
550.686	101.75
550.899	90.75
551.112	104.75
551.325	104.75
551.538	86.75
551.751	95.75
551.964	89.75
552.177	105.75
552.39	98.75
552.603	95.75
552.816	98.75
553.029	102.75
553.242	88.75
553.455	100.75
553.667	91.75
553.88	102.75
554.093	97.75
554.306	90.75
554.519	98.75
554.732	90.75
554.944	105.75
555.157	95.75
555.37	91.75
555.583	98.75
555.795	97.75
556.008	102.75
556.221	92.75
556.433	101.75
556.646	95.75
556.859	95.75
557.071	96.75
557.284	99.75
557.496	94.75
557.709	98.75
557.921	97.75
558.134	105.75
558.346	113.75
558.559	111.75
558.771	104.75
558.984	96.75
559.196	99.75
559.409	105.75
559.621	96.75
559.833	96.75
560.046	86.75
560.258	101.75
560.47	102.75
560.683	112.75
560.895	86.75
561.107	93.75
561.32	87.75
561.532	86.75
561.744	84.75
561.956	86.75
562.168	102.75
562.381	98.75
562.593	92.75
562.805	103.75
563.017	80.75
563.229	90.75
563.441	95.75
563.653	95.75
563.865	94.75
564.077	89.75
564.289	83.75
564.501	77.75
564.713	93.75
564.925	95.75
565.137	96.75
565.349	98.75
565.561	88.75
565.773	101.75
565.985	104.75
566.197	95.75
566.408	101.75
566.62	97.75
566.832	94.75
567.044	92.75
567.255	94.75
567.467	86.75
567.679	86.75
567.891	83.75
568.102	88.75
568.314	86.75
568.526	99.75
568.737	88.75
568.949	89.75
569.161	87.75
569.372	94.75
569.584	69.75
569.795	80.75
570.007	85.75
570.218	90.75
570.43	91.75
570.641	86.75
570.853	85.75
571.064	96.75
571.276	103.75
571.487	92.75
571.698	78.75
571.91	94.75
572.121	98.75
572.333	84.75
572.544	93.75
572.755	78.75
572.966	72.75
573.178	87.75
573.389	77.75
573.6	82.75
573.811	95.75
574.023	89.75
574.234	82.75
574.445	82.75
574.656	90.75
574.867	94.75
575.078	82.75
575.289	84.75
575.501	102.75
575.712	83.75
575.923	85.75
576.134	88.75
576.345	90.75
576.556	72.75
576.767	79.75
576.978	91.75
577.188	92.75
577.399	101.75
577.61	80.75
577.821	103.75
578.032	89.75
578.243	96.75
578.454	92.75
578.665	83.75
578.875	65.75
579.086	83.75
579.297	71.75
579.508	87.75
579.718	75.75
579.929	75.75
580.14	81.75
580.35	72.75
580.561	74.75
580.772	69.75
580.982	83.75
581.193	87.75
581.403	82.75
581.614	85.75
581.825	81.75
582.035	92.75
582.246	69.75
582.456	89.75
582.667	73.75
582.877	94.75
583.087	81.75
583.298	86.75
583.508	81.75
583.719	83.75
583.929	91.75
584.139	93.75
584.35	87.75
584.56	89.75
584.77	71.75
584.981	93.75
585.191	86.75
585.401	97.75
585.611	82.75
585.821	78.75
586.032	78.75
586.242	81.75
586.452	85.75
586.662	62.75
586.872	85.75
587.082	95.75
587.292	82.75
587.502	81.75
587.713	91.75
587.923	91.75
588.133	95.75
588.343	90.75
588.553	91.75
588.762	92.75
588.972	89.75
589.182	65.75
589.392	85.75
589.602	83.75
589.812	93.75
590.022	98.75
590.232	85.75
590.441	78.75
590.651	77.75
590.861	85.75
591.071	91.75
591.281	85.75
591.49	85.75
591.7	78.75
591.91	89.75
592.119	66.75
592.329	87.75
592.539	90.75
592.748	81.75
592.958	102.75
593.167	73.75
593.377	67.75
593.587	99.75
593.796	87.75
594.006	93.75
594.215	85.75
594.424	99.75
594.634	80.75
594.843	78.75
595.053	94.75
595.262	83.75
595.472	89.75
595.681	80.75
595.89	79.75
596.1	73.75
596.309	86.75
596.518	95.75
596.727	80.75
596.937	85.75
597.146	82.75
597.355	72.75
597.564	86.75
597.774	85.75
597.983	84.75
598.192	88.75
598.401	83.75
598.61	90.75
598.819	80.75
599.028	92.75
599.237	70.75
599.446	73.75
599.655	74.75
599.864	81.75
600.073	88.75
600.282	97.75
600.491	90.75
600.7	89.75
600.909	76.75
601.118	80.75
601.327	82.75
601.536	91.75
601.745	93.75
601.953	83.75
602.162	81.75
602.371	89.75
602.58	88.75
602.789	98.75
602.997	84.75
603.206	74.75
603.415	94.75
603.623	74.75
603.832	83.75
604.041	94.75
604.249	88.75
604.458	74.75
604.666	83.75
604.875	96.75
605.084	83.75
605.292	94.75
605.501	89.75
605.709	81.75
605.918	87.75
606.126	89.75
606.334	91.75
606.543	90.75
606.751	71.75
606.96	87.75
607.168	103.75
607.376	88.75
607.585	104.75
607.793	97.75
608.001	87.75
608.21	102.75
608.418	106.75
608.626	75.75
608.834	95.75
609.043	94.75
609.251	88.75
609.459	79.75
609.667	94.75
609.875	89.75
610.083	84.75
610.291	84.75
610.499	94.75
610.707	109.75
610.916	102.75
611.124	96.75
611.332	94.75
611.54	88.75
611.748	99.75
611.955	80.75
612.163	88.75
612.371	97.75
612.579	86.75
612.787	88.75
612.995	94.75
613.203	92.75
613.411	92.75
613.618	85.75
613.826	81.75
614.034	97.75
614.242	83.75
614.449	92.75
614.657	85.75
614.865	88.75
615.072	86.75
615.28	92.75
615.488	86.75
615.695	97.75
615.903	89.75
616.111	95.75
616.318	93.75
616.526	102.75
616.733	90.75
616.941	91.75
617.148	89.75
617.356	87.75
617.563	99.75
617.771	84.75
617.978	78.75
618.185	92.75
618.393	88.75
618.6	86.75
618.807	102.75
619.015	85.75
619.222	87.75
619.429	99.75
619.637	84.75
619.844	89.75
620.051	94.75
620.258	85.75
620.466	79.75
620.673	93.75
620.88	78.75
621.087	86.75
621.294	99.75
621.501	92.75
621.708	86.75
621.915	95.75
622.122	90.75
622.329	97.75
622.536	93.75
622.743	94.75
622.95	87.75
623.157	83.75
623.364	73.75
623.571	93.75
623.778	81.75
623.985	95.75
624.192	99.75
624.399	82.75
624.606	101.75
624.812	86.75
625.019	108.75
625.226	102.75
625.433	83.75
625.639	84.75
625.846	83.75
626.053	80.75
626.259	94.75
626.466	79.75
626.673	89.75
626.879	98.75
627.086	86.75
627.293	91.75
627.499	80.75
627.706	85.75
627.912	93.75
628.119	81.75
628.325	87.75
628.532	97.75
628.738	98.75
628.945	95.75
629.151	84.75
629.357	96.75
629.564	87.75
629.77	86.75
629.976	70.75
630.183	91.75
630.389	79.75
630.595	90.75
630.802	80.75
631.008	86.75
631.214	97.75
631.42	82.75
631.627	86.75
631.833	78.75
632.039	83.75
632.245	69.75
632.451	90.75
632.657	88.75
632.863	93.75
633.069	89.75
633.275	108.75
633.481	75.75
633.688	80.75
633.893	88.75
634.099	79.75
634.305	85.75
634.511	79.75
634.717	87.75
634.923	86.75
635.129	92.75
635.335	80.75
635.541	95.75
635.747	90.75
635.952	91.75
636.158	89.75
636.364	80.75
636.57	103.75
636.775	80.75
636.981	94.75
637.187	89.75
637.392	87.75
637.598	83.75
637.804	96.75
638.009	88.75
638.215	82.75
638.421	78.75
638.626	85.75
638.832	80.75
639.037	93.75
639.243	81.75
639.448	83.75
639.654	95.75
639.859	79.75
640.065	82.75
640.27	91.75
640.475	89.75
640.681	95.75
640.886	115.75
641.091	98.75
641.297	93.75
641.502	99.75
641.707	82.75
641.913	81.75
642.118	79.75
642.323	85.75
642.528	103.75
642.733	92.75
642.939	92.75
643.144	83.75
643.349	72.75
643.554	78.75
643.759	99.75
643.964	75.75
644.169	73.75
644.374	82.75
644.579	96.75
644.784	88.75
644.989	84.75
645.194	86.75
645.399	90.75
645.604	91.75
645.809	88.75
646.014	82.75
646.219	90.75
646.423	93.75
646.628	79.75
646.833	79.75
647.038	83.75
647.243	83.75
647.447	95.75
647.652	85.75
647.857	85.75
648.062	75.75
648.266	76.75
648.471	57.75
648.676	91.75
648.88	80.75
649.085	90.75
649.289	90.75
649.494	84.75
649.698	101.75
649.903	104.75
650.107	82.75
650.312	79.75
650.516	83.75
650.721	75.75
650.925	88.75
651.13	84.75
651.334	75.75
651.539	87.75
651.743	90.75
651.947	88.75
652.152	72.75
652.356	83.75
652.56	91.75
652.764	89.75
652.969	87.75
653.173	89.75
653.377	81.75
653.581	77.75
653.785	86.75
653.99	92.75
654.194	79.75
654.398	90.75
654.602	87.75
654.806	74.75
655.01	85.75
655.214	92.75
655.418	84.75
655.622	87.75
655.826	90.75
656.03	100.75
656.234	89.75
656.438	66.75
656.642	87.75
656.846	87.75
657.049	84.75
657.253	78.75
657.457	73.75
657.661	79.75
657.865	76.75
658.068	74.75
658.272	84.75
658.476	87.75
658.68	97.75
658.883	79.75
659.087	84.75
659.291	84.75
659.494	88.75
659.698	97.75
659.901	68.75
660.105	79.75
660.309	83.75
660.512	71.75
660.716	76.75
660.919	91.75
661.123	88.75
661.326	79.75
661.53	84.75
661.733	88.75
661.936	77.75
662.14	80.75
662.343	82.75
662.546	81.75
662.75	86.75
662.953	89.75
663.156	79.75
663.36	81.75
663.563	74.75
663.766	84.75
663.969	89.75
664.173	81.75
664.376	80.75
664.579	74.75
664.782	87.75
664.985	86.75
665.188	88.75
665.391	82.75
665.594	96.75
665.797	73.75
666	74.75
666.203	98.75
666.406	86.75
666.609	92.75
666.812	74.75
667.015	86.75
667.218	85.75
667.421	87.75
667.624	80.75
667.827	80.75
668.03	74.75
668.232	79.75
668.435	70.75
668.638	81.75
668.841	91.75
669.043	78.75
669.246	71.75
669.449	77.75
669.651	69.75
669.854	77.75
670.057	81.75
670.259	85.75
670.462	83.75
670.665	89.75
670.867	81.75
671.07	79.75
671.272	85.75
671.475	78.75
671.677	91.75
671.88	83.75
672.082	89.75
672.284	83.75
672.487	79.75
672.689	84.75
672.892	77.75
