Data from Location5.07152019.Energy5.Lamp.07192019.3%Agarose_HRD10591_16-04-07-628.txt Node
Date: Fri Jul 19 16:04:07 EDT 2019
User: cochatt
Spectrometer: HR+D1059
Trigger mode: 1
Integration Time (sec): 1.000000E-1
Scans to average: 1
Electric dark correction enabled: true
Nonlinearity correction enabled: false
Boxcar width: 0
XAxis mode: Wavelengths
Number of Pixels in Spectrum: 2048
>>>>>Begin Spectral Data<<<<<
223.165	-8.69
223.4	-8.69
223.635	-8.69
223.869	-28.69
224.104	-22.69
224.338	-1.69
224.573	-12.69
224.808	1.31
225.042	-13.69
225.277	-10.69
225.511	6.31
225.746	-0.69
225.98	2.31
226.215	6.31
226.449	20.31
226.683	18.31
226.918	25.31
227.152	19.31
227.387	18.31
227.621	40.31
227.856	38.31
228.09	41.31
228.324	51.31
228.559	65.31
228.793	50.31
229.027	63.31
229.262	60.31
229.496	61.31
229.73	76.31
229.964	84.31
230.199	70.31
230.433	82.31
230.667	91.31
230.901	86.31
231.136	81.31
231.37	71.31
231.604	72.31
231.838	84.31
232.072	86.31
232.306	71.31
232.541	91.31
232.775	84.31
233.009	80.31
233.243	76.31
233.477	74.31
233.711	70.31
233.945	70.31
234.179	89.31
234.413	90.31
234.647	78.31
234.881	69.31
235.115	74.31
235.349	85.31
235.583	85.31
235.817	78.31
236.051	77.31
236.285	88.31
236.519	89.31
236.753	100.31
236.987	74.31
237.221	96.31
237.455	79.31
237.689	73.31
237.922	75.31
238.156	87.31
238.39	77.31
238.624	74.31
238.858	71.31
239.091	78.31
239.325	67.31
239.559	73.31
239.793	75.31
240.027	71.31
240.26	69.31
240.494	80.31
240.728	86.31
240.961	80.31
241.195	77.31
241.429	79.31
241.662	82.31
241.896	75.31
242.13	78.31
242.363	87.31
242.597	73.31
242.83	61.31
243.064	76.31
243.298	89.31
243.531	60.31
243.765	73.31
243.998	75.31
244.232	80.31
244.465	80.31
244.699	69.31
244.932	75.31
245.166	79.31
245.399	83.31
245.633	87.31
245.866	79.31
246.099	75.31
246.333	74.31
246.566	76.31
246.8	71.31
247.033	82.31
247.266	69.31
247.5	79.31
247.733	86.31
247.966	78.31
248.2	83.31
248.433	94.31
248.666	75.31
248.899	71.31
249.133	82.31
249.366	84.31
249.599	79.31
249.832	69.31
250.066	78.31
250.299	67.31
250.532	63.31
250.765	75.31
250.998	91.31
251.231	98.31
251.465	94.31
251.698	79.31
251.931	84.31
252.164	69.31
252.397	80.31
252.63	80.31
252.863	82.31
253.096	82.31
253.329	83.31
253.562	101.31
253.795	86.31
254.028	73.31
254.261	76.31
254.494	77.31
254.727	84.31
254.96	81.31
255.193	74.31
255.426	84.31
255.659	86.31
255.892	91.31
256.124	92.31
256.357	82.31
256.59	82.31
256.823	96.31
257.056	89.31
257.289	77.31
257.521	96.31
257.754	92.31
257.987	85.31
258.22	77.31
258.452	72.31
258.685	87.31
258.918	70.31
259.151	85.31
259.383	88.31
259.616	86.31
259.849	104.31
260.081	106.31
260.314	89.31
260.547	80.31
260.779	71.31
261.012	72.31
261.244	82.31
261.477	88.31
261.71	76.31
261.942	84.31
262.175	93.31
262.407	83.31
262.64	74.31
262.872	100.31
263.105	76.31
263.337	91.31
263.57	93.31
263.802	88.31
264.035	89.31
264.267	88.31
264.499	90.31
264.732	84.31
264.964	88.31
265.197	82.31
265.429	86.31
265.661	76.31
265.894	71.31
266.126	59.31
266.358	89.31
266.591	91.31
266.823	82.31
267.055	88.31
267.287	83.31
267.52	93.31
267.752	93.31
267.984	81.31
268.216	89.31
268.448	81.31
268.681	82.31
268.913	96.31
269.145	83.31
269.377	80.31
269.609	91.31
269.841	84.31
270.073	95.31
270.306	84.31
270.538	78.31
270.77	90.31
271.002	88.31
271.234	84.31
271.466	86.31
271.698	73.31
271.93	98.31
272.162	90.31
272.394	80.31
272.626	87.31
272.858	82.31
273.09	69.31
273.322	81.31
273.553	79.31
273.785	91.31
274.017	86.31
274.249	92.31
274.481	81.31
274.713	94.31
274.945	90.31
275.176	103.31
275.408	91.31
275.64	95.31
275.872	89.31
276.104	76.31
276.335	74.31
276.567	71.31
276.799	83.31
277.031	91.31
277.262	90.31
277.494	102.31
277.726	97.31
277.957	84.31
278.189	96.31
278.421	88.31
278.652	93.31
278.884	96.31
279.115	87.31
279.347	92.31
279.579	80.31
279.81	99.31
280.042	99.31
280.273	83.31
280.505	100.31
280.736	85.31
280.968	85.31
281.199	99.31
281.431	79.31
281.662	75.31
281.894	96.31
282.125	82.31
282.356	82.31
282.588	92.31
282.819	80.31
283.051	95.31
283.282	86.31
283.513	84.31
283.745	91.31
283.976	82.31
284.207	68.31
284.439	87.31
284.67	112.31
284.901	96.31
285.132	84.31
285.364	78.31
285.595	77.31
285.826	99.31
286.057	79.31
286.288	91.31
286.52	93.31
286.751	79.31
286.982	103.31
287.213	84.31
287.444	94.31
287.675	93.31
287.906	85.31
288.138	87.31
288.369	110.31
288.6	78.31
288.831	76.31
289.062	88.31
289.293	83.31
289.524	69.31
289.755	79.31
289.986	84.31
290.217	81.31
290.448	88.31
290.679	93.31
290.91	87.31
291.141	85.31
291.371	92.31
291.602	88.31
291.833	92.31
292.064	78.31
292.295	81.31
292.526	96.31
292.757	78.31
292.987	86.31
293.218	79.31
293.449	91.31
293.68	91.31
293.91	102.31
294.141	85.31
294.372	78.31
294.603	83.31
294.833	90.31
295.064	89.31
295.295	100.31
295.525	89.31
295.756	90.31
295.987	81.31
296.217	92.31
296.448	92.31
296.679	88.31
296.909	95.31
297.14	96.31
297.37	100.31
297.601	82.31
297.831	88.31
298.062	87.31
298.292	84.31
298.523	92.31
298.753	87.31
298.984	90.31
299.214	99.31
299.445	85.31
299.675	92.31
299.905	97.31
300.136	86.31
300.366	92.31
300.597	99.31
300.827	103.31
301.057	89.31
301.288	111.31
301.518	87.31
301.748	89.31
301.979	74.31
302.209	88.31
302.439	104.31
302.669	94.31
302.9	91.31
303.13	80.31
303.36	99.31
303.59	95.31
303.82	102.31
304.051	94.31
304.281	103.31
304.511	97.31
304.741	76.31
304.971	84.31
305.201	95.31
305.431	96.31
305.661	96.31
305.891	76.31
306.121	72.31
306.352	87.31
306.582	93.31
306.812	96.31
307.042	81.31
307.272	88.31
307.502	84.31
307.731	101.31
307.961	96.31
308.191	90.31
308.421	102.31
308.651	95.31
308.881	91.31
309.111	99.31
309.341	99.31
309.571	95.31
309.8	86.31
310.03	85.31
310.26	93.31
310.49	100.31
310.72	83.31
310.949	102.31
311.179	96.31
311.409	95.31
311.639	84.31
311.868	93.31
312.098	79.31
312.328	89.31
312.557	86.31
312.787	90.31
313.017	92.31
313.246	106.31
313.476	84.31
313.706	81.31
313.935	91.31
314.165	102.31
314.394	102.31
314.624	95.31
314.853	90.31
315.083	87.31
315.312	95.31
315.542	86.31
315.771	90.31
316.001	92.31
316.23	97.31
316.46	78.31
316.689	81.31
316.919	113.31
317.148	79.31
317.377	95.31
317.607	88.31
317.836	89.31
318.065	97.31
318.295	83.31
318.524	94.31
318.753	98.31
318.983	86.31
319.212	90.31
319.441	96.31
319.67	91.31
319.9	91.31
320.129	83.31
320.358	98.31
320.587	105.31
320.816	83.31
321.046	89.31
321.275	102.31
321.504	94.31
321.733	98.31
321.962	92.31
322.191	96.31
322.42	90.31
322.649	94.31
322.878	103.31
323.108	89.31
323.337	83.31
323.566	83.31
323.795	94.31
324.024	88.31
324.253	90.31
324.482	81.31
324.71	85.31
324.939	90.31
325.168	100.31
325.397	99.31
325.626	96.31
325.855	85.31
326.084	99.31
326.313	85.31
326.542	98.31
326.77	83.31
326.999	86.31
327.228	87.31
327.457	98.31
327.686	95.31
327.914	91.31
328.143	105.31
328.372	97.31
328.6	81.31
328.829	100.31
329.058	90.31
329.287	89.31
329.515	99.31
329.744	89.31
329.972	97.31
330.201	95.31
330.43	98.31
330.658	82.31
330.887	82.31
331.115	83.31
331.344	108.31
331.572	82.31
331.801	94.31
332.03	96.31
332.258	102.31
332.486	97.31
332.715	102.31
332.943	89.31
333.172	87.31
333.4	96.31
333.629	102.31
333.857	95.31
334.085	90.31
334.314	89.31
334.542	82.31
334.771	107.31
334.999	96.31
335.227	88.31
335.455	95.31
335.684	100.31
335.912	96.31
336.14	95.31
336.369	97.31
336.597	86.31
336.825	98.31
337.053	87.31
337.281	96.31
337.51	83.31
337.738	90.31
337.966	99.31
338.194	95.31
338.422	98.31
338.65	98.31
338.878	85.31
339.106	82.31
339.334	106.31
339.562	97.31
339.79	86.31
340.018	100.31
340.246	82.31
340.474	86.31
340.702	95.31
340.93	96.31
341.158	96.31
341.386	89.31
341.614	95.31
341.842	107.31
342.07	94.31
342.298	96.31
342.526	84.31
342.754	92.31
342.981	94.31
343.209	100.31
343.437	114.31
343.665	95.31
343.893	90.31
344.12	96.31
344.348	82.31
344.576	88.31
344.804	102.31
345.031	94.31
345.259	102.31
345.487	80.31
345.714	84.31
345.942	96.31
346.17	110.31
346.397	82.31
346.625	87.31
346.853	78.31
347.08	92.31
347.308	87.31
347.535	81.31
347.763	88.31
347.99	94.31
348.218	83.31
348.445	106.31
348.673	97.31
348.9	86.31
349.128	97.31
349.355	78.31
349.583	89.31
349.81	95.31
350.037	87.31
350.265	88.31
350.492	85.31
350.72	90.31
350.947	86.31
351.174	93.31
351.402	90.31
351.629	78.31
351.856	77.31
352.083	84.31
352.311	95.31
352.538	90.31
352.765	87.31
352.992	87.31
353.22	85.31
353.447	77.31
353.674	100.31
353.901	98.31
354.128	94.31
354.355	76.31
354.583	84.31
354.81	93.31
355.037	88.31
355.264	93.31
355.491	86.31
355.718	97.31
355.945	99.31
356.172	95.31
356.399	89.31
356.626	83.31
356.853	90.31
357.08	93.31
357.307	83.31
357.534	93.31
357.761	108.31
357.988	84.31
358.215	98.31
358.441	96.31
358.668	93.31
358.895	97.31
359.122	80.31
359.349	87.31
359.576	88.31
359.802	83.31
360.029	98.31
360.256	102.31
360.483	94.31
360.709	83.31
360.936	87.31
361.163	79.31
361.39	91.31
361.616	87.31
361.843	97.31
362.07	99.31
362.296	83.31
362.523	90.31
362.749	89.31
362.976	89.31
363.203	97.31
363.429	88.31
363.656	89.31
363.882	84.31
364.109	80.31
364.335	93.31
364.562	88.31
364.788	85.31
365.015	95.31
365.241	96.31
365.468	92.31
365.694	90.31
365.92	90.31
366.147	96.31
366.373	90.31
366.599	100.31
366.826	94.31
367.052	109.31
367.278	96.31
367.505	98.31
367.731	96.31
367.957	97.31
368.184	98.31
368.41	109.31
368.636	91.31
368.862	92.31
369.089	80.31
369.315	85.31
369.541	99.31
369.767	81.31
369.993	96.31
370.219	87.31
370.445	92.31
370.672	91.31
370.898	87.31
371.124	86.31
371.35	88.31
371.576	83.31
371.802	85.31
372.028	92.31
372.254	97.31
372.48	81.31
372.706	98.31
372.932	100.31
373.158	95.31
373.384	91.31
373.61	110.31
373.835	82.31
374.061	87.31
374.287	103.31
374.513	99.31
374.739	84.31
374.965	95.31
375.191	84.31
375.416	85.31
375.642	87.31
375.868	100.31
376.094	95.31
376.319	100.31
376.545	83.31
376.771	81.31
376.997	87.31
377.222	89.31
377.448	90.31
377.674	76.31
377.899	92.31
378.125	81.31
378.35	101.31
378.576	92.31
378.802	91.31
379.027	98.31
379.253	95.31
379.478	81.31
379.704	97.31
379.929	87.31
380.155	99.31
380.38	88.31
380.606	86.31
380.831	80.31
381.057	84.31
381.282	93.31
381.507	97.31
381.733	97.31
381.958	88.31
382.184	86.31
382.409	89.31
382.634	81.31
382.86	98.31
383.085	90.31
383.31	97.31
383.535	98.31
383.761	96.31
383.986	96.31
384.211	95.31
384.436	90.31
384.662	92.31
384.887	99.31
385.112	107.31
385.337	96.31
385.562	92.31
385.787	87.31
386.013	104.31
386.238	99.31
386.463	104.31
386.688	98.31
386.913	77.31
387.138	84.31
387.363	79.31
387.588	100.31
387.813	97.31
388.038	106.31
388.263	98.31
388.488	71.31
388.713	87.31
388.938	78.31
389.163	93.31
389.387	92.31
389.612	87.31
389.837	84.31
390.062	98.31
390.287	90.31
390.512	100.31
390.736	105.31
390.961	86.31
391.186	93.31
391.411	93.31
391.636	102.31
391.86	97.31
392.085	95.31
392.31	92.31
392.534	99.31
392.759	115.31
392.984	85.31
393.208	98.31
393.433	105.31
393.658	91.31
393.882	95.31
394.107	90.31
394.331	78.31
394.556	95.31
394.78	104.31
395.005	110.31
395.229	94.31
395.454	83.31
395.678	100.31
395.903	104.31
396.127	98.31
396.352	99.31
396.576	107.31
396.801	87.31
397.025	89.31
397.249	93.31
397.474	105.31
397.698	87.31
397.922	105.31
398.147	93.31
398.371	112.31
398.595	95.31
398.82	106.31
399.044	96.31
399.268	94.31
399.492	99.31
399.717	104.31
399.941	105.31
400.165	99.31
400.389	107.31
400.613	103.31
400.837	112.31
401.062	84.31
401.286	103.31
401.51	99.31
401.734	74.31
401.958	103.31
402.182	98.31
402.406	96.31
402.63	100.31
402.854	95.31
403.078	90.31
403.302	89.31
403.526	92.31
403.75	85.31
403.974	96.31
404.198	102.31
404.422	98.31
404.645	100.31
404.869	95.31
405.093	105.31
405.317	94.31
405.541	105.31
405.765	78.31
405.988	99.31
406.212	99.31
406.436	92.31
406.66	114.31
406.883	99.31
407.107	100.31
407.331	108.31
407.555	110.31
407.778	124.31
408.002	94.31
408.226	98.31
408.449	106.31
408.673	107.31
408.896	98.31
409.12	110.31
409.344	105.31
409.567	103.31
409.791	97.31
410.014	95.31
410.238	80.31
410.461	99.31
410.685	99.31
410.908	95.31
411.132	94.31
411.355	105.31
411.578	96.31
411.802	97.31
412.025	96.31
412.249	92.31
412.472	99.31
412.695	94.31
412.919	97.31
413.142	83.31
413.365	98.31
413.589	88.31
413.812	105.31
414.035	97.31
414.258	107.31
414.482	99.31
414.705	103.31
414.928	85.31
415.151	89.31
415.374	87.31
415.597	102.31
415.821	95.31
416.044	106.31
416.267	97.31
416.49	104.31
416.713	104.31
416.936	100.31
417.159	90.31
417.382	106.31
417.605	95.31
417.828	88.31
418.051	94.31
418.274	110.31
418.497	100.31
418.72	95.31
418.943	104.31
419.166	104.31
419.389	99.31
419.611	99.31
419.834	95.31
420.057	100.31
420.28	95.31
420.503	95.31
420.726	104.31
420.948	85.31
421.171	89.31
421.394	105.31
421.617	88.31
421.839	83.31
422.062	101.31
422.285	83.31
422.507	100.31
422.73	92.31
422.953	85.31
423.175	96.31
423.398	93.31
423.621	89.31
423.843	94.31
424.066	96.31
424.288	92.31
424.511	98.31
424.733	96.31
424.956	96.31
425.178	93.31
425.401	99.31
425.623	97.31
425.846	103.31
426.068	88.31
426.291	95.31
426.513	104.31
426.735	99.31
426.958	106.31
427.18	109.31
427.402	84.31
427.625	113.31
427.847	84.31
428.069	98.31
428.292	92.31
428.514	112.31
428.736	95.31
428.958	97.31
429.181	88.31
429.403	87.31
429.625	93.31
429.847	100.31
430.069	100.31
430.292	91.31
430.514	97.31
430.736	77.31
430.958	90.31
431.18	91.31
431.402	94.31
431.624	79.31
431.846	94.31
432.068	89.31
432.29	100.31
432.512	101.31
432.734	100.31
432.956	88.31
433.178	103.31
433.4	96.31
433.622	89.31
433.844	101.31
434.066	99.31
434.287	90.31
434.509	84.31
434.731	98.31
434.953	90.31
435.175	95.31
435.397	94.31
435.618	87.31
435.84	89.31
436.062	90.31
436.284	97.31
436.505	72.31
436.727	91.31
436.949	87.31
437.17	95.31
437.392	99.31
437.614	105.31
437.835	100.31
438.057	95.31
438.278	100.31
438.5	99.31
438.721	108.31
438.943	91.31
439.165	104.31
439.386	92.31
439.608	96.31
439.829	100.31
440.05	98.31
440.272	101.31
440.493	92.31
440.715	99.31
440.936	90.31
441.158	94.31
441.379	105.31
441.6	94.31
441.822	97.31
442.043	111.31
442.264	97.31
442.486	102.31
442.707	90.31
442.928	86.31
443.149	98.31
443.371	93.31
443.592	104.31
443.813	111.31
444.034	100.31
444.255	95.31
444.476	87.31
444.698	89.31
444.919	95.31
445.14	201.31
445.361	150.31
445.582	115.31
445.803	96.31
446.024	95.31
446.245	104.31
446.466	100.31
446.687	87.31
446.908	86.31
447.129	96.31
447.35	98.31
447.571	102.31
447.792	92.31
448.013	98.31
448.234	110.31
448.455	78.31
448.675	101.31
448.896	81.31
449.117	92.31
449.338	90.31
449.559	99.31
449.779	87.31
450	98.31
450.221	106.31
450.442	88.31
450.662	94.31
450.883	89.31
451.104	90.31
451.324	90.31
451.545	107.31
451.766	77.31
451.986	98.31
452.207	97.31
452.428	85.31
452.648	98.31
452.869	80.31
453.089	92.31
453.31	92.31
453.53	86.31
453.751	103.31
453.971	99.31
454.192	88.31
454.412	82.31
454.633	101.31
454.853	90.31
455.073	98.31
455.294	92.31
455.514	97.31
455.734	82.31
455.955	102.31
456.175	101.31
456.395	93.31
456.616	82.31
456.836	94.31
457.056	96.31
457.276	84.31
457.497	102.31
457.717	101.31
457.937	95.31
458.157	91.31
458.377	91.31
458.598	94.31
458.818	88.31
459.038	101.31
459.258	90.31
459.478	106.31
459.698	98.31
459.918	106.31
460.138	94.31
460.358	92.31
460.578	94.31
460.798	94.31
461.018	86.31
461.238	105.31
461.458	90.31
461.678	100.31
461.898	89.31
462.118	112.31
462.338	91.31
462.558	102.31
462.777	106.31
462.997	103.31
463.217	103.31
463.437	111.31
463.657	98.31
463.876	112.31
464.096	103.31
464.316	100.31
464.536	97.31
464.755	111.31
464.975	90.31
465.195	104.31
465.414	88.31
465.634	104.31
465.854	91.31
466.073	98.31
466.293	89.31
466.512	96.31
466.732	97.31
466.951	108.31
467.171	106.31
467.391	91.31
467.61	93.31
467.829	97.31
468.049	105.31
468.268	103.31
468.488	111.31
468.707	84.31
468.927	94.31
469.146	88.31
469.365	95.31
469.585	89.31
469.804	106.31
470.023	96.31
470.243	93.31
470.462	96.31
470.681	100.31
470.901	102.31
471.12	106.31
471.339	96.31
471.558	103.31
471.777	100.31
471.997	87.31
472.216	93.31
472.435	94.31
472.654	99.31
472.873	100.31
473.092	87.31
473.311	94.31
473.53	87.31
473.749	91.31
473.968	97.31
474.187	102.31
474.406	91.31
474.625	92.31
474.844	112.31
475.063	110.31
475.282	92.31
475.501	103.31
475.72	102.31
475.939	111.31
476.158	96.31
476.377	92.31
476.596	104.31
476.814	92.31
477.033	92.31
477.252	101.31
477.471	95.31
477.69	102.31
477.908	103.31
478.127	115.31
478.346	108.31
478.564	104.31
478.783	100.31
479.002	92.31
479.22	110.31
479.439	96.31
479.658	93.31
479.876	126.31
480.095	102.31
480.313	100.31
480.532	96.31
480.751	113.31
480.969	96.31
481.188	114.31
481.406	94.31
481.624	111.31
481.843	94.31
482.061	120.31
482.28	97.31
482.498	105.31
482.717	110.31
482.935	99.31
483.153	105.31
483.372	95.31
483.59	103.31
483.808	96.31
484.027	106.31
484.245	98.31
484.463	108.31
484.681	115.31
484.9	102.31
485.118	87.31
485.336	102.31
485.554	100.31
485.772	95.31
485.99	103.31
486.209	107.31
486.427	96.31
486.645	114.31
486.863	102.31
487.081	93.31
487.299	92.31
487.517	102.31
487.735	110.31
487.953	101.31
488.171	120.31
488.389	99.31
488.607	98.31
488.825	98.31
489.043	90.31
489.261	114.31
489.479	116.31
489.696	107.31
489.914	125.31
490.132	102.31
490.35	103.31
490.568	104.31
490.786	101.31
491.003	119.31
491.221	115.31
491.439	106.31
491.657	106.31
491.874	121.31
492.092	122.31
492.31	121.31
492.527	114.31
492.745	132.31
492.963	117.31
493.18	119.31
493.398	100.31
493.615	111.31
493.833	107.31
494.05	116.31
494.268	103.31
494.485	115.31
494.703	108.31
494.92	98.31
495.138	106.31
495.355	119.31
495.573	109.31
495.79	100.31
496.008	126.31
496.225	121.31
496.442	112.31
496.66	106.31
496.877	126.31
497.094	116.31
497.312	117.31
497.529	103.31
497.746	107.31
497.963	112.31
498.181	103.31
498.398	112.31
498.615	101.31
498.832	103.31
499.049	107.31
499.267	122.31
499.484	138.31
499.701	126.31
499.918	139.31
500.135	130.31
500.352	156.31
500.569	159.31
500.786	142.31
501.003	143.31
501.22	147.31
501.437	137.31
501.654	128.31
501.871	126.31
502.088	118.31
502.305	119.31
502.522	112.31
502.739	117.31
502.956	110.31
503.172	119.31
503.389	115.31
503.606	114.31
503.823	118.31
504.04	116.31
504.256	106.31
504.473	96.31
504.69	113.31
504.907	120.31
505.123	110.31
505.34	114.31
505.557	113.31
505.773	107.31
505.99	103.31
506.207	101.31
506.423	99.31
506.64	97.31
506.856	96.31
507.073	100.31
507.289	113.31
507.506	117.31
507.722	101.31
507.939	91.31
508.155	89.31
508.372	99.31
508.588	107.31
508.805	107.31
509.021	100.31
509.238	89.31
509.454	108.31
509.67	96.31
509.887	94.31
510.103	99.31
510.319	98.31
510.536	100.31
510.752	106.31
510.968	114.31
511.184	97.31
511.401	100.31
511.617	102.31
511.833	106.31
512.049	98.31
512.265	96.31
512.481	87.31
512.698	98.31
512.914	84.31
513.13	98.31
513.346	93.31
513.562	98.31
513.778	83.31
513.994	111.31
514.21	100.31
514.426	100.31
514.642	90.31
514.858	101.31
515.074	101.31
515.29	100.31
515.506	101.31
515.721	100.31
515.937	90.31
516.153	104.31
516.369	114.31
516.585	101.31
516.801	102.31
517.016	118.31
517.232	104.31
517.448	106.31
517.664	99.31
517.879	109.31
518.095	98.31
518.311	111.31
518.527	120.31
518.742	115.31
518.958	98.31
519.173	102.31
519.389	99.31
519.605	88.31
519.82	110.31
520.036	98.31
520.251	96.31
520.467	99.31
520.682	112.31
520.898	96.31
521.113	95.31
521.329	101.31
521.544	101.31
521.76	107.31
521.975	105.31
522.19	100.31
522.406	110.31
522.621	99.31
522.836	91.31
523.052	109.31
523.267	91.31
523.482	93.31
523.698	88.31
523.913	107.31
524.128	104.31
524.343	97.31
524.559	106.31
524.774	104.31
524.989	111.31
525.204	108.31
525.419	106.31
525.634	93.31
525.849	100.31
526.064	94.31
526.28	103.31
526.495	92.31
526.71	107.31
526.925	99.31
527.14	84.31
527.355	98.31
527.57	95.31
527.785	102.31
527.999	98.31
528.214	107.31
528.429	103.31
528.644	98.31
528.859	112.31
529.074	112.31
529.289	109.31
529.503	96.31
529.718	89.31
529.933	103.31
530.148	98.31
530.363	101.31
530.577	111.31
530.792	94.31
531.007	91.31
531.221	89.31
531.436	96.31
531.651	98.31
531.865	93.31
532.08	97.31
532.295	105.31
532.509	101.31
532.724	89.31
532.938	91.31
533.153	96.31
533.367	101.31
533.582	102.31
533.796	90.31
534.011	106.31
534.225	102.31
534.44	95.31
534.654	107.31
534.868	96.31
535.083	104.31
535.297	106.31
535.511	107.31
535.726	107.31
535.94	82.31
536.154	113.31
536.369	98.31
536.583	93.31
536.797	110.31
537.011	104.31
537.225	98.31
537.44	91.31
537.654	92.31
537.868	115.31
538.082	88.31
538.296	95.31
538.51	98.31
538.724	97.31
538.938	97.31
539.153	115.31
539.367	98.31
539.581	106.31
539.795	107.31
540.009	108.31
540.222	91.31
540.436	95.31
540.65	95.31
540.864	99.31
541.078	109.31
541.292	99.31
541.506	112.31
541.72	100.31
541.934	108.31
542.147	113.31
542.361	120.31
542.575	105.31
542.789	100.31
543.002	87.31
543.216	88.31
543.43	92.31
543.644	105.31
543.857	109.31
544.071	103.31
544.285	102.31
544.498	105.31
544.712	114.31
544.925	112.31
545.139	105.31
545.352	125.31
545.566	117.31
545.779	102.31
545.993	106.31
546.206	114.31
546.42	81.31
546.633	107.31
546.847	107.31
547.06	104.31
547.274	114.31
547.487	107.31
547.7	90.31
547.914	102.31
548.127	114.31
548.34	109.31
548.554	101.31
548.767	108.31
548.98	96.31
549.193	98.31
549.407	122.31
549.62	120.31
549.833	109.31
550.046	124.31
550.259	97.31
550.473	103.31
550.686	89.31
550.899	97.31
551.112	104.31
551.325	115.31
551.538	100.31
551.751	96.31
551.964	89.31
552.177	100.31
552.39	103.31
552.603	100.31
552.816	102.31
553.029	101.31
553.242	107.31
553.455	88.31
553.667	126.31
553.88	112.31
554.093	100.31
554.306	101.31
554.519	101.31
554.732	103.31
554.944	106.31
555.157	112.31
555.37	112.31
555.583	99.31
555.795	99.31
556.008	95.31
556.221	87.31
556.433	102.31
556.646	114.31
556.859	99.31
557.071	105.31
557.284	110.31
557.496	110.31
557.709	97.31
557.921	94.31
558.134	87.31
558.346	104.31
558.559	107.31
558.771	90.31
558.984	95.31
559.196	82.31
559.409	84.31
559.621	98.31
559.833	91.31
560.046	112.31
560.258	86.31
560.47	90.31
560.683	102.31
560.895	99.31
561.107	97.31
561.32	104.31
561.532	102.31
561.744	99.31
561.956	92.31
562.168	95.31
562.381	96.31
562.593	107.31
562.805	91.31
563.017	99.31
563.229	105.31
563.441	102.31
563.653	87.31
563.865	92.31
564.077	110.31
564.289	85.31
564.501	107.31
564.713	96.31
564.925	98.31
565.137	104.31
565.349	98.31
565.561	89.31
565.773	107.31
565.985	88.31
566.197	86.31
566.408	95.31
566.62	103.31
566.832	106.31
567.044	94.31
567.255	99.31
567.467	96.31
567.679	113.31
567.891	114.31
568.102	113.31
568.314	107.31
568.526	101.31
568.737	106.31
568.949	88.31
569.161	107.31
569.372	110.31
569.584	108.31
569.795	104.31
570.007	92.31
570.218	92.31
570.43	107.31
570.641	102.31
570.853	103.31
571.064	110.31
571.276	101.31
571.487	102.31
571.698	104.31
571.91	100.31
572.121	102.31
572.333	95.31
572.544	92.31
572.755	89.31
572.966	102.31
573.178	93.31
573.389	98.31
573.6	104.31
573.811	106.31
574.023	96.31
574.234	87.31
574.445	96.31
574.656	90.31
574.867	80.31
575.078	96.31
575.289	101.31
575.501	108.31
575.712	83.31
575.923	90.31
576.134	91.31
576.345	82.31
576.556	90.31
576.767	98.31
576.978	89.31
577.188	102.31
577.399	93.31
577.61	96.31
577.821	90.31
578.032	83.31
578.243	94.31
578.454	89.31
578.665	88.31
578.875	86.31
579.086	92.31
579.297	100.31
579.508	95.31
579.718	96.31
579.929	95.31
580.14	99.31
580.35	77.31
580.561	92.31
580.772	108.31
580.982	110.31
581.193	86.31
581.403	101.31
581.614	99.31
581.825	110.31
582.035	93.31
582.246	76.31
582.456	86.31
582.667	92.31
582.877	85.31
583.087	90.31
583.298	88.31
583.508	81.31
583.719	88.31
583.929	86.31
584.139	90.31
584.35	94.31
584.56	81.31
584.77	102.31
584.981	106.31
585.191	90.31
585.401	100.31
585.611	92.31
585.821	104.31
586.032	91.31
586.242	102.31
586.452	92.31
586.662	89.31
586.872	80.31
587.082	96.31
587.292	88.31
587.502	92.31
587.713	85.31
587.923	101.31
588.133	99.31
588.343	76.31
588.553	89.31
588.762	93.31
588.972	110.31
589.182	92.31
589.392	103.31
589.602	90.31
589.812	101.31
590.022	91.31
590.232	90.31
590.441	98.31
590.651	94.31
590.861	99.31
591.071	86.31
591.281	95.31
591.49	83.31
591.7	93.31
591.91	95.31
592.119	88.31
592.329	90.31
592.539	89.31
592.748	94.31
592.958	94.31
593.167	78.31
593.377	88.31
593.587	101.31
593.796	82.31
594.006	91.31
594.215	87.31
594.424	92.31
594.634	90.31
594.843	95.31
595.053	91.31
595.262	94.31
595.472	88.31
595.681	92.31
595.89	99.31
596.1	94.31
596.309	90.31
596.518	85.31
596.727	75.31
596.937	88.31
597.146	99.31
597.355	87.31
597.564	81.31
597.774	87.31
597.983	82.31
598.192	75.31
598.401	102.31
598.61	92.31
598.819	90.31
599.028	90.31
599.237	87.31
599.446	81.31
599.655	84.31
599.864	97.31
600.073	88.31
600.282	87.31
600.491	96.31
600.7	87.31
600.909	96.31
601.118	83.31
601.327	84.31
601.536	79.31
601.745	82.31
601.953	88.31
602.162	92.31
602.371	90.31
602.58	100.31
602.789	95.31
602.997	86.31
603.206	88.31
603.415	103.31
603.623	101.31
603.832	89.31
604.041	91.31
604.249	87.31
604.458	85.31
604.666	88.31
604.875	88.31
605.084	87.31
605.292	91.31
605.501	88.31
605.709	96.31
605.918	80.31
606.126	91.31
606.334	87.31
606.543	83.31
606.751	92.31
606.96	93.31
607.168	80.31
607.376	95.31
607.585	91.31
607.793	101.31
608.001	81.31
608.21	95.31
608.418	98.31
608.626	97.31
608.834	88.31
609.043	95.31
609.251	89.31
609.459	87.31
609.667	108.31
609.875	99.31
610.083	86.31
610.291	89.31
610.499	89.31
610.707	84.31
610.916	87.31
611.124	98.31
611.332	84.31
611.54	105.31
611.748	104.31
611.955	91.31
612.163	79.31
612.371	93.31
612.579	100.31
612.787	94.31
612.995	80.31
613.203	81.31
613.411	85.31
613.618	97.31
613.826	88.31
614.034	96.31
614.242	91.31
614.449	92.31
614.657	91.31
614.865	90.31
615.072	87.31
615.28	91.31
615.488	94.31
615.695	91.31
615.903	103.31
616.111	96.31
616.318	80.31
616.526	91.31
616.733	101.31
616.941	90.31
617.148	86.31
617.356	100.31
617.563	82.31
617.771	91.31
617.978	89.31
618.185	92.31
618.393	89.31
618.6	89.31
618.807	73.31
619.015	85.31
619.222	68.31
619.429	70.31
619.637	83.31
619.844	76.31
620.051	89.31
620.258	88.31
620.466	92.31
620.673	77.31
620.88	86.31
621.087	86.31
621.294	92.31
621.501	95.31
621.708	85.31
621.915	92.31
622.122	90.31
622.329	83.31
622.536	82.31
622.743	95.31
622.95	90.31
623.157	74.31
623.364	99.31
623.571	86.31
623.778	97.31
623.985	101.31
624.192	98.31
624.399	88.31
624.606	82.31
624.812	97.31
625.019	101.31
625.226	94.31
625.433	87.31
625.639	72.31
625.846	86.31
626.053	95.31
626.259	94.31
626.466	84.31
626.673	82.31
626.879	88.31
627.086	88.31
627.293	75.31
627.499	85.31
627.706	82.31
627.912	86.31
628.119	83.31
628.325	91.31
628.532	93.31
628.738	72.31
628.945	87.31
629.151	80.31
629.357	79.31
629.564	71.31
629.77	82.31
629.976	80.31
630.183	73.31
630.389	100.31
630.595	83.31
630.802	88.31
631.008	80.31
631.214	93.31
631.42	100.31
631.627	79.31
631.833	89.31
632.039	83.31
632.245	92.31
632.451	91.31
632.657	87.31
632.863	73.31
633.069	88.31
633.275	91.31
633.481	98.31
633.688	97.31
633.893	89.31
634.099	88.31
634.305	78.31
634.511	80.31
634.717	94.31
634.923	82.31
635.129	82.31
635.335	85.31
635.541	88.31
635.747	104.31
635.952	89.31
636.158	77.31
636.364	90.31
636.57	80.31
636.775	72.31
636.981	86.31
637.187	89.31
637.392	95.31
637.598	82.31
637.804	82.31
638.009	99.31
638.215	96.31
638.421	89.31
638.626	80.31
638.832	92.31
639.037	82.31
639.243	84.31
639.448	74.31
639.654	80.31
639.859	86.31
640.065	75.31
640.27	84.31
640.475	86.31
640.681	93.31
640.886	82.31
641.091	86.31
641.297	90.31
641.502	89.31
641.707	89.31
641.913	82.31
642.118	92.31
642.323	89.31
642.528	96.31
642.733	103.31
642.939	76.31
643.144	96.31
643.349	99.31
643.554	88.31
643.759	83.31
643.964	83.31
644.169	88.31
644.374	86.31
644.579	92.31
644.784	95.31
644.989	90.31
645.194	85.31
645.399	82.31
645.604	79.31
645.809	84.31
646.014	83.31
646.219	93.31
646.423	98.31
646.628	79.31
646.833	85.31
647.038	89.31
647.243	94.31
647.447	82.31
647.652	90.31
647.857	101.31
648.062	65.31
648.266	78.31
648.471	91.31
648.676	81.31
648.88	86.31
649.085	65.31
649.289	83.31
649.494	89.31
649.698	92.31
649.903	97.31
650.107	90.31
650.312	83.31
650.516	81.31
650.721	84.31
650.925	71.31
651.13	76.31
651.334	97.31
651.539	90.31
651.743	75.31
651.947	84.31
652.152	76.31
652.356	72.31
652.56	95.31
652.764	91.31
652.969	94.31
653.173	91.31
653.377	81.31
653.581	79.31
653.785	76.31
653.99	80.31
654.194	82.31
654.398	86.31
654.602	93.31
654.806	78.31
655.01	82.31
655.214	82.31
655.418	72.31
655.622	70.31
655.826	86.31
656.03	95.31
656.234	86.31
656.438	71.31
656.642	81.31
656.846	77.31
657.049	85.31
657.253	75.31
657.457	81.31
657.661	79.31
657.865	90.31
658.068	74.31
658.272	84.31
658.476	94.31
658.68	81.31
658.883	84.31
659.087	86.31
659.291	79.31
659.494	79.31
659.698	76.31
659.901	95.31
660.105	94.31
660.309	79.31
660.512	75.31
660.716	78.31
660.919	89.31
661.123	85.31
661.326	83.31
661.53	96.31
661.733	100.31
661.936	88.31
662.14	81.31
662.343	80.31
662.546	84.31
662.75	94.31
662.953	86.31
663.156	69.31
663.36	79.31
663.563	86.31
663.766	91.31
663.969	82.31
664.173	66.31
664.376	86.31
664.579	92.31
664.782	92.31
664.985	80.31
665.188	94.31
665.391	87.31
665.594	86.31
665.797	72.31
666	84.31
666.203	71.31
666.406	86.31
666.609	72.31
666.812	89.31
667.015	85.31
667.218	81.31
667.421	77.31
667.624	75.31
667.827	94.31
668.03	78.31
668.232	79.31
668.435	83.31
668.638	89.31
668.841	94.31
669.043	78.31
669.246	77.31
669.449	93.31
669.651	90.31
669.854	82.31
670.057	77.31
670.259	75.31
670.462	78.31
670.665	84.31
670.867	87.31
671.07	91.31
671.272	98.31
671.475	91.31
671.677	88.31
671.88	86.31
672.082	95.31
672.284	63.31
672.487	73.31
672.689	74.31
672.892	69.31
