Data from Location5.07152019.Energy5.Lamp.07192019.3%Agarose_HRD10591_15-37-41-387.txt Node
Date: Fri Jul 19 15:37:41 EDT 2019
User: cochatt
Spectrometer: HR+D1059
Trigger mode: 1
Integration Time (sec): 1.000000E-1
Scans to average: 1
Electric dark correction enabled: true
Nonlinearity correction enabled: false
Boxcar width: 0
XAxis mode: Wavelengths
Number of Pixels in Spectrum: 2048
>>>>>Begin Spectral Data<<<<<
223.165	-5.44
223.4	-5.44
223.635	-5.44
223.869	-16.44
224.104	-24.44
224.338	-12.44
224.573	-15.44
224.808	-11.44
225.042	-13.44
225.277	-3.44
225.511	-6.44
225.746	6.56
225.98	-2.44
226.215	1.56
226.449	17.56
226.683	21.56
226.918	37.56
227.152	26.56
227.387	27.56
227.621	44.56
227.856	58.56
228.09	52.56
228.324	57.56
228.559	53.56
228.793	55.56
229.027	57.56
229.262	70.56
229.496	69.56
229.73	74.56
229.964	71.56
230.199	65.56
230.433	74.56
230.667	64.56
230.901	68.56
231.136	78.56
231.37	84.56
231.604	65.56
231.838	83.56
232.072	66.56
232.306	72.56
232.541	86.56
232.775	83.56
233.009	73.56
233.243	88.56
233.477	61.56
233.711	81.56
233.945	87.56
234.179	87.56
234.413	73.56
234.647	80.56
234.881	68.56
235.115	78.56
235.349	76.56
235.583	79.56
235.817	86.56
236.051	74.56
236.285	69.56
236.519	64.56
236.753	72.56
236.987	68.56
237.221	70.56
237.455	83.56
237.689	76.56
237.922	71.56
238.156	79.56
238.39	69.56
238.624	78.56
238.858	72.56
239.091	78.56
239.325	76.56
239.559	71.56
239.793	78.56
240.027	71.56
240.26	72.56
240.494	74.56
240.728	65.56
240.961	74.56
241.195	82.56
241.429	73.56
241.662	82.56
241.896	72.56
242.13	92.56
242.363	73.56
242.597	88.56
242.83	74.56
243.064	66.56
243.298	91.56
243.531	60.56
243.765	58.56
243.998	73.56
244.232	70.56
244.465	73.56
244.699	74.56
244.932	81.56
245.166	83.56
245.399	86.56
245.633	86.56
245.866	78.56
246.099	88.56
246.333	74.56
246.566	72.56
246.8	81.56
247.033	78.56
247.266	88.56
247.5	80.56
247.733	84.56
247.966	78.56
248.2	65.56
248.433	74.56
248.666	68.56
248.899	73.56
249.133	83.56
249.366	84.56
249.599	83.56
249.832	73.56
250.066	68.56
250.299	71.56
250.532	77.56
250.765	76.56
250.998	68.56
251.231	74.56
251.465	69.56
251.698	79.56
251.931	86.56
252.164	79.56
252.397	74.56
252.63	80.56
252.863	68.56
253.096	71.56
253.329	74.56
253.562	77.56
253.795	83.56
254.028	76.56
254.261	82.56
254.494	84.56
254.727	69.56
254.96	83.56
255.193	74.56
255.426	84.56
255.659	74.56
255.892	85.56
256.124	63.56
256.357	71.56
256.59	77.56
256.823	71.56
257.056	74.56
257.289	87.56
257.521	71.56
257.754	70.56
257.987	78.56
258.22	89.56
258.452	89.56
258.685	70.56
258.918	65.56
259.151	64.56
259.383	74.56
259.616	84.56
259.849	69.56
260.081	62.56
260.314	85.56
260.547	71.56
260.779	81.56
261.012	81.56
261.244	77.56
261.477	81.56
261.71	83.56
261.942	71.56
262.175	81.56
262.407	72.56
262.64	72.56
262.872	69.56
263.105	86.56
263.337	89.56
263.57	73.56
263.802	81.56
264.035	76.56
264.267	96.56
264.499	74.56
264.732	79.56
264.964	80.56
265.197	61.56
265.429	80.56
265.661	82.56
265.894	80.56
266.126	72.56
266.358	81.56
266.591	75.56
266.823	99.56
267.055	72.56
267.287	77.56
267.52	79.56
267.752	87.56
267.984	91.56
268.216	93.56
268.448	82.56
268.681	89.56
268.913	71.56
269.145	74.56
269.377	85.56
269.609	71.56
269.841	82.56
270.073	92.56
270.306	86.56
270.538	90.56
270.77	75.56
271.002	85.56
271.234	66.56
271.466	89.56
271.698	83.56
271.93	78.56
272.162	74.56
272.394	88.56
272.626	89.56
272.858	89.56
273.09	75.56
273.322	75.56
273.553	89.56
273.785	72.56
274.017	90.56
274.249	80.56
274.481	72.56
274.713	70.56
274.945	91.56
275.176	89.56
275.408	71.56
275.64	78.56
275.872	80.56
276.104	75.56
276.335	79.56
276.567	87.56
276.799	86.56
277.031	77.56
277.262	79.56
277.494	73.56
277.726	86.56
277.957	75.56
278.189	95.56
278.421	69.56
278.652	70.56
278.884	84.56
279.115	72.56
279.347	80.56
279.579	87.56
279.81	70.56
280.042	85.56
280.273	80.56
280.505	71.56
280.736	82.56
280.968	78.56
281.199	80.56
281.431	81.56
281.662	94.56
281.894	86.56
282.125	85.56
282.356	86.56
282.588	63.56
282.819	92.56
283.051	77.56
283.282	66.56
283.513	85.56
283.745	73.56
283.976	63.56
284.207	80.56
284.439	87.56
284.67	82.56
284.901	82.56
285.132	79.56
285.364	86.56
285.595	66.56
285.826	81.56
286.057	81.56
286.288	74.56
286.52	88.56
286.751	88.56
286.982	89.56
287.213	84.56
287.444	74.56
287.675	73.56
287.906	75.56
288.138	81.56
288.369	96.56
288.6	94.56
288.831	80.56
289.062	61.56
289.293	91.56
289.524	89.56
289.755	73.56
289.986	77.56
290.217	73.56
290.448	91.56
290.679	93.56
290.91	79.56
291.141	94.56
291.371	104.56
291.602	73.56
291.833	80.56
292.064	84.56
292.295	89.56
292.526	81.56
292.757	81.56
292.987	93.56
293.218	65.56
293.449	87.56
293.68	83.56
293.91	94.56
294.141	85.56
294.372	81.56
294.603	74.56
294.833	74.56
295.064	93.56
295.295	92.56
295.525	84.56
295.756	85.56
295.987	74.56
296.217	94.56
296.448	86.56
296.679	78.56
296.909	77.56
297.14	90.56
297.37	86.56
297.601	74.56
297.831	70.56
298.062	86.56
298.292	82.56
298.523	81.56
298.753	91.56
298.984	64.56
299.214	88.56
299.445	77.56
299.675	67.56
299.905	84.56
300.136	84.56
300.366	81.56
300.597	84.56
300.827	85.56
301.057	81.56
301.288	85.56
301.518	73.56
301.748	74.56
301.979	78.56
302.209	84.56
302.439	72.56
302.669	91.56
302.9	83.56
303.13	71.56
303.36	82.56
303.59	93.56
303.82	80.56
304.051	79.56
304.281	88.56
304.511	77.56
304.741	86.56
304.971	87.56
305.201	84.56
305.431	87.56
305.661	73.56
305.891	100.56
306.121	82.56
306.352	62.56
306.582	96.56
306.812	98.56
307.042	88.56
307.272	81.56
307.502	88.56
307.731	93.56
307.961	81.56
308.191	82.56
308.421	82.56
308.651	91.56
308.881	93.56
309.111	76.56
309.341	82.56
309.571	77.56
309.8	73.56
310.03	85.56
310.26	74.56
310.49	87.56
310.72	79.56
310.949	75.56
311.179	82.56
311.409	68.56
311.639	78.56
311.868	90.56
312.098	92.56
312.328	93.56
312.557	84.56
312.787	81.56
313.017	92.56
313.246	72.56
313.476	82.56
313.706	94.56
313.935	87.56
314.165	76.56
314.394	68.56
314.624	84.56
314.853	74.56
315.083	74.56
315.312	95.56
315.542	92.56
315.771	81.56
316.001	81.56
316.23	80.56
316.46	80.56
316.689	79.56
316.919	81.56
317.148	80.56
317.377	78.56
317.607	86.56
317.836	85.56
318.065	87.56
318.295	67.56
318.524	74.56
318.753	84.56
318.983	82.56
319.212	93.56
319.441	85.56
319.67	89.56
319.9	72.56
320.129	85.56
320.358	93.56
320.587	83.56
320.816	64.56
321.046	87.56
321.275	110.56
321.504	71.56
321.733	91.56
321.962	88.56
322.191	85.56
322.42	92.56
322.649	76.56
322.878	95.56
323.108	85.56
323.337	85.56
323.566	78.56
323.795	75.56
324.024	91.56
324.253	89.56
324.482	78.56
324.71	72.56
324.939	84.56
325.168	69.56
325.397	79.56
325.626	88.56
325.855	86.56
326.084	63.56
326.313	81.56
326.542	86.56
326.77	72.56
326.999	80.56
327.228	83.56
327.457	81.56
327.686	92.56
327.914	98.56
328.143	71.56
328.372	83.56
328.6	77.56
328.829	71.56
329.058	84.56
329.287	86.56
329.515	85.56
329.744	75.56
329.972	77.56
330.201	74.56
330.43	99.56
330.658	70.56
330.887	72.56
331.115	78.56
331.344	88.56
331.572	103.56
331.801	83.56
332.03	92.56
332.258	83.56
332.486	84.56
332.715	68.56
332.943	80.56
333.172	96.56
333.4	75.56
333.629	72.56
333.857	87.56
334.085	76.56
334.314	83.56
334.542	84.56
334.771	92.56
334.999	92.56
335.227	89.56
335.455	83.56
335.684	92.56
335.912	82.56
336.14	74.56
336.369	73.56
336.597	73.56
336.825	82.56
337.053	73.56
337.281	68.56
337.51	89.56
337.738	93.56
337.966	85.56
338.194	86.56
338.422	81.56
338.65	90.56
338.878	89.56
339.106	84.56
339.334	85.56
339.562	78.56
339.79	99.56
340.018	80.56
340.246	83.56
340.474	78.56
340.702	79.56
340.93	82.56
341.158	82.56
341.386	73.56
341.614	72.56
341.842	77.56
342.07	74.56
342.298	99.56
342.526	96.56
342.754	85.56
342.981	86.56
343.209	86.56
343.437	65.56
343.665	80.56
343.893	94.56
344.12	81.56
344.348	85.56
344.576	87.56
344.804	74.56
345.031	84.56
345.259	71.56
345.487	87.56
345.714	87.56
345.942	72.56
346.17	89.56
346.397	93.56
346.625	87.56
346.853	68.56
347.08	77.56
347.308	87.56
347.535	97.56
347.763	92.56
347.99	92.56
348.218	82.56
348.445	87.56
348.673	83.56
348.9	85.56
349.128	75.56
349.355	74.56
349.583	73.56
349.81	72.56
350.037	80.56
350.265	90.56
350.492	80.56
350.72	83.56
350.947	73.56
351.174	95.56
351.402	73.56
351.629	95.56
351.856	85.56
352.083	92.56
352.311	79.56
352.538	84.56
352.765	85.56
352.992	85.56
353.22	81.56
353.447	88.56
353.674	73.56
353.901	94.56
354.128	85.56
354.355	84.56
354.583	86.56
354.81	79.56
355.037	85.56
355.264	80.56
355.491	80.56
355.718	88.56
355.945	77.56
356.172	76.56
356.399	74.56
356.626	84.56
356.853	79.56
357.08	73.56
357.307	65.56
357.534	79.56
357.761	87.56
357.988	82.56
358.215	78.56
358.441	83.56
358.668	93.56
358.895	69.56
359.122	74.56
359.349	85.56
359.576	80.56
359.802	77.56
360.029	86.56
360.256	81.56
360.483	78.56
360.709	75.56
360.936	93.56
361.163	79.56
361.39	93.56
361.616	78.56
361.843	80.56
362.07	94.56
362.296	77.56
362.523	93.56
362.749	92.56
362.976	79.56
363.203	82.56
363.429	75.56
363.656	83.56
363.882	87.56
364.109	74.56
364.335	72.56
364.562	78.56
364.788	84.56
365.015	81.56
365.241	81.56
365.468	77.56
365.694	88.56
365.92	80.56
366.147	72.56
366.373	78.56
366.599	64.56
366.826	80.56
367.052	73.56
367.278	75.56
367.505	89.56
367.731	83.56
367.957	82.56
368.184	84.56
368.41	87.56
368.636	85.56
368.862	81.56
369.089	74.56
369.315	83.56
369.541	89.56
369.767	81.56
369.993	90.56
370.219	88.56
370.445	92.56
370.672	78.56
370.898	98.56
371.124	93.56
371.35	86.56
371.576	76.56
371.802	71.56
372.028	88.56
372.254	85.56
372.48	76.56
372.706	79.56
372.932	72.56
373.158	73.56
373.384	67.56
373.61	94.56
373.835	76.56
374.061	79.56
374.287	82.56
374.513	69.56
374.739	89.56
374.965	87.56
375.191	85.56
375.416	82.56
375.642	85.56
375.868	87.56
376.094	68.56
376.319	72.56
376.545	72.56
376.771	93.56
376.997	85.56
377.222	93.56
377.448	90.56
377.674	64.56
377.899	80.56
378.125	87.56
378.35	93.56
378.576	78.56
378.802	87.56
379.027	83.56
379.253	89.56
379.478	79.56
379.704	85.56
379.929	86.56
380.155	83.56
380.38	71.56
380.606	77.56
380.831	93.56
381.057	102.56
381.282	90.56
381.507	97.56
381.733	97.56
381.958	87.56
382.184	74.56
382.409	71.56
382.634	76.56
382.86	84.56
383.085	86.56
383.31	93.56
383.535	70.56
383.761	91.56
383.986	77.56
384.211	80.56
384.436	74.56
384.662	89.56
384.887	92.56
385.112	84.56
385.337	80.56
385.562	74.56
385.787	90.56
386.013	87.56
386.238	78.56
386.463	78.56
386.688	83.56
386.913	74.56
387.138	82.56
387.363	91.56
387.588	86.56
387.813	85.56
388.038	80.56
388.263	84.56
388.488	82.56
388.713	76.56
388.938	84.56
389.163	80.56
389.387	86.56
389.612	85.56
389.837	82.56
390.062	90.56
390.287	92.56
390.512	88.56
390.736	89.56
390.961	79.56
391.186	77.56
391.411	80.56
391.636	89.56
391.86	84.56
392.085	81.56
392.31	87.56
392.534	87.56
392.759	66.56
392.984	78.56
393.208	81.56
393.433	76.56
393.658	91.56
393.882	74.56
394.107	82.56
394.331	84.56
394.556	75.56
394.78	100.56
395.005	90.56
395.229	82.56
395.454	96.56
395.678	85.56
395.903	77.56
396.127	95.56
396.352	89.56
396.576	74.56
396.801	80.56
397.025	77.56
397.249	78.56
397.474	87.56
397.698	63.56
397.922	85.56
398.147	87.56
398.371	93.56
398.595	88.56
398.82	78.56
399.044	70.56
399.268	85.56
399.492	98.56
399.717	89.56
399.941	88.56
400.165	88.56
400.389	89.56
400.613	88.56
400.837	92.56
401.062	96.56
401.286	89.56
401.51	96.56
401.734	70.56
401.958	85.56
402.182	85.56
402.406	93.56
402.63	89.56
402.854	89.56
403.078	74.56
403.302	86.56
403.526	75.56
403.75	84.56
403.974	81.56
404.198	94.56
404.422	81.56
404.645	93.56
404.869	89.56
405.093	91.56
405.317	82.56
405.541	76.56
405.765	78.56
405.988	77.56
406.212	81.56
406.436	85.56
406.66	83.56
406.883	80.56
407.107	77.56
407.331	86.56
407.555	98.56
407.778	89.56
408.002	88.56
408.226	82.56
408.449	87.56
408.673	85.56
408.896	92.56
409.12	82.56
409.344	86.56
409.567	92.56
409.791	78.56
410.014	86.56
410.238	71.56
410.461	86.56
410.685	76.56
410.908	89.56
411.132	99.56
411.355	88.56
411.578	107.56
411.802	87.56
412.025	100.56
412.249	88.56
412.472	101.56
412.695	96.56
412.919	75.56
413.142	81.56
413.365	97.56
413.589	89.56
413.812	95.56
414.035	83.56
414.258	93.56
414.482	68.56
414.705	82.56
414.928	88.56
415.151	77.56
415.374	76.56
415.597	92.56
415.821	88.56
416.044	78.56
416.267	86.56
416.49	88.56
416.713	79.56
416.936	101.56
417.159	81.56
417.382	95.56
417.605	84.56
417.828	92.56
418.051	78.56
418.274	92.56
418.497	87.56
418.72	83.56
418.943	90.56
419.166	99.56
419.389	86.56
419.611	97.56
419.834	81.56
420.057	90.56
420.28	82.56
420.503	79.56
420.726	104.56
420.948	90.56
421.171	85.56
421.394	86.56
421.617	98.56
421.839	90.56
422.062	78.56
422.285	82.56
422.507	89.56
422.73	82.56
422.953	82.56
423.175	100.56
423.398	105.56
423.621	88.56
423.843	91.56
424.066	83.56
424.288	91.56
424.511	82.56
424.733	92.56
424.956	88.56
425.178	90.56
425.401	91.56
425.623	91.56
425.846	74.56
426.068	86.56
426.291	73.56
426.513	85.56
426.735	96.56
426.958	94.56
427.18	99.56
427.402	92.56
427.625	84.56
427.847	78.56
428.069	90.56
428.292	78.56
428.514	83.56
428.736	88.56
428.958	95.56
429.181	90.56
429.403	86.56
429.625	85.56
429.847	86.56
430.069	96.56
430.292	97.56
430.514	92.56
430.736	89.56
430.958	102.56
431.18	80.56
431.402	96.56
431.624	93.56
431.846	92.56
432.068	80.56
432.29	83.56
432.512	79.56
432.734	81.56
432.956	87.56
433.178	91.56
433.4	88.56
433.622	86.56
433.844	92.56
434.066	92.56
434.287	77.56
434.509	83.56
434.731	69.56
434.953	65.56
435.175	96.56
435.397	67.56
435.618	92.56
435.84	86.56
436.062	84.56
436.284	86.56
436.505	86.56
436.727	91.56
436.949	95.56
437.17	86.56
437.392	91.56
437.614	101.56
437.835	89.56
438.057	88.56
438.278	75.56
438.5	92.56
438.721	91.56
438.943	93.56
439.165	87.56
439.386	84.56
439.608	97.56
439.829	92.56
440.05	97.56
440.272	97.56
440.493	105.56
440.715	105.56
440.936	101.56
441.158	81.56
441.379	79.56
441.6	85.56
441.822	103.56
442.043	91.56
442.264	94.56
442.486	82.56
442.707	96.56
442.928	105.56
443.149	86.56
443.371	79.56
443.592	97.56
443.813	91.56
444.034	85.56
444.255	86.56
444.476	100.56
444.698	105.56
444.919	87.56
445.14	226.56
445.361	137.56
445.582	97.56
445.803	80.56
446.024	89.56
446.245	85.56
446.466	101.56
446.687	87.56
446.908	91.56
447.129	86.56
447.35	99.56
447.571	78.56
447.792	90.56
448.013	68.56
448.234	89.56
448.455	83.56
448.675	85.56
448.896	87.56
449.117	87.56
449.338	86.56
449.559	92.56
449.779	86.56
450	71.56
450.221	102.56
450.442	87.56
450.662	89.56
450.883	86.56
451.104	76.56
451.324	87.56
451.545	85.56
451.766	77.56
451.986	83.56
452.207	94.56
452.428	99.56
452.648	89.56
452.869	77.56
453.089	101.56
453.31	86.56
453.53	78.56
453.751	89.56
453.971	88.56
454.192	64.56
454.412	94.56
454.633	87.56
454.853	87.56
455.073	84.56
455.294	81.56
455.514	112.56
455.734	84.56
455.955	90.56
456.175	83.56
456.395	105.56
456.616	72.56
456.836	87.56
457.056	81.56
457.276	75.56
457.497	89.56
457.717	85.56
457.937	83.56
458.157	87.56
458.377	77.56
458.598	82.56
458.818	90.56
459.038	88.56
459.258	71.56
459.478	77.56
459.698	85.56
459.918	89.56
460.138	89.56
460.358	94.56
460.578	87.56
460.798	85.56
461.018	79.56
461.238	79.56
461.458	73.56
461.678	71.56
461.898	76.56
462.118	88.56
462.338	85.56
462.558	84.56
462.777	84.56
462.997	88.56
463.217	89.56
463.437	92.56
463.657	84.56
463.876	74.56
464.096	93.56
464.316	96.56
464.536	69.56
464.755	103.56
464.975	90.56
465.195	82.56
465.414	70.56
465.634	85.56
465.854	92.56
466.073	97.56
466.293	84.56
466.512	86.56
466.732	92.56
466.951	82.56
467.171	87.56
467.391	78.56
467.61	94.56
467.829	105.56
468.049	92.56
468.268	88.56
468.488	101.56
468.707	99.56
468.927	79.56
469.146	86.56
469.365	98.56
469.585	95.56
469.804	100.56
470.023	80.56
470.243	98.56
470.462	95.56
470.681	93.56
470.901	84.56
471.12	102.56
471.339	109.56
471.558	98.56
471.777	86.56
471.997	86.56
472.216	91.56
472.435	91.56
472.654	90.56
472.873	84.56
473.092	96.56
473.311	82.56
473.53	85.56
473.749	88.56
473.968	99.56
474.187	82.56
474.406	73.56
474.625	95.56
474.844	92.56
475.063	92.56
475.282	97.56
475.501	86.56
475.72	87.56
475.939	98.56
476.158	84.56
476.377	82.56
476.596	92.56
476.814	67.56
477.033	74.56
477.252	89.56
477.471	82.56
477.69	101.56
477.908	89.56
478.127	85.56
478.346	91.56
478.564	99.56
478.783	90.56
479.002	102.56
479.22	89.56
479.439	105.56
479.658	88.56
479.876	85.56
480.095	79.56
480.313	89.56
480.532	83.56
480.751	84.56
480.969	78.56
481.188	74.56
481.406	77.56
481.624	75.56
481.843	72.56
482.061	95.56
482.28	91.56
482.498	72.56
482.717	85.56
482.935	76.56
483.153	108.56
483.372	107.56
483.59	108.56
483.808	86.56
484.027	90.56
484.245	84.56
484.463	101.56
484.681	114.56
484.9	94.56
485.118	94.56
485.336	93.56
485.554	96.56
485.772	94.56
485.99	76.56
486.209	81.56
486.427	87.56
486.645	74.56
486.863	99.56
487.081	98.56
487.299	86.56
487.517	85.56
487.735	103.56
487.953	103.56
488.171	112.56
488.389	103.56
488.607	97.56
488.825	77.56
489.043	102.56
489.261	105.56
489.479	88.56
489.696	89.56
489.914	94.56
490.132	84.56
490.35	90.56
490.568	92.56
490.786	112.56
491.003	100.56
491.221	104.56
491.439	97.56
491.657	105.56
491.874	115.56
492.092	116.56
492.31	110.56
492.527	138.56
492.745	109.56
492.963	103.56
493.18	95.56
493.398	109.56
493.615	100.56
493.833	104.56
494.05	113.56
494.268	92.56
494.485	94.56
494.703	102.56
494.92	112.56
495.138	108.56
495.355	98.56
495.573	102.56
495.79	87.56
496.008	96.56
496.225	101.56
496.442	110.56
496.66	109.56
496.877	101.56
497.094	107.56
497.312	97.56
497.529	97.56
497.746	86.56
497.963	82.56
498.181	95.56
498.398	92.56
498.615	95.56
498.832	94.56
499.049	97.56
499.267	84.56
499.484	88.56
499.701	85.56
499.918	105.56
500.135	101.56
500.352	95.56
500.569	87.56
500.786	95.56
501.003	102.56
501.22	94.56
501.437	101.56
501.654	85.56
501.871	106.56
502.088	80.56
502.305	82.56
502.522	85.56
502.739	86.56
502.956	85.56
503.172	85.56
503.389	75.56
503.606	83.56
503.823	88.56
504.04	81.56
504.256	79.56
504.473	81.56
504.69	84.56
504.907	87.56
505.123	85.56
505.34	90.56
505.557	76.56
505.773	87.56
505.99	79.56
506.207	81.56
506.423	88.56
506.64	83.56
506.856	91.56
507.073	90.56
507.289	90.56
507.506	99.56
507.722	82.56
507.939	93.56
508.155	89.56
508.372	73.56
508.588	63.56
508.805	97.56
509.021	75.56
509.238	83.56
509.454	99.56
509.67	80.56
509.887	78.56
510.103	87.56
510.319	72.56
510.536	68.56
510.752	94.56
510.968	76.56
511.184	78.56
511.401	87.56
511.617	81.56
511.833	78.56
512.049	87.56
512.265	81.56
512.481	90.56
512.698	80.56
512.914	83.56
513.13	94.56
513.346	76.56
513.562	89.56
513.778	80.56
513.994	94.56
514.21	82.56
514.426	100.56
514.642	83.56
514.858	74.56
515.074	81.56
515.29	81.56
515.506	90.56
515.721	88.56
515.937	86.56
516.153	86.56
516.369	88.56
516.585	83.56
516.801	69.56
517.016	82.56
517.232	97.56
517.448	84.56
517.664	83.56
517.879	69.56
518.095	89.56
518.311	87.56
518.527	79.56
518.742	75.56
518.958	74.56
519.173	85.56
519.389	83.56
519.605	75.56
519.82	95.56
520.036	82.56
520.251	75.56
520.467	84.56
520.682	87.56
520.898	85.56
521.113	81.56
521.329	78.56
521.544	83.56
521.76	75.56
521.975	76.56
522.19	84.56
522.406	82.56
522.621	84.56
522.836	92.56
523.052	83.56
523.267	85.56
523.482	74.56
523.698	68.56
523.913	75.56
524.128	86.56
524.343	82.56
524.559	81.56
524.774	79.56
524.989	102.56
525.204	94.56
525.419	84.56
525.634	84.56
525.849	96.56
526.064	87.56
526.28	87.56
526.495	82.56
526.71	98.56
526.925	80.56
527.14	92.56
527.355	91.56
527.57	98.56
527.785	69.56
527.999	78.56
528.214	92.56
528.429	94.56
528.644	95.56
528.859	89.56
529.074	97.56
529.289	112.56
529.503	90.56
529.718	105.56
529.933	95.56
530.148	80.56
530.363	87.56
530.577	92.56
530.792	78.56
531.007	80.56
531.221	69.56
531.436	71.56
531.651	89.56
531.865	91.56
532.08	86.56
532.295	83.56
532.509	84.56
532.724	77.56
532.938	74.56
533.153	97.56
533.367	89.56
533.582	88.56
533.796	76.56
534.011	84.56
534.225	89.56
534.44	76.56
534.654	91.56
534.868	71.56
535.083	89.56
535.297	97.56
535.511	85.56
535.726	84.56
535.94	97.56
536.154	88.56
536.369	73.56
536.583	79.56
536.797	84.56
537.011	88.56
537.225	88.56
537.44	93.56
537.654	76.56
537.868	77.56
538.082	83.56
538.296	85.56
538.51	91.56
538.724	98.56
538.938	99.56
539.153	103.56
539.367	90.56
539.581	77.56
539.795	90.56
540.009	98.56
540.222	85.56
540.436	79.56
540.65	81.56
540.864	95.56
541.078	82.56
541.292	92.56
541.506	101.56
541.72	113.56
541.934	118.56
542.147	102.56
542.361	100.56
542.575	80.56
542.789	102.56
543.002	106.56
543.216	103.56
543.43	95.56
543.644	101.56
543.857	85.56
544.071	95.56
544.285	95.56
544.498	97.56
544.712	88.56
544.925	108.56
545.139	103.56
545.352	90.56
545.566	91.56
545.779	104.56
545.993	111.56
546.206	96.56
546.42	110.56
546.633	116.56
546.847	95.56
547.06	98.56
547.274	112.56
547.487	101.56
547.7	106.56
547.914	114.56
548.127	96.56
548.34	106.56
548.554	94.56
548.767	98.56
548.98	91.56
549.193	105.56
549.407	107.56
549.62	110.56
549.833	88.56
550.046	104.56
550.259	116.56
550.473	93.56
550.686	100.56
550.899	99.56
551.112	101.56
551.325	83.56
551.538	108.56
551.751	98.56
551.964	103.56
552.177	87.56
552.39	88.56
552.603	109.56
552.816	94.56
553.029	88.56
553.242	98.56
553.455	99.56
553.667	101.56
553.88	107.56
554.093	86.56
554.306	96.56
554.519	102.56
554.732	102.56
554.944	98.56
555.157	105.56
555.37	93.56
555.583	98.56
555.795	104.56
556.008	81.56
556.221	105.56
556.433	83.56
556.646	73.56
556.859	98.56
557.071	94.56
557.284	94.56
557.496	99.56
557.709	115.56
557.921	113.56
558.134	90.56
558.346	99.56
558.559	101.56
558.771	101.56
558.984	94.56
559.196	90.56
559.409	82.56
559.621	95.56
559.833	83.56
560.046	86.56
560.258	84.56
560.47	100.56
560.683	95.56
560.895	92.56
561.107	87.56
561.32	103.56
561.532	85.56
561.744	92.56
561.956	108.56
562.168	87.56
562.381	105.56
562.593	109.56
562.805	95.56
563.017	100.56
563.229	100.56
563.441	85.56
563.653	85.56
563.865	93.56
564.077	89.56
564.289	90.56
564.501	90.56
564.713	94.56
564.925	97.56
565.137	95.56
565.349	95.56
565.561	84.56
565.773	79.56
565.985	89.56
566.197	94.56
566.408	96.56
566.62	84.56
566.832	98.56
567.044	87.56
567.255	104.56
567.467	75.56
567.679	100.56
567.891	78.56
568.102	88.56
568.314	76.56
568.526	97.56
568.737	84.56
568.949	80.56
569.161	87.56
569.372	81.56
569.584	91.56
569.795	89.56
570.007	90.56
570.218	85.56
570.43	74.56
570.641	97.56
570.853	83.56
571.064	90.56
571.276	78.56
571.487	80.56
571.698	73.56
571.91	92.56
572.121	105.56
572.333	84.56
572.544	89.56
572.755	81.56
572.966	74.56
573.178	81.56
573.389	96.56
573.6	95.56
573.811	80.56
574.023	86.56
574.234	88.56
574.445	88.56
574.656	84.56
574.867	73.56
575.078	86.56
575.289	99.56
575.501	89.56
575.712	78.56
575.923	66.56
576.134	79.56
576.345	100.56
576.556	89.56
576.767	81.56
576.978	95.56
577.188	78.56
577.399	84.56
577.61	92.56
577.821	84.56
578.032	88.56
578.243	79.56
578.454	86.56
578.665	92.56
578.875	88.56
579.086	84.56
579.297	72.56
579.508	85.56
579.718	78.56
579.929	89.56
580.14	86.56
580.35	76.56
580.561	80.56
580.772	88.56
580.982	78.56
581.193	83.56
581.403	94.56
581.614	88.56
581.825	82.56
582.035	83.56
582.246	75.56
582.456	78.56
582.667	81.56
582.877	85.56
583.087	77.56
583.298	87.56
583.508	79.56
583.719	78.56
583.929	78.56
584.139	83.56
584.35	82.56
584.56	76.56
584.77	88.56
584.981	70.56
585.191	92.56
585.401	75.56
585.611	85.56
585.821	69.56
586.032	85.56
586.242	79.56
586.452	71.56
586.662	82.56
586.872	73.56
587.082	85.56
587.292	76.56
587.502	87.56
587.713	80.56
587.923	82.56
588.133	79.56
588.343	85.56
588.553	82.56
588.762	84.56
588.972	90.56
589.182	88.56
589.392	82.56
589.602	106.56
589.812	81.56
590.022	74.56
590.232	72.56
590.441	75.56
590.651	76.56
590.861	99.56
591.071	83.56
591.281	73.56
591.49	68.56
591.7	74.56
591.91	93.56
592.119	96.56
592.329	69.56
592.539	82.56
592.748	84.56
592.958	82.56
593.167	86.56
593.377	90.56
593.587	102.56
593.796	86.56
594.006	81.56
594.215	78.56
594.424	91.56
594.634	85.56
594.843	62.56
595.053	80.56
595.262	81.56
595.472	93.56
595.681	96.56
595.89	85.56
596.1	86.56
596.309	94.56
596.518	85.56
596.727	94.56
596.937	91.56
597.146	82.56
597.355	76.56
597.564	89.56
597.774	90.56
597.983	82.56
598.192	84.56
598.401	79.56
598.61	89.56
598.819	77.56
599.028	80.56
599.237	73.56
599.446	85.56
599.655	78.56
599.864	68.56
600.073	75.56
600.282	87.56
600.491	87.56
600.7	85.56
600.909	65.56
601.118	75.56
601.327	73.56
601.536	83.56
601.745	92.56
601.953	76.56
602.162	81.56
602.371	92.56
602.58	80.56
602.789	103.56
602.997	85.56
603.206	82.56
603.415	89.56
603.623	83.56
603.832	87.56
604.041	91.56
604.249	92.56
604.458	86.56
604.666	81.56
604.875	82.56
605.084	69.56
605.292	93.56
605.501	88.56
605.709	93.56
605.918	91.56
606.126	86.56
606.334	87.56
606.543	89.56
606.751	89.56
606.96	91.56
607.168	68.56
607.376	89.56
607.585	90.56
607.793	85.56
608.001	80.56
608.21	90.56
608.418	82.56
608.626	104.56
608.834	106.56
609.043	87.56
609.251	65.56
609.459	89.56
609.667	98.56
609.875	87.56
610.083	96.56
610.291	78.56
610.499	86.56
610.707	87.56
610.916	77.56
611.124	89.56
611.332	105.56
611.54	90.56
611.748	86.56
611.955	98.56
612.163	71.56
612.371	94.56
612.579	86.56
612.787	95.56
612.995	81.56
613.203	114.56
613.411	76.56
613.618	65.56
613.826	83.56
614.034	90.56
614.242	98.56
614.449	93.56
614.657	84.56
614.865	81.56
615.072	103.56
615.28	92.56
615.488	90.56
615.695	90.56
615.903	86.56
616.111	86.56
616.318	86.56
616.526	92.56
616.733	90.56
616.941	77.56
617.148	91.56
617.356	89.56
617.563	80.56
617.771	97.56
617.978	81.56
618.185	98.56
618.393	75.56
618.6	97.56
618.807	96.56
619.015	87.56
619.222	84.56
619.429	98.56
619.637	85.56
619.844	85.56
620.051	60.56
620.258	84.56
620.466	75.56
620.673	95.56
620.88	93.56
621.087	96.56
621.294	94.56
621.501	95.56
621.708	95.56
621.915	87.56
622.122	89.56
622.329	93.56
622.536	84.56
622.743	84.56
622.95	86.56
623.157	83.56
623.364	95.56
623.571	83.56
623.778	88.56
623.985	85.56
624.192	88.56
624.399	99.56
624.606	98.56
624.812	75.56
625.019	80.56
625.226	70.56
625.433	80.56
625.639	90.56
625.846	87.56
626.053	80.56
626.259	89.56
626.466	85.56
626.673	84.56
626.879	90.56
627.086	82.56
627.293	91.56
627.499	74.56
627.706	95.56
627.912	85.56
628.119	89.56
628.325	86.56
628.532	92.56
628.738	95.56
628.945	82.56
629.151	91.56
629.357	76.56
629.564	90.56
629.77	95.56
629.976	85.56
630.183	89.56
630.389	93.56
630.595	95.56
630.802	97.56
631.008	97.56
631.214	89.56
631.42	96.56
631.627	93.56
631.833	93.56
632.039	89.56
632.245	76.56
632.451	95.56
632.657	75.56
632.863	86.56
633.069	80.56
633.275	91.56
633.481	90.56
633.688	85.56
633.893	96.56
634.099	84.56
634.305	88.56
634.511	88.56
634.717	88.56
634.923	93.56
635.129	75.56
635.335	71.56
635.541	78.56
635.747	93.56
635.952	90.56
636.158	91.56
636.364	82.56
636.57	87.56
636.775	68.56
636.981	94.56
637.187	77.56
637.392	98.56
637.598	82.56
637.804	71.56
638.009	84.56
638.215	90.56
638.421	77.56
638.626	95.56
638.832	80.56
639.037	80.56
639.243	82.56
639.448	78.56
639.654	98.56
639.859	81.56
640.065	86.56
640.27	105.56
640.475	82.56
640.681	103.56
640.886	91.56
641.091	84.56
641.297	85.56
641.502	95.56
641.707	79.56
641.913	78.56
642.118	89.56
642.323	83.56
642.528	109.56
642.733	87.56
642.939	85.56
643.144	87.56
643.349	82.56
643.554	90.56
643.759	76.56
643.964	88.56
644.169	80.56
644.374	83.56
644.579	87.56
644.784	87.56
644.989	87.56
645.194	90.56
645.399	80.56
645.604	74.56
645.809	92.56
646.014	74.56
646.219	83.56
646.423	90.56
646.628	83.56
646.833	84.56
647.038	80.56
647.243	88.56
647.447	80.56
647.652	89.56
647.857	89.56
648.062	85.56
648.266	82.56
648.471	77.56
648.676	86.56
648.88	77.56
649.085	93.56
649.289	87.56
649.494	94.56
649.698	86.56
649.903	80.56
650.107	78.56
650.312	88.56
650.516	84.56
650.721	79.56
650.925	76.56
651.13	80.56
651.334	90.56
651.539	84.56
651.743	93.56
651.947	92.56
652.152	88.56
652.356	78.56
652.56	81.56
652.764	79.56
652.969	77.56
653.173	80.56
653.377	82.56
653.581	77.56
653.785	86.56
653.99	85.56
654.194	88.56
654.398	83.56
654.602	78.56
654.806	80.56
655.01	87.56
655.214	74.56
655.418	64.56
655.622	73.56
655.826	96.56
656.03	80.56
656.234	87.56
656.438	77.56
656.642	75.56
656.846	82.56
657.049	77.56
657.253	71.56
657.457	86.56
657.661	70.56
657.865	77.56
658.068	81.56
658.272	71.56
658.476	64.56
658.68	79.56
658.883	84.56
659.087	63.56
659.291	81.56
659.494	86.56
659.698	75.56
659.901	96.56
660.105	66.56
660.309	84.56
660.512	71.56
660.716	78.56
660.919	93.56
661.123	83.56
661.326	79.56
661.53	87.56
661.733	74.56
661.936	75.56
662.14	86.56
662.343	65.56
662.546	82.56
662.75	72.56
662.953	81.56
663.156	77.56
663.36	92.56
663.563	82.56
663.766	83.56
663.969	76.56
664.173	74.56
664.376	83.56
664.579	83.56
664.782	73.56
664.985	74.56
665.188	79.56
665.391	82.56
665.594	87.56
665.797	84.56
666	76.56
666.203	82.56
666.406	88.56
666.609	74.56
666.812	75.56
667.015	86.56
667.218	86.56
667.421	80.56
667.624	83.56
667.827	81.56
668.03	85.56
668.232	87.56
668.435	84.56
668.638	82.56
668.841	71.56
669.043	80.56
669.246	88.56
669.449	75.56
669.651	65.56
669.854	60.56
670.057	83.56
670.259	74.56
670.462	91.56
670.665	82.56
670.867	87.56
671.07	75.56
671.272	68.56
671.475	78.56
671.677	73.56
671.88	87.56
672.082	71.56
672.284	85.56
672.487	84.56
672.689	83.56
672.892	81.56
