Data from Location5.07152019.Energy5.Lamp.07192019.3%Agarose_HRD10591_16-05-19-632.txt Node
Date: Fri Jul 19 16:05:19 EDT 2019
User: cochatt
Spectrometer: HR+D1059
Trigger mode: 1
Integration Time (sec): 1.000000E-1
Scans to average: 1
Electric dark correction enabled: true
Nonlinearity correction enabled: false
Boxcar width: 0
XAxis mode: Wavelengths
Number of Pixels in Spectrum: 2048
>>>>>Begin Spectral Data<<<<<
223.165	-6.38
223.4	-6.38
223.635	-6.38
223.869	-26.38
224.104	-14.38
224.338	-26.38
224.573	-3.38
224.808	-6.38
225.042	-12.38
225.277	-4.38
225.511	4.62
225.746	15.62
225.98	-12.38
226.215	19.62
226.449	8.62
226.683	15.62
226.918	28.62
227.152	19.62
227.387	32.62
227.621	38.62
227.856	39.62
228.09	34.62
228.324	51.62
228.559	45.62
228.793	57.62
229.027	57.62
229.262	60.62
229.496	65.62
229.73	56.62
229.964	55.62
230.199	71.62
230.433	78.62
230.667	79.62
230.901	72.62
231.136	96.62
231.37	87.62
231.604	75.62
231.838	83.62
232.072	71.62
232.306	83.62
232.541	88.62
232.775	84.62
233.009	89.62
233.243	85.62
233.477	84.62
233.711	76.62
233.945	73.62
234.179	90.62
234.413	89.62
234.647	97.62
234.881	83.62
235.115	75.62
235.349	80.62
235.583	97.62
235.817	83.62
236.051	77.62
236.285	73.62
236.519	69.62
236.753	80.62
236.987	83.62
237.221	78.62
237.455	81.62
237.689	91.62
237.922	56.62
238.156	77.62
238.39	81.62
238.624	77.62
238.858	64.62
239.091	72.62
239.325	82.62
239.559	74.62
239.793	76.62
240.027	75.62
240.26	79.62
240.494	91.62
240.728	82.62
240.961	63.62
241.195	82.62
241.429	76.62
241.662	68.62
241.896	70.62
242.13	84.62
242.363	87.62
242.597	80.62
242.83	76.62
243.064	85.62
243.298	83.62
243.531	70.62
243.765	72.62
243.998	79.62
244.232	67.62
244.465	76.62
244.699	78.62
244.932	70.62
245.166	85.62
245.399	91.62
245.633	93.62
245.866	80.62
246.099	90.62
246.333	92.62
246.566	92.62
246.8	70.62
247.033	84.62
247.266	69.62
247.5	89.62
247.733	91.62
247.966	81.62
248.2	79.62
248.433	72.62
248.666	74.62
248.899	81.62
249.133	84.62
249.366	75.62
249.599	86.62
249.832	81.62
250.066	71.62
250.299	83.62
250.532	83.62
250.765	59.62
250.998	80.62
251.231	70.62
251.465	76.62
251.698	77.62
251.931	70.62
252.164	78.62
252.397	79.62
252.63	82.62
252.863	76.62
253.096	78.62
253.329	85.62
253.562	70.62
253.795	81.62
254.028	82.62
254.261	88.62
254.494	84.62
254.727	77.62
254.96	69.62
255.193	89.62
255.426	78.62
255.659	76.62
255.892	87.62
256.124	86.62
256.357	80.62
256.59	85.62
256.823	84.62
257.056	84.62
257.289	82.62
257.521	86.62
257.754	86.62
257.987	82.62
258.22	82.62
258.452	77.62
258.685	85.62
258.918	81.62
259.151	84.62
259.383	81.62
259.616	83.62
259.849	84.62
260.081	105.62
260.314	75.62
260.547	84.62
260.779	83.62
261.012	68.62
261.244	89.62
261.477	80.62
261.71	89.62
261.942	80.62
262.175	74.62
262.407	84.62
262.64	96.62
262.872	79.62
263.105	82.62
263.337	87.62
263.57	88.62
263.802	81.62
264.035	84.62
264.267	76.62
264.499	85.62
264.732	95.62
264.964	95.62
265.197	86.62
265.429	86.62
265.661	76.62
265.894	101.62
266.126	96.62
266.358	85.62
266.591	80.62
266.823	74.62
267.055	70.62
267.287	85.62
267.52	76.62
267.752	97.62
267.984	86.62
268.216	68.62
268.448	81.62
268.681	74.62
268.913	81.62
269.145	73.62
269.377	82.62
269.609	88.62
269.841	88.62
270.073	87.62
270.306	101.62
270.538	88.62
270.77	104.62
271.002	82.62
271.234	76.62
271.466	84.62
271.698	81.62
271.93	96.62
272.162	71.62
272.394	83.62
272.626	76.62
272.858	90.62
273.09	76.62
273.322	87.62
273.553	88.62
273.785	89.62
274.017	85.62
274.249	78.62
274.481	85.62
274.713	74.62
274.945	88.62
275.176	71.62
275.408	90.62
275.64	93.62
275.872	71.62
276.104	76.62
276.335	81.62
276.567	86.62
276.799	86.62
277.031	87.62
277.262	83.62
277.494	94.62
277.726	77.62
277.957	72.62
278.189	84.62
278.421	97.62
278.652	87.62
278.884	91.62
279.115	80.62
279.347	85.62
279.579	96.62
279.81	99.62
280.042	103.62
280.273	95.62
280.505	84.62
280.736	87.62
280.968	83.62
281.199	84.62
281.431	77.62
281.662	88.62
281.894	79.62
282.125	78.62
282.356	91.62
282.588	92.62
282.819	80.62
283.051	94.62
283.282	88.62
283.513	92.62
283.745	81.62
283.976	82.62
284.207	84.62
284.439	80.62
284.67	84.62
284.901	100.62
285.132	102.62
285.364	100.62
285.595	82.62
285.826	95.62
286.057	86.62
286.288	94.62
286.52	86.62
286.751	88.62
286.982	77.62
287.213	74.62
287.444	76.62
287.675	99.62
287.906	91.62
288.138	82.62
288.369	84.62
288.6	82.62
288.831	81.62
289.062	75.62
289.293	86.62
289.524	85.62
289.755	97.62
289.986	86.62
290.217	83.62
290.448	97.62
290.679	86.62
290.91	95.62
291.141	99.62
291.371	90.62
291.602	81.62
291.833	90.62
292.064	88.62
292.295	87.62
292.526	95.62
292.757	75.62
292.987	74.62
293.218	88.62
293.449	80.62
293.68	96.62
293.91	75.62
294.141	85.62
294.372	87.62
294.603	89.62
294.833	90.62
295.064	86.62
295.295	89.62
295.525	82.62
295.756	85.62
295.987	83.62
296.217	92.62
296.448	91.62
296.679	95.62
296.909	91.62
297.14	109.62
297.37	102.62
297.601	89.62
297.831	79.62
298.062	88.62
298.292	96.62
298.523	109.62
298.753	96.62
298.984	99.62
299.214	88.62
299.445	103.62
299.675	80.62
299.905	97.62
300.136	78.62
300.366	84.62
300.597	79.62
300.827	92.62
301.057	80.62
301.288	91.62
301.518	90.62
301.748	93.62
301.979	93.62
302.209	103.62
302.439	65.62
302.669	90.62
302.9	94.62
303.13	89.62
303.36	83.62
303.59	85.62
303.82	80.62
304.051	87.62
304.281	93.62
304.511	95.62
304.741	93.62
304.971	76.62
305.201	78.62
305.431	88.62
305.661	85.62
305.891	102.62
306.121	87.62
306.352	85.62
306.582	103.62
306.812	85.62
307.042	100.62
307.272	105.62
307.502	91.62
307.731	100.62
307.961	76.62
308.191	96.62
308.421	93.62
308.651	80.62
308.881	87.62
309.111	105.62
309.341	90.62
309.571	102.62
309.8	88.62
310.03	78.62
310.26	87.62
310.49	96.62
310.72	82.62
310.949	83.62
311.179	93.62
311.409	95.62
311.639	100.62
311.868	85.62
312.098	82.62
312.328	83.62
312.557	90.62
312.787	85.62
313.017	90.62
313.246	83.62
313.476	93.62
313.706	100.62
313.935	115.62
314.165	103.62
314.394	103.62
314.624	92.62
314.853	84.62
315.083	95.62
315.312	93.62
315.542	78.62
315.771	89.62
316.001	75.62
316.23	97.62
316.46	99.62
316.689	91.62
316.919	84.62
317.148	77.62
317.377	86.62
317.607	77.62
317.836	89.62
318.065	82.62
318.295	76.62
318.524	74.62
318.753	84.62
318.983	93.62
319.212	107.62
319.441	86.62
319.67	86.62
319.9	90.62
320.129	85.62
320.358	76.62
320.587	82.62
320.816	86.62
321.046	91.62
321.275	95.62
321.504	106.62
321.733	91.62
321.962	80.62
322.191	94.62
322.42	103.62
322.649	100.62
322.878	91.62
323.108	90.62
323.337	88.62
323.566	84.62
323.795	94.62
324.024	95.62
324.253	99.62
324.482	89.62
324.71	100.62
324.939	105.62
325.168	89.62
325.397	88.62
325.626	78.62
325.855	85.62
326.084	109.62
326.313	93.62
326.542	85.62
326.77	95.62
326.999	78.62
327.228	83.62
327.457	97.62
327.686	84.62
327.914	87.62
328.143	90.62
328.372	90.62
328.6	82.62
328.829	71.62
329.058	79.62
329.287	75.62
329.515	80.62
329.744	91.62
329.972	77.62
330.201	88.62
330.43	91.62
330.658	94.62
330.887	92.62
331.115	88.62
331.344	84.62
331.572	97.62
331.801	84.62
332.03	92.62
332.258	100.62
332.486	86.62
332.715	84.62
332.943	92.62
333.172	98.62
333.4	90.62
333.629	90.62
333.857	91.62
334.085	94.62
334.314	91.62
334.542	75.62
334.771	104.62
334.999	97.62
335.227	88.62
335.455	95.62
335.684	91.62
335.912	100.62
336.14	97.62
336.369	85.62
336.597	92.62
336.825	101.62
337.053	94.62
337.281	91.62
337.51	83.62
337.738	93.62
337.966	92.62
338.194	84.62
338.422	94.62
338.65	102.62
338.878	92.62
339.106	87.62
339.334	97.62
339.562	84.62
339.79	86.62
340.018	81.62
340.246	81.62
340.474	90.62
340.702	92.62
340.93	85.62
341.158	87.62
341.386	99.62
341.614	97.62
341.842	91.62
342.07	99.62
342.298	93.62
342.526	87.62
342.754	83.62
342.981	92.62
343.209	82.62
343.437	97.62
343.665	90.62
343.893	97.62
344.12	86.62
344.348	85.62
344.576	89.62
344.804	91.62
345.031	91.62
345.259	99.62
345.487	91.62
345.714	84.62
345.942	85.62
346.17	79.62
346.397	97.62
346.625	83.62
346.853	96.62
347.08	99.62
347.308	101.62
347.535	99.62
347.763	87.62
347.99	111.62
348.218	104.62
348.445	85.62
348.673	83.62
348.9	94.62
349.128	99.62
349.355	99.62
349.583	88.62
349.81	79.62
350.037	87.62
350.265	98.62
350.492	81.62
350.72	99.62
350.947	96.62
351.174	92.62
351.402	90.62
351.629	90.62
351.856	96.62
352.083	108.62
352.311	88.62
352.538	99.62
352.765	95.62
352.992	72.62
353.22	90.62
353.447	77.62
353.674	99.62
353.901	87.62
354.128	88.62
354.355	72.62
354.583	89.62
354.81	100.62
355.037	85.62
355.264	102.62
355.491	91.62
355.718	85.62
355.945	74.62
356.172	78.62
356.399	95.62
356.626	92.62
356.853	99.62
357.08	82.62
357.307	91.62
357.534	97.62
357.761	89.62
357.988	101.62
358.215	86.62
358.441	88.62
358.668	80.62
358.895	99.62
359.122	85.62
359.349	70.62
359.576	92.62
359.802	104.62
360.029	85.62
360.256	86.62
360.483	84.62
360.709	93.62
360.936	82.62
361.163	91.62
361.39	86.62
361.616	83.62
361.843	78.62
362.07	80.62
362.296	91.62
362.523	98.62
362.749	95.62
362.976	88.62
363.203	97.62
363.429	96.62
363.656	91.62
363.882	86.62
364.109	95.62
364.335	92.62
364.562	86.62
364.788	85.62
365.015	83.62
365.241	92.62
365.468	87.62
365.694	75.62
365.92	83.62
366.147	91.62
366.373	98.62
366.599	85.62
366.826	89.62
367.052	89.62
367.278	88.62
367.505	76.62
367.731	91.62
367.957	102.62
368.184	97.62
368.41	84.62
368.636	95.62
368.862	91.62
369.089	90.62
369.315	87.62
369.541	89.62
369.767	93.62
369.993	91.62
370.219	87.62
370.445	87.62
370.672	94.62
370.898	79.62
371.124	80.62
371.35	87.62
371.576	93.62
371.802	77.62
372.028	88.62
372.254	90.62
372.48	97.62
372.706	98.62
372.932	100.62
373.158	87.62
373.384	85.62
373.61	81.62
373.835	99.62
374.061	100.62
374.287	69.62
374.513	82.62
374.739	95.62
374.965	99.62
375.191	97.62
375.416	86.62
375.642	85.62
375.868	98.62
376.094	79.62
376.319	81.62
376.545	85.62
376.771	107.62
376.997	104.62
377.222	81.62
377.448	83.62
377.674	85.62
377.899	82.62
378.125	84.62
378.35	88.62
378.576	95.62
378.802	102.62
379.027	94.62
379.253	76.62
379.478	95.62
379.704	87.62
379.929	89.62
380.155	87.62
380.38	98.62
380.606	105.62
380.831	93.62
381.057	111.62
381.282	89.62
381.507	92.62
381.733	98.62
381.958	90.62
382.184	104.62
382.409	92.62
382.634	99.62
382.86	91.62
383.085	86.62
383.31	93.62
383.535	92.62
383.761	96.62
383.986	95.62
384.211	92.62
384.436	84.62
384.662	89.62
384.887	92.62
385.112	88.62
385.337	88.62
385.562	91.62
385.787	95.62
386.013	106.62
386.238	90.62
386.463	96.62
386.688	104.62
386.913	97.62
387.138	98.62
387.363	103.62
387.588	93.62
387.813	93.62
388.038	88.62
388.263	86.62
388.488	80.62
388.713	88.62
388.938	91.62
389.163	88.62
389.387	88.62
389.612	92.62
389.837	91.62
390.062	76.62
390.287	92.62
390.512	89.62
390.736	94.62
390.961	88.62
391.186	89.62
391.411	96.62
391.636	85.62
391.86	83.62
392.085	99.62
392.31	84.62
392.534	81.62
392.759	93.62
392.984	116.62
393.208	94.62
393.433	102.62
393.658	100.62
393.882	85.62
394.107	90.62
394.331	96.62
394.556	80.62
394.78	87.62
395.005	90.62
395.229	91.62
395.454	103.62
395.678	105.62
395.903	85.62
396.127	89.62
396.352	92.62
396.576	88.62
396.801	85.62
397.025	93.62
397.249	103.62
397.474	94.62
397.698	90.62
397.922	89.62
398.147	95.62
398.371	100.62
398.595	93.62
398.82	91.62
399.044	91.62
399.268	96.62
399.492	102.62
399.717	99.62
399.941	96.62
400.165	114.62
400.389	101.62
400.613	73.62
400.837	97.62
401.062	88.62
401.286	74.62
401.51	91.62
401.734	88.62
401.958	90.62
402.182	92.62
402.406	83.62
402.63	100.62
402.854	102.62
403.078	98.62
403.302	84.62
403.526	88.62
403.75	98.62
403.974	100.62
404.198	105.62
404.422	89.62
404.645	88.62
404.869	105.62
405.093	103.62
405.317	101.62
405.541	94.62
405.765	89.62
405.988	86.62
406.212	95.62
406.436	91.62
406.66	107.62
406.883	100.62
407.107	99.62
407.331	97.62
407.555	99.62
407.778	99.62
408.002	100.62
408.226	87.62
408.449	87.62
408.673	96.62
408.896	99.62
409.12	105.62
409.344	90.62
409.567	88.62
409.791	102.62
410.014	96.62
410.238	94.62
410.461	87.62
410.685	99.62
410.908	84.62
411.132	104.62
411.355	91.62
411.578	104.62
411.802	95.62
412.025	82.62
412.249	96.62
412.472	96.62
412.695	101.62
412.919	87.62
413.142	100.62
413.365	88.62
413.589	96.62
413.812	106.62
414.035	91.62
414.258	91.62
414.482	97.62
414.705	90.62
414.928	89.62
415.151	88.62
415.374	102.62
415.597	81.62
415.821	88.62
416.044	86.62
416.267	73.62
416.49	93.62
416.713	93.62
416.936	87.62
417.159	88.62
417.382	81.62
417.605	91.62
417.828	91.62
418.051	89.62
418.274	98.62
418.497	97.62
418.72	90.62
418.943	90.62
419.166	94.62
419.389	108.62
419.611	87.62
419.834	90.62
420.057	90.62
420.28	95.62
420.503	94.62
420.726	96.62
420.948	100.62
421.171	94.62
421.394	92.62
421.617	100.62
421.839	94.62
422.062	91.62
422.285	89.62
422.507	93.62
422.73	82.62
422.953	85.62
423.175	89.62
423.398	90.62
423.621	101.62
423.843	96.62
424.066	91.62
424.288	98.62
424.511	93.62
424.733	96.62
424.956	101.62
425.178	94.62
425.401	89.62
425.623	90.62
425.846	77.62
426.068	87.62
426.291	88.62
426.513	86.62
426.735	104.62
426.958	92.62
427.18	95.62
427.402	101.62
427.625	98.62
427.847	102.62
428.069	106.62
428.292	104.62
428.514	91.62
428.736	76.62
428.958	91.62
429.181	81.62
429.403	94.62
429.625	90.62
429.847	99.62
430.069	84.62
430.292	85.62
430.514	89.62
430.736	95.62
430.958	95.62
431.18	85.62
431.402	93.62
431.624	97.62
431.846	84.62
432.068	84.62
432.29	95.62
432.512	100.62
432.734	86.62
432.956	89.62
433.178	104.62
433.4	95.62
433.622	79.62
433.844	86.62
434.066	87.62
434.287	97.62
434.509	100.62
434.731	93.62
434.953	91.62
435.175	87.62
435.397	107.62
435.618	93.62
435.84	85.62
436.062	84.62
436.284	85.62
436.505	89.62
436.727	97.62
436.949	90.62
437.17	112.62
437.392	108.62
437.614	87.62
437.835	89.62
438.057	97.62
438.278	98.62
438.5	85.62
438.721	96.62
438.943	95.62
439.165	77.62
439.386	88.62
439.608	98.62
439.829	80.62
440.05	84.62
440.272	79.62
440.493	111.62
440.715	73.62
440.936	103.62
441.158	92.62
441.379	78.62
441.6	89.62
441.822	87.62
442.043	82.62
442.264	87.62
442.486	86.62
442.707	90.62
442.928	83.62
443.149	88.62
443.371	84.62
443.592	94.62
443.813	83.62
444.034	99.62
444.255	96.62
444.476	84.62
444.698	91.62
444.919	103.62
445.14	211.62
445.361	156.62
445.582	99.62
445.803	100.62
446.024	93.62
446.245	82.62
446.466	99.62
446.687	74.62
446.908	92.62
447.129	98.62
447.35	80.62
447.571	99.62
447.792	91.62
448.013	99.62
448.234	93.62
448.455	97.62
448.675	98.62
448.896	86.62
449.117	75.62
449.338	108.62
449.559	97.62
449.779	91.62
450	89.62
450.221	79.62
450.442	102.62
450.662	96.62
450.883	96.62
451.104	101.62
451.324	88.62
451.545	88.62
451.766	75.62
451.986	92.62
452.207	79.62
452.428	88.62
452.648	91.62
452.869	83.62
453.089	77.62
453.31	88.62
453.53	87.62
453.751	101.62
453.971	108.62
454.192	97.62
454.412	80.62
454.633	88.62
454.853	99.62
455.073	87.62
455.294	94.62
455.514	82.62
455.734	88.62
455.955	78.62
456.175	92.62
456.395	84.62
456.616	89.62
456.836	89.62
457.056	106.62
457.276	95.62
457.497	83.62
457.717	86.62
457.937	90.62
458.157	86.62
458.377	99.62
458.598	92.62
458.818	89.62
459.038	90.62
459.258	76.62
459.478	82.62
459.698	94.62
459.918	105.62
460.138	95.62
460.358	89.62
460.578	91.62
460.798	92.62
461.018	92.62
461.238	99.62
461.458	89.62
461.678	89.62
461.898	80.62
462.118	93.62
462.338	86.62
462.558	99.62
462.777	95.62
462.997	117.62
463.217	87.62
463.437	111.62
463.657	86.62
463.876	105.62
464.096	96.62
464.316	92.62
464.536	98.62
464.755	92.62
464.975	92.62
465.195	92.62
465.414	89.62
465.634	88.62
465.854	86.62
466.073	100.62
466.293	89.62
466.512	99.62
466.732	87.62
466.951	90.62
467.171	98.62
467.391	82.62
467.61	97.62
467.829	87.62
468.049	99.62
468.268	85.62
468.488	93.62
468.707	81.62
468.927	82.62
469.146	96.62
469.365	90.62
469.585	85.62
469.804	78.62
470.023	98.62
470.243	100.62
470.462	91.62
470.681	79.62
470.901	86.62
471.12	90.62
471.339	84.62
471.558	95.62
471.777	98.62
471.997	71.62
472.216	87.62
472.435	100.62
472.654	92.62
472.873	100.62
473.092	82.62
473.311	88.62
473.53	89.62
473.749	90.62
473.968	87.62
474.187	99.62
474.406	85.62
474.625	92.62
474.844	92.62
475.063	78.62
475.282	106.62
475.501	86.62
475.72	103.62
475.939	87.62
476.158	91.62
476.377	88.62
476.596	96.62
476.814	97.62
477.033	94.62
477.252	108.62
477.471	92.62
477.69	87.62
477.908	97.62
478.127	92.62
478.346	98.62
478.564	108.62
478.783	96.62
479.002	89.62
479.22	92.62
479.439	84.62
479.658	104.62
479.876	103.62
480.095	92.62
480.313	90.62
480.532	95.62
480.751	91.62
480.969	104.62
481.188	81.62
481.406	99.62
481.624	100.62
481.843	97.62
482.061	106.62
482.28	88.62
482.498	98.62
482.717	102.62
482.935	92.62
483.153	104.62
483.372	99.62
483.59	104.62
483.808	98.62
484.027	102.62
484.245	102.62
484.463	90.62
484.681	101.62
484.9	105.62
485.118	102.62
485.336	108.62
485.554	111.62
485.772	96.62
485.99	73.62
486.209	89.62
486.427	108.62
486.645	100.62
486.863	106.62
487.081	99.62
487.299	93.62
487.517	113.62
487.735	114.62
487.953	105.62
488.171	95.62
488.389	93.62
488.607	109.62
488.825	97.62
489.043	100.62
489.261	116.62
489.479	93.62
489.696	101.62
489.914	97.62
490.132	90.62
490.35	103.62
490.568	104.62
490.786	109.62
491.003	97.62
491.221	116.62
491.439	98.62
491.657	113.62
491.874	111.62
492.092	106.62
492.31	109.62
492.527	100.62
492.745	108.62
492.963	114.62
493.18	93.62
493.398	108.62
493.615	96.62
493.833	100.62
494.05	106.62
494.268	109.62
494.485	106.62
494.703	99.62
494.92	117.62
495.138	115.62
495.355	126.62
495.573	127.62
495.79	106.62
496.008	109.62
496.225	96.62
496.442	111.62
496.66	100.62
496.877	119.62
497.094	98.62
497.312	104.62
497.529	97.62
497.746	116.62
497.963	101.62
498.181	101.62
498.398	111.62
498.615	120.62
498.832	106.62
499.049	106.62
499.267	104.62
499.484	123.62
499.701	115.62
499.918	125.62
500.135	140.62
500.352	145.62
500.569	160.62
500.786	151.62
501.003	139.62
501.22	125.62
501.437	125.62
501.654	121.62
501.871	116.62
502.088	110.62
502.305	117.62
502.522	103.62
502.739	92.62
502.956	96.62
503.172	107.62
503.389	111.62
503.606	115.62
503.823	106.62
504.04	101.62
504.256	111.62
504.473	99.62
504.69	116.62
504.907	102.62
505.123	101.62
505.34	92.62
505.557	113.62
505.773	99.62
505.99	111.62
506.207	96.62
506.423	101.62
506.64	87.62
506.856	100.62
507.073	106.62
507.289	108.62
507.506	116.62
507.722	113.62
507.939	102.62
508.155	101.62
508.372	92.62
508.588	95.62
508.805	95.62
509.021	97.62
509.238	94.62
509.454	82.62
509.67	87.62
509.887	97.62
510.103	91.62
510.319	94.62
510.536	95.62
510.752	103.62
510.968	87.62
511.184	93.62
511.401	94.62
511.617	94.62
511.833	83.62
512.049	89.62
512.265	94.62
512.481	90.62
512.698	95.62
512.914	87.62
513.13	83.62
513.346	80.62
513.562	98.62
513.778	97.62
513.994	106.62
514.21	111.62
514.426	99.62
514.642	100.62
514.858	96.62
515.074	104.62
515.29	97.62
515.506	83.62
515.721	87.62
515.937	108.62
516.153	102.62
516.369	92.62
516.585	90.62
516.801	91.62
517.016	88.62
517.232	115.62
517.448	113.62
517.664	99.62
517.879	98.62
518.095	95.62
518.311	96.62
518.527	104.62
518.742	106.62
518.958	92.62
519.173	87.62
519.389	104.62
519.605	95.62
519.82	96.62
520.036	93.62
520.251	88.62
520.467	105.62
520.682	89.62
520.898	97.62
521.113	106.62
521.329	105.62
521.544	90.62
521.76	95.62
521.975	85.62
522.19	96.62
522.406	94.62
522.621	96.62
522.836	108.62
523.052	96.62
523.267	115.62
523.482	92.62
523.698	114.62
523.913	107.62
524.128	88.62
524.343	102.62
524.559	106.62
524.774	99.62
524.989	90.62
525.204	114.62
525.419	85.62
525.634	95.62
525.849	94.62
526.064	88.62
526.28	95.62
526.495	97.62
526.71	98.62
526.925	111.62
527.14	87.62
527.355	102.62
527.57	97.62
527.785	91.62
527.999	100.62
528.214	97.62
528.429	90.62
528.644	99.62
528.859	105.62
529.074	88.62
529.289	96.62
529.503	108.62
529.718	97.62
529.933	87.62
530.148	87.62
530.363	114.62
530.577	106.62
530.792	98.62
531.007	74.62
531.221	101.62
531.436	96.62
531.651	92.62
531.865	90.62
532.08	97.62
532.295	101.62
532.509	95.62
532.724	90.62
532.938	95.62
533.153	97.62
533.367	103.62
533.582	97.62
533.796	96.62
534.011	87.62
534.225	111.62
534.44	89.62
534.654	97.62
534.868	84.62
535.083	90.62
535.297	100.62
535.511	83.62
535.726	95.62
535.94	108.62
536.154	92.62
536.369	93.62
536.583	88.62
536.797	83.62
537.011	91.62
537.225	71.62
537.44	83.62
537.654	86.62
537.868	94.62
538.082	99.62
538.296	84.62
538.51	89.62
538.724	91.62
538.938	92.62
539.153	83.62
539.367	91.62
539.581	92.62
539.795	85.62
540.009	104.62
540.222	98.62
540.436	111.62
540.65	97.62
540.864	83.62
541.078	103.62
541.292	99.62
541.506	97.62
541.72	100.62
541.934	111.62
542.147	102.62
542.361	105.62
542.575	108.62
542.789	102.62
543.002	93.62
543.216	93.62
543.43	99.62
543.644	106.62
543.857	96.62
544.071	105.62
544.285	104.62
544.498	123.62
544.712	93.62
544.925	91.62
545.139	84.62
545.352	117.62
545.566	103.62
545.779	102.62
545.993	107.62
546.206	115.62
546.42	84.62
546.633	91.62
546.847	108.62
547.06	108.62
547.274	111.62
547.487	99.62
547.7	88.62
547.914	98.62
548.127	96.62
548.34	108.62
548.554	111.62
548.767	87.62
548.98	92.62
549.193	105.62
549.407	94.62
549.62	109.62
549.833	110.62
550.046	99.62
550.259	109.62
550.473	104.62
550.686	98.62
550.899	103.62
551.112	110.62
551.325	89.62
551.538	87.62
551.751	113.62
551.964	97.62
552.177	103.62
552.39	95.62
552.603	88.62
552.816	104.62
553.029	101.62
553.242	102.62
553.455	115.62
553.667	106.62
553.88	114.62
554.093	86.62
554.306	82.62
554.519	109.62
554.732	85.62
554.944	95.62
555.157	112.62
555.37	96.62
555.583	85.62
555.795	97.62
556.008	101.62
556.221	93.62
556.433	86.62
556.646	93.62
556.859	86.62
557.071	104.62
557.284	107.62
557.496	97.62
557.709	102.62
557.921	98.62
558.134	109.62
558.346	105.62
558.559	112.62
558.771	99.62
558.984	93.62
559.196	90.62
559.409	90.62
559.621	103.62
559.833	79.62
560.046	91.62
560.258	81.62
560.47	89.62
560.683	88.62
560.895	99.62
561.107	96.62
561.32	102.62
561.532	100.62
561.744	107.62
561.956	97.62
562.168	100.62
562.381	95.62
562.593	81.62
562.805	104.62
563.017	102.62
563.229	98.62
563.441	93.62
563.653	88.62
563.865	103.62
564.077	84.62
564.289	88.62
564.501	108.62
564.713	107.62
564.925	107.62
565.137	83.62
565.349	104.62
565.561	101.62
565.773	97.62
565.985	86.62
566.197	91.62
566.408	106.62
566.62	92.62
566.832	105.62
567.044	102.62
567.255	94.62
567.467	114.62
567.679	113.62
567.891	94.62
568.102	105.62
568.314	93.62
568.526	95.62
568.737	108.62
568.949	92.62
569.161	88.62
569.372	95.62
569.584	83.62
569.795	89.62
570.007	111.62
570.218	99.62
570.43	85.62
570.641	97.62
570.853	87.62
571.064	82.62
571.276	91.62
571.487	90.62
571.698	101.62
571.91	82.62
572.121	88.62
572.333	80.62
572.544	92.62
572.755	85.62
572.966	102.62
573.178	84.62
573.389	94.62
573.6	100.62
573.811	78.62
574.023	86.62
574.234	92.62
574.445	96.62
574.656	88.62
574.867	87.62
575.078	92.62
575.289	101.62
575.501	86.62
575.712	91.62
575.923	93.62
576.134	96.62
576.345	85.62
576.556	96.62
576.767	78.62
576.978	90.62
577.188	89.62
577.399	99.62
577.61	90.62
577.821	108.62
578.032	94.62
578.243	88.62
578.454	83.62
578.665	80.62
578.875	85.62
579.086	83.62
579.297	84.62
579.508	92.62
579.718	93.62
579.929	91.62
580.14	90.62
580.35	99.62
580.561	90.62
580.772	89.62
580.982	85.62
581.193	89.62
581.403	97.62
581.614	96.62
581.825	91.62
582.035	99.62
582.246	113.62
582.456	96.62
582.667	103.62
582.877	92.62
583.087	103.62
583.298	91.62
583.508	82.62
583.719	75.62
583.929	89.62
584.139	100.62
584.35	96.62
584.56	83.62
584.77	93.62
584.981	98.62
585.191	83.62
585.401	75.62
585.611	89.62
585.821	87.62
586.032	91.62
586.242	85.62
586.452	75.62
586.662	86.62
586.872	79.62
587.082	89.62
587.292	83.62
587.502	89.62
587.713	92.62
587.923	99.62
588.133	97.62
588.343	95.62
588.553	86.62
588.762	96.62
588.972	88.62
589.182	87.62
589.392	104.62
589.602	84.62
589.812	106.62
590.022	91.62
590.232	81.62
590.441	92.62
590.651	87.62
590.861	85.62
591.071	91.62
591.281	95.62
591.49	96.62
591.7	95.62
591.91	91.62
592.119	96.62
592.329	90.62
592.539	99.62
592.748	86.62
592.958	100.62
593.167	89.62
593.377	89.62
593.587	95.62
593.796	83.62
594.006	92.62
594.215	80.62
594.424	84.62
594.634	97.62
594.843	84.62
595.053	78.62
595.262	80.62
595.472	100.62
595.681	92.62
595.89	100.62
596.1	100.62
596.309	89.62
596.518	78.62
596.727	84.62
596.937	107.62
597.146	84.62
597.355	98.62
597.564	84.62
597.774	73.62
597.983	94.62
598.192	97.62
598.401	87.62
598.61	74.62
598.819	93.62
599.028	91.62
599.237	76.62
599.446	84.62
599.655	91.62
599.864	102.62
600.073	89.62
600.282	84.62
600.491	89.62
600.7	101.62
600.909	77.62
601.118	93.62
601.327	96.62
601.536	85.62
601.745	84.62
601.953	91.62
602.162	83.62
602.371	89.62
602.58	85.62
602.789	86.62
602.997	91.62
603.206	105.62
603.415	86.62
603.623	99.62
603.832	97.62
604.041	89.62
604.249	96.62
604.458	79.62
604.666	77.62
604.875	104.62
605.084	89.62
605.292	107.62
605.501	91.62
605.709	84.62
605.918	93.62
606.126	107.62
606.334	81.62
606.543	87.62
606.751	93.62
606.96	90.62
607.168	77.62
607.376	96.62
607.585	87.62
607.793	90.62
608.001	86.62
608.21	90.62
608.418	91.62
608.626	88.62
608.834	87.62
609.043	105.62
609.251	93.62
609.459	79.62
609.667	92.62
609.875	84.62
610.083	100.62
610.291	77.62
610.499	76.62
610.707	88.62
610.916	93.62
611.124	89.62
611.332	79.62
611.54	79.62
611.748	85.62
611.955	72.62
612.163	80.62
612.371	68.62
612.579	97.62
612.787	86.62
612.995	74.62
613.203	85.62
613.411	93.62
613.618	96.62
613.826	76.62
614.034	83.62
614.242	97.62
614.449	88.62
614.657	86.62
614.865	87.62
615.072	91.62
615.28	102.62
615.488	87.62
615.695	77.62
615.903	79.62
616.111	97.62
616.318	89.62
616.526	91.62
616.733	98.62
616.941	80.62
617.148	106.62
617.356	84.62
617.563	89.62
617.771	80.62
617.978	87.62
618.185	90.62
618.393	93.62
618.6	102.62
618.807	85.62
619.015	95.62
619.222	95.62
619.429	93.62
619.637	83.62
619.844	80.62
620.051	89.62
620.258	66.62
620.466	86.62
620.673	94.62
620.88	86.62
621.087	82.62
621.294	82.62
621.501	81.62
621.708	81.62
621.915	85.62
622.122	79.62
622.329	93.62
622.536	83.62
622.743	95.62
622.95	97.62
623.157	98.62
623.364	88.62
623.571	92.62
623.778	89.62
623.985	79.62
624.192	87.62
624.399	90.62
624.606	86.62
624.812	77.62
625.019	77.62
625.226	92.62
625.433	89.62
625.639	82.62
625.846	75.62
626.053	91.62
626.259	92.62
626.466	91.62
626.673	91.62
626.879	98.62
627.086	99.62
627.293	97.62
627.499	96.62
627.706	84.62
627.912	86.62
628.119	96.62
628.325	104.62
628.532	90.62
628.738	77.62
628.945	84.62
629.151	79.62
629.357	94.62
629.564	86.62
629.77	89.62
629.976	86.62
630.183	75.62
630.389	79.62
630.595	88.62
630.802	80.62
631.008	88.62
631.214	84.62
631.42	91.62
631.627	93.62
631.833	73.62
632.039	80.62
632.245	82.62
632.451	98.62
632.657	87.62
632.863	97.62
633.069	86.62
633.275	76.62
633.481	82.62
633.688	80.62
633.893	95.62
634.099	82.62
634.305	93.62
634.511	87.62
634.717	78.62
634.923	97.62
635.129	101.62
635.335	85.62
635.541	73.62
635.747	92.62
635.952	101.62
636.158	94.62
636.364	100.62
636.57	87.62
636.775	75.62
636.981	88.62
637.187	97.62
637.392	82.62
637.598	92.62
637.804	91.62
638.009	89.62
638.215	98.62
638.421	83.62
638.626	78.62
638.832	92.62
639.037	91.62
639.243	80.62
639.448	73.62
639.654	93.62
639.859	84.62
640.065	75.62
640.27	88.62
640.475	87.62
640.681	89.62
640.886	91.62
641.091	84.62
641.297	90.62
641.502	100.62
641.707	84.62
641.913	78.62
642.118	94.62
642.323	85.62
642.528	85.62
642.733	80.62
642.939	71.62
643.144	81.62
643.349	84.62
643.554	96.62
643.759	86.62
643.964	91.62
644.169	91.62
644.374	84.62
644.579	84.62
644.784	91.62
644.989	97.62
645.194	84.62
645.399	71.62
645.604	81.62
645.809	95.62
646.014	78.62
646.219	81.62
646.423	96.62
646.628	81.62
646.833	76.62
647.038	76.62
647.243	83.62
647.447	83.62
647.652	80.62
647.857	83.62
648.062	80.62
648.266	99.62
648.471	84.62
648.676	77.62
648.88	77.62
649.085	92.62
649.289	99.62
649.494	97.62
649.698	91.62
649.903	84.62
650.107	79.62
650.312	87.62
650.516	89.62
650.721	78.62
650.925	80.62
651.13	81.62
651.334	92.62
651.539	83.62
651.743	88.62
651.947	88.62
652.152	86.62
652.356	101.62
652.56	90.62
652.764	86.62
652.969	85.62
653.173	81.62
653.377	81.62
653.581	87.62
653.785	91.62
653.99	91.62
654.194	94.62
654.398	84.62
654.602	100.62
654.806	80.62
655.01	92.62
655.214	77.62
655.418	87.62
655.622	76.62
655.826	94.62
656.03	96.62
656.234	81.62
656.438	87.62
656.642	93.62
656.846	89.62
657.049	72.62
657.253	87.62
657.457	85.62
657.661	78.62
657.865	69.62
658.068	85.62
658.272	88.62
658.476	86.62
658.68	73.62
658.883	91.62
659.087	87.62
659.291	82.62
659.494	77.62
659.698	95.62
659.901	85.62
660.105	92.62
660.309	77.62
660.512	80.62
660.716	81.62
660.919	83.62
661.123	87.62
661.326	87.62
661.53	84.62
661.733	80.62
661.936	90.62
662.14	81.62
662.343	90.62
662.546	88.62
662.75	96.62
662.953	85.62
663.156	85.62
663.36	90.62
663.563	75.62
663.766	74.62
663.969	86.62
664.173	83.62
664.376	80.62
664.579	84.62
664.782	66.62
664.985	77.62
665.188	79.62
665.391	76.62
665.594	79.62
665.797	71.62
666	90.62
666.203	77.62
666.406	81.62
666.609	87.62
666.812	83.62
667.015	85.62
667.218	84.62
667.421	92.62
667.624	86.62
667.827	81.62
668.03	76.62
668.232	88.62
668.435	85.62
668.638	77.62
668.841	89.62
669.043	96.62
669.246	91.62
669.449	79.62
669.651	83.62
669.854	94.62
670.057	77.62
670.259	91.62
670.462	86.62
670.665	81.62
670.867	86.62
671.07	83.62
671.272	79.62
671.475	78.62
671.677	81.62
671.88	85.62
672.082	87.62
672.284	97.62
672.487	90.62
672.689	79.62
672.892	81.62
