Data from Location5.07152019.Energy5.Lamp.07192019.3%Agarose_HRD10591_15-38-06-387.txt Node
Date: Fri Jul 19 15:38:06 EDT 2019
User: cochatt
Spectrometer: HR+D1059
Trigger mode: 1
Integration Time (sec): 1.000000E-1
Scans to average: 1
Electric dark correction enabled: true
Nonlinearity correction enabled: false
Boxcar width: 0
XAxis mode: Wavelengths
Number of Pixels in Spectrum: 2048
>>>>>Begin Spectral Data<<<<<
223.165	-20.44
223.4	-20.44
223.635	-20.44
223.869	-9.44
224.104	-17.44
224.338	-17.44
224.573	-11.44
224.808	-10.44
225.042	-9.44
225.277	-4.44
225.511	-4.44
225.746	-5.44
225.98	6.56
226.215	12.56
226.449	18.56
226.683	24.56
226.918	27.56
227.152	20.56
227.387	36.56
227.621	38.56
227.856	41.56
228.09	36.56
228.324	41.56
228.559	53.56
228.793	62.56
229.027	64.56
229.262	77.56
229.496	66.56
229.73	72.56
229.964	70.56
230.199	76.56
230.433	67.56
230.667	74.56
230.901	71.56
231.136	67.56
231.37	69.56
231.604	74.56
231.838	83.56
232.072	81.56
232.306	87.56
232.541	83.56
232.775	78.56
233.009	76.56
233.243	84.56
233.477	86.56
233.711	75.56
233.945	72.56
234.179	78.56
234.413	80.56
234.647	61.56
234.881	80.56
235.115	82.56
235.349	85.56
235.583	89.56
235.817	74.56
236.051	74.56
236.285	77.56
236.519	81.56
236.753	69.56
236.987	82.56
237.221	78.56
237.455	76.56
237.689	82.56
237.922	82.56
238.156	74.56
238.39	79.56
238.624	79.56
238.858	55.56
239.091	71.56
239.325	60.56
239.559	74.56
239.793	73.56
240.027	74.56
240.26	72.56
240.494	74.56
240.728	63.56
240.961	75.56
241.195	75.56
241.429	77.56
241.662	76.56
241.896	92.56
242.13	66.56
242.363	83.56
242.597	85.56
242.83	75.56
243.064	66.56
243.298	61.56
243.531	71.56
243.765	81.56
243.998	80.56
244.232	73.56
244.465	76.56
244.699	71.56
244.932	82.56
245.166	81.56
245.399	69.56
245.633	91.56
245.866	91.56
246.099	78.56
246.333	92.56
246.566	71.56
246.8	62.56
247.033	85.56
247.266	86.56
247.5	86.56
247.733	69.56
247.966	78.56
248.2	89.56
248.433	79.56
248.666	82.56
248.899	79.56
249.133	80.56
249.366	77.56
249.599	79.56
249.832	64.56
250.066	85.56
250.299	68.56
250.532	80.56
250.765	83.56
250.998	83.56
251.231	77.56
251.465	85.56
251.698	79.56
251.931	73.56
252.164	74.56
252.397	74.56
252.63	88.56
252.863	89.56
253.096	66.56
253.329	89.56
253.562	65.56
253.795	72.56
254.028	75.56
254.261	76.56
254.494	77.56
254.727	80.56
254.96	76.56
255.193	87.56
255.426	82.56
255.659	84.56
255.892	92.56
256.124	82.56
256.357	82.56
256.59	88.56
256.823	88.56
257.056	76.56
257.289	79.56
257.521	68.56
257.754	87.56
257.987	71.56
258.22	72.56
258.452	76.56
258.685	92.56
258.918	79.56
259.151	86.56
259.383	84.56
259.616	72.56
259.849	71.56
260.081	74.56
260.314	100.56
260.547	93.56
260.779	75.56
261.012	77.56
261.244	87.56
261.477	83.56
261.71	80.56
261.942	84.56
262.175	60.56
262.407	83.56
262.64	79.56
262.872	89.56
263.105	74.56
263.337	94.56
263.57	88.56
263.802	85.56
264.035	81.56
264.267	77.56
264.499	76.56
264.732	76.56
264.964	95.56
265.197	92.56
265.429	78.56
265.661	91.56
265.894	93.56
266.126	87.56
266.358	83.56
266.591	80.56
266.823	83.56
267.055	74.56
267.287	95.56
267.52	76.56
267.752	84.56
267.984	91.56
268.216	82.56
268.448	82.56
268.681	80.56
268.913	84.56
269.145	79.56
269.377	69.56
269.609	84.56
269.841	89.56
270.073	95.56
270.306	76.56
270.538	78.56
270.77	83.56
271.002	79.56
271.234	80.56
271.466	84.56
271.698	101.56
271.93	86.56
272.162	70.56
272.394	83.56
272.626	70.56
272.858	85.56
273.09	76.56
273.322	80.56
273.553	89.56
273.785	79.56
274.017	88.56
274.249	92.56
274.481	89.56
274.713	84.56
274.945	87.56
275.176	83.56
275.408	69.56
275.64	82.56
275.872	99.56
276.104	78.56
276.335	72.56
276.567	73.56
276.799	84.56
277.031	81.56
277.262	81.56
277.494	79.56
277.726	82.56
277.957	76.56
278.189	85.56
278.421	70.56
278.652	79.56
278.884	75.56
279.115	96.56
279.347	72.56
279.579	74.56
279.81	71.56
280.042	70.56
280.273	81.56
280.505	79.56
280.736	81.56
280.968	84.56
281.199	79.56
281.431	75.56
281.662	74.56
281.894	82.56
282.125	82.56
282.356	82.56
282.588	74.56
282.819	79.56
283.051	80.56
283.282	85.56
283.513	97.56
283.745	85.56
283.976	81.56
284.207	82.56
284.439	95.56
284.67	80.56
284.901	94.56
285.132	77.56
285.364	99.56
285.595	70.56
285.826	79.56
286.057	88.56
286.288	88.56
286.52	94.56
286.751	82.56
286.982	76.56
287.213	82.56
287.444	76.56
287.675	76.56
287.906	86.56
288.138	83.56
288.369	77.56
288.6	89.56
288.831	74.56
289.062	89.56
289.293	85.56
289.524	75.56
289.755	89.56
289.986	87.56
290.217	81.56
290.448	71.56
290.679	94.56
290.91	90.56
291.141	80.56
291.371	75.56
291.602	81.56
291.833	82.56
292.064	76.56
292.295	81.56
292.526	87.56
292.757	90.56
292.987	87.56
293.218	78.56
293.449	85.56
293.68	89.56
293.91	72.56
294.141	72.56
294.372	87.56
294.603	85.56
294.833	76.56
295.064	72.56
295.295	82.56
295.525	88.56
295.756	101.56
295.987	92.56
296.217	84.56
296.448	76.56
296.679	73.56
296.909	91.56
297.14	95.56
297.37	97.56
297.601	86.56
297.831	93.56
298.062	104.56
298.292	95.56
298.523	80.56
298.753	71.56
298.984	84.56
299.214	89.56
299.445	97.56
299.675	87.56
299.905	88.56
300.136	83.56
300.366	97.56
300.597	93.56
300.827	69.56
301.057	88.56
301.288	82.56
301.518	78.56
301.748	69.56
301.979	84.56
302.209	83.56
302.439	82.56
302.669	81.56
302.9	93.56
303.13	83.56
303.36	82.56
303.59	80.56
303.82	88.56
304.051	88.56
304.281	81.56
304.511	95.56
304.741	91.56
304.971	94.56
305.201	88.56
305.431	92.56
305.661	87.56
305.891	75.56
306.121	90.56
306.352	85.56
306.582	76.56
306.812	80.56
307.042	76.56
307.272	94.56
307.502	82.56
307.731	92.56
307.961	66.56
308.191	88.56
308.421	76.56
308.651	76.56
308.881	88.56
309.111	88.56
309.341	86.56
309.571	81.56
309.8	78.56
310.03	73.56
310.26	91.56
310.49	84.56
310.72	83.56
310.949	86.56
311.179	81.56
311.409	88.56
311.639	100.56
311.868	92.56
312.098	97.56
312.328	96.56
312.557	92.56
312.787	91.56
313.017	85.56
313.246	82.56
313.476	83.56
313.706	73.56
313.935	90.56
314.165	94.56
314.394	75.56
314.624	88.56
314.853	78.56
315.083	86.56
315.312	90.56
315.542	77.56
315.771	88.56
316.001	92.56
316.23	81.56
316.46	72.56
316.689	92.56
316.919	101.56
317.148	78.56
317.377	91.56
317.607	87.56
317.836	95.56
318.065	83.56
318.295	84.56
318.524	79.56
318.753	88.56
318.983	86.56
319.212	89.56
319.441	104.56
319.67	79.56
319.9	89.56
320.129	86.56
320.358	78.56
320.587	79.56
320.816	77.56
321.046	85.56
321.275	95.56
321.504	74.56
321.733	83.56
321.962	89.56
322.191	89.56
322.42	75.56
322.649	90.56
322.878	86.56
323.108	86.56
323.337	86.56
323.566	93.56
323.795	77.56
324.024	83.56
324.253	80.56
324.482	86.56
324.71	82.56
324.939	95.56
325.168	71.56
325.397	91.56
325.626	85.56
325.855	78.56
326.084	77.56
326.313	80.56
326.542	86.56
326.77	95.56
326.999	86.56
327.228	74.56
327.457	70.56
327.686	90.56
327.914	98.56
328.143	87.56
328.372	90.56
328.6	79.56
328.829	86.56
329.058	83.56
329.287	102.56
329.515	86.56
329.744	84.56
329.972	75.56
330.201	79.56
330.43	98.56
330.658	80.56
330.887	89.56
331.115	70.56
331.344	77.56
331.572	85.56
331.801	87.56
332.03	69.56
332.258	84.56
332.486	91.56
332.715	76.56
332.943	81.56
333.172	80.56
333.4	87.56
333.629	84.56
333.857	70.56
334.085	82.56
334.314	85.56
334.542	81.56
334.771	96.56
334.999	75.56
335.227	75.56
335.455	85.56
335.684	74.56
335.912	79.56
336.14	79.56
336.369	77.56
336.597	94.56
336.825	87.56
337.053	69.56
337.281	76.56
337.51	78.56
337.738	87.56
337.966	82.56
338.194	90.56
338.422	97.56
338.65	87.56
338.878	81.56
339.106	94.56
339.334	76.56
339.562	77.56
339.79	91.56
340.018	72.56
340.246	85.56
340.474	89.56
340.702	81.56
340.93	83.56
341.158	90.56
341.386	83.56
341.614	69.56
341.842	95.56
342.07	82.56
342.298	91.56
342.526	80.56
342.754	100.56
342.981	96.56
343.209	89.56
343.437	77.56
343.665	89.56
343.893	92.56
344.12	81.56
344.348	78.56
344.576	95.56
344.804	86.56
345.031	87.56
345.259	93.56
345.487	84.56
345.714	86.56
345.942	72.56
346.17	82.56
346.397	78.56
346.625	92.56
346.853	92.56
347.08	80.56
347.308	82.56
347.535	87.56
347.763	82.56
347.99	92.56
348.218	82.56
348.445	88.56
348.673	66.56
348.9	87.56
349.128	74.56
349.355	95.56
349.583	72.56
349.81	74.56
350.037	84.56
350.265	78.56
350.492	82.56
350.72	78.56
350.947	81.56
351.174	73.56
351.402	87.56
351.629	81.56
351.856	96.56
352.083	86.56
352.311	81.56
352.538	85.56
352.765	85.56
352.992	81.56
353.22	86.56
353.447	82.56
353.674	80.56
353.901	84.56
354.128	82.56
354.355	88.56
354.583	71.56
354.81	84.56
355.037	74.56
355.264	80.56
355.491	85.56
355.718	82.56
355.945	71.56
356.172	86.56
356.399	83.56
356.626	91.56
356.853	79.56
357.08	84.56
357.307	85.56
357.534	85.56
357.761	83.56
357.988	79.56
358.215	76.56
358.441	75.56
358.668	87.56
358.895	79.56
359.122	86.56
359.349	88.56
359.576	85.56
359.802	66.56
360.029	80.56
360.256	75.56
360.483	90.56
360.709	89.56
360.936	93.56
361.163	96.56
361.39	90.56
361.616	80.56
361.843	99.56
362.07	88.56
362.296	86.56
362.523	84.56
362.749	88.56
362.976	80.56
363.203	80.56
363.429	76.56
363.656	79.56
363.882	89.56
364.109	89.56
364.335	66.56
364.562	85.56
364.788	81.56
365.015	95.56
365.241	83.56
365.468	73.56
365.694	83.56
365.92	100.56
366.147	75.56
366.373	73.56
366.599	81.56
366.826	77.56
367.052	88.56
367.278	81.56
367.505	87.56
367.731	94.56
367.957	82.56
368.184	73.56
368.41	89.56
368.636	86.56
368.862	82.56
369.089	98.56
369.315	88.56
369.541	88.56
369.767	99.56
369.993	95.56
370.219	87.56
370.445	80.56
370.672	65.56
370.898	64.56
371.124	83.56
371.35	70.56
371.576	78.56
371.802	74.56
372.028	83.56
372.254	80.56
372.48	87.56
372.706	91.56
372.932	91.56
373.158	86.56
373.384	77.56
373.61	106.56
373.835	91.56
374.061	92.56
374.287	102.56
374.513	87.56
374.739	83.56
374.965	73.56
375.191	86.56
375.416	80.56
375.642	83.56
375.868	81.56
376.094	84.56
376.319	79.56
376.545	79.56
376.771	90.56
376.997	81.56
377.222	76.56
377.448	96.56
377.674	83.56
377.899	84.56
378.125	72.56
378.35	78.56
378.576	96.56
378.802	74.56
379.027	85.56
379.253	95.56
379.478	95.56
379.704	82.56
379.929	90.56
380.155	86.56
380.38	86.56
380.606	72.56
380.831	83.56
381.057	90.56
381.282	81.56
381.507	95.56
381.733	84.56
381.958	92.56
382.184	96.56
382.409	80.56
382.634	93.56
382.86	84.56
383.085	94.56
383.31	89.56
383.535	93.56
383.761	93.56
383.986	86.56
384.211	98.56
384.436	84.56
384.662	99.56
384.887	88.56
385.112	62.56
385.337	97.56
385.562	79.56
385.787	82.56
386.013	93.56
386.238	92.56
386.463	81.56
386.688	79.56
386.913	85.56
387.138	74.56
387.363	85.56
387.588	95.56
387.813	74.56
388.038	106.56
388.263	84.56
388.488	89.56
388.713	93.56
388.938	79.56
389.163	94.56
389.387	80.56
389.612	89.56
389.837	81.56
390.062	90.56
390.287	92.56
390.512	78.56
390.736	81.56
390.961	67.56
391.186	79.56
391.411	88.56
391.636	91.56
391.86	83.56
392.085	82.56
392.31	81.56
392.534	83.56
392.759	81.56
392.984	78.56
393.208	81.56
393.433	79.56
393.658	85.56
393.882	81.56
394.107	84.56
394.331	83.56
394.556	91.56
394.78	82.56
395.005	94.56
395.229	89.56
395.454	75.56
395.678	86.56
395.903	98.56
396.127	86.56
396.352	83.56
396.576	97.56
396.801	91.56
397.025	99.56
397.249	91.56
397.474	93.56
397.698	87.56
397.922	86.56
398.147	83.56
398.371	79.56
398.595	95.56
398.82	86.56
399.044	92.56
399.268	76.56
399.492	87.56
399.717	94.56
399.941	90.56
400.165	92.56
400.389	95.56
400.613	74.56
400.837	80.56
401.062	93.56
401.286	92.56
401.51	101.56
401.734	86.56
401.958	80.56
402.182	105.56
402.406	90.56
402.63	77.56
402.854	91.56
403.078	88.56
403.302	86.56
403.526	89.56
403.75	99.56
403.974	83.56
404.198	75.56
404.422	67.56
404.645	82.56
404.869	86.56
405.093	78.56
405.317	95.56
405.541	94.56
405.765	93.56
405.988	101.56
406.212	89.56
406.436	92.56
406.66	91.56
406.883	84.56
407.107	89.56
407.331	96.56
407.555	100.56
407.778	82.56
408.002	92.56
408.226	85.56
408.449	75.56
408.673	90.56
408.896	94.56
409.12	98.56
409.344	89.56
409.567	102.56
409.791	94.56
410.014	102.56
410.238	90.56
410.461	89.56
410.685	89.56
410.908	78.56
411.132	98.56
411.355	82.56
411.578	95.56
411.802	87.56
412.025	103.56
412.249	81.56
412.472	74.56
412.695	101.56
412.919	98.56
413.142	99.56
413.365	92.56
413.589	95.56
413.812	92.56
414.035	104.56
414.258	96.56
414.482	87.56
414.705	95.56
414.928	84.56
415.151	94.56
415.374	80.56
415.597	81.56
415.821	90.56
416.044	90.56
416.267	94.56
416.49	96.56
416.713	98.56
416.936	90.56
417.159	93.56
417.382	90.56
417.605	90.56
417.828	89.56
418.051	91.56
418.274	88.56
418.497	98.56
418.72	92.56
418.943	103.56
419.166	92.56
419.389	85.56
419.611	88.56
419.834	57.56
420.057	95.56
420.28	112.56
420.503	85.56
420.726	89.56
420.948	103.56
421.171	104.56
421.394	84.56
421.617	91.56
421.839	85.56
422.062	94.56
422.285	97.56
422.507	84.56
422.73	99.56
422.953	93.56
423.175	97.56
423.398	104.56
423.621	102.56
423.843	89.56
424.066	102.56
424.288	96.56
424.511	92.56
424.733	93.56
424.956	98.56
425.178	94.56
425.401	80.56
425.623	79.56
425.846	99.56
426.068	99.56
426.291	77.56
426.513	93.56
426.735	107.56
426.958	92.56
427.18	88.56
427.402	73.56
427.625	85.56
427.847	81.56
428.069	104.56
428.292	90.56
428.514	100.56
428.736	87.56
428.958	83.56
429.181	96.56
429.403	97.56
429.625	106.56
429.847	101.56
430.069	92.56
430.292	99.56
430.514	90.56
430.736	79.56
430.958	85.56
431.18	87.56
431.402	85.56
431.624	94.56
431.846	96.56
432.068	89.56
432.29	76.56
432.512	75.56
432.734	94.56
432.956	89.56
433.178	101.56
433.4	102.56
433.622	92.56
433.844	85.56
434.066	90.56
434.287	85.56
434.509	79.56
434.731	82.56
434.953	90.56
435.175	95.56
435.397	92.56
435.618	96.56
435.84	92.56
436.062	86.56
436.284	91.56
436.505	81.56
436.727	97.56
436.949	102.56
437.17	95.56
437.392	91.56
437.614	83.56
437.835	93.56
438.057	82.56
438.278	86.56
438.5	99.56
438.721	84.56
438.943	98.56
439.165	106.56
439.386	84.56
439.608	87.56
439.829	78.56
440.05	100.56
440.272	92.56
440.493	83.56
440.715	84.56
440.936	89.56
441.158	94.56
441.379	100.56
441.6	108.56
441.822	90.56
442.043	86.56
442.264	76.56
442.486	94.56
442.707	99.56
442.928	92.56
443.149	100.56
443.371	95.56
443.592	90.56
443.813	99.56
444.034	103.56
444.255	97.56
444.476	74.56
444.698	88.56
444.919	93.56
445.14	225.56
445.361	144.56
445.582	103.56
445.803	96.56
446.024	97.56
446.245	106.56
446.466	99.56
446.687	88.56
446.908	112.56
447.129	95.56
447.35	88.56
447.571	93.56
447.792	92.56
448.013	90.56
448.234	100.56
448.455	99.56
448.675	94.56
448.896	98.56
449.117	88.56
449.338	98.56
449.559	84.56
449.779	96.56
450	85.56
450.221	89.56
450.442	89.56
450.662	85.56
450.883	92.56
451.104	95.56
451.324	111.56
451.545	75.56
451.766	88.56
451.986	95.56
452.207	74.56
452.428	97.56
452.648	91.56
452.869	87.56
453.089	85.56
453.31	79.56
453.53	86.56
453.751	91.56
453.971	85.56
454.192	83.56
454.412	98.56
454.633	92.56
454.853	89.56
455.073	98.56
455.294	74.56
455.514	102.56
455.734	89.56
455.955	97.56
456.175	83.56
456.395	96.56
456.616	90.56
456.836	82.56
457.056	86.56
457.276	89.56
457.497	81.56
457.717	84.56
457.937	89.56
458.157	93.56
458.377	91.56
458.598	90.56
458.818	95.56
459.038	89.56
459.258	68.56
459.478	84.56
459.698	91.56
459.918	91.56
460.138	91.56
460.358	81.56
460.578	88.56
460.798	84.56
461.018	94.56
461.238	83.56
461.458	89.56
461.678	86.56
461.898	84.56
462.118	90.56
462.338	82.56
462.558	84.56
462.777	83.56
462.997	96.56
463.217	82.56
463.437	84.56
463.657	79.56
463.876	96.56
464.096	99.56
464.316	75.56
464.536	84.56
464.755	82.56
464.975	89.56
465.195	84.56
465.414	87.56
465.634	94.56
465.854	97.56
466.073	83.56
466.293	87.56
466.512	88.56
466.732	98.56
466.951	92.56
467.171	98.56
467.391	76.56
467.61	80.56
467.829	87.56
468.049	94.56
468.268	95.56
468.488	95.56
468.707	95.56
468.927	98.56
469.146	103.56
469.365	98.56
469.585	98.56
469.804	102.56
470.023	102.56
470.243	94.56
470.462	90.56
470.681	95.56
470.901	91.56
471.12	87.56
471.339	91.56
471.558	95.56
471.777	99.56
471.997	96.56
472.216	88.56
472.435	83.56
472.654	91.56
472.873	98.56
473.092	85.56
473.311	91.56
473.53	97.56
473.749	93.56
473.968	90.56
474.187	91.56
474.406	87.56
474.625	91.56
474.844	84.56
475.063	87.56
475.282	73.56
475.501	100.56
475.72	87.56
475.939	95.56
476.158	92.56
476.377	75.56
476.596	91.56
476.814	87.56
477.033	84.56
477.252	89.56
477.471	98.56
477.69	94.56
477.908	91.56
478.127	95.56
478.346	97.56
478.564	97.56
478.783	86.56
479.002	120.56
479.22	95.56
479.439	97.56
479.658	92.56
479.876	85.56
480.095	82.56
480.313	89.56
480.532	78.56
480.751	80.56
480.969	91.56
481.188	86.56
481.406	99.56
481.624	90.56
481.843	95.56
482.061	80.56
482.28	92.56
482.498	96.56
482.717	89.56
482.935	87.56
483.153	99.56
483.372	99.56
483.59	104.56
483.808	82.56
484.027	105.56
484.245	104.56
484.463	89.56
484.681	110.56
484.9	88.56
485.118	88.56
485.336	99.56
485.554	97.56
485.772	86.56
485.99	87.56
486.209	100.56
486.427	90.56
486.645	84.56
486.863	100.56
487.081	96.56
487.299	94.56
487.517	81.56
487.735	88.56
487.953	107.56
488.171	112.56
488.389	95.56
488.607	99.56
488.825	90.56
489.043	96.56
489.261	104.56
489.479	101.56
489.696	109.56
489.914	107.56
490.132	104.56
490.35	103.56
490.568	113.56
490.786	91.56
491.003	110.56
491.221	96.56
491.439	99.56
491.657	104.56
491.874	122.56
492.092	136.56
492.31	132.56
492.527	113.56
492.745	118.56
492.963	123.56
493.18	115.56
493.398	116.56
493.615	102.56
493.833	116.56
494.05	116.56
494.268	101.56
494.485	104.56
494.703	96.56
494.92	96.56
495.138	101.56
495.355	95.56
495.573	96.56
495.79	82.56
496.008	103.56
496.225	99.56
496.442	113.56
496.66	110.56
496.877	104.56
497.094	99.56
497.312	103.56
497.529	97.56
497.746	88.56
497.963	111.56
498.181	100.56
498.398	93.56
498.615	89.56
498.832	82.56
499.049	86.56
499.267	97.56
499.484	96.56
499.701	101.56
499.918	104.56
500.135	103.56
500.352	93.56
500.569	94.56
500.786	91.56
501.003	88.56
501.22	103.56
501.437	97.56
501.654	88.56
501.871	92.56
502.088	89.56
502.305	93.56
502.522	98.56
502.739	83.56
502.956	86.56
503.172	94.56
503.389	84.56
503.606	80.56
503.823	99.56
504.04	83.56
504.256	99.56
504.473	94.56
504.69	96.56
504.907	110.56
505.123	97.56
505.34	84.56
505.557	86.56
505.773	91.56
505.99	103.56
506.207	84.56
506.423	86.56
506.64	99.56
506.856	105.56
507.073	98.56
507.289	91.56
507.506	98.56
507.722	79.56
507.939	88.56
508.155	92.56
508.372	84.56
508.588	87.56
508.805	85.56
509.021	99.56
509.238	88.56
509.454	88.56
509.67	86.56
509.887	87.56
510.103	103.56
510.319	104.56
510.536	91.56
510.752	86.56
510.968	88.56
511.184	80.56
511.401	78.56
511.617	78.56
511.833	84.56
512.049	88.56
512.265	83.56
512.481	93.56
512.698	85.56
512.914	95.56
513.13	77.56
513.346	82.56
513.562	89.56
513.778	96.56
513.994	95.56
514.21	79.56
514.426	85.56
514.642	89.56
514.858	81.56
515.074	83.56
515.29	97.56
515.506	106.56
515.721	78.56
515.937	97.56
516.153	88.56
516.369	84.56
516.585	77.56
516.801	79.56
517.016	76.56
517.232	87.56
517.448	99.56
517.664	96.56
517.879	87.56
518.095	88.56
518.311	76.56
518.527	81.56
518.742	81.56
518.958	84.56
519.173	95.56
519.389	75.56
519.605	91.56
519.82	87.56
520.036	83.56
520.251	100.56
520.467	84.56
520.682	82.56
520.898	80.56
521.113	72.56
521.329	68.56
521.544	93.56
521.76	88.56
521.975	84.56
522.19	84.56
522.406	84.56
522.621	88.56
522.836	80.56
523.052	95.56
523.267	84.56
523.482	88.56
523.698	96.56
523.913	93.56
524.128	94.56
524.343	81.56
524.559	90.56
524.774	97.56
524.989	90.56
525.204	97.56
525.419	86.56
525.634	78.56
525.849	104.56
526.064	93.56
526.28	95.56
526.495	96.56
526.71	74.56
526.925	68.56
527.14	75.56
527.355	81.56
527.57	68.56
527.785	74.56
527.999	78.56
528.214	94.56
528.429	80.56
528.644	102.56
528.859	81.56
529.074	86.56
529.289	101.56
529.503	118.56
529.718	102.56
529.933	96.56
530.148	100.56
530.363	92.56
530.577	85.56
530.792	107.56
531.007	88.56
531.221	78.56
531.436	77.56
531.651	83.56
531.865	82.56
532.08	79.56
532.295	87.56
532.509	79.56
532.724	92.56
532.938	93.56
533.153	82.56
533.367	82.56
533.582	105.56
533.796	89.56
534.011	80.56
534.225	73.56
534.44	80.56
534.654	88.56
534.868	85.56
535.083	88.56
535.297	79.56
535.511	83.56
535.726	90.56
535.94	96.56
536.154	74.56
536.369	92.56
536.583	63.56
536.797	72.56
537.011	82.56
537.225	83.56
537.44	100.56
537.654	89.56
537.868	87.56
538.082	79.56
538.296	82.56
538.51	84.56
538.724	86.56
538.938	86.56
539.153	107.56
539.367	96.56
539.581	85.56
539.795	84.56
540.009	99.56
540.222	104.56
540.436	83.56
540.65	84.56
540.864	94.56
541.078	94.56
541.292	99.56
541.506	109.56
541.72	105.56
541.934	105.56
542.147	121.56
542.361	117.56
542.575	113.56
542.789	111.56
543.002	98.56
543.216	88.56
543.43	103.56
543.644	102.56
543.857	111.56
544.071	105.56
544.285	113.56
544.498	96.56
544.712	107.56
544.925	101.56
545.139	107.56
545.352	99.56
545.566	119.56
545.779	106.56
545.993	104.56
546.206	107.56
546.42	100.56
546.633	105.56
546.847	98.56
547.06	113.56
547.274	115.56
547.487	114.56
547.7	103.56
547.914	110.56
548.127	113.56
548.34	112.56
548.554	102.56
548.767	111.56
548.98	96.56
549.193	99.56
549.407	98.56
549.62	115.56
549.833	111.56
550.046	106.56
550.259	95.56
550.473	111.56
550.686	105.56
550.899	92.56
551.112	99.56
551.325	97.56
551.538	84.56
551.751	107.56
551.964	104.56
552.177	111.56
552.39	107.56
552.603	95.56
552.816	105.56
553.029	111.56
553.242	104.56
553.455	106.56
553.667	109.56
553.88	104.56
554.093	96.56
554.306	115.56
554.519	100.56
554.732	104.56
554.944	107.56
555.157	92.56
555.37	105.56
555.583	95.56
555.795	107.56
556.008	110.56
556.221	98.56
556.433	107.56
556.646	110.56
556.859	103.56
557.071	110.56
557.284	96.56
557.496	98.56
557.709	92.56
557.921	115.56
558.134	104.56
558.346	99.56
558.559	89.56
558.771	92.56
558.984	98.56
559.196	82.56
559.409	100.56
559.621	106.56
559.833	103.56
560.046	103.56
560.258	93.56
560.47	103.56
560.683	98.56
560.895	102.56
561.107	83.56
561.32	84.56
561.532	89.56
561.744	89.56
561.956	99.56
562.168	106.56
562.381	95.56
562.593	98.56
562.805	93.56
563.017	86.56
563.229	93.56
563.441	102.56
563.653	92.56
563.865	91.56
564.077	90.56
564.289	94.56
564.501	97.56
564.713	90.56
564.925	108.56
565.137	99.56
565.349	90.56
565.561	95.56
565.773	102.56
565.985	107.56
566.197	94.56
566.408	96.56
566.62	95.56
566.832	100.56
567.044	90.56
567.255	88.56
567.467	95.56
567.679	96.56
567.891	104.56
568.102	87.56
568.314	79.56
568.526	88.56
568.737	78.56
568.949	95.56
569.161	80.56
569.372	88.56
569.584	88.56
569.795	78.56
570.007	82.56
570.218	86.56
570.43	85.56
570.641	88.56
570.853	90.56
571.064	94.56
571.276	88.56
571.487	76.56
571.698	80.56
571.91	75.56
572.121	67.56
572.333	93.56
572.544	97.56
572.755	96.56
572.966	90.56
573.178	83.56
573.389	74.56
573.6	95.56
573.811	92.56
574.023	88.56
574.234	91.56
574.445	84.56
574.656	90.56
574.867	92.56
575.078	98.56
575.289	87.56
575.501	98.56
575.712	99.56
575.923	86.56
576.134	91.56
576.345	89.56
576.556	92.56
576.767	93.56
576.978	91.56
577.188	86.56
577.399	81.56
577.61	81.56
577.821	88.56
578.032	88.56
578.243	77.56
578.454	84.56
578.665	90.56
578.875	77.56
579.086	88.56
579.297	76.56
579.508	75.56
579.718	86.56
579.929	92.56
580.14	91.56
580.35	80.56
580.561	93.56
580.772	84.56
580.982	79.56
581.193	108.56
581.403	87.56
581.614	100.56
581.825	79.56
582.035	77.56
582.246	93.56
582.456	79.56
582.667	78.56
582.877	83.56
583.087	92.56
583.298	74.56
583.508	75.56
583.719	83.56
583.929	95.56
584.139	82.56
584.35	72.56
584.56	82.56
584.77	84.56
584.981	83.56
585.191	72.56
585.401	76.56
585.611	91.56
585.821	76.56
586.032	96.56
586.242	91.56
586.452	76.56
586.662	88.56
586.872	72.56
587.082	80.56
587.292	82.56
587.502	87.56
587.713	67.56
587.923	78.56
588.133	78.56
588.343	71.56
588.553	83.56
588.762	107.56
588.972	79.56
589.182	92.56
589.392	80.56
589.602	76.56
589.812	78.56
590.022	87.56
590.232	97.56
590.441	74.56
590.651	88.56
590.861	88.56
591.071	99.56
591.281	90.56
591.49	76.56
591.7	84.56
591.91	90.56
592.119	85.56
592.329	87.56
592.539	93.56
592.748	83.56
592.958	85.56
593.167	90.56
593.377	83.56
593.587	90.56
593.796	95.56
594.006	88.56
594.215	79.56
594.424	86.56
594.634	86.56
594.843	87.56
595.053	87.56
595.262	97.56
595.472	93.56
595.681	88.56
595.89	87.56
596.1	76.56
596.309	91.56
596.518	83.56
596.727	77.56
596.937	78.56
597.146	83.56
597.355	87.56
597.564	86.56
597.774	81.56
597.983	99.56
598.192	96.56
598.401	92.56
598.61	73.56
598.819	86.56
599.028	87.56
599.237	83.56
599.446	92.56
599.655	82.56
599.864	83.56
600.073	83.56
600.282	78.56
600.491	88.56
600.7	96.56
600.909	82.56
601.118	91.56
601.327	92.56
601.536	82.56
601.745	86.56
601.953	98.56
602.162	96.56
602.371	102.56
602.58	83.56
602.789	80.56
602.997	91.56
603.206	91.56
603.415	92.56
603.623	83.56
603.832	107.56
604.041	105.56
604.249	82.56
604.458	86.56
604.666	98.56
604.875	96.56
605.084	85.56
605.292	87.56
605.501	89.56
605.709	94.56
605.918	81.56
606.126	83.56
606.334	110.56
606.543	99.56
606.751	99.56
606.96	84.56
607.168	77.56
607.376	96.56
607.585	97.56
607.793	93.56
608.001	92.56
608.21	94.56
608.418	83.56
608.626	84.56
608.834	86.56
609.043	96.56
609.251	89.56
609.459	91.56
609.667	102.56
609.875	85.56
610.083	97.56
610.291	106.56
610.499	105.56
610.707	87.56
610.916	92.56
611.124	87.56
611.332	90.56
611.54	89.56
611.748	89.56
611.955	95.56
612.163	98.56
612.371	92.56
612.579	91.56
612.787	99.56
612.995	90.56
613.203	94.56
613.411	96.56
613.618	96.56
613.826	86.56
614.034	92.56
614.242	92.56
614.449	100.56
614.657	96.56
614.865	77.56
615.072	80.56
615.28	87.56
615.488	72.56
615.695	89.56
615.903	87.56
616.111	96.56
616.318	100.56
616.526	96.56
616.733	82.56
616.941	101.56
617.148	90.56
617.356	101.56
617.563	77.56
617.771	87.56
617.978	94.56
618.185	92.56
618.393	91.56
618.6	92.56
618.807	86.56
619.015	90.56
619.222	79.56
619.429	92.56
619.637	90.56
619.844	96.56
620.051	82.56
620.258	91.56
620.466	103.56
620.673	87.56
620.88	74.56
621.087	93.56
621.294	81.56
621.501	69.56
621.708	106.56
621.915	96.56
622.122	90.56
622.329	96.56
622.536	92.56
622.743	94.56
622.95	104.56
623.157	83.56
623.364	94.56
623.571	90.56
623.778	89.56
623.985	77.56
624.192	84.56
624.399	89.56
624.606	86.56
624.812	88.56
625.019	93.56
625.226	88.56
625.433	97.56
625.639	79.56
625.846	82.56
626.053	89.56
626.259	80.56
626.466	75.56
626.673	83.56
626.879	94.56
627.086	90.56
627.293	89.56
627.499	84.56
627.706	88.56
627.912	88.56
628.119	93.56
628.325	83.56
628.532	81.56
628.738	83.56
628.945	84.56
629.151	91.56
629.357	91.56
629.564	88.56
629.77	80.56
629.976	75.56
630.183	81.56
630.389	112.56
630.595	76.56
630.802	86.56
631.008	76.56
631.214	79.56
631.42	89.56
631.627	72.56
631.833	80.56
632.039	84.56
632.245	80.56
632.451	80.56
632.657	89.56
632.863	94.56
633.069	94.56
633.275	77.56
633.481	82.56
633.688	78.56
633.893	78.56
634.099	91.56
634.305	87.56
634.511	100.56
634.717	94.56
634.923	81.56
635.129	93.56
635.335	98.56
635.541	82.56
635.747	70.56
635.952	81.56
636.158	75.56
636.364	94.56
636.57	87.56
636.775	100.56
636.981	94.56
637.187	85.56
637.392	99.56
637.598	94.56
637.804	89.56
638.009	85.56
638.215	85.56
638.421	86.56
638.626	91.56
638.832	95.56
639.037	106.56
639.243	84.56
639.448	86.56
639.654	89.56
639.859	79.56
640.065	82.56
640.27	97.56
640.475	93.56
640.681	95.56
640.886	96.56
641.091	83.56
641.297	96.56
641.502	97.56
641.707	76.56
641.913	74.56
642.118	70.56
642.323	87.56
642.528	88.56
642.733	90.56
642.939	83.56
643.144	86.56
643.349	88.56
643.554	70.56
643.759	82.56
643.964	74.56
644.169	86.56
644.374	73.56
644.579	89.56
644.784	92.56
644.989	89.56
645.194	99.56
645.399	86.56
645.604	98.56
645.809	101.56
646.014	84.56
646.219	80.56
646.423	89.56
646.628	85.56
646.833	87.56
647.038	90.56
647.243	101.56
647.447	80.56
647.652	86.56
647.857	106.56
648.062	90.56
648.266	101.56
648.471	87.56
648.676	79.56
648.88	91.56
649.085	95.56
649.289	88.56
649.494	97.56
649.698	88.56
649.903	73.56
650.107	87.56
650.312	84.56
650.516	84.56
650.721	91.56
650.925	95.56
651.13	72.56
651.334	93.56
651.539	87.56
651.743	62.56
651.947	88.56
652.152	83.56
652.356	81.56
652.56	76.56
652.764	77.56
652.969	84.56
653.173	79.56
653.377	82.56
653.581	74.56
653.785	84.56
653.99	71.56
654.194	86.56
654.398	95.56
654.602	78.56
654.806	97.56
655.01	96.56
655.214	83.56
655.418	99.56
655.622	90.56
655.826	83.56
656.03	97.56
656.234	95.56
656.438	81.56
656.642	81.56
656.846	72.56
657.049	77.56
657.253	89.56
657.457	86.56
657.661	89.56
657.865	91.56
658.068	79.56
658.272	88.56
658.476	86.56
658.68	85.56
658.883	95.56
659.087	75.56
659.291	77.56
659.494	78.56
659.698	79.56
659.901	82.56
660.105	70.56
660.309	76.56
660.512	78.56
660.716	76.56
660.919	83.56
661.123	82.56
661.326	80.56
661.53	86.56
661.733	82.56
661.936	76.56
662.14	80.56
662.343	82.56
662.546	74.56
662.75	93.56
662.953	90.56
663.156	76.56
663.36	88.56
663.563	106.56
663.766	73.56
663.969	79.56
664.173	70.56
664.376	85.56
664.579	82.56
664.782	91.56
664.985	83.56
665.188	68.56
665.391	79.56
665.594	89.56
665.797	84.56
666	70.56
666.203	68.56
666.406	89.56
666.609	90.56
666.812	92.56
667.015	73.56
667.218	89.56
667.421	78.56
667.624	80.56
667.827	88.56
668.03	79.56
668.232	80.56
668.435	75.56
668.638	94.56
668.841	85.56
669.043	87.56
669.246	75.56
669.449	82.56
669.651	73.56
669.854	82.56
670.057	94.56
670.259	64.56
670.462	84.56
670.665	89.56
670.867	76.56
671.07	83.56
671.272	84.56
671.475	94.56
671.677	79.56
671.88	71.56
672.082	67.56
672.284	69.56
672.487	71.56
672.689	71.56
672.892	80.56
