Data from Location5.07152019.Energy5.Lamp.07192019.3%Agarose_HRD10591_15-39-13-388.txt Node
Date: Fri Jul 19 15:39:13 EDT 2019
User: cochatt
Spectrometer: HR+D1059
Trigger mode: 1
Integration Time (sec): 1.000000E-1
Scans to average: 1
Electric dark correction enabled: true
Nonlinearity correction enabled: false
Boxcar width: 0
XAxis mode: Wavelengths
Number of Pixels in Spectrum: 2048
>>>>>Begin Spectral Data<<<<<
223.165	-23.69
223.4	-23.69
223.635	-23.69
223.869	-19.69
224.104	-19.69
224.338	-21.69
224.573	1.31
224.808	-14.69
225.042	-12.69
225.277	-8.69
225.511	-0.69
225.746	8.31
225.98	10.31
226.215	9.31
226.449	23.31
226.683	9.31
226.918	28.31
227.152	31.31
227.387	43.31
227.621	42.31
227.856	46.31
228.09	41.31
228.324	58.31
228.559	67.31
228.793	67.31
229.027	58.31
229.262	65.31
229.496	73.31
229.73	76.31
229.964	76.31
230.199	68.31
230.433	73.31
230.667	94.31
230.901	98.31
231.136	91.31
231.37	86.31
231.604	77.31
231.838	68.31
232.072	76.31
232.306	89.31
232.541	67.31
232.775	85.31
233.009	77.31
233.243	85.31
233.477	90.31
233.711	89.31
233.945	67.31
234.179	91.31
234.413	79.31
234.647	88.31
234.881	83.31
235.115	79.31
235.349	82.31
235.583	76.31
235.817	79.31
236.051	83.31
236.285	94.31
236.519	86.31
236.753	76.31
236.987	77.31
237.221	79.31
237.455	81.31
237.689	80.31
237.922	87.31
238.156	75.31
238.39	73.31
238.624	100.31
238.858	87.31
239.091	71.31
239.325	71.31
239.559	95.31
239.793	81.31
240.027	92.31
240.26	81.31
240.494	73.31
240.728	78.31
240.961	98.31
241.195	84.31
241.429	89.31
241.662	78.31
241.896	79.31
242.13	89.31
242.363	65.31
242.597	75.31
242.83	91.31
243.064	92.31
243.298	80.31
243.531	83.31
243.765	70.31
243.998	73.31
244.232	85.31
244.465	92.31
244.699	78.31
244.932	86.31
245.166	90.31
245.399	86.31
245.633	69.31
245.866	83.31
246.099	94.31
246.333	86.31
246.566	78.31
246.8	72.31
247.033	82.31
247.266	82.31
247.5	88.31
247.733	79.31
247.966	87.31
248.2	84.31
248.433	77.31
248.666	82.31
248.899	85.31
249.133	68.31
249.366	70.31
249.599	87.31
249.832	84.31
250.066	94.31
250.299	88.31
250.532	83.31
250.765	83.31
250.998	85.31
251.231	82.31
251.465	86.31
251.698	78.31
251.931	90.31
252.164	89.31
252.397	90.31
252.63	81.31
252.863	78.31
253.096	84.31
253.329	91.31
253.562	77.31
253.795	85.31
254.028	77.31
254.261	71.31
254.494	89.31
254.727	94.31
254.96	82.31
255.193	94.31
255.426	80.31
255.659	87.31
255.892	91.31
256.124	77.31
256.357	85.31
256.59	86.31
256.823	81.31
257.056	86.31
257.289	83.31
257.521	81.31
257.754	81.31
257.987	82.31
258.22	82.31
258.452	80.31
258.685	99.31
258.918	82.31
259.151	83.31
259.383	95.31
259.616	88.31
259.849	78.31
260.081	88.31
260.314	75.31
260.547	81.31
260.779	83.31
261.012	86.31
261.244	69.31
261.477	86.31
261.71	89.31
261.942	90.31
262.175	96.31
262.407	78.31
262.64	76.31
262.872	81.31
263.105	73.31
263.337	95.31
263.57	79.31
263.802	71.31
264.035	90.31
264.267	79.31
264.499	85.31
264.732	90.31
264.964	79.31
265.197	97.31
265.429	83.31
265.661	95.31
265.894	75.31
266.126	90.31
266.358	89.31
266.591	81.31
266.823	81.31
267.055	89.31
267.287	71.31
267.52	78.31
267.752	79.31
267.984	89.31
268.216	83.31
268.448	83.31
268.681	97.31
268.913	86.31
269.145	85.31
269.377	84.31
269.609	74.31
269.841	87.31
270.073	104.31
270.306	84.31
270.538	89.31
270.77	99.31
271.002	85.31
271.234	85.31
271.466	86.31
271.698	74.31
271.93	82.31
272.162	90.31
272.394	90.31
272.626	76.31
272.858	75.31
273.09	79.31
273.322	84.31
273.553	82.31
273.785	83.31
274.017	96.31
274.249	85.31
274.481	85.31
274.713	67.31
274.945	80.31
275.176	82.31
275.408	91.31
275.64	97.31
275.872	86.31
276.104	99.31
276.335	81.31
276.567	95.31
276.799	99.31
277.031	87.31
277.262	92.31
277.494	77.31
277.726	94.31
277.957	97.31
278.189	76.31
278.421	92.31
278.652	79.31
278.884	96.31
279.115	89.31
279.347	75.31
279.579	84.31
279.81	85.31
280.042	82.31
280.273	87.31
280.505	98.31
280.736	76.31
280.968	74.31
281.199	98.31
281.431	87.31
281.662	80.31
281.894	82.31
282.125	84.31
282.356	89.31
282.588	88.31
282.819	91.31
283.051	78.31
283.282	85.31
283.513	82.31
283.745	85.31
283.976	95.31
284.207	97.31
284.439	79.31
284.67	91.31
284.901	92.31
285.132	73.31
285.364	108.31
285.595	83.31
285.826	84.31
286.057	94.31
286.288	89.31
286.52	99.31
286.751	93.31
286.982	89.31
287.213	89.31
287.444	83.31
287.675	84.31
287.906	85.31
288.138	92.31
288.369	90.31
288.6	91.31
288.831	96.31
289.062	72.31
289.293	94.31
289.524	96.31
289.755	100.31
289.986	94.31
290.217	88.31
290.448	98.31
290.679	83.31
290.91	89.31
291.141	85.31
291.371	89.31
291.602	94.31
291.833	70.31
292.064	103.31
292.295	95.31
292.526	77.31
292.757	90.31
292.987	85.31
293.218	69.31
293.449	79.31
293.68	94.31
293.91	95.31
294.141	80.31
294.372	84.31
294.603	83.31
294.833	79.31
295.064	93.31
295.295	90.31
295.525	94.31
295.756	89.31
295.987	106.31
296.217	95.31
296.448	78.31
296.679	90.31
296.909	71.31
297.14	82.31
297.37	76.31
297.601	82.31
297.831	86.31
298.062	85.31
298.292	93.31
298.523	91.31
298.753	98.31
298.984	102.31
299.214	73.31
299.445	90.31
299.675	78.31
299.905	78.31
300.136	89.31
300.366	87.31
300.597	93.31
300.827	86.31
301.057	86.31
301.288	87.31
301.518	90.31
301.748	90.31
301.979	99.31
302.209	82.31
302.439	82.31
302.669	89.31
302.9	101.31
303.13	86.31
303.36	79.31
303.59	86.31
303.82	97.31
304.051	86.31
304.281	95.31
304.511	94.31
304.741	89.31
304.971	78.31
305.201	86.31
305.431	96.31
305.661	94.31
305.891	94.31
306.121	85.31
306.352	84.31
306.582	73.31
306.812	86.31
307.042	86.31
307.272	76.31
307.502	90.31
307.731	89.31
307.961	94.31
308.191	76.31
308.421	83.31
308.651	87.31
308.881	94.31
309.111	91.31
309.341	85.31
309.571	91.31
309.8	83.31
310.03	82.31
310.26	82.31
310.49	85.31
310.72	89.31
310.949	87.31
311.179	98.31
311.409	85.31
311.639	83.31
311.868	104.31
312.098	78.31
312.328	100.31
312.557	89.31
312.787	88.31
313.017	83.31
313.246	97.31
313.476	77.31
313.706	87.31
313.935	97.31
314.165	97.31
314.394	90.31
314.624	91.31
314.853	97.31
315.083	101.31
315.312	88.31
315.542	83.31
315.771	97.31
316.001	88.31
316.23	79.31
316.46	92.31
316.689	84.31
316.919	86.31
317.148	93.31
317.377	96.31
317.607	85.31
317.836	79.31
318.065	83.31
318.295	87.31
318.524	85.31
318.753	86.31
318.983	93.31
319.212	98.31
319.441	85.31
319.67	77.31
319.9	76.31
320.129	76.31
320.358	88.31
320.587	94.31
320.816	94.31
321.046	94.31
321.275	99.31
321.504	83.31
321.733	81.31
321.962	87.31
322.191	87.31
322.42	101.31
322.649	92.31
322.878	88.31
323.108	102.31
323.337	93.31
323.566	88.31
323.795	92.31
324.024	90.31
324.253	90.31
324.482	76.31
324.71	87.31
324.939	83.31
325.168	89.31
325.397	87.31
325.626	86.31
325.855	87.31
326.084	71.31
326.313	93.31
326.542	81.31
326.77	83.31
326.999	99.31
327.228	86.31
327.457	98.31
327.686	103.31
327.914	87.31
328.143	83.31
328.372	91.31
328.6	89.31
328.829	87.31
329.058	96.31
329.287	91.31
329.515	81.31
329.744	92.31
329.972	86.31
330.201	105.31
330.43	85.31
330.658	79.31
330.887	98.31
331.115	80.31
331.344	85.31
331.572	85.31
331.801	101.31
332.03	89.31
332.258	93.31
332.486	82.31
332.715	76.31
332.943	95.31
333.172	87.31
333.4	95.31
333.629	85.31
333.857	99.31
334.085	91.31
334.314	102.31
334.542	90.31
334.771	94.31
334.999	90.31
335.227	82.31
335.455	93.31
335.684	76.31
335.912	98.31
336.14	85.31
336.369	88.31
336.597	90.31
336.825	78.31
337.053	91.31
337.281	94.31
337.51	92.31
337.738	96.31
337.966	91.31
338.194	93.31
338.422	82.31
338.65	82.31
338.878	90.31
339.106	84.31
339.334	86.31
339.562	88.31
339.79	78.31
340.018	92.31
340.246	83.31
340.474	87.31
340.702	97.31
340.93	79.31
341.158	94.31
341.386	79.31
341.614	76.31
341.842	74.31
342.07	86.31
342.298	97.31
342.526	85.31
342.754	89.31
342.981	98.31
343.209	96.31
343.437	92.31
343.665	99.31
343.893	93.31
344.12	83.31
344.348	94.31
344.576	86.31
344.804	79.31
345.031	82.31
345.259	91.31
345.487	92.31
345.714	79.31
345.942	93.31
346.17	80.31
346.397	93.31
346.625	97.31
346.853	89.31
347.08	79.31
347.308	84.31
347.535	74.31
347.763	84.31
347.99	83.31
348.218	92.31
348.445	91.31
348.673	110.31
348.9	89.31
349.128	91.31
349.355	99.31
349.583	84.31
349.81	83.31
350.037	91.31
350.265	87.31
350.492	94.31
350.72	88.31
350.947	87.31
351.174	81.31
351.402	84.31
351.629	104.31
351.856	88.31
352.083	82.31
352.311	89.31
352.538	79.31
352.765	83.31
352.992	92.31
353.22	91.31
353.447	82.31
353.674	91.31
353.901	94.31
354.128	90.31
354.355	86.31
354.583	84.31
354.81	85.31
355.037	90.31
355.264	79.31
355.491	76.31
355.718	79.31
355.945	75.31
356.172	75.31
356.399	81.31
356.626	86.31
356.853	91.31
357.08	105.31
357.307	93.31
357.534	83.31
357.761	92.31
357.988	82.31
358.215	89.31
358.441	77.31
358.668	88.31
358.895	83.31
359.122	91.31
359.349	97.31
359.576	86.31
359.802	90.31
360.029	82.31
360.256	89.31
360.483	90.31
360.709	70.31
360.936	101.31
361.163	87.31
361.39	81.31
361.616	82.31
361.843	90.31
362.07	80.31
362.296	94.31
362.523	86.31
362.749	85.31
362.976	87.31
363.203	87.31
363.429	84.31
363.656	97.31
363.882	79.31
364.109	70.31
364.335	83.31
364.562	74.31
364.788	94.31
365.015	82.31
365.241	85.31
365.468	75.31
365.694	88.31
365.92	82.31
366.147	94.31
366.373	87.31
366.599	97.31
366.826	97.31
367.052	81.31
367.278	76.31
367.505	91.31
367.731	96.31
367.957	86.31
368.184	101.31
368.41	91.31
368.636	89.31
368.862	77.31
369.089	74.31
369.315	95.31
369.541	87.31
369.767	85.31
369.993	91.31
370.219	86.31
370.445	75.31
370.672	75.31
370.898	89.31
371.124	81.31
371.35	84.31
371.576	90.31
371.802	74.31
372.028	94.31
372.254	86.31
372.48	75.31
372.706	85.31
372.932	86.31
373.158	89.31
373.384	89.31
373.61	92.31
373.835	97.31
374.061	86.31
374.287	87.31
374.513	93.31
374.739	87.31
374.965	76.31
375.191	87.31
375.416	101.31
375.642	88.31
375.868	100.31
376.094	99.31
376.319	99.31
376.545	98.31
376.771	76.31
376.997	88.31
377.222	80.31
377.448	97.31
377.674	74.31
377.899	93.31
378.125	76.31
378.35	88.31
378.576	87.31
378.802	94.31
379.027	85.31
379.253	91.31
379.478	101.31
379.704	92.31
379.929	81.31
380.155	81.31
380.38	98.31
380.606	97.31
380.831	93.31
381.057	92.31
381.282	93.31
381.507	76.31
381.733	96.31
381.958	104.31
382.184	86.31
382.409	82.31
382.634	86.31
382.86	98.31
383.085	93.31
383.31	83.31
383.535	100.31
383.761	92.31
383.986	81.31
384.211	77.31
384.436	81.31
384.662	87.31
384.887	89.31
385.112	90.31
385.337	85.31
385.562	102.31
385.787	94.31
386.013	87.31
386.238	82.31
386.463	93.31
386.688	88.31
386.913	91.31
387.138	101.31
387.363	85.31
387.588	106.31
387.813	91.31
388.038	99.31
388.263	88.31
388.488	95.31
388.713	99.31
388.938	79.31
389.163	80.31
389.387	85.31
389.612	92.31
389.837	104.31
390.062	89.31
390.287	94.31
390.512	78.31
390.736	79.31
390.961	94.31
391.186	91.31
391.411	80.31
391.636	87.31
391.86	89.31
392.085	97.31
392.31	103.31
392.534	88.31
392.759	99.31
392.984	102.31
393.208	79.31
393.433	91.31
393.658	89.31
393.882	83.31
394.107	85.31
394.331	82.31
394.556	82.31
394.78	95.31
395.005	69.31
395.229	93.31
395.454	89.31
395.678	93.31
395.903	91.31
396.127	80.31
396.352	95.31
396.576	92.31
396.801	80.31
397.025	84.31
397.249	98.31
397.474	90.31
397.698	89.31
397.922	84.31
398.147	108.31
398.371	90.31
398.595	91.31
398.82	91.31
399.044	89.31
399.268	102.31
399.492	93.31
399.717	71.31
399.941	97.31
400.165	91.31
400.389	91.31
400.613	95.31
400.837	98.31
401.062	89.31
401.286	99.31
401.51	102.31
401.734	94.31
401.958	90.31
402.182	94.31
402.406	88.31
402.63	103.31
402.854	83.31
403.078	85.31
403.302	91.31
403.526	99.31
403.75	84.31
403.974	86.31
404.198	93.31
404.422	91.31
404.645	107.31
404.869	89.31
405.093	91.31
405.317	93.31
405.541	96.31
405.765	86.31
405.988	97.31
406.212	92.31
406.436	100.31
406.66	96.31
406.883	93.31
407.107	81.31
407.331	85.31
407.555	95.31
407.778	102.31
408.002	82.31
408.226	81.31
408.449	92.31
408.673	93.31
408.896	81.31
409.12	88.31
409.344	102.31
409.567	101.31
409.791	97.31
410.014	80.31
410.238	87.31
410.461	88.31
410.685	81.31
410.908	92.31
411.132	100.31
411.355	88.31
411.578	88.31
411.802	92.31
412.025	85.31
412.249	93.31
412.472	90.31
412.695	83.31
412.919	91.31
413.142	92.31
413.365	91.31
413.589	92.31
413.812	97.31
414.035	94.31
414.258	97.31
414.482	90.31
414.705	102.31
414.928	98.31
415.151	98.31
415.374	91.31
415.597	92.31
415.821	89.31
416.044	93.31
416.267	86.31
416.49	86.31
416.713	99.31
416.936	101.31
417.159	93.31
417.382	97.31
417.605	107.31
417.828	100.31
418.051	83.31
418.274	73.31
418.497	92.31
418.72	98.31
418.943	98.31
419.166	105.31
419.389	99.31
419.611	94.31
419.834	92.31
420.057	101.31
420.28	102.31
420.503	100.31
420.726	103.31
420.948	102.31
421.171	98.31
421.394	92.31
421.617	95.31
421.839	90.31
422.062	88.31
422.285	99.31
422.507	87.31
422.73	83.31
422.953	91.31
423.175	96.31
423.398	105.31
423.621	99.31
423.843	78.31
424.066	101.31
424.288	105.31
424.511	90.31
424.733	109.31
424.956	99.31
425.178	93.31
425.401	91.31
425.623	107.31
425.846	94.31
426.068	95.31
426.291	98.31
426.513	97.31
426.735	88.31
426.958	97.31
427.18	84.31
427.402	103.31
427.625	98.31
427.847	102.31
428.069	90.31
428.292	92.31
428.514	102.31
428.736	107.31
428.958	77.31
429.181	93.31
429.403	99.31
429.625	103.31
429.847	99.31
430.069	98.31
430.292	80.31
430.514	109.31
430.736	106.31
430.958	89.31
431.18	92.31
431.402	103.31
431.624	94.31
431.846	78.31
432.068	93.31
432.29	92.31
432.512	91.31
432.734	81.31
432.956	92.31
433.178	99.31
433.4	91.31
433.622	90.31
433.844	104.31
434.066	103.31
434.287	79.31
434.509	102.31
434.731	101.31
434.953	81.31
435.175	98.31
435.397	87.31
435.618	88.31
435.84	85.31
436.062	102.31
436.284	86.31
436.505	99.31
436.727	105.31
436.949	83.31
437.17	94.31
437.392	93.31
437.614	93.31
437.835	90.31
438.057	100.31
438.278	81.31
438.5	82.31
438.721	103.31
438.943	99.31
439.165	107.31
439.386	86.31
439.608	109.31
439.829	96.31
440.05	97.31
440.272	105.31
440.493	102.31
440.715	91.31
440.936	91.31
441.158	96.31
441.379	92.31
441.6	108.31
441.822	104.31
442.043	86.31
442.264	91.31
442.486	85.31
442.707	100.31
442.928	90.31
443.149	104.31
443.371	99.31
443.592	106.31
443.813	100.31
444.034	99.31
444.255	94.31
444.476	102.31
444.698	104.31
444.919	102.31
445.14	220.31
445.361	157.31
445.582	104.31
445.803	106.31
446.024	102.31
446.245	98.31
446.466	95.31
446.687	93.31
446.908	104.31
447.129	103.31
447.35	100.31
447.571	106.31
447.792	95.31
448.013	101.31
448.234	114.31
448.455	110.31
448.675	102.31
448.896	86.31
449.117	87.31
449.338	97.31
449.559	94.31
449.779	114.31
450	91.31
450.221	101.31
450.442	106.31
450.662	93.31
450.883	83.31
451.104	99.31
451.324	89.31
451.545	87.31
451.766	105.31
451.986	83.31
452.207	111.31
452.428	98.31
452.648	108.31
452.869	85.31
453.089	80.31
453.31	85.31
453.53	95.31
453.751	98.31
453.971	85.31
454.192	97.31
454.412	93.31
454.633	98.31
454.853	95.31
455.073	80.31
455.294	95.31
455.514	85.31
455.734	95.31
455.955	97.31
456.175	92.31
456.395	98.31
456.616	86.31
456.836	86.31
457.056	95.31
457.276	84.31
457.497	84.31
457.717	69.31
457.937	101.31
458.157	83.31
458.377	90.31
458.598	92.31
458.818	94.31
459.038	87.31
459.258	79.31
459.478	85.31
459.698	91.31
459.918	95.31
460.138	95.31
460.358	89.31
460.578	104.31
460.798	93.31
461.018	84.31
461.238	102.31
461.458	80.31
461.678	96.31
461.898	104.31
462.118	69.31
462.338	86.31
462.558	86.31
462.777	96.31
462.997	104.31
463.217	100.31
463.437	104.31
463.657	102.31
463.876	90.31
464.096	82.31
464.316	77.31
464.536	87.31
464.755	97.31
464.975	108.31
465.195	82.31
465.414	93.31
465.634	103.31
465.854	90.31
466.073	114.31
466.293	88.31
466.512	78.31
466.732	105.31
466.951	105.31
467.171	105.31
467.391	90.31
467.61	89.31
467.829	87.31
468.049	105.31
468.268	95.31
468.488	100.31
468.707	95.31
468.927	98.31
469.146	90.31
469.365	96.31
469.585	104.31
469.804	106.31
470.023	107.31
470.243	99.31
470.462	97.31
470.681	106.31
470.901	95.31
471.12	101.31
471.339	120.31
471.558	98.31
471.777	88.31
471.997	101.31
472.216	96.31
472.435	81.31
472.654	98.31
472.873	87.31
473.092	100.31
473.311	99.31
473.53	99.31
473.749	107.31
473.968	93.31
474.187	89.31
474.406	95.31
474.625	98.31
474.844	100.31
475.063	100.31
475.282	92.31
475.501	91.31
475.72	101.31
475.939	94.31
476.158	118.31
476.377	94.31
476.596	89.31
476.814	94.31
477.033	93.31
477.252	77.31
477.471	95.31
477.69	105.31
477.908	95.31
478.127	112.31
478.346	105.31
478.564	118.31
478.783	85.31
479.002	109.31
479.22	98.31
479.439	89.31
479.658	92.31
479.876	92.31
480.095	97.31
480.313	90.31
480.532	110.31
480.751	93.31
480.969	86.31
481.188	72.31
481.406	95.31
481.624	82.31
481.843	100.31
482.061	88.31
482.28	109.31
482.498	88.31
482.717	90.31
482.935	92.31
483.153	99.31
483.372	99.31
483.59	94.31
483.808	94.31
484.027	98.31
484.245	99.31
484.463	110.31
484.681	106.31
484.9	104.31
485.118	87.31
485.336	95.31
485.554	93.31
485.772	87.31
485.99	84.31
486.209	93.31
486.427	93.31
486.645	94.31
486.863	93.31
487.081	99.31
487.299	92.31
487.517	97.31
487.735	91.31
487.953	101.31
488.171	115.31
488.389	119.31
488.607	98.31
488.825	99.31
489.043	99.31
489.261	101.31
489.479	99.31
489.696	100.31
489.914	97.31
490.132	110.31
490.35	85.31
490.568	119.31
490.786	120.31
491.003	122.31
491.221	121.31
491.439	111.31
491.657	106.31
491.874	114.31
492.092	121.31
492.31	144.31
492.527	127.31
492.745	126.31
492.963	98.31
493.18	100.31
493.398	110.31
493.615	121.31
493.833	111.31
494.05	105.31
494.268	109.31
494.485	99.31
494.703	99.31
494.92	119.31
495.138	114.31
495.355	102.31
495.573	111.31
495.79	110.31
496.008	113.31
496.225	109.31
496.442	107.31
496.66	107.31
496.877	114.31
497.094	133.31
497.312	118.31
497.529	98.31
497.746	129.31
497.963	105.31
498.181	91.31
498.398	97.31
498.615	94.31
498.832	90.31
499.049	105.31
499.267	91.31
499.484	99.31
499.701	82.31
499.918	99.31
500.135	103.31
500.352	107.31
500.569	83.31
500.786	88.31
501.003	106.31
501.22	96.31
501.437	104.31
501.654	89.31
501.871	91.31
502.088	104.31
502.305	100.31
502.522	114.31
502.739	93.31
502.956	77.31
503.172	83.31
503.389	90.31
503.606	97.31
503.823	101.31
504.04	94.31
504.256	92.31
504.473	97.31
504.69	98.31
504.907	99.31
505.123	106.31
505.34	96.31
505.557	108.31
505.773	98.31
505.99	94.31
506.207	92.31
506.423	91.31
506.64	99.31
506.856	95.31
507.073	83.31
507.289	107.31
507.506	100.31
507.722	93.31
507.939	95.31
508.155	90.31
508.372	96.31
508.588	93.31
508.805	93.31
509.021	74.31
509.238	87.31
509.454	87.31
509.67	77.31
509.887	88.31
510.103	94.31
510.319	84.31
510.536	90.31
510.752	86.31
510.968	96.31
511.184	74.31
511.401	85.31
511.617	84.31
511.833	84.31
512.049	78.31
512.265	86.31
512.481	98.31
512.698	89.31
512.914	109.31
513.13	90.31
513.346	93.31
513.562	84.31
513.778	75.31
513.994	98.31
514.21	81.31
514.426	91.31
514.642	108.31
514.858	88.31
515.074	100.31
515.29	94.31
515.506	83.31
515.721	80.31
515.937	89.31
516.153	89.31
516.369	79.31
516.585	94.31
516.801	89.31
517.016	82.31
517.232	101.31
517.448	87.31
517.664	86.31
517.879	66.31
518.095	86.31
518.311	87.31
518.527	95.31
518.742	79.31
518.958	92.31
519.173	86.31
519.389	91.31
519.605	93.31
519.82	85.31
520.036	101.31
520.251	87.31
520.467	93.31
520.682	82.31
520.898	75.31
521.113	93.31
521.329	101.31
521.544	83.31
521.76	104.31
521.975	100.31
522.19	84.31
522.406	83.31
522.621	82.31
522.836	75.31
523.052	95.31
523.267	91.31
523.482	94.31
523.698	103.31
523.913	93.31
524.128	89.31
524.343	103.31
524.559	97.31
524.774	103.31
524.989	104.31
525.204	105.31
525.419	87.31
525.634	84.31
525.849	101.31
526.064	96.31
526.28	98.31
526.495	66.31
526.71	73.31
526.925	86.31
527.14	81.31
527.355	71.31
527.57	95.31
527.785	75.31
527.999	100.31
528.214	108.31
528.429	95.31
528.644	95.31
528.859	91.31
529.074	94.31
529.289	100.31
529.503	90.31
529.718	107.31
529.933	102.31
530.148	98.31
530.363	84.31
530.577	84.31
530.792	82.31
531.007	86.31
531.221	96.31
531.436	84.31
531.651	84.31
531.865	89.31
532.08	96.31
532.295	92.31
532.509	89.31
532.724	90.31
532.938	98.31
533.153	87.31
533.367	102.31
533.582	81.31
533.796	85.31
534.011	98.31
534.225	103.31
534.44	86.31
534.654	89.31
534.868	86.31
535.083	97.31
535.297	79.31
535.511	91.31
535.726	86.31
535.94	84.31
536.154	93.31
536.369	84.31
536.583	90.31
536.797	77.31
537.011	85.31
537.225	78.31
537.44	81.31
537.654	94.31
537.868	95.31
538.082	88.31
538.296	93.31
538.51	82.31
538.724	102.31
538.938	76.31
539.153	90.31
539.367	95.31
539.581	92.31
539.795	85.31
540.009	94.31
540.222	92.31
540.436	87.31
540.65	100.31
540.864	115.31
541.078	110.31
541.292	86.31
541.506	117.31
541.72	97.31
541.934	129.31
542.147	119.31
542.361	131.31
542.575	110.31
542.789	106.31
543.002	92.31
543.216	84.31
543.43	94.31
543.644	101.31
543.857	89.31
544.071	110.31
544.285	98.31
544.498	113.31
544.712	110.31
544.925	106.31
545.139	110.31
545.352	107.31
545.566	106.31
545.779	110.31
545.993	105.31
546.206	116.31
546.42	108.31
546.633	102.31
546.847	103.31
547.06	124.31
547.274	116.31
547.487	113.31
547.7	106.31
547.914	113.31
548.127	108.31
548.34	106.31
548.554	97.31
548.767	104.31
548.98	106.31
549.193	103.31
549.407	107.31
549.62	99.31
549.833	105.31
550.046	110.31
550.259	101.31
550.473	114.31
550.686	105.31
550.899	103.31
551.112	107.31
551.325	115.31
551.538	101.31
551.751	105.31
551.964	108.31
552.177	107.31
552.39	115.31
552.603	97.31
552.816	116.31
553.029	112.31
553.242	106.31
553.455	117.31
553.667	111.31
553.88	107.31
554.093	102.31
554.306	109.31
554.519	89.31
554.732	99.31
554.944	99.31
555.157	101.31
555.37	104.31
555.583	115.31
555.795	94.31
556.008	112.31
556.221	97.31
556.433	107.31
556.646	102.31
556.859	117.31
557.071	90.31
557.284	102.31
557.496	109.31
557.709	114.31
557.921	93.31
558.134	107.31
558.346	108.31
558.559	93.31
558.771	98.31
558.984	109.31
559.196	102.31
559.409	92.31
559.621	109.31
559.833	88.31
560.046	103.31
560.258	93.31
560.47	92.31
560.683	94.31
560.895	91.31
561.107	93.31
561.32	113.31
561.532	105.31
561.744	87.31
561.956	93.31
562.168	88.31
562.381	100.31
562.593	98.31
562.805	104.31
563.017	109.31
563.229	101.31
563.441	96.31
563.653	116.31
563.865	97.31
564.077	99.31
564.289	111.31
564.501	100.31
564.713	100.31
564.925	90.31
565.137	90.31
565.349	109.31
565.561	103.31
565.773	102.31
565.985	86.31
566.197	93.31
566.408	101.31
566.62	106.31
566.832	99.31
567.044	90.31
567.255	98.31
567.467	84.31
567.679	105.31
567.891	105.31
568.102	99.31
568.314	86.31
568.526	98.31
568.737	93.31
568.949	84.31
569.161	91.31
569.372	80.31
569.584	93.31
569.795	89.31
570.007	92.31
570.218	96.31
570.43	102.31
570.641	69.31
570.853	100.31
571.064	89.31
571.276	106.31
571.487	90.31
571.698	87.31
571.91	87.31
572.121	97.31
572.333	79.31
572.544	91.31
572.755	83.31
572.966	87.31
573.178	97.31
573.389	95.31
573.6	74.31
573.811	79.31
574.023	78.31
574.234	84.31
574.445	80.31
574.656	99.31
574.867	80.31
575.078	90.31
575.289	90.31
575.501	99.31
575.712	101.31
575.923	99.31
576.134	86.31
576.345	83.31
576.556	97.31
576.767	90.31
576.978	101.31
577.188	81.31
577.399	78.31
577.61	82.31
577.821	81.31
578.032	79.31
578.243	88.31
578.454	88.31
578.665	93.31
578.875	93.31
579.086	91.31
579.297	90.31
579.508	98.31
579.718	91.31
579.929	89.31
580.14	92.31
580.35	84.31
580.561	82.31
580.772	81.31
580.982	90.31
581.193	86.31
581.403	95.31
581.614	88.31
581.825	90.31
582.035	94.31
582.246	83.31
582.456	95.31
582.667	93.31
582.877	81.31
583.087	87.31
583.298	99.31
583.508	84.31
583.719	94.31
583.929	88.31
584.139	82.31
584.35	93.31
584.56	92.31
584.77	98.31
584.981	85.31
585.191	74.31
585.401	79.31
585.611	84.31
585.821	85.31
586.032	86.31
586.242	89.31
586.452	97.31
586.662	85.31
586.872	86.31
587.082	95.31
587.292	90.31
587.502	84.31
587.713	87.31
587.923	84.31
588.133	110.31
588.343	77.31
588.553	93.31
588.762	86.31
588.972	90.31
589.182	93.31
589.392	77.31
589.602	93.31
589.812	88.31
590.022	92.31
590.232	90.31
590.441	94.31
590.651	89.31
590.861	82.31
591.071	91.31
591.281	86.31
591.49	107.31
591.7	79.31
591.91	88.31
592.119	105.31
592.329	87.31
592.539	87.31
592.748	89.31
592.958	75.31
593.167	77.31
593.377	87.31
593.587	86.31
593.796	87.31
594.006	90.31
594.215	88.31
594.424	83.31
594.634	81.31
594.843	100.31
595.053	95.31
595.262	95.31
595.472	92.31
595.681	85.31
595.89	79.31
596.1	84.31
596.309	106.31
596.518	91.31
596.727	101.31
596.937	98.31
597.146	95.31
597.355	101.31
597.564	93.31
597.774	92.31
597.983	92.31
598.192	92.31
598.401	90.31
598.61	92.31
598.819	87.31
599.028	102.31
599.237	101.31
599.446	77.31
599.655	90.31
599.864	87.31
600.073	86.31
600.282	91.31
600.491	86.31
600.7	90.31
600.909	100.31
601.118	83.31
601.327	99.31
601.536	94.31
601.745	90.31
601.953	99.31
602.162	87.31
602.371	97.31
602.58	89.31
602.789	91.31
602.997	99.31
603.206	92.31
603.415	93.31
603.623	107.31
603.832	93.31
604.041	93.31
604.249	81.31
604.458	91.31
604.666	105.31
604.875	82.31
605.084	81.31
605.292	99.31
605.501	103.31
605.709	96.31
605.918	95.31
606.126	109.31
606.334	102.31
606.543	94.31
606.751	76.31
606.96	83.31
607.168	104.31
607.376	85.31
607.585	98.31
607.793	99.31
608.001	95.31
608.21	95.31
608.418	102.31
608.626	90.31
608.834	95.31
609.043	101.31
609.251	92.31
609.459	91.31
609.667	103.31
609.875	90.31
610.083	95.31
610.291	103.31
610.499	93.31
610.707	88.31
610.916	99.31
611.124	106.31
611.332	95.31
611.54	84.31
611.748	98.31
611.955	92.31
612.163	89.31
612.371	105.31
612.579	102.31
612.787	85.31
612.995	80.31
613.203	95.31
613.411	110.31
613.618	99.31
613.826	95.31
614.034	100.31
614.242	111.31
614.449	102.31
614.657	95.31
614.865	88.31
615.072	108.31
615.28	107.31
615.488	98.31
615.695	97.31
615.903	91.31
616.111	98.31
616.318	109.31
616.526	100.31
616.733	97.31
616.941	86.31
617.148	105.31
617.356	105.31
617.563	92.31
617.771	99.31
617.978	94.31
618.185	79.31
618.393	100.31
618.6	101.31
618.807	101.31
619.015	90.31
619.222	80.31
619.429	97.31
619.637	90.31
619.844	93.31
620.051	92.31
620.258	89.31
620.466	88.31
620.673	104.31
620.88	93.31
621.087	92.31
621.294	98.31
621.501	103.31
621.708	103.31
621.915	85.31
622.122	88.31
622.329	87.31
622.536	90.31
622.743	89.31
622.95	86.31
623.157	93.31
623.364	97.31
623.571	96.31
623.778	97.31
623.985	94.31
624.192	97.31
624.399	79.31
624.606	80.31
624.812	93.31
625.019	97.31
625.226	96.31
625.433	89.31
625.639	87.31
625.846	90.31
626.053	87.31
626.259	90.31
626.466	104.31
626.673	104.31
626.879	75.31
627.086	96.31
627.293	100.31
627.499	89.31
627.706	106.31
627.912	93.31
628.119	93.31
628.325	102.31
628.532	88.31
628.738	87.31
628.945	83.31
629.151	89.31
629.357	93.31
629.564	95.31
629.77	74.31
629.976	92.31
630.183	92.31
630.389	94.31
630.595	87.31
630.802	98.31
631.008	101.31
631.214	95.31
631.42	97.31
631.627	86.31
631.833	96.31
632.039	100.31
632.245	92.31
632.451	93.31
632.657	92.31
632.863	91.31
633.069	89.31
633.275	94.31
633.481	95.31
633.688	91.31
633.893	101.31
634.099	108.31
634.305	99.31
634.511	97.31
634.717	90.31
634.923	86.31
635.129	84.31
635.335	102.31
635.541	93.31
635.747	87.31
635.952	97.31
636.158	91.31
636.364	86.31
636.57	86.31
636.775	97.31
636.981	94.31
637.187	91.31
637.392	105.31
637.598	90.31
637.804	92.31
638.009	85.31
638.215	88.31
638.421	94.31
638.626	99.31
638.832	97.31
639.037	106.31
639.243	88.31
639.448	93.31
639.654	106.31
639.859	95.31
640.065	83.31
640.27	85.31
640.475	101.31
640.681	85.31
640.886	75.31
641.091	85.31
641.297	89.31
641.502	97.31
641.707	90.31
641.913	95.31
642.118	97.31
642.323	84.31
642.528	87.31
642.733	84.31
642.939	105.31
643.144	91.31
643.349	100.31
643.554	98.31
643.759	88.31
643.964	88.31
644.169	97.31
644.374	96.31
644.579	89.31
644.784	96.31
644.989	82.31
645.194	93.31
645.399	90.31
645.604	92.31
645.809	79.31
646.014	84.31
646.219	95.31
646.423	89.31
646.628	100.31
646.833	85.31
647.038	87.31
647.243	91.31
647.447	92.31
647.652	91.31
647.857	106.31
648.062	82.31
648.266	87.31
648.471	79.31
648.676	79.31
648.88	95.31
649.085	79.31
649.289	95.31
649.494	96.31
649.698	102.31
649.903	93.31
650.107	92.31
650.312	100.31
650.516	98.31
650.721	105.31
650.925	81.31
651.13	87.31
651.334	93.31
651.539	81.31
651.743	82.31
651.947	92.31
652.152	89.31
652.356	84.31
652.56	68.31
652.764	78.31
652.969	72.31
653.173	84.31
653.377	77.31
653.581	89.31
653.785	74.31
653.99	86.31
654.194	95.31
654.398	90.31
654.602	84.31
654.806	90.31
655.01	93.31
655.214	94.31
655.418	83.31
655.622	91.31
655.826	91.31
656.03	94.31
656.234	90.31
656.438	83.31
656.642	82.31
656.846	83.31
657.049	90.31
657.253	101.31
657.457	92.31
657.661	96.31
657.865	94.31
658.068	95.31
658.272	100.31
658.476	89.31
658.68	92.31
658.883	69.31
659.087	91.31
659.291	85.31
659.494	88.31
659.698	94.31
659.901	88.31
660.105	94.31
660.309	91.31
660.512	94.31
660.716	84.31
660.919	86.31
661.123	85.31
661.326	89.31
661.53	87.31
661.733	97.31
661.936	86.31
662.14	86.31
662.343	87.31
662.546	92.31
662.75	83.31
662.953	104.31
663.156	96.31
663.36	76.31
663.563	78.31
663.766	85.31
663.969	91.31
664.173	78.31
664.376	94.31
664.579	97.31
664.782	90.31
664.985	79.31
665.188	86.31
665.391	79.31
665.594	86.31
665.797	74.31
666	90.31
666.203	98.31
666.406	79.31
666.609	83.31
666.812	89.31
667.015	89.31
667.218	83.31
667.421	82.31
667.624	89.31
667.827	90.31
668.03	89.31
668.232	88.31
668.435	83.31
668.638	90.31
668.841	91.31
669.043	86.31
669.246	88.31
669.449	70.31
669.651	83.31
669.854	85.31
670.057	79.31
670.259	89.31
670.462	84.31
670.665	75.31
670.867	99.31
671.07	82.31
671.272	84.31
671.475	105.31
671.677	89.31
671.88	88.31
672.082	93.31
672.284	80.31
672.487	98.31
672.689	88.31
672.892	79.31
