Data from Location5.07152019.Energy5.Lamp.07192019.3%Agarose_HRD10591_15-38-35-388.txt Node
Date: Fri Jul 19 15:38:35 EDT 2019
User: cochatt
Spectrometer: HR+D1059
Trigger mode: 1
Integration Time (sec): 1.000000E-1
Scans to average: 1
Electric dark correction enabled: true
Nonlinearity correction enabled: false
Boxcar width: 0
XAxis mode: Wavelengths
Number of Pixels in Spectrum: 2048
>>>>>Begin Spectral Data<<<<<
223.165	-17.06
223.4	-17.06
223.635	-17.06
223.869	-13.06
224.104	-13.06
224.338	-17.06
224.573	-23.06
224.808	-18.06
225.042	-6.06
225.277	-13.06
225.511	2.94
225.746	6.94
225.98	17.94
226.215	14.94
226.449	12.94
226.683	10.94
226.918	42.94
227.152	10.94
227.387	43.94
227.621	34.94
227.856	47.94
228.09	43.94
228.324	48.94
228.559	75.94
228.793	73.94
229.027	67.94
229.262	53.94
229.496	72.94
229.73	70.94
229.964	60.94
230.199	83.94
230.433	82.94
230.667	82.94
230.901	76.94
231.136	72.94
231.37	90.94
231.604	86.94
231.838	72.94
232.072	93.94
232.306	83.94
232.541	84.94
232.775	85.94
233.009	82.94
233.243	102.94
233.477	99.94
233.711	84.94
233.945	79.94
234.179	87.94
234.413	75.94
234.647	103.94
234.881	91.94
235.115	81.94
235.349	100.94
235.583	92.94
235.817	83.94
236.051	93.94
236.285	90.94
236.519	73.94
236.753	74.94
236.987	66.94
237.221	92.94
237.455	86.94
237.689	80.94
237.922	81.94
238.156	97.94
238.39	98.94
238.624	76.94
238.858	85.94
239.091	66.94
239.325	87.94
239.559	85.94
239.793	93.94
240.027	72.94
240.26	68.94
240.494	76.94
240.728	70.94
240.961	88.94
241.195	87.94
241.429	71.94
241.662	83.94
241.896	59.94
242.13	86.94
242.363	77.94
242.597	79.94
242.83	85.94
243.064	76.94
243.298	73.94
243.531	74.94
243.765	85.94
243.998	92.94
244.232	82.94
244.465	72.94
244.699	83.94
244.932	89.94
245.166	85.94
245.399	78.94
245.633	82.94
245.866	78.94
246.099	77.94
246.333	76.94
246.566	75.94
246.8	95.94
247.033	81.94
247.266	78.94
247.5	83.94
247.733	80.94
247.966	73.94
248.2	82.94
248.433	91.94
248.666	95.94
248.899	86.94
249.133	80.94
249.366	81.94
249.599	85.94
249.832	81.94
250.066	94.94
250.299	86.94
250.532	78.94
250.765	90.94
250.998	74.94
251.231	74.94
251.465	73.94
251.698	84.94
251.931	82.94
252.164	65.94
252.397	77.94
252.63	80.94
252.863	82.94
253.096	94.94
253.329	75.94
253.562	75.94
253.795	71.94
254.028	90.94
254.261	91.94
254.494	83.94
254.727	78.94
254.96	81.94
255.193	88.94
255.426	70.94
255.659	71.94
255.892	95.94
256.124	93.94
256.357	84.94
256.59	79.94
256.823	77.94
257.056	73.94
257.289	98.94
257.521	94.94
257.754	78.94
257.987	78.94
258.22	82.94
258.452	80.94
258.685	76.94
258.918	77.94
259.151	77.94
259.383	82.94
259.616	89.94
259.849	74.94
260.081	82.94
260.314	81.94
260.547	87.94
260.779	85.94
261.012	78.94
261.244	85.94
261.477	92.94
261.71	72.94
261.942	97.94
262.175	80.94
262.407	73.94
262.64	90.94
262.872	89.94
263.105	97.94
263.337	79.94
263.57	82.94
263.802	77.94
264.035	81.94
264.267	94.94
264.499	82.94
264.732	93.94
264.964	88.94
265.197	80.94
265.429	100.94
265.661	87.94
265.894	97.94
266.126	90.94
266.358	71.94
266.591	97.94
266.823	80.94
267.055	86.94
267.287	90.94
267.52	87.94
267.752	91.94
267.984	98.94
268.216	90.94
268.448	99.94
268.681	77.94
268.913	79.94
269.145	79.94
269.377	79.94
269.609	81.94
269.841	78.94
270.073	89.94
270.306	98.94
270.538	82.94
270.77	82.94
271.002	75.94
271.234	82.94
271.466	82.94
271.698	80.94
271.93	73.94
272.162	88.94
272.394	92.94
272.626	77.94
272.858	87.94
273.09	83.94
273.322	82.94
273.553	90.94
273.785	103.94
274.017	70.94
274.249	68.94
274.481	79.94
274.713	83.94
274.945	83.94
275.176	87.94
275.408	75.94
275.64	70.94
275.872	72.94
276.104	84.94
276.335	85.94
276.567	82.94
276.799	94.94
277.031	91.94
277.262	77.94
277.494	94.94
277.726	78.94
277.957	95.94
278.189	93.94
278.421	82.94
278.652	77.94
278.884	91.94
279.115	90.94
279.347	91.94
279.579	88.94
279.81	80.94
280.042	84.94
280.273	69.94
280.505	103.94
280.736	88.94
280.968	98.94
281.199	80.94
281.431	86.94
281.662	90.94
281.894	74.94
282.125	97.94
282.356	88.94
282.588	81.94
282.819	81.94
283.051	82.94
283.282	90.94
283.513	74.94
283.745	67.94
283.976	81.94
284.207	82.94
284.439	87.94
284.67	72.94
284.901	83.94
285.132	85.94
285.364	92.94
285.595	89.94
285.826	97.94
286.057	77.94
286.288	72.94
286.52	84.94
286.751	76.94
286.982	101.94
287.213	92.94
287.444	95.94
287.675	83.94
287.906	85.94
288.138	86.94
288.369	76.94
288.6	73.94
288.831	85.94
289.062	100.94
289.293	99.94
289.524	94.94
289.755	105.94
289.986	83.94
290.217	84.94
290.448	91.94
290.679	95.94
290.91	97.94
291.141	84.94
291.371	84.94
291.602	78.94
291.833	96.94
292.064	92.94
292.295	78.94
292.526	92.94
292.757	81.94
292.987	75.94
293.218	84.94
293.449	94.94
293.68	96.94
293.91	74.94
294.141	99.94
294.372	99.94
294.603	84.94
294.833	93.94
295.064	98.94
295.295	81.94
295.525	76.94
295.756	81.94
295.987	71.94
296.217	86.94
296.448	101.94
296.679	74.94
296.909	98.94
297.14	94.94
297.37	82.94
297.601	92.94
297.831	95.94
298.062	84.94
298.292	97.94
298.523	87.94
298.753	92.94
298.984	93.94
299.214	85.94
299.445	93.94
299.675	90.94
299.905	101.94
300.136	105.94
300.366	93.94
300.597	74.94
300.827	86.94
301.057	66.94
301.288	83.94
301.518	87.94
301.748	87.94
301.979	93.94
302.209	91.94
302.439	86.94
302.669	91.94
302.9	95.94
303.13	80.94
303.36	84.94
303.59	84.94
303.82	84.94
304.051	84.94
304.281	89.94
304.511	87.94
304.741	97.94
304.971	73.94
305.201	85.94
305.431	75.94
305.661	81.94
305.891	87.94
306.121	81.94
306.352	80.94
306.582	94.94
306.812	90.94
307.042	94.94
307.272	86.94
307.502	98.94
307.731	91.94
307.961	88.94
308.191	86.94
308.421	88.94
308.651	94.94
308.881	98.94
309.111	91.94
309.341	72.94
309.571	79.94
309.8	79.94
310.03	73.94
310.26	87.94
310.49	80.94
310.72	93.94
310.949	85.94
311.179	81.94
311.409	73.94
311.639	94.94
311.868	80.94
312.098	73.94
312.328	77.94
312.557	82.94
312.787	89.94
313.017	88.94
313.246	84.94
313.476	86.94
313.706	76.94
313.935	82.94
314.165	77.94
314.394	91.94
314.624	94.94
314.853	101.94
315.083	92.94
315.312	80.94
315.542	91.94
315.771	86.94
316.001	87.94
316.23	92.94
316.46	79.94
316.689	84.94
316.919	88.94
317.148	91.94
317.377	88.94
317.607	84.94
317.836	80.94
318.065	80.94
318.295	87.94
318.524	79.94
318.753	98.94
318.983	87.94
319.212	101.94
319.441	82.94
319.67	83.94
319.9	78.94
320.129	77.94
320.358	70.94
320.587	83.94
320.816	97.94
321.046	79.94
321.275	99.94
321.504	84.94
321.733	101.94
321.962	91.94
322.191	90.94
322.42	82.94
322.649	67.94
322.878	76.94
323.108	76.94
323.337	90.94
323.566	93.94
323.795	86.94
324.024	83.94
324.253	86.94
324.482	78.94
324.71	78.94
324.939	98.94
325.168	91.94
325.397	88.94
325.626	81.94
325.855	78.94
326.084	87.94
326.313	96.94
326.542	71.94
326.77	85.94
326.999	73.94
327.228	78.94
327.457	96.94
327.686	74.94
327.914	84.94
328.143	98.94
328.372	89.94
328.6	100.94
328.829	96.94
329.058	80.94
329.287	84.94
329.515	96.94
329.744	98.94
329.972	77.94
330.201	83.94
330.43	85.94
330.658	79.94
330.887	79.94
331.115	98.94
331.344	85.94
331.572	89.94
331.801	73.94
332.03	93.94
332.258	76.94
332.486	88.94
332.715	95.94
332.943	83.94
333.172	90.94
333.4	89.94
333.629	80.94
333.857	85.94
334.085	89.94
334.314	81.94
334.542	84.94
334.771	103.94
334.999	91.94
335.227	87.94
335.455	92.94
335.684	101.94
335.912	94.94
336.14	90.94
336.369	96.94
336.597	87.94
336.825	79.94
337.053	85.94
337.281	84.94
337.51	84.94
337.738	101.94
337.966	86.94
338.194	78.94
338.422	75.94
338.65	79.94
338.878	79.94
339.106	93.94
339.334	91.94
339.562	92.94
339.79	86.94
340.018	87.94
340.246	73.94
340.474	89.94
340.702	83.94
340.93	78.94
341.158	81.94
341.386	92.94
341.614	81.94
341.842	85.94
342.07	98.94
342.298	92.94
342.526	84.94
342.754	76.94
342.981	81.94
343.209	78.94
343.437	82.94
343.665	84.94
343.893	97.94
344.12	78.94
344.348	73.94
344.576	92.94
344.804	74.94
345.031	89.94
345.259	86.94
345.487	73.94
345.714	85.94
345.942	85.94
346.17	93.94
346.397	85.94
346.625	99.94
346.853	75.94
347.08	84.94
347.308	89.94
347.535	72.94
347.763	91.94
347.99	92.94
348.218	80.94
348.445	86.94
348.673	95.94
348.9	84.94
349.128	83.94
349.355	79.94
349.583	93.94
349.81	79.94
350.037	76.94
350.265	99.94
350.492	76.94
350.72	75.94
350.947	90.94
351.174	84.94
351.402	81.94
351.629	86.94
351.856	78.94
352.083	92.94
352.311	85.94
352.538	90.94
352.765	80.94
352.992	77.94
353.22	99.94
353.447	85.94
353.674	88.94
353.901	93.94
354.128	71.94
354.355	92.94
354.583	85.94
354.81	89.94
355.037	84.94
355.264	82.94
355.491	86.94
355.718	85.94
355.945	66.94
356.172	69.94
356.399	70.94
356.626	96.94
356.853	79.94
357.08	67.94
357.307	81.94
357.534	74.94
357.761	91.94
357.988	90.94
358.215	84.94
358.441	77.94
358.668	75.94
358.895	79.94
359.122	78.94
359.349	77.94
359.576	79.94
359.802	91.94
360.029	88.94
360.256	82.94
360.483	87.94
360.709	87.94
360.936	93.94
361.163	80.94
361.39	83.94
361.616	79.94
361.843	92.94
362.07	93.94
362.296	78.94
362.523	81.94
362.749	79.94
362.976	102.94
363.203	86.94
363.429	76.94
363.656	88.94
363.882	78.94
364.109	84.94
364.335	85.94
364.562	84.94
364.788	83.94
365.015	75.94
365.241	91.94
365.468	92.94
365.694	79.94
365.92	93.94
366.147	81.94
366.373	94.94
366.599	86.94
366.826	69.94
367.052	87.94
367.278	86.94
367.505	91.94
367.731	93.94
367.957	72.94
368.184	66.94
368.41	87.94
368.636	88.94
368.862	73.94
369.089	94.94
369.315	83.94
369.541	88.94
369.767	83.94
369.993	76.94
370.219	82.94
370.445	93.94
370.672	78.94
370.898	95.94
371.124	88.94
371.35	86.94
371.576	79.94
371.802	81.94
372.028	85.94
372.254	81.94
372.48	88.94
372.706	74.94
372.932	86.94
373.158	91.94
373.384	106.94
373.61	95.94
373.835	90.94
374.061	77.94
374.287	86.94
374.513	91.94
374.739	91.94
374.965	77.94
375.191	82.94
375.416	94.94
375.642	86.94
375.868	79.94
376.094	80.94
376.319	78.94
376.545	104.94
376.771	90.94
376.997	87.94
377.222	77.94
377.448	88.94
377.674	98.94
377.899	94.94
378.125	78.94
378.35	77.94
378.576	86.94
378.802	91.94
379.027	92.94
379.253	78.94
379.478	91.94
379.704	95.94
379.929	86.94
380.155	89.94
380.38	86.94
380.606	87.94
380.831	98.94
381.057	93.94
381.282	87.94
381.507	84.94
381.733	75.94
381.958	87.94
382.184	79.94
382.409	87.94
382.634	81.94
382.86	88.94
383.085	92.94
383.31	86.94
383.535	79.94
383.761	96.94
383.986	65.94
384.211	85.94
384.436	87.94
384.662	78.94
384.887	94.94
385.112	83.94
385.337	88.94
385.562	89.94
385.787	68.94
386.013	101.94
386.238	92.94
386.463	81.94
386.688	92.94
386.913	77.94
387.138	81.94
387.363	84.94
387.588	93.94
387.813	100.94
388.038	91.94
388.263	107.94
388.488	86.94
388.713	94.94
388.938	90.94
389.163	92.94
389.387	85.94
389.612	74.94
389.837	86.94
390.062	91.94
390.287	92.94
390.512	72.94
390.736	83.94
390.961	86.94
391.186	85.94
391.411	82.94
391.636	86.94
391.86	91.94
392.085	83.94
392.31	97.94
392.534	95.94
392.759	98.94
392.984	97.94
393.208	68.94
393.433	95.94
393.658	95.94
393.882	68.94
394.107	94.94
394.331	90.94
394.556	84.94
394.78	74.94
395.005	89.94
395.229	90.94
395.454	94.94
395.678	89.94
395.903	79.94
396.127	84.94
396.352	85.94
396.576	71.94
396.801	86.94
397.025	81.94
397.249	81.94
397.474	94.94
397.698	86.94
397.922	82.94
398.147	74.94
398.371	96.94
398.595	89.94
398.82	90.94
399.044	77.94
399.268	86.94
399.492	91.94
399.717	97.94
399.941	95.94
400.165	73.94
400.389	90.94
400.613	79.94
400.837	104.94
401.062	80.94
401.286	84.94
401.51	82.94
401.734	90.94
401.958	78.94
402.182	89.94
402.406	79.94
402.63	91.94
402.854	93.94
403.078	91.94
403.302	91.94
403.526	111.94
403.75	92.94
403.974	92.94
404.198	86.94
404.422	99.94
404.645	86.94
404.869	90.94
405.093	99.94
405.317	89.94
405.541	96.94
405.765	93.94
405.988	87.94
406.212	86.94
406.436	94.94
406.66	95.94
406.883	85.94
407.107	105.94
407.331	81.94
407.555	91.94
407.778	83.94
408.002	81.94
408.226	74.94
408.449	99.94
408.673	95.94
408.896	92.94
409.12	92.94
409.344	91.94
409.567	88.94
409.791	105.94
410.014	99.94
410.238	91.94
410.461	93.94
410.685	90.94
410.908	77.94
411.132	79.94
411.355	95.94
411.578	90.94
411.802	99.94
412.025	101.94
412.249	104.94
412.472	94.94
412.695	85.94
412.919	90.94
413.142	84.94
413.365	79.94
413.589	97.94
413.812	91.94
414.035	99.94
414.258	94.94
414.482	88.94
414.705	97.94
414.928	99.94
415.151	90.94
415.374	77.94
415.597	81.94
415.821	91.94
416.044	94.94
416.267	113.94
416.49	85.94
416.713	94.94
416.936	88.94
417.159	85.94
417.382	90.94
417.605	93.94
417.828	84.94
418.051	101.94
418.274	91.94
418.497	79.94
418.72	93.94
418.943	103.94
419.166	92.94
419.389	79.94
419.611	89.94
419.834	88.94
420.057	95.94
420.28	100.94
420.503	91.94
420.726	101.94
420.948	92.94
421.171	81.94
421.394	74.94
421.617	85.94
421.839	93.94
422.062	103.94
422.285	94.94
422.507	84.94
422.73	96.94
422.953	90.94
423.175	97.94
423.398	86.94
423.621	85.94
423.843	87.94
424.066	107.94
424.288	82.94
424.511	94.94
424.733	107.94
424.956	102.94
425.178	94.94
425.401	100.94
425.623	88.94
425.846	88.94
426.068	93.94
426.291	98.94
426.513	88.94
426.735	102.94
426.958	94.94
427.18	90.94
427.402	99.94
427.625	84.94
427.847	91.94
428.069	76.94
428.292	105.94
428.514	90.94
428.736	87.94
428.958	86.94
429.181	93.94
429.403	93.94
429.625	85.94
429.847	100.94
430.069	90.94
430.292	114.94
430.514	102.94
430.736	94.94
430.958	87.94
431.18	88.94
431.402	87.94
431.624	93.94
431.846	95.94
432.068	77.94
432.29	97.94
432.512	78.94
432.734	87.94
432.956	98.94
433.178	100.94
433.4	90.94
433.622	93.94
433.844	105.94
434.066	105.94
434.287	90.94
434.509	92.94
434.731	100.94
434.953	86.94
435.175	102.94
435.397	95.94
435.618	85.94
435.84	85.94
436.062	95.94
436.284	88.94
436.505	94.94
436.727	86.94
436.949	101.94
437.17	93.94
437.392	73.94
437.614	96.94
437.835	92.94
438.057	101.94
438.278	93.94
438.5	90.94
438.721	107.94
438.943	106.94
439.165	95.94
439.386	105.94
439.608	95.94
439.829	89.94
440.05	102.94
440.272	97.94
440.493	112.94
440.715	94.94
440.936	93.94
441.158	96.94
441.379	90.94
441.6	103.94
441.822	83.94
442.043	92.94
442.264	89.94
442.486	92.94
442.707	107.94
442.928	94.94
443.149	89.94
443.371	86.94
443.592	104.94
443.813	92.94
444.034	107.94
444.255	112.94
444.476	101.94
444.698	82.94
444.919	96.94
445.14	211.94
445.361	138.94
445.582	103.94
445.803	81.94
446.024	94.94
446.245	101.94
446.466	97.94
446.687	111.94
446.908	106.94
447.129	90.94
447.35	113.94
447.571	93.94
447.792	100.94
448.013	98.94
448.234	89.94
448.455	87.94
448.675	97.94
448.896	106.94
449.117	91.94
449.338	91.94
449.559	94.94
449.779	88.94
450	94.94
450.221	103.94
450.442	93.94
450.662	89.94
450.883	80.94
451.104	82.94
451.324	98.94
451.545	87.94
451.766	103.94
451.986	90.94
452.207	92.94
452.428	95.94
452.648	92.94
452.869	93.94
453.089	89.94
453.31	86.94
453.53	85.94
453.751	71.94
453.971	88.94
454.192	69.94
454.412	83.94
454.633	85.94
454.853	83.94
455.073	85.94
455.294	89.94
455.514	93.94
455.734	90.94
455.955	84.94
456.175	109.94
456.395	78.94
456.616	79.94
456.836	86.94
457.056	103.94
457.276	81.94
457.497	94.94
457.717	88.94
457.937	80.94
458.157	96.94
458.377	88.94
458.598	77.94
458.818	70.94
459.038	77.94
459.258	82.94
459.478	79.94
459.698	94.94
459.918	85.94
460.138	89.94
460.358	83.94
460.578	106.94
460.798	83.94
461.018	87.94
461.238	102.94
461.458	99.94
461.678	95.94
461.898	83.94
462.118	92.94
462.338	84.94
462.558	107.94
462.777	100.94
462.997	79.94
463.217	83.94
463.437	101.94
463.657	91.94
463.876	89.94
464.096	93.94
464.316	86.94
464.536	88.94
464.755	90.94
464.975	93.94
465.195	88.94
465.414	87.94
465.634	92.94
465.854	87.94
466.073	93.94
466.293	91.94
466.512	86.94
466.732	96.94
466.951	97.94
467.171	84.94
467.391	83.94
467.61	79.94
467.829	92.94
468.049	91.94
468.268	110.94
468.488	98.94
468.707	104.94
468.927	86.94
469.146	97.94
469.365	106.94
469.585	101.94
469.804	114.94
470.023	104.94
470.243	95.94
470.462	84.94
470.681	94.94
470.901	93.94
471.12	92.94
471.339	102.94
471.558	87.94
471.777	97.94
471.997	99.94
472.216	107.94
472.435	100.94
472.654	91.94
472.873	91.94
473.092	92.94
473.311	102.94
473.53	89.94
473.749	94.94
473.968	92.94
474.187	95.94
474.406	88.94
474.625	94.94
474.844	87.94
475.063	91.94
475.282	107.94
475.501	93.94
475.72	101.94
475.939	94.94
476.158	82.94
476.377	83.94
476.596	94.94
476.814	86.94
477.033	86.94
477.252	88.94
477.471	95.94
477.69	106.94
477.908	108.94
478.127	110.94
478.346	109.94
478.564	106.94
478.783	105.94
479.002	85.94
479.22	97.94
479.439	92.94
479.658	94.94
479.876	84.94
480.095	90.94
480.313	78.94
480.532	80.94
480.751	94.94
480.969	99.94
481.188	93.94
481.406	83.94
481.624	96.94
481.843	94.94
482.061	100.94
482.28	97.94
482.498	92.94
482.717	89.94
482.935	93.94
483.153	110.94
483.372	90.94
483.59	101.94
483.808	97.94
484.027	93.94
484.245	95.94
484.463	94.94
484.681	105.94
484.9	95.94
485.118	86.94
485.336	91.94
485.554	83.94
485.772	97.94
485.99	87.94
486.209	89.94
486.427	92.94
486.645	101.94
486.863	88.94
487.081	90.94
487.299	94.94
487.517	99.94
487.735	121.94
487.953	118.94
488.171	108.94
488.389	108.94
488.607	98.94
488.825	94.94
489.043	97.94
489.261	108.94
489.479	104.94
489.696	100.94
489.914	100.94
490.132	96.94
490.35	105.94
490.568	108.94
490.786	117.94
491.003	100.94
491.221	110.94
491.439	118.94
491.657	123.94
491.874	116.94
492.092	116.94
492.31	130.94
492.527	118.94
492.745	107.94
492.963	118.94
493.18	97.94
493.398	107.94
493.615	102.94
493.833	110.94
494.05	110.94
494.268	114.94
494.485	106.94
494.703	124.94
494.92	109.94
495.138	110.94
495.355	100.94
495.573	82.94
495.79	98.94
496.008	126.94
496.225	111.94
496.442	109.94
496.66	119.94
496.877	111.94
497.094	115.94
497.312	118.94
497.529	110.94
497.746	102.94
497.963	92.94
498.181	102.94
498.398	95.94
498.615	89.94
498.832	99.94
499.049	91.94
499.267	86.94
499.484	87.94
499.701	96.94
499.918	104.94
500.135	102.94
500.352	97.94
500.569	103.94
500.786	112.94
501.003	99.94
501.22	107.94
501.437	101.94
501.654	102.94
501.871	100.94
502.088	100.94
502.305	81.94
502.522	85.94
502.739	87.94
502.956	106.94
503.172	78.94
503.389	86.94
503.606	80.94
503.823	106.94
504.04	99.94
504.256	95.94
504.473	96.94
504.69	86.94
504.907	104.94
505.123	91.94
505.34	100.94
505.557	98.94
505.773	87.94
505.99	82.94
506.207	91.94
506.423	88.94
506.64	101.94
506.856	107.94
507.073	90.94
507.289	92.94
507.506	83.94
507.722	98.94
507.939	94.94
508.155	90.94
508.372	82.94
508.588	85.94
508.805	92.94
509.021	97.94
509.238	92.94
509.454	85.94
509.67	90.94
509.887	72.94
510.103	86.94
510.319	109.94
510.536	84.94
510.752	86.94
510.968	96.94
511.184	85.94
511.401	92.94
511.617	103.94
511.833	106.94
512.049	81.94
512.265	76.94
512.481	93.94
512.698	91.94
512.914	85.94
513.13	93.94
513.346	74.94
513.562	86.94
513.778	107.94
513.994	96.94
514.21	74.94
514.426	89.94
514.642	88.94
514.858	78.94
515.074	101.94
515.29	85.94
515.506	76.94
515.721	73.94
515.937	84.94
516.153	82.94
516.369	98.94
516.585	89.94
516.801	84.94
517.016	99.94
517.232	74.94
517.448	81.94
517.664	76.94
517.879	85.94
518.095	85.94
518.311	95.94
518.527	104.94
518.742	93.94
518.958	91.94
519.173	101.94
519.389	102.94
519.605	98.94
519.82	97.94
520.036	82.94
520.251	93.94
520.467	85.94
520.682	91.94
520.898	82.94
521.113	62.94
521.329	78.94
521.544	90.94
521.76	105.94
521.975	101.94
522.19	95.94
522.406	91.94
522.621	103.94
522.836	89.94
523.052	86.94
523.267	82.94
523.482	88.94
523.698	72.94
523.913	89.94
524.128	88.94
524.343	87.94
524.559	103.94
524.774	100.94
524.989	94.94
525.204	98.94
525.419	93.94
525.634	87.94
525.849	92.94
526.064	86.94
526.28	92.94
526.495	79.94
526.71	88.94
526.925	98.94
527.14	68.94
527.355	80.94
527.57	90.94
527.785	90.94
527.999	97.94
528.214	80.94
528.429	102.94
528.644	99.94
528.859	96.94
529.074	95.94
529.289	113.94
529.503	112.94
529.718	92.94
529.933	78.94
530.148	83.94
530.363	96.94
530.577	93.94
530.792	91.94
531.007	86.94
531.221	79.94
531.436	84.94
531.651	79.94
531.865	97.94
532.08	90.94
532.295	86.94
532.509	87.94
532.724	94.94
532.938	76.94
533.153	86.94
533.367	81.94
533.582	103.94
533.796	99.94
534.011	98.94
534.225	78.94
534.44	79.94
534.654	79.94
534.868	91.94
535.083	102.94
535.297	87.94
535.511	84.94
535.726	97.94
535.94	62.94
536.154	88.94
536.369	89.94
536.583	95.94
536.797	98.94
537.011	93.94
537.225	87.94
537.44	97.94
537.654	93.94
537.868	82.94
538.082	90.94
538.296	101.94
538.51	80.94
538.724	101.94
538.938	98.94
539.153	105.94
539.367	94.94
539.581	91.94
539.795	85.94
540.009	102.94
540.222	98.94
540.436	94.94
540.65	108.94
540.864	105.94
541.078	95.94
541.292	93.94
541.506	114.94
541.72	117.94
541.934	119.94
542.147	104.94
542.361	108.94
542.575	98.94
542.789	98.94
543.002	92.94
543.216	95.94
543.43	92.94
543.644	103.94
543.857	108.94
544.071	102.94
544.285	101.94
544.498	92.94
544.712	99.94
544.925	115.94
545.139	103.94
545.352	100.94
545.566	122.94
545.779	110.94
545.993	119.94
546.206	114.94
546.42	114.94
546.633	108.94
546.847	121.94
547.06	117.94
547.274	114.94
547.487	118.94
547.7	115.94
547.914	104.94
548.127	116.94
548.34	101.94
548.554	115.94
548.767	121.94
548.98	107.94
549.193	111.94
549.407	103.94
549.62	94.94
549.833	102.94
550.046	98.94
550.259	105.94
550.473	117.94
550.686	97.94
550.899	103.94
551.112	99.94
551.325	111.94
551.538	106.94
551.751	105.94
551.964	95.94
552.177	97.94
552.39	106.94
552.603	105.94
552.816	104.94
553.029	112.94
553.242	100.94
553.455	125.94
553.667	118.94
553.88	106.94
554.093	98.94
554.306	105.94
554.519	106.94
554.732	114.94
554.944	113.94
555.157	102.94
555.37	108.94
555.583	102.94
555.795	106.94
556.008	94.94
556.221	105.94
556.433	105.94
556.646	104.94
556.859	111.94
557.071	111.94
557.284	102.94
557.496	99.94
557.709	113.94
557.921	106.94
558.134	99.94
558.346	114.94
558.559	105.94
558.771	104.94
558.984	105.94
559.196	112.94
559.409	97.94
559.621	82.94
559.833	94.94
560.046	101.94
560.258	104.94
560.47	89.94
560.683	97.94
560.895	72.94
561.107	93.94
561.32	89.94
561.532	113.94
561.744	113.94
561.956	108.94
562.168	109.94
562.381	102.94
562.593	87.94
562.805	95.94
563.017	100.94
563.229	102.94
563.441	88.94
563.653	105.94
563.865	93.94
564.077	99.94
564.289	93.94
564.501	103.94
564.713	90.94
564.925	97.94
565.137	99.94
565.349	87.94
565.561	79.94
565.773	87.94
565.985	97.94
566.197	96.94
566.408	101.94
566.62	98.94
566.832	99.94
567.044	93.94
567.255	92.94
567.467	94.94
567.679	95.94
567.891	103.94
568.102	96.94
568.314	97.94
568.526	88.94
568.737	89.94
568.949	91.94
569.161	89.94
569.372	93.94
569.584	88.94
569.795	94.94
570.007	77.94
570.218	84.94
570.43	94.94
570.641	96.94
570.853	82.94
571.064	95.94
571.276	83.94
571.487	86.94
571.698	82.94
571.91	89.94
572.121	70.94
572.333	97.94
572.544	78.94
572.755	89.94
572.966	94.94
573.178	95.94
573.389	94.94
573.6	94.94
573.811	84.94
574.023	77.94
574.234	87.94
574.445	90.94
574.656	97.94
574.867	100.94
575.078	87.94
575.289	97.94
575.501	92.94
575.712	82.94
575.923	97.94
576.134	88.94
576.345	78.94
576.556	91.94
576.767	100.94
576.978	93.94
577.188	89.94
577.399	89.94
577.61	99.94
577.821	100.94
578.032	81.94
578.243	92.94
578.454	97.94
578.665	99.94
578.875	77.94
579.086	89.94
579.297	89.94
579.508	98.94
579.718	86.94
579.929	82.94
580.14	86.94
580.35	86.94
580.561	97.94
580.772	91.94
580.982	77.94
581.193	87.94
581.403	104.94
581.614	80.94
581.825	92.94
582.035	86.94
582.246	93.94
582.456	86.94
582.667	100.94
582.877	84.94
583.087	82.94
583.298	76.94
583.508	77.94
583.719	103.94
583.929	102.94
584.139	85.94
584.35	82.94
584.56	94.94
584.77	87.94
584.981	93.94
585.191	83.94
585.401	96.94
585.611	92.94
585.821	92.94
586.032	90.94
586.242	90.94
586.452	91.94
586.662	93.94
586.872	79.94
587.082	82.94
587.292	72.94
587.502	90.94
587.713	87.94
587.923	82.94
588.133	89.94
588.343	82.94
588.553	88.94
588.762	94.94
588.972	83.94
589.182	94.94
589.392	98.94
589.602	85.94
589.812	77.94
590.022	88.94
590.232	84.94
590.441	92.94
590.651	89.94
590.861	83.94
591.071	85.94
591.281	96.94
591.49	93.94
591.7	85.94
591.91	85.94
592.119	96.94
592.329	96.94
592.539	83.94
592.748	99.94
592.958	84.94
593.167	83.94
593.377	85.94
593.587	103.94
593.796	85.94
594.006	110.94
594.215	74.94
594.424	85.94
594.634	94.94
594.843	72.94
595.053	94.94
595.262	86.94
595.472	100.94
595.681	78.94
595.89	86.94
596.1	93.94
596.309	101.94
596.518	98.94
596.727	87.94
596.937	91.94
597.146	96.94
597.355	93.94
597.564	81.94
597.774	88.94
597.983	94.94
598.192	104.94
598.401	101.94
598.61	83.94
598.819	80.94
599.028	90.94
599.237	89.94
599.446	99.94
599.655	97.94
599.864	85.94
600.073	98.94
600.282	79.94
600.491	93.94
600.7	85.94
600.909	99.94
601.118	98.94
601.327	101.94
601.536	94.94
601.745	87.94
601.953	104.94
602.162	90.94
602.371	87.94
602.58	94.94
602.789	91.94
602.997	91.94
603.206	91.94
603.415	86.94
603.623	88.94
603.832	106.94
604.041	98.94
604.249	84.94
604.458	95.94
604.666	92.94
604.875	97.94
605.084	74.94
605.292	90.94
605.501	95.94
605.709	79.94
605.918	95.94
606.126	87.94
606.334	92.94
606.543	90.94
606.751	85.94
606.96	94.94
607.168	100.94
607.376	91.94
607.585	90.94
607.793	98.94
608.001	99.94
608.21	100.94
608.418	95.94
608.626	86.94
608.834	83.94
609.043	100.94
609.251	96.94
609.459	92.94
609.667	95.94
609.875	89.94
610.083	83.94
610.291	100.94
610.499	115.94
610.707	98.94
610.916	87.94
611.124	105.94
611.332	83.94
611.54	92.94
611.748	93.94
611.955	100.94
612.163	89.94
612.371	91.94
612.579	98.94
612.787	105.94
612.995	93.94
613.203	100.94
613.411	79.94
613.618	100.94
613.826	88.94
614.034	93.94
614.242	105.94
614.449	108.94
614.657	92.94
614.865	92.94
615.072	92.94
615.28	100.94
615.488	100.94
615.695	100.94
615.903	106.94
616.111	80.94
616.318	90.94
616.526	98.94
616.733	101.94
616.941	89.94
617.148	94.94
617.356	96.94
617.563	92.94
617.771	97.94
617.978	97.94
618.185	89.94
618.393	104.94
618.6	88.94
618.807	92.94
619.015	104.94
619.222	98.94
619.429	94.94
619.637	83.94
619.844	90.94
620.051	93.94
620.258	91.94
620.466	94.94
620.673	97.94
620.88	93.94
621.087	101.94
621.294	81.94
621.501	96.94
621.708	91.94
621.915	81.94
622.122	92.94
622.329	91.94
622.536	82.94
622.743	94.94
622.95	94.94
623.157	103.94
623.364	88.94
623.571	97.94
623.778	97.94
623.985	99.94
624.192	89.94
624.399	92.94
624.606	90.94
624.812	94.94
625.019	81.94
625.226	103.94
625.433	90.94
625.639	99.94
625.846	98.94
626.053	92.94
626.259	85.94
626.466	84.94
626.673	103.94
626.879	93.94
627.086	99.94
627.293	93.94
627.499	89.94
627.706	93.94
627.912	84.94
628.119	99.94
628.325	87.94
628.532	97.94
628.738	92.94
628.945	79.94
629.151	83.94
629.357	102.94
629.564	97.94
629.77	92.94
629.976	92.94
630.183	102.94
630.389	104.94
630.595	84.94
630.802	89.94
631.008	88.94
631.214	91.94
631.42	81.94
631.627	91.94
631.833	93.94
632.039	100.94
632.245	80.94
632.451	92.94
632.657	99.94
632.863	84.94
633.069	89.94
633.275	95.94
633.481	92.94
633.688	88.94
633.893	86.94
634.099	93.94
634.305	92.94
634.511	93.94
634.717	90.94
634.923	94.94
635.129	91.94
635.335	102.94
635.541	88.94
635.747	91.94
635.952	91.94
636.158	84.94
636.364	98.94
636.57	86.94
636.775	102.94
636.981	102.94
637.187	90.94
637.392	94.94
637.598	95.94
637.804	99.94
638.009	86.94
638.215	93.94
638.421	97.94
638.626	88.94
638.832	97.94
639.037	83.94
639.243	96.94
639.448	93.94
639.654	95.94
639.859	98.94
640.065	85.94
640.27	84.94
640.475	88.94
640.681	86.94
640.886	91.94
641.091	96.94
641.297	99.94
641.502	79.94
641.707	105.94
641.913	89.94
642.118	95.94
642.323	82.94
642.528	94.94
642.733	85.94
642.939	85.94
643.144	86.94
643.349	93.94
643.554	97.94
643.759	97.94
643.964	89.94
644.169	82.94
644.374	83.94
644.579	85.94
644.784	77.94
644.989	76.94
645.194	84.94
645.399	86.94
645.604	75.94
645.809	99.94
646.014	88.94
646.219	93.94
646.423	74.94
646.628	107.94
646.833	94.94
647.038	93.94
647.243	84.94
647.447	74.94
647.652	97.94
647.857	88.94
648.062	84.94
648.266	82.94
648.471	83.94
648.676	91.94
648.88	86.94
649.085	90.94
649.289	82.94
649.494	83.94
649.698	83.94
649.903	86.94
650.107	84.94
650.312	86.94
650.516	99.94
650.721	98.94
650.925	91.94
651.13	83.94
651.334	81.94
651.539	81.94
651.743	76.94
651.947	91.94
652.152	78.94
652.356	83.94
652.56	100.94
652.764	85.94
652.969	104.94
653.173	81.94
653.377	93.94
653.581	85.94
653.785	72.94
653.99	100.94
654.194	97.94
654.398	87.94
654.602	83.94
654.806	83.94
655.01	89.94
655.214	98.94
655.418	88.94
655.622	95.94
655.826	86.94
656.03	94.94
656.234	92.94
656.438	87.94
656.642	98.94
656.846	79.94
657.049	84.94
657.253	89.94
657.457	77.94
657.661	80.94
657.865	81.94
658.068	89.94
658.272	86.94
658.476	88.94
658.68	88.94
658.883	91.94
659.087	88.94
659.291	96.94
659.494	83.94
659.698	95.94
659.901	79.94
660.105	85.94
660.309	91.94
660.512	94.94
660.716	79.94
660.919	90.94
661.123	103.94
661.326	75.94
661.53	88.94
661.733	84.94
661.936	85.94
662.14	84.94
662.343	84.94
662.546	89.94
662.75	89.94
662.953	85.94
663.156	85.94
663.36	89.94
663.563	70.94
663.766	88.94
663.969	94.94
664.173	90.94
664.376	83.94
664.579	77.94
664.782	87.94
664.985	81.94
665.188	84.94
665.391	76.94
665.594	73.94
665.797	86.94
666	85.94
666.203	92.94
666.406	89.94
666.609	81.94
666.812	86.94
667.015	89.94
667.218	89.94
667.421	84.94
667.624	85.94
667.827	76.94
668.03	90.94
668.232	69.94
668.435	91.94
668.638	86.94
668.841	100.94
669.043	94.94
669.246	71.94
669.449	65.94
669.651	80.94
669.854	78.94
670.057	70.94
670.259	94.94
670.462	89.94
670.665	91.94
670.867	86.94
671.07	88.94
671.272	82.94
671.475	91.94
671.677	71.94
671.88	90.94
672.082	85.94
672.284	82.94
672.487	86.94
672.689	88.94
672.892	90.94
