Data from Location5.07152019.Energy5.Lamp.07192019.3%Agarose_HRD10591_16-04-18-629.txt Node
Date: Fri Jul 19 16:04:18 EDT 2019
User: cochatt
Spectrometer: HR+D1059
Trigger mode: 1
Integration Time (sec): 1.000000E-1
Scans to average: 1
Electric dark correction enabled: true
Nonlinearity correction enabled: false
Boxcar width: 0
XAxis mode: Wavelengths
Number of Pixels in Spectrum: 2048
>>>>>Begin Spectral Data<<<<<
223.165	-16.12
223.4	-16.12
223.635	-16.12
223.869	-22.12
224.104	-25.12
224.338	-25.12
224.573	-14.12
224.808	-25.12
225.042	-6.12
225.277	-14.12
225.511	3.88
225.746	9.88
225.98	16.88
226.215	12.88
226.449	19.88
226.683	20.88
226.918	29.88
227.152	33.88
227.387	29.88
227.621	39.88
227.856	45.88
228.09	47.88
228.324	51.88
228.559	38.88
228.793	59.88
229.027	54.88
229.262	54.88
229.496	59.88
229.73	72.88
229.964	80.88
230.199	68.88
230.433	67.88
230.667	65.88
230.901	67.88
231.136	66.88
231.37	79.88
231.604	73.88
231.838	83.88
232.072	80.88
232.306	94.88
232.541	69.88
232.775	81.88
233.009	87.88
233.243	89.88
233.477	81.88
233.711	76.88
233.945	89.88
234.179	66.88
234.413	82.88
234.647	73.88
234.881	85.88
235.115	88.88
235.349	79.88
235.583	82.88
235.817	82.88
236.051	77.88
236.285	71.88
236.519	83.88
236.753	71.88
236.987	82.88
237.221	83.88
237.455	74.88
237.689	87.88
237.922	77.88
238.156	71.88
238.39	82.88
238.624	85.88
238.858	77.88
239.091	83.88
239.325	80.88
239.559	61.88
239.793	83.88
240.027	70.88
240.26	67.88
240.494	78.88
240.728	81.88
240.961	83.88
241.195	79.88
241.429	78.88
241.662	73.88
241.896	70.88
242.13	82.88
242.363	66.88
242.597	91.88
242.83	78.88
243.064	71.88
243.298	62.88
243.531	73.88
243.765	79.88
243.998	68.88
244.232	72.88
244.465	73.88
244.699	84.88
244.932	73.88
245.166	75.88
245.399	72.88
245.633	72.88
245.866	78.88
246.099	76.88
246.333	92.88
246.566	79.88
246.8	63.88
247.033	78.88
247.266	64.88
247.5	73.88
247.733	65.88
247.966	78.88
248.2	71.88
248.433	71.88
248.666	83.88
248.899	81.88
249.133	86.88
249.366	82.88
249.599	72.88
249.832	74.88
250.066	81.88
250.299	72.88
250.532	90.88
250.765	78.88
250.998	81.88
251.231	75.88
251.465	68.88
251.698	82.88
251.931	77.88
252.164	94.88
252.397	97.88
252.63	90.88
252.863	74.88
253.096	97.88
253.329	68.88
253.562	69.88
253.795	80.88
254.028	79.88
254.261	76.88
254.494	73.88
254.727	73.88
254.96	75.88
255.193	88.88
255.426	100.88
255.659	81.88
255.892	83.88
256.124	67.88
256.357	69.88
256.59	82.88
256.823	74.88
257.056	91.88
257.289	83.88
257.521	79.88
257.754	79.88
257.987	90.88
258.22	82.88
258.452	90.88
258.685	80.88
258.918	73.88
259.151	86.88
259.383	82.88
259.616	79.88
259.849	93.88
260.081	84.88
260.314	78.88
260.547	86.88
260.779	75.88
261.012	73.88
261.244	71.88
261.477	83.88
261.71	76.88
261.942	79.88
262.175	82.88
262.407	85.88
262.64	84.88
262.872	92.88
263.105	90.88
263.337	85.88
263.57	76.88
263.802	86.88
264.035	95.88
264.267	79.88
264.499	82.88
264.732	66.88
264.964	86.88
265.197	90.88
265.429	78.88
265.661	72.88
265.894	81.88
266.126	81.88
266.358	83.88
266.591	84.88
266.823	84.88
267.055	86.88
267.287	90.88
267.52	84.88
267.752	75.88
267.984	69.88
268.216	74.88
268.448	95.88
268.681	81.88
268.913	85.88
269.145	83.88
269.377	81.88
269.609	82.88
269.841	81.88
270.073	80.88
270.306	79.88
270.538	96.88
270.77	90.88
271.002	73.88
271.234	90.88
271.466	101.88
271.698	76.88
271.93	84.88
272.162	72.88
272.394	100.88
272.626	88.88
272.858	84.88
273.09	105.88
273.322	93.88
273.553	79.88
273.785	85.88
274.017	77.88
274.249	91.88
274.481	90.88
274.713	74.88
274.945	87.88
275.176	88.88
275.408	69.88
275.64	86.88
275.872	92.88
276.104	79.88
276.335	97.88
276.567	79.88
276.799	86.88
277.031	90.88
277.262	85.88
277.494	88.88
277.726	74.88
277.957	81.88
278.189	89.88
278.421	88.88
278.652	95.88
278.884	81.88
279.115	90.88
279.347	70.88
279.579	87.88
279.81	97.88
280.042	74.88
280.273	82.88
280.505	80.88
280.736	90.88
280.968	84.88
281.199	78.88
281.431	78.88
281.662	80.88
281.894	102.88
282.125	82.88
282.356	82.88
282.588	90.88
282.819	92.88
283.051	96.88
283.282	92.88
283.513	92.88
283.745	97.88
283.976	86.88
284.207	88.88
284.439	82.88
284.67	92.88
284.901	91.88
285.132	78.88
285.364	81.88
285.595	93.88
285.826	76.88
286.057	89.88
286.288	74.88
286.52	84.88
286.751	80.88
286.982	86.88
287.213	98.88
287.444	111.88
287.675	87.88
287.906	90.88
288.138	84.88
288.369	90.88
288.6	89.88
288.831	77.88
289.062	85.88
289.293	85.88
289.524	89.88
289.755	93.88
289.986	78.88
290.217	89.88
290.448	95.88
290.679	86.88
290.91	87.88
291.141	88.88
291.371	88.88
291.602	94.88
291.833	82.88
292.064	96.88
292.295	72.88
292.526	89.88
292.757	85.88
292.987	100.88
293.218	86.88
293.449	88.88
293.68	106.88
293.91	102.88
294.141	79.88
294.372	83.88
294.603	87.88
294.833	99.88
295.064	89.88
295.295	89.88
295.525	90.88
295.756	91.88
295.987	79.88
296.217	78.88
296.448	87.88
296.679	84.88
296.909	79.88
297.14	91.88
297.37	78.88
297.601	95.88
297.831	79.88
298.062	87.88
298.292	93.88
298.523	82.88
298.753	78.88
298.984	87.88
299.214	83.88
299.445	96.88
299.675	90.88
299.905	95.88
300.136	88.88
300.366	87.88
300.597	94.88
300.827	80.88
301.057	100.88
301.288	110.88
301.518	90.88
301.748	84.88
301.979	93.88
302.209	96.88
302.439	98.88
302.669	99.88
302.9	92.88
303.13	89.88
303.36	89.88
303.59	81.88
303.82	83.88
304.051	99.88
304.281	87.88
304.511	98.88
304.741	79.88
304.971	94.88
305.201	85.88
305.431	87.88
305.661	94.88
305.891	90.88
306.121	95.88
306.352	92.88
306.582	98.88
306.812	93.88
307.042	89.88
307.272	87.88
307.502	91.88
307.731	86.88
307.961	85.88
308.191	92.88
308.421	92.88
308.651	86.88
308.881	90.88
309.111	105.88
309.341	90.88
309.571	109.88
309.8	85.88
310.03	92.88
310.26	83.88
310.49	84.88
310.72	83.88
310.949	90.88
311.179	80.88
311.409	99.88
311.639	100.88
311.868	86.88
312.098	85.88
312.328	91.88
312.557	94.88
312.787	80.88
313.017	103.88
313.246	88.88
313.476	85.88
313.706	84.88
313.935	90.88
314.165	97.88
314.394	85.88
314.624	79.88
314.853	94.88
315.083	93.88
315.312	89.88
315.542	84.88
315.771	80.88
316.001	83.88
316.23	100.88
316.46	86.88
316.689	86.88
316.919	87.88
317.148	94.88
317.377	98.88
317.607	99.88
317.836	82.88
318.065	82.88
318.295	83.88
318.524	97.88
318.753	82.88
318.983	84.88
319.212	92.88
319.441	96.88
319.67	91.88
319.9	70.88
320.129	90.88
320.358	84.88
320.587	103.88
320.816	86.88
321.046	95.88
321.275	97.88
321.504	88.88
321.733	92.88
321.962	93.88
322.191	97.88
322.42	80.88
322.649	94.88
322.878	86.88
323.108	88.88
323.337	86.88
323.566	95.88
323.795	85.88
324.024	98.88
324.253	87.88
324.482	86.88
324.71	87.88
324.939	93.88
325.168	98.88
325.397	91.88
325.626	83.88
325.855	84.88
326.084	91.88
326.313	103.88
326.542	94.88
326.77	87.88
326.999	80.88
327.228	82.88
327.457	74.88
327.686	82.88
327.914	102.88
328.143	80.88
328.372	89.88
328.6	99.88
328.829	94.88
329.058	82.88
329.287	85.88
329.515	94.88
329.744	98.88
329.972	103.88
330.201	80.88
330.43	96.88
330.658	94.88
330.887	74.88
331.115	93.88
331.344	90.88
331.572	94.88
331.801	81.88
332.03	99.88
332.258	82.88
332.486	104.88
332.715	104.88
332.943	86.88
333.172	83.88
333.4	98.88
333.629	86.88
333.857	100.88
334.085	89.88
334.314	98.88
334.542	108.88
334.771	82.88
334.999	86.88
335.227	85.88
335.455	94.88
335.684	102.88
335.912	97.88
336.14	75.88
336.369	101.88
336.597	89.88
336.825	95.88
337.053	99.88
337.281	83.88
337.51	107.88
337.738	98.88
337.966	93.88
338.194	86.88
338.422	96.88
338.65	100.88
338.878	79.88
339.106	97.88
339.334	83.88
339.562	81.88
339.79	85.88
340.018	81.88
340.246	96.88
340.474	93.88
340.702	90.88
340.93	88.88
341.158	80.88
341.386	89.88
341.614	101.88
341.842	94.88
342.07	79.88
342.298	106.88
342.526	74.88
342.754	90.88
342.981	86.88
343.209	99.88
343.437	79.88
343.665	96.88
343.893	98.88
344.12	84.88
344.348	94.88
344.576	100.88
344.804	89.88
345.031	96.88
345.259	98.88
345.487	87.88
345.714	94.88
345.942	95.88
346.17	92.88
346.397	84.88
346.625	91.88
346.853	84.88
347.08	73.88
347.308	97.88
347.535	86.88
347.763	79.88
347.99	87.88
348.218	87.88
348.445	100.88
348.673	91.88
348.9	82.88
349.128	80.88
349.355	84.88
349.583	95.88
349.81	93.88
350.037	94.88
350.265	102.88
350.492	89.88
350.72	95.88
350.947	91.88
351.174	87.88
351.402	84.88
351.629	93.88
351.856	101.88
352.083	81.88
352.311	85.88
352.538	90.88
352.765	86.88
352.992	90.88
353.22	90.88
353.447	99.88
353.674	93.88
353.901	91.88
354.128	98.88
354.355	84.88
354.583	85.88
354.81	91.88
355.037	105.88
355.264	95.88
355.491	95.88
355.718	78.88
355.945	77.88
356.172	88.88
356.399	81.88
356.626	82.88
356.853	74.88
357.08	95.88
357.307	98.88
357.534	92.88
357.761	93.88
357.988	94.88
358.215	112.88
358.441	80.88
358.668	83.88
358.895	89.88
359.122	83.88
359.349	78.88
359.576	97.88
359.802	92.88
360.029	85.88
360.256	89.88
360.483	95.88
360.709	77.88
360.936	91.88
361.163	98.88
361.39	86.88
361.616	96.88
361.843	91.88
362.07	98.88
362.296	88.88
362.523	83.88
362.749	91.88
362.976	76.88
363.203	101.88
363.429	81.88
363.656	94.88
363.882	96.88
364.109	84.88
364.335	98.88
364.562	91.88
364.788	91.88
365.015	66.88
365.241	88.88
365.468	93.88
365.694	77.88
365.92	93.88
366.147	89.88
366.373	74.88
366.599	93.88
366.826	81.88
367.052	95.88
367.278	89.88
367.505	83.88
367.731	77.88
367.957	89.88
368.184	86.88
368.41	82.88
368.636	87.88
368.862	94.88
369.089	99.88
369.315	96.88
369.541	83.88
369.767	93.88
369.993	93.88
370.219	82.88
370.445	93.88
370.672	99.88
370.898	80.88
371.124	85.88
371.35	94.88
371.576	82.88
371.802	94.88
372.028	89.88
372.254	90.88
372.48	91.88
372.706	93.88
372.932	91.88
373.158	74.88
373.384	81.88
373.61	101.88
373.835	88.88
374.061	87.88
374.287	99.88
374.513	76.88
374.739	94.88
374.965	97.88
375.191	95.88
375.416	86.88
375.642	81.88
375.868	88.88
376.094	92.88
376.319	84.88
376.545	70.88
376.771	110.88
376.997	88.88
377.222	96.88
377.448	87.88
377.674	90.88
377.899	85.88
378.125	96.88
378.35	89.88
378.576	72.88
378.802	94.88
379.027	97.88
379.253	95.88
379.478	73.88
379.704	99.88
379.929	98.88
380.155	93.88
380.38	102.88
380.606	88.88
380.831	83.88
381.057	88.88
381.282	81.88
381.507	92.88
381.733	97.88
381.958	89.88
382.184	87.88
382.409	90.88
382.634	89.88
382.86	95.88
383.085	86.88
383.31	86.88
383.535	85.88
383.761	93.88
383.986	81.88
384.211	111.88
384.436	92.88
384.662	89.88
384.887	88.88
385.112	88.88
385.337	93.88
385.562	95.88
385.787	84.88
386.013	95.88
386.238	97.88
386.463	94.88
386.688	87.88
386.913	106.88
387.138	85.88
387.363	101.88
387.588	85.88
387.813	88.88
388.038	95.88
388.263	98.88
388.488	93.88
388.713	99.88
388.938	96.88
389.163	102.88
389.387	86.88
389.612	80.88
389.837	90.88
390.062	96.88
390.287	86.88
390.512	99.88
390.736	82.88
390.961	89.88
391.186	85.88
391.411	96.88
391.636	91.88
391.86	81.88
392.085	87.88
392.31	106.88
392.534	83.88
392.759	118.88
392.984	93.88
393.208	101.88
393.433	89.88
393.658	94.88
393.882	78.88
394.107	87.88
394.331	90.88
394.556	90.88
394.78	83.88
395.005	92.88
395.229	80.88
395.454	90.88
395.678	96.88
395.903	96.88
396.127	98.88
396.352	109.88
396.576	90.88
396.801	100.88
397.025	84.88
397.249	98.88
397.474	100.88
397.698	103.88
397.922	104.88
398.147	99.88
398.371	93.88
398.595	97.88
398.82	92.88
399.044	90.88
399.268	85.88
399.492	91.88
399.717	104.88
399.941	103.88
400.165	95.88
400.389	97.88
400.613	101.88
400.837	89.88
401.062	89.88
401.286	81.88
401.51	98.88
401.734	85.88
401.958	91.88
402.182	98.88
402.406	80.88
402.63	91.88
402.854	96.88
403.078	79.88
403.302	111.88
403.526	96.88
403.75	81.88
403.974	93.88
404.198	82.88
404.422	98.88
404.645	95.88
404.869	101.88
405.093	94.88
405.317	94.88
405.541	86.88
405.765	93.88
405.988	101.88
406.212	91.88
406.436	103.88
406.66	103.88
406.883	98.88
407.107	77.88
407.331	110.88
407.555	82.88
407.778	103.88
408.002	103.88
408.226	97.88
408.449	85.88
408.673	97.88
408.896	96.88
409.12	94.88
409.344	98.88
409.567	81.88
409.791	91.88
410.014	107.88
410.238	109.88
410.461	95.88
410.685	97.88
410.908	94.88
411.132	96.88
411.355	93.88
411.578	98.88
411.802	93.88
412.025	101.88
412.249	95.88
412.472	85.88
412.695	96.88
412.919	86.88
413.142	96.88
413.365	85.88
413.589	83.88
413.812	97.88
414.035	92.88
414.258	99.88
414.482	99.88
414.705	98.88
414.928	85.88
415.151	105.88
415.374	95.88
415.597	97.88
415.821	94.88
416.044	86.88
416.267	98.88
416.49	87.88
416.713	95.88
416.936	89.88
417.159	82.88
417.382	87.88
417.605	101.88
417.828	97.88
418.051	93.88
418.274	100.88
418.497	94.88
418.72	87.88
418.943	95.88
419.166	90.88
419.389	92.88
419.611	89.88
419.834	107.88
420.057	107.88
420.28	86.88
420.503	95.88
420.726	97.88
420.948	86.88
421.171	90.88
421.394	88.88
421.617	102.88
421.839	96.88
422.062	96.88
422.285	91.88
422.507	101.88
422.73	103.88
422.953	93.88
423.175	73.88
423.398	92.88
423.621	101.88
423.843	80.88
424.066	89.88
424.288	96.88
424.511	90.88
424.733	96.88
424.956	93.88
425.178	110.88
425.401	98.88
425.623	94.88
425.846	85.88
426.068	103.88
426.291	88.88
426.513	93.88
426.735	102.88
426.958	88.88
427.18	85.88
427.402	97.88
427.625	83.88
427.847	86.88
428.069	94.88
428.292	91.88
428.514	97.88
428.736	79.88
428.958	83.88
429.181	94.88
429.403	82.88
429.625	75.88
429.847	91.88
430.069	90.88
430.292	87.88
430.514	87.88
430.736	87.88
430.958	103.88
431.18	110.88
431.402	89.88
431.624	95.88
431.846	79.88
432.068	100.88
432.29	78.88
432.512	87.88
432.734	81.88
432.956	96.88
433.178	95.88
433.4	75.88
433.622	98.88
433.844	104.88
434.066	90.88
434.287	91.88
434.509	86.88
434.731	86.88
434.953	86.88
435.175	102.88
435.397	99.88
435.618	94.88
435.84	95.88
436.062	102.88
436.284	86.88
436.505	97.88
436.727	100.88
436.949	86.88
437.17	85.88
437.392	86.88
437.614	87.88
437.835	93.88
438.057	104.88
438.278	95.88
438.5	91.88
438.721	86.88
438.943	87.88
439.165	87.88
439.386	94.88
439.608	95.88
439.829	101.88
440.05	82.88
440.272	75.88
440.493	100.88
440.715	101.88
440.936	87.88
441.158	97.88
441.379	90.88
441.6	94.88
441.822	105.88
442.043	90.88
442.264	84.88
442.486	93.88
442.707	86.88
442.928	93.88
443.149	93.88
443.371	99.88
443.592	94.88
443.813	103.88
444.034	92.88
444.255	98.88
444.476	103.88
444.698	101.88
444.919	103.88
445.14	210.88
445.361	154.88
445.582	88.88
445.803	102.88
446.024	96.88
446.245	88.88
446.466	86.88
446.687	85.88
446.908	102.88
447.129	91.88
447.35	101.88
447.571	87.88
447.792	88.88
448.013	101.88
448.234	89.88
448.455	90.88
448.675	89.88
448.896	82.88
449.117	72.88
449.338	102.88
449.559	79.88
449.779	87.88
450	101.88
450.221	83.88
450.442	90.88
450.662	89.88
450.883	103.88
451.104	92.88
451.324	76.88
451.545	95.88
451.766	87.88
451.986	98.88
452.207	97.88
452.428	85.88
452.648	97.88
452.869	95.88
453.089	93.88
453.31	95.88
453.53	84.88
453.751	90.88
453.971	98.88
454.192	76.88
454.412	106.88
454.633	90.88
454.853	103.88
455.073	85.88
455.294	88.88
455.514	97.88
455.734	93.88
455.955	83.88
456.175	96.88
456.395	95.88
456.616	90.88
456.836	97.88
457.056	97.88
457.276	96.88
457.497	99.88
457.717	95.88
457.937	85.88
458.157	83.88
458.377	88.88
458.598	89.88
458.818	94.88
459.038	102.88
459.258	85.88
459.478	97.88
459.698	91.88
459.918	87.88
460.138	94.88
460.358	96.88
460.578	105.88
460.798	98.88
461.018	100.88
461.238	94.88
461.458	90.88
461.678	88.88
461.898	96.88
462.118	99.88
462.338	97.88
462.558	101.88
462.777	98.88
462.997	98.88
463.217	96.88
463.437	95.88
463.657	115.88
463.876	105.88
464.096	98.88
464.316	83.88
464.536	100.88
464.755	119.88
464.975	100.88
465.195	107.88
465.414	83.88
465.634	89.88
465.854	89.88
466.073	87.88
466.293	79.88
466.512	83.88
466.732	92.88
466.951	96.88
467.171	94.88
467.391	90.88
467.61	89.88
467.829	103.88
468.049	93.88
468.268	92.88
468.488	83.88
468.707	88.88
468.927	96.88
469.146	89.88
469.365	84.88
469.585	109.88
469.804	89.88
470.023	98.88
470.243	95.88
470.462	107.88
470.681	107.88
470.901	94.88
471.12	98.88
471.339	91.88
471.558	98.88
471.777	94.88
471.997	85.88
472.216	98.88
472.435	81.88
472.654	101.88
472.873	98.88
473.092	101.88
473.311	87.88
473.53	93.88
473.749	90.88
473.968	100.88
474.187	99.88
474.406	98.88
474.625	102.88
474.844	85.88
475.063	97.88
475.282	97.88
475.501	98.88
475.72	95.88
475.939	85.88
476.158	91.88
476.377	95.88
476.596	104.88
476.814	94.88
477.033	103.88
477.252	94.88
477.471	87.88
477.69	86.88
477.908	88.88
478.127	110.88
478.346	80.88
478.564	117.88
478.783	123.88
479.002	112.88
479.22	91.88
479.439	100.88
479.658	97.88
479.876	102.88
480.095	98.88
480.313	92.88
480.532	90.88
480.751	94.88
480.969	96.88
481.188	108.88
481.406	105.88
481.624	97.88
481.843	93.88
482.061	89.88
482.28	89.88
482.498	102.88
482.717	107.88
482.935	96.88
483.153	95.88
483.372	117.88
483.59	109.88
483.808	106.88
484.027	111.88
484.245	101.88
484.463	100.88
484.681	112.88
484.9	95.88
485.118	96.88
485.336	109.88
485.554	85.88
485.772	101.88
485.99	89.88
486.209	106.88
486.427	91.88
486.645	92.88
486.863	96.88
487.081	87.88
487.299	103.88
487.517	88.88
487.735	101.88
487.953	114.88
488.171	111.88
488.389	123.88
488.607	108.88
488.825	101.88
489.043	109.88
489.261	112.88
489.479	102.88
489.696	99.88
489.914	98.88
490.132	113.88
490.35	110.88
490.568	107.88
490.786	109.88
491.003	102.88
491.221	107.88
491.439	94.88
491.657	125.88
491.874	121.88
492.092	112.88
492.31	109.88
492.527	106.88
492.745	113.88
492.963	114.88
493.18	119.88
493.398	122.88
493.615	118.88
493.833	104.88
494.05	111.88
494.268	104.88
494.485	95.88
494.703	113.88
494.92	102.88
495.138	101.88
495.355	100.88
495.573	106.88
495.79	100.88
496.008	115.88
496.225	102.88
496.442	109.88
496.66	105.88
496.877	81.88
497.094	115.88
497.312	106.88
497.529	110.88
497.746	114.88
497.963	102.88
498.181	110.88
498.398	110.88
498.615	110.88
498.832	97.88
499.049	120.88
499.267	109.88
499.484	132.88
499.701	136.88
499.918	138.88
500.135	133.88
500.352	153.88
500.569	153.88
500.786	147.88
501.003	135.88
501.22	137.88
501.437	130.88
501.654	113.88
501.871	118.88
502.088	110.88
502.305	107.88
502.522	109.88
502.739	109.88
502.956	120.88
503.172	106.88
503.389	113.88
503.606	97.88
503.823	104.88
504.04	112.88
504.256	121.88
504.473	106.88
504.69	101.88
504.907	115.88
505.123	111.88
505.34	97.88
505.557	108.88
505.773	90.88
505.99	107.88
506.207	105.88
506.423	90.88
506.64	101.88
506.856	98.88
507.073	93.88
507.289	98.88
507.506	100.88
507.722	98.88
507.939	81.88
508.155	87.88
508.372	90.88
508.588	99.88
508.805	100.88
509.021	110.88
509.238	85.88
509.454	88.88
509.67	96.88
509.887	97.88
510.103	106.88
510.319	98.88
510.536	92.88
510.752	93.88
510.968	86.88
511.184	100.88
511.401	100.88
511.617	103.88
511.833	96.88
512.049	86.88
512.265	104.88
512.481	109.88
512.698	80.88
512.914	98.88
513.13	99.88
513.346	114.88
513.562	97.88
513.778	96.88
513.994	111.88
514.21	102.88
514.426	90.88
514.642	98.88
514.858	103.88
515.074	97.88
515.29	100.88
515.506	86.88
515.721	100.88
515.937	94.88
516.153	98.88
516.369	97.88
516.585	97.88
516.801	99.88
517.016	111.88
517.232	87.88
517.448	103.88
517.664	106.88
517.879	113.88
518.095	97.88
518.311	100.88
518.527	111.88
518.742	113.88
518.958	96.88
519.173	104.88
519.389	102.88
519.605	103.88
519.82	95.88
520.036	102.88
520.251	96.88
520.467	87.88
520.682	99.88
520.898	99.88
521.113	96.88
521.329	92.88
521.544	91.88
521.76	97.88
521.975	104.88
522.19	91.88
522.406	92.88
522.621	83.88
522.836	97.88
523.052	106.88
523.267	94.88
523.482	104.88
523.698	98.88
523.913	88.88
524.128	98.88
524.343	92.88
524.559	98.88
524.774	98.88
524.989	98.88
525.204	95.88
525.419	87.88
525.634	88.88
525.849	93.88
526.064	105.88
526.28	105.88
526.495	91.88
526.71	97.88
526.925	97.88
527.14	89.88
527.355	105.88
527.57	97.88
527.785	84.88
527.999	83.88
528.214	98.88
528.429	90.88
528.644	109.88
528.859	109.88
529.074	90.88
529.289	110.88
529.503	119.88
529.718	107.88
529.933	90.88
530.148	96.88
530.363	103.88
530.577	99.88
530.792	107.88
531.007	91.88
531.221	84.88
531.436	87.88
531.651	100.88
531.865	96.88
532.08	105.88
532.295	89.88
532.509	102.88
532.724	82.88
532.938	82.88
533.153	88.88
533.367	103.88
533.582	94.88
533.796	109.88
534.011	93.88
534.225	90.88
534.44	111.88
534.654	89.88
534.868	93.88
535.083	99.88
535.297	108.88
535.511	91.88
535.726	100.88
535.94	105.88
536.154	105.88
536.369	91.88
536.583	97.88
536.797	90.88
537.011	106.88
537.225	100.88
537.44	90.88
537.654	97.88
537.868	101.88
538.082	111.88
538.296	99.88
538.51	100.88
538.724	87.88
538.938	102.88
539.153	103.88
539.367	90.88
539.581	102.88
539.795	95.88
540.009	99.88
540.222	104.88
540.436	88.88
540.65	85.88
540.864	99.88
541.078	112.88
541.292	114.88
541.506	98.88
541.72	91.88
541.934	89.88
542.147	106.88
542.361	117.88
542.575	109.88
542.789	95.88
543.002	96.88
543.216	104.88
543.43	97.88
543.644	85.88
543.857	109.88
544.071	111.88
544.285	101.88
544.498	110.88
544.712	94.88
544.925	97.88
545.139	102.88
545.352	91.88
545.566	98.88
545.779	107.88
545.993	100.88
546.206	95.88
546.42	100.88
546.633	102.88
546.847	109.88
547.06	102.88
547.274	105.88
547.487	118.88
547.7	99.88
547.914	94.88
548.127	94.88
548.34	109.88
548.554	108.88
548.767	101.88
548.98	109.88
549.193	103.88
549.407	92.88
549.62	93.88
549.833	110.88
550.046	109.88
550.259	103.88
550.473	117.88
550.686	99.88
550.899	92.88
551.112	89.88
551.325	71.88
551.538	102.88
551.751	90.88
551.964	96.88
552.177	92.88
552.39	105.88
552.603	102.88
552.816	118.88
553.029	104.88
553.242	104.88
553.455	103.88
553.667	101.88
553.88	97.88
554.093	97.88
554.306	104.88
554.519	116.88
554.732	98.88
554.944	89.88
555.157	93.88
555.37	101.88
555.583	94.88
555.795	99.88
556.008	100.88
556.221	90.88
556.433	108.88
556.646	103.88
556.859	89.88
557.071	104.88
557.284	96.88
557.496	94.88
557.709	95.88
557.921	101.88
558.134	92.88
558.346	103.88
558.559	103.88
558.771	98.88
558.984	99.88
559.196	89.88
559.409	107.88
559.621	88.88
559.833	90.88
560.046	92.88
560.258	100.88
560.47	93.88
560.683	106.88
560.895	93.88
561.107	94.88
561.32	99.88
561.532	89.88
561.744	104.88
561.956	75.88
562.168	90.88
562.381	90.88
562.593	95.88
562.805	95.88
563.017	100.88
563.229	94.88
563.441	104.88
563.653	81.88
563.865	90.88
564.077	110.88
564.289	93.88
564.501	98.88
564.713	106.88
564.925	92.88
565.137	104.88
565.349	100.88
565.561	90.88
565.773	99.88
565.985	100.88
566.197	120.88
566.408	107.88
566.62	106.88
566.832	102.88
567.044	98.88
567.255	95.88
567.467	107.88
567.679	102.88
567.891	115.88
568.102	103.88
568.314	99.88
568.526	107.88
568.737	99.88
568.949	80.88
569.161	91.88
569.372	96.88
569.584	89.88
569.795	96.88
570.007	98.88
570.218	102.88
570.43	90.88
570.641	92.88
570.853	87.88
571.064	96.88
571.276	90.88
571.487	93.88
571.698	91.88
571.91	95.88
572.121	91.88
572.333	97.88
572.544	85.88
572.755	92.88
572.966	90.88
573.178	85.88
573.389	80.88
573.6	91.88
573.811	97.88
574.023	98.88
574.234	92.88
574.445	94.88
574.656	99.88
574.867	76.88
575.078	91.88
575.289	95.88
575.501	92.88
575.712	95.88
575.923	102.88
576.134	85.88
576.345	94.88
576.556	109.88
576.767	95.88
576.978	97.88
577.188	87.88
577.399	87.88
577.61	87.88
577.821	93.88
578.032	97.88
578.243	70.88
578.454	96.88
578.665	88.88
578.875	83.88
579.086	82.88
579.297	77.88
579.508	88.88
579.718	88.88
579.929	94.88
580.14	79.88
580.35	83.88
580.561	96.88
580.772	98.88
580.982	86.88
581.193	82.88
581.403	90.88
581.614	90.88
581.825	94.88
582.035	96.88
582.246	87.88
582.456	88.88
582.667	101.88
582.877	85.88
583.087	87.88
583.298	103.88
583.508	89.88
583.719	104.88
583.929	90.88
584.139	87.88
584.35	91.88
584.56	91.88
584.77	82.88
584.981	95.88
585.191	92.88
585.401	91.88
585.611	81.88
585.821	86.88
586.032	84.88
586.242	94.88
586.452	82.88
586.662	91.88
586.872	89.88
587.082	87.88
587.292	89.88
587.502	94.88
587.713	95.88
587.923	99.88
588.133	83.88
588.343	75.88
588.553	96.88
588.762	89.88
588.972	91.88
589.182	102.88
589.392	97.88
589.602	110.88
589.812	90.88
590.022	89.88
590.232	90.88
590.441	88.88
590.651	94.88
590.861	89.88
591.071	87.88
591.281	81.88
591.49	91.88
591.7	78.88
591.91	105.88
592.119	95.88
592.329	90.88
592.539	94.88
592.748	92.88
592.958	96.88
593.167	86.88
593.377	88.88
593.587	106.88
593.796	89.88
594.006	85.88
594.215	94.88
594.424	103.88
594.634	85.88
594.843	103.88
595.053	82.88
595.262	105.88
595.472	81.88
595.681	79.88
595.89	78.88
596.1	87.88
596.309	89.88
596.518	71.88
596.727	98.88
596.937	86.88
597.146	93.88
597.355	89.88
597.564	82.88
597.774	95.88
597.983	79.88
598.192	85.88
598.401	74.88
598.61	82.88
598.819	97.88
599.028	92.88
599.237	88.88
599.446	92.88
599.655	90.88
599.864	100.88
600.073	94.88
600.282	89.88
600.491	96.88
600.7	83.88
600.909	89.88
601.118	95.88
601.327	99.88
601.536	87.88
601.745	93.88
601.953	98.88
602.162	100.88
602.371	85.88
602.58	88.88
602.789	82.88
602.997	89.88
603.206	79.88
603.415	71.88
603.623	77.88
603.832	90.88
604.041	85.88
604.249	75.88
604.458	86.88
604.666	92.88
604.875	94.88
605.084	81.88
605.292	97.88
605.501	86.88
605.709	86.88
605.918	87.88
606.126	87.88
606.334	77.88
606.543	77.88
606.751	90.88
606.96	93.88
607.168	85.88
607.376	84.88
607.585	83.88
607.793	83.88
608.001	88.88
608.21	84.88
608.418	77.88
608.626	84.88
608.834	98.88
609.043	90.88
609.251	79.88
609.459	81.88
609.667	98.88
609.875	96.88
610.083	85.88
610.291	82.88
610.499	86.88
610.707	84.88
610.916	92.88
611.124	85.88
611.332	97.88
611.54	94.88
611.748	80.88
611.955	94.88
612.163	79.88
612.371	90.88
612.579	83.88
612.787	75.88
612.995	95.88
613.203	74.88
613.411	90.88
613.618	102.88
613.826	91.88
614.034	83.88
614.242	103.88
614.449	91.88
614.657	90.88
614.865	80.88
615.072	74.88
615.28	79.88
615.488	67.88
615.695	94.88
615.903	81.88
616.111	89.88
616.318	91.88
616.526	71.88
616.733	103.88
616.941	76.88
617.148	82.88
617.356	91.88
617.563	83.88
617.771	103.88
617.978	87.88
618.185	88.88
618.393	92.88
618.6	83.88
618.807	89.88
619.015	94.88
619.222	82.88
619.429	88.88
619.637	85.88
619.844	93.88
620.051	82.88
620.258	87.88
620.466	87.88
620.673	91.88
620.88	91.88
621.087	90.88
621.294	80.88
621.501	89.88
621.708	91.88
621.915	90.88
622.122	84.88
622.329	96.88
622.536	85.88
622.743	79.88
622.95	83.88
623.157	105.88
623.364	88.88
623.571	89.88
623.778	89.88
623.985	96.88
624.192	77.88
624.399	87.88
624.606	84.88
624.812	73.88
625.019	86.88
625.226	73.88
625.433	88.88
625.639	83.88
625.846	95.88
626.053	79.88
626.259	87.88
626.466	90.88
626.673	74.88
626.879	74.88
627.086	103.88
627.293	91.88
627.499	88.88
627.706	82.88
627.912	75.88
628.119	94.88
628.325	86.88
628.532	82.88
628.738	91.88
628.945	90.88
629.151	87.88
629.357	80.88
629.564	89.88
629.77	77.88
629.976	86.88
630.183	93.88
630.389	84.88
630.595	93.88
630.802	80.88
631.008	89.88
631.214	84.88
631.42	89.88
631.627	82.88
631.833	104.88
632.039	90.88
632.245	92.88
632.451	95.88
632.657	94.88
632.863	90.88
633.069	96.88
633.275	92.88
633.481	87.88
633.688	90.88
633.893	84.88
634.099	86.88
634.305	99.88
634.511	91.88
634.717	88.88
634.923	88.88
635.129	90.88
635.335	87.88
635.541	113.88
635.747	87.88
635.952	85.88
636.158	82.88
636.364	88.88
636.57	73.88
636.775	80.88
636.981	81.88
637.187	76.88
637.392	81.88
637.598	100.88
637.804	87.88
638.009	81.88
638.215	86.88
638.421	90.88
638.626	82.88
638.832	87.88
639.037	71.88
639.243	61.88
639.448	82.88
639.654	98.88
639.859	90.88
640.065	94.88
640.27	86.88
640.475	77.88
640.681	89.88
640.886	86.88
641.091	75.88
641.297	94.88
641.502	80.88
641.707	95.88
641.913	69.88
642.118	90.88
642.323	91.88
642.528	83.88
642.733	84.88
642.939	89.88
643.144	86.88
643.349	77.88
643.554	82.88
643.759	89.88
643.964	74.88
644.169	94.88
644.374	76.88
644.579	79.88
644.784	74.88
644.989	74.88
645.194	91.88
645.399	98.88
645.604	98.88
645.809	76.88
646.014	86.88
646.219	89.88
646.423	77.88
646.628	91.88
646.833	91.88
647.038	86.88
647.243	75.88
647.447	76.88
647.652	81.88
647.857	76.88
648.062	96.88
648.266	87.88
648.471	80.88
648.676	89.88
648.88	86.88
649.085	88.88
649.289	87.88
649.494	80.88
649.698	82.88
649.903	82.88
650.107	77.88
650.312	77.88
650.516	79.88
650.721	83.88
650.925	75.88
651.13	82.88
651.334	87.88
651.539	74.88
651.743	79.88
651.947	85.88
652.152	77.88
652.356	75.88
652.56	73.88
652.764	79.88
652.969	89.88
653.173	73.88
653.377	79.88
653.581	72.88
653.785	93.88
653.99	78.88
654.194	82.88
654.398	83.88
654.602	85.88
654.806	80.88
655.01	105.88
655.214	80.88
655.418	85.88
655.622	85.88
655.826	86.88
656.03	86.88
656.234	87.88
656.438	86.88
656.642	83.88
656.846	83.88
657.049	91.88
657.253	86.88
657.457	86.88
657.661	83.88
657.865	90.88
658.068	82.88
658.272	77.88
658.476	84.88
658.68	87.88
658.883	86.88
659.087	64.88
659.291	81.88
659.494	77.88
659.698	88.88
659.901	80.88
660.105	79.88
660.309	90.88
660.512	85.88
660.716	90.88
660.919	88.88
661.123	83.88
661.326	84.88
661.53	82.88
661.733	84.88
661.936	90.88
662.14	79.88
662.343	83.88
662.546	84.88
662.75	75.88
662.953	81.88
663.156	76.88
663.36	67.88
663.563	70.88
663.766	84.88
663.969	89.88
664.173	88.88
664.376	84.88
664.579	77.88
664.782	65.88
664.985	88.88
665.188	80.88
665.391	86.88
665.594	95.88
665.797	81.88
666	85.88
666.203	66.88
666.406	81.88
666.609	85.88
666.812	83.88
667.015	80.88
667.218	87.88
667.421	85.88
667.624	87.88
667.827	81.88
668.03	79.88
668.232	62.88
668.435	73.88
668.638	75.88
668.841	80.88
669.043	89.88
669.246	79.88
669.449	90.88
669.651	67.88
669.854	77.88
670.057	70.88
670.259	85.88
670.462	73.88
670.665	85.88
670.867	83.88
671.07	64.88
671.272	78.88
671.475	83.88
671.677	67.88
671.88	73.88
672.082	81.88
672.284	84.88
672.487	73.88
672.689	84.88
672.892	93.88
