Data from 0.5MCu(NO3)2.Standard.Lamp.E10.CV._HRD10591_16-05-48-754.txt Node
Date: Mon Jul 22 16:05:48 EDT 2019
User: cochatt
Spectrometer: HR+D1059
Trigger mode: 1
Integration Time (sec): 1.000000E-1
Scans to average: 1
Electric dark correction enabled: true
Nonlinearity correction enabled: false
Boxcar width: 0
XAxis mode: Wavelengths
Number of Pixels in Spectrum: 2048
>>>>>Begin Spectral Data<<<<<
223.165	-19.44
223.4	-19.44
223.635	-19.44
223.869	-27.44
224.104	-12.44
224.338	-22.44
224.573	-19.44
224.808	-23.44
225.042	-7.44
225.277	-12.44
225.511	0.56
225.746	13.56
225.98	0.56
226.215	11.56
226.449	19.56
226.683	28.56
226.918	33.56
227.152	36.56
227.387	42.56
227.621	50.56
227.856	50.56
228.09	48.56
228.324	43.56
228.559	51.56
228.793	48.56
229.027	59.56
229.262	57.56
229.496	72.56
229.73	77.56
229.964	91.56
230.199	73.56
230.433	65.56
230.667	92.56
230.901	67.56
231.136	83.56
231.37	97.56
231.604	86.56
231.838	84.56
232.072	80.56
232.306	88.56
232.541	96.56
232.775	96.56
233.009	84.56
233.243	82.56
233.477	97.56
233.711	90.56
233.945	92.56
234.179	92.56
234.413	92.56
234.647	90.56
234.881	91.56
235.115	89.56
235.349	85.56
235.583	104.56
235.817	79.56
236.051	86.56
236.285	81.56
236.519	90.56
236.753	99.56
236.987	96.56
237.221	93.56
237.455	97.56
237.689	78.56
237.922	98.56
238.156	87.56
238.39	88.56
238.624	87.56
238.858	78.56
239.091	98.56
239.325	83.56
239.559	81.56
239.793	86.56
240.027	74.56
240.26	89.56
240.494	88.56
240.728	89.56
240.961	89.56
241.195	91.56
241.429	106.56
241.662	99.56
241.896	106.56
242.13	96.56
242.363	97.56
242.597	88.56
242.83	82.56
243.064	76.56
243.298	91.56
243.531	96.56
243.765	105.56
243.998	103.56
244.232	91.56
244.465	97.56
244.699	90.56
244.932	99.56
245.166	93.56
245.399	98.56
245.633	95.56
245.866	95.56
246.099	85.56
246.333	97.56
246.566	99.56
246.8	98.56
247.033	96.56
247.266	100.56
247.5	115.56
247.733	90.56
247.966	108.56
248.2	82.56
248.433	106.56
248.666	116.56
248.899	98.56
249.133	97.56
249.366	127.56
249.599	110.56
249.832	96.56
250.066	111.56
250.299	114.56
250.532	100.56
250.765	104.56
250.998	89.56
251.231	121.56
251.465	99.56
251.698	93.56
251.931	117.56
252.164	103.56
252.397	109.56
252.63	113.56
252.863	108.56
253.096	113.56
253.329	108.56
253.562	106.56
253.795	125.56
254.028	100.56
254.261	123.56
254.494	107.56
254.727	88.56
254.96	89.56
255.193	106.56
255.426	95.56
255.659	113.56
255.892	114.56
256.124	99.56
256.357	102.56
256.59	110.56
256.823	111.56
257.056	91.56
257.289	92.56
257.521	115.56
257.754	113.56
257.987	119.56
258.22	115.56
258.452	108.56
258.685	123.56
258.918	119.56
259.151	115.56
259.383	122.56
259.616	123.56
259.849	112.56
260.081	126.56
260.314	121.56
260.547	120.56
260.779	128.56
261.012	112.56
261.244	126.56
261.477	125.56
261.71	114.56
261.942	105.56
262.175	125.56
262.407	133.56
262.64	125.56
262.872	123.56
263.105	111.56
263.337	132.56
263.57	114.56
263.802	121.56
264.035	127.56
264.267	127.56
264.499	110.56
264.732	108.56
264.964	119.56
265.197	123.56
265.429	132.56
265.661	128.56
265.894	136.56
266.126	116.56
266.358	125.56
266.591	127.56
266.823	124.56
267.055	127.56
267.287	143.56
267.52	137.56
267.752	119.56
267.984	132.56
268.216	128.56
268.448	133.56
268.681	126.56
268.913	137.56
269.145	127.56
269.377	148.56
269.609	152.56
269.841	133.56
270.073	129.56
270.306	125.56
270.538	132.56
270.77	128.56
271.002	127.56
271.234	124.56
271.466	138.56
271.698	135.56
271.93	136.56
272.162	142.56
272.394	126.56
272.626	127.56
272.858	123.56
273.09	139.56
273.322	129.56
273.553	130.56
273.785	119.56
274.017	169.56
274.249	124.56
274.481	136.56
274.713	131.56
274.945	150.56
275.176	141.56
275.408	130.56
275.64	148.56
275.872	136.56
276.104	137.56
276.335	121.56
276.567	137.56
276.799	131.56
277.031	141.56
277.262	132.56
277.494	131.56
277.726	129.56
277.957	127.56
278.189	133.56
278.421	150.56
278.652	145.56
278.884	146.56
279.115	135.56
279.347	145.56
279.579	121.56
279.81	148.56
280.042	142.56
280.273	141.56
280.505	147.56
280.736	154.56
280.968	134.56
281.199	146.56
281.431	134.56
281.662	152.56
281.894	158.56
282.125	142.56
282.356	159.56
282.588	151.56
282.819	147.56
283.051	145.56
283.282	157.56
283.513	148.56
283.745	150.56
283.976	150.56
284.207	161.56
284.439	149.56
284.67	154.56
284.901	155.56
285.132	153.56
285.364	161.56
285.595	133.56
285.826	145.56
286.057	151.56
286.288	158.56
286.52	154.56
286.751	155.56
286.982	155.56
287.213	147.56
287.444	158.56
287.675	145.56
287.906	159.56
288.138	163.56
288.369	173.56
288.6	159.56
288.831	166.56
289.062	167.56
289.293	155.56
289.524	158.56
289.755	169.56
289.986	148.56
290.217	169.56
290.448	178.56
290.679	163.56
290.91	168.56
291.141	161.56
291.371	152.56
291.602	155.56
291.833	157.56
292.064	152.56
292.295	170.56
292.526	158.56
292.757	177.56
292.987	159.56
293.218	162.56
293.449	161.56
293.68	151.56
293.91	165.56
294.141	176.56
294.372	167.56
294.603	177.56
294.833	152.56
295.064	170.56
295.295	163.56
295.525	169.56
295.756	171.56
295.987	155.56
296.217	167.56
296.448	170.56
296.679	169.56
296.909	161.56
297.14	165.56
297.37	164.56
297.601	170.56
297.831	165.56
298.062	172.56
298.292	172.56
298.523	172.56
298.753	168.56
298.984	164.56
299.214	169.56
299.445	164.56
299.675	183.56
299.905	160.56
300.136	160.56
300.366	157.56
300.597	171.56
300.827	175.56
301.057	169.56
301.288	155.56
301.518	165.56
301.748	181.56
301.979	174.56
302.209	203.56
302.439	175.56
302.669	186.56
302.9	186.56
303.13	161.56
303.36	179.56
303.59	176.56
303.82	199.56
304.051	181.56
304.281	195.56
304.511	181.56
304.741	184.56
304.971	168.56
305.201	172.56
305.431	184.56
305.661	166.56
305.891	177.56
306.121	181.56
306.352	178.56
306.582	203.56
306.812	178.56
307.042	183.56
307.272	171.56
307.502	189.56
307.731	188.56
307.961	169.56
308.191	175.56
308.421	182.56
308.651	187.56
308.881	185.56
309.111	181.56
309.341	185.56
309.571	176.56
309.8	170.56
310.03	179.56
310.26	175.56
310.49	187.56
310.72	166.56
310.949	169.56
311.179	184.56
311.409	190.56
311.639	169.56
311.868	169.56
312.098	184.56
312.328	189.56
312.557	175.56
312.787	162.56
313.017	185.56
313.246	170.56
313.476	165.56
313.706	176.56
313.935	189.56
314.165	184.56
314.394	179.56
314.624	182.56
314.853	185.56
315.083	184.56
315.312	186.56
315.542	186.56
315.771	181.56
316.001	171.56
316.23	167.56
316.46	168.56
316.689	167.56
316.919	183.56
317.148	160.56
317.377	183.56
317.607	181.56
317.836	167.56
318.065	184.56
318.295	186.56
318.524	178.56
318.753	176.56
318.983	171.56
319.212	178.56
319.441	192.56
319.67	157.56
319.9	182.56
320.129	177.56
320.358	170.56
320.587	187.56
320.816	191.56
321.046	173.56
321.275	188.56
321.504	173.56
321.733	182.56
321.962	166.56
322.191	188.56
322.42	183.56
322.649	198.56
322.878	187.56
323.108	174.56
323.337	185.56
323.566	181.56
323.795	182.56
324.024	187.56
324.253	177.56
324.482	170.56
324.71	179.56
324.939	181.56
325.168	195.56
325.397	188.56
325.626	191.56
325.855	180.56
326.084	194.56
326.313	200.56
326.542	194.56
326.77	192.56
326.999	196.56
327.228	196.56
327.457	177.56
327.686	199.56
327.914	194.56
328.143	210.56
328.372	192.56
328.6	194.56
328.829	197.56
329.058	195.56
329.287	194.56
329.515	182.56
329.744	186.56
329.972	184.56
330.201	203.56
330.43	188.56
330.658	203.56
330.887	181.56
331.115	196.56
331.344	194.56
331.572	200.56
331.801	187.56
332.03	221.56
332.258	220.56
332.486	218.56
332.715	219.56
332.943	214.56
333.172	235.56
333.4	243.56
333.629	232.56
333.857	241.56
334.085	231.56
334.314	243.56
334.542	231.56
334.771	225.56
334.999	215.56
335.227	229.56
335.455	243.56
335.684	230.56
335.912	232.56
336.14	219.56
336.369	223.56
336.597	217.56
336.825	225.56
337.053	221.56
337.281	213.56
337.51	220.56
337.738	193.56
337.966	212.56
338.194	201.56
338.422	216.56
338.65	211.56
338.878	212.56
339.106	196.56
339.334	206.56
339.562	199.56
339.79	187.56
340.018	203.56
340.246	199.56
340.474	195.56
340.702	203.56
340.93	212.56
341.158	201.56
341.386	195.56
341.614	193.56
341.842	185.56
342.07	205.56
342.298	199.56
342.526	190.56
342.754	208.56
342.981	208.56
343.209	201.56
343.437	209.56
343.665	209.56
343.893	230.56
344.12	227.56
344.348	232.56
344.576	208.56
344.804	211.56
345.031	204.56
345.259	200.56
345.487	189.56
345.714	187.56
345.942	184.56
346.17	209.56
346.397	190.56
346.625	205.56
346.853	202.56
347.08	203.56
347.308	172.56
347.535	194.56
347.763	207.56
347.99	198.56
348.218	199.56
348.445	195.56
348.673	200.56
348.9	182.56
349.128	176.56
349.355	194.56
349.583	174.56
349.81	187.56
350.037	188.56
350.265	201.56
350.492	189.56
350.72	199.56
350.947	181.56
351.174	171.56
351.402	162.56
351.629	182.56
351.856	196.56
352.083	193.56
352.311	194.56
352.538	192.56
352.765	176.56
352.992	175.56
353.22	179.56
353.447	183.56
353.674	189.56
353.901	181.56
354.128	177.56
354.355	197.56
354.583	192.56
354.81	201.56
355.037	182.56
355.264	196.56
355.491	196.56
355.718	186.56
355.945	198.56
356.172	192.56
356.399	181.56
356.626	189.56
356.853	186.56
357.08	189.56
357.307	197.56
357.534	180.56
357.761	171.56
357.988	184.56
358.215	207.56
358.441	187.56
358.668	180.56
358.895	183.56
359.122	180.56
359.349	203.56
359.576	175.56
359.802	172.56
360.029	194.56
360.256	186.56
360.483	189.56
360.709	186.56
360.936	192.56
361.163	195.56
361.39	190.56
361.616	199.56
361.843	171.56
362.07	177.56
362.296	175.56
362.523	195.56
362.749	206.56
362.976	175.56
363.203	186.56
363.429	194.56
363.656	187.56
363.882	184.56
364.109	193.56
364.335	187.56
364.562	189.56
364.788	175.56
365.015	185.56
365.241	186.56
365.468	180.56
365.694	194.56
365.92	178.56
366.147	183.56
366.373	190.56
366.599	179.56
366.826	197.56
367.052	195.56
367.278	183.56
367.505	190.56
367.731	179.56
367.957	181.56
368.184	199.56
368.41	193.56
368.636	185.56
368.862	189.56
369.089	179.56
369.315	184.56
369.541	198.56
369.767	184.56
369.993	190.56
370.219	183.56
370.445	190.56
370.672	203.56
370.898	187.56
371.124	197.56
371.35	205.56
371.576	197.56
371.802	178.56
372.028	186.56
372.254	200.56
372.48	201.56
372.706	205.56
372.932	199.56
373.158	184.56
373.384	210.56
373.61	191.56
373.835	189.56
374.061	180.56
374.287	181.56
374.513	211.56
374.739	211.56
374.965	212.56
375.191	214.56
375.416	215.56
375.642	190.56
375.868	188.56
376.094	207.56
376.319	194.56
376.545	198.56
376.771	183.56
376.997	212.56
377.222	203.56
377.448	199.56
377.674	205.56
377.899	215.56
378.125	202.56
378.35	209.56
378.576	207.56
378.802	189.56
379.027	184.56
379.253	202.56
379.478	199.56
379.704	196.56
379.929	208.56
380.155	181.56
380.38	185.56
380.606	192.56
380.831	205.56
381.057	206.56
381.282	200.56
381.507	207.56
381.733	191.56
381.958	196.56
382.184	206.56
382.409	211.56
382.634	202.56
382.86	201.56
383.085	176.56
383.31	209.56
383.535	202.56
383.761	186.56
383.986	213.56
384.211	221.56
384.436	236.56
384.662	228.56
384.887	222.56
385.112	220.56
385.337	218.56
385.562	227.56
385.787	210.56
386.013	230.56
386.238	211.56
386.463	243.56
386.688	227.56
386.913	213.56
387.138	219.56
387.363	218.56
387.588	213.56
387.813	201.56
388.038	233.56
388.263	211.56
388.488	236.56
388.713	205.56
388.938	215.56
389.163	200.56
389.387	202.56
389.612	216.56
389.837	204.56
390.062	208.56
390.287	218.56
390.512	212.56
390.736	215.56
390.961	210.56
391.186	218.56
391.411	232.56
391.636	243.56
391.86	235.56
392.085	258.56
392.31	220.56
392.534	240.56
392.759	215.56
392.984	232.56
393.208	239.56
393.433	234.56
393.658	229.56
393.882	225.56
394.107	239.56
394.331	225.56
394.556	209.56
394.78	227.56
395.005	235.56
395.229	227.56
395.454	233.56
395.678	229.56
395.903	242.56
396.127	239.56
396.352	231.56
396.576	239.56
396.801	223.56
397.025	210.56
397.249	235.56
397.474	244.56
397.698	224.56
397.922	233.56
398.147	222.56
398.371	230.56
398.595	244.56
398.82	241.56
399.044	254.56
399.268	294.56
399.492	323.56
399.717	365.56
399.941	328.56
400.165	320.56
400.389	283.56
400.613	263.56
400.837	246.56
401.062	254.56
401.286	253.56
401.51	246.56
401.734	257.56
401.958	242.56
402.182	266.56
402.406	259.56
402.63	269.56
402.854	276.56
403.078	271.56
403.302	292.56
403.526	296.56
403.75	283.56
403.974	287.56
404.198	291.56
404.422	297.56
404.645	299.56
404.869	285.56
405.093	289.56
405.317	264.56
405.541	295.56
405.765	274.56
405.988	276.56
406.212	274.56
406.436	267.56
406.66	278.56
406.883	279.56
407.107	296.56
407.331	293.56
407.555	331.56
407.778	323.56
408.002	299.56
408.226	273.56
408.449	292.56
408.673	270.56
408.896	271.56
409.12	262.56
409.344	268.56
409.567	284.56
409.791	273.56
410.014	285.56
410.238	277.56
410.461	297.56
410.685	275.56
410.908	283.56
411.132	269.56
411.355	256.56
411.578	265.56
411.802	268.56
412.025	263.56
412.249	257.56
412.472	269.56
412.695	242.56
412.919	256.56
413.142	252.56
413.365	251.56
413.589	259.56
413.812	243.56
414.035	256.56
414.258	235.56
414.482	261.56
414.705	274.56
414.928	249.56
415.151	233.56
415.374	236.56
415.597	239.56
415.821	244.56
416.044	256.56
416.267	250.56
416.49	254.56
416.713	244.56
416.936	244.56
417.159	260.56
417.382	262.56
417.605	259.56
417.828	271.56
418.051	233.56
418.274	259.56
418.497	259.56
418.72	267.56
418.943	268.56
419.166	268.56
419.389	273.56
419.611	299.56
419.834	269.56
420.057	258.56
420.28	261.56
420.503	255.56
420.726	251.56
420.948	246.56
421.171	257.56
421.394	251.56
421.617	253.56
421.839	251.56
422.062	249.56
422.285	248.56
422.507	271.56
422.73	275.56
422.953	273.56
423.175	263.56
423.398	275.56
423.621	271.56
423.843	271.56
424.066	288.56
424.288	264.56
424.511	279.56
424.733	263.56
424.956	260.56
425.178	257.56
425.401	247.56
425.623	242.56
425.846	233.56
426.068	226.56
426.291	250.56
426.513	255.56
426.735	235.56
426.958	262.56
427.18	239.56
427.402	235.56
427.625	246.56
427.847	235.56
428.069	223.56
428.292	226.56
428.514	233.56
428.736	217.56
428.958	228.56
429.181	234.56
429.403	227.56
429.625	232.56
429.847	230.56
430.069	228.56
430.292	220.56
430.514	218.56
430.736	223.56
430.958	232.56
431.18	223.56
431.402	215.56
431.624	222.56
431.846	234.56
432.068	235.56
432.29	231.56
432.512	219.56
432.734	233.56
432.956	228.56
433.178	233.56
433.4	232.56
433.622	246.56
433.844	252.56
434.066	226.56
434.287	222.56
434.509	239.56
434.731	250.56
434.953	258.56
435.175	265.56
435.397	257.56
435.618	224.56
435.84	228.56
436.062	240.56
436.284	225.56
436.505	234.56
436.727	235.56
436.949	225.56
437.17	229.56
437.392	225.56
437.614	240.56
437.835	223.56
438.057	218.56
438.278	220.56
438.5	218.56
438.721	218.56
438.943	248.56
439.165	226.56
439.386	217.56
439.608	210.56
439.829	235.56
440.05	230.56
440.272	219.56
440.493	234.56
440.715	226.56
440.936	227.56
441.158	242.56
441.379	239.56
441.6	255.56
441.822	265.56
442.043	266.56
442.264	261.56
442.486	253.56
442.707	251.56
442.928	257.56
443.149	243.56
443.371	241.56
443.592	234.56
443.813	265.56
444.034	247.56
444.255	257.56
444.476	273.56
444.698	290.56
444.919	294.56
445.14	409.56
445.361	331.56
445.582	266.56
445.803	260.56
446.024	242.56
446.245	266.56
446.466	213.56
446.687	226.56
446.908	229.56
447.129	219.56
447.35	227.56
447.571	211.56
447.792	221.56
448.013	215.56
448.234	225.56
448.455	220.56
448.675	223.56
448.896	209.56
449.117	216.56
449.338	203.56
449.559	235.56
449.779	197.56
450	202.56
450.221	223.56
450.442	216.56
450.662	219.56
450.883	242.56
451.104	219.56
451.324	228.56
451.545	223.56
451.766	217.56
451.986	228.56
452.207	215.56
452.428	227.56
452.648	240.56
452.869	214.56
453.089	224.56
453.31	226.56
453.53	204.56
453.751	217.56
453.971	204.56
454.192	221.56
454.412	217.56
454.633	201.56
454.853	195.56
455.073	205.56
455.294	200.56
455.514	203.56
455.734	204.56
455.955	208.56
456.175	209.56
456.395	199.56
456.616	204.56
456.836	212.56
457.056	183.56
457.276	205.56
457.497	209.56
457.717	201.56
457.937	200.56
458.157	209.56
458.377	205.56
458.598	205.56
458.818	212.56
459.038	212.56
459.258	227.56
459.478	224.56
459.698	232.56
459.918	235.56
460.138	255.56
460.358	268.56
460.578	279.56
460.798	272.56
461.018	261.56
461.238	252.56
461.458	266.56
461.678	254.56
461.898	275.56
462.118	269.56
462.338	279.56
462.558	296.56
462.777	268.56
462.997	311.56
463.217	345.56
463.437	349.56
463.657	300.56
463.876	297.56
464.096	299.56
464.316	312.56
464.536	301.56
464.755	309.56
464.975	283.56
465.195	289.56
465.414	264.56
465.634	248.56
465.854	226.56
466.073	231.56
466.293	234.56
466.512	239.56
466.732	223.56
466.951	216.56
467.171	219.56
467.391	241.56
467.61	228.56
467.829	233.56
468.049	211.56
468.268	219.56
468.488	211.56
468.707	205.56
468.927	228.56
469.146	221.56
469.365	223.56
469.585	220.56
469.804	223.56
470.023	223.56
470.243	222.56
470.462	235.56
470.681	241.56
470.901	240.56
471.12	236.56
471.339	213.56
471.558	214.56
471.777	223.56
471.997	233.56
472.216	212.56
472.435	225.56
472.654	227.56
472.873	204.56
473.092	215.56
473.311	200.56
473.53	204.56
473.749	241.56
473.968	219.56
474.187	222.56
474.406	233.56
474.625	220.56
474.844	216.56
475.063	218.56
475.282	234.56
475.501	215.56
475.72	230.56
475.939	229.56
476.158	227.56
476.377	225.56
476.596	225.56
476.814	210.56
477.033	211.56
477.252	235.56
477.471	239.56
477.69	252.56
477.908	234.56
478.127	247.56
478.346	248.56
478.564	270.56
478.783	263.56
479.002	265.56
479.22	248.56
479.439	256.56
479.658	262.56
479.876	268.56
480.095	241.56
480.313	264.56
480.532	273.56
480.751	247.56
480.969	272.56
481.188	256.56
481.406	250.56
481.624	263.56
481.843	241.56
482.061	225.56
482.28	233.56
482.498	242.56
482.717	251.56
482.935	233.56
483.153	252.56
483.372	255.56
483.59	248.56
483.808	250.56
484.027	230.56
484.245	246.56
484.463	243.56
484.681	259.56
484.9	265.56
485.118	272.56
485.336	251.56
485.554	276.56
485.772	277.56
485.99	257.56
486.209	245.56
486.427	276.56
486.645	264.56
486.863	250.56
487.081	269.56
487.299	262.56
487.517	268.56
487.735	249.56
487.953	255.56
488.171	264.56
488.389	255.56
488.607	255.56
488.825	262.56
489.043	248.56
489.261	264.56
489.479	246.56
489.696	261.56
489.914	239.56
490.132	255.56
490.35	271.56
490.568	269.56
490.786	233.56
491.003	259.56
491.221	249.56
491.439	279.56
491.657	261.56
491.874	268.56
492.092	267.56
492.31	268.56
492.527	282.56
492.745	266.56
492.963	272.56
493.18	256.56
493.398	282.56
493.615	267.56
493.833	257.56
494.05	271.56
494.268	268.56
494.485	275.56
494.703	254.56
494.92	284.56
495.138	264.56
495.355	283.56
495.573	281.56
495.79	276.56
496.008	277.56
496.225	280.56
496.442	269.56
496.66	293.56
496.877	266.56
497.094	289.56
497.312	268.56
497.529	273.56
497.746	290.56
497.963	289.56
498.181	299.56
498.398	322.56
498.615	352.56
498.832	355.56
499.049	389.56
499.267	413.56
499.484	433.56
499.701	465.56
499.918	520.56
500.135	577.56
500.352	669.56
500.569	714.56
500.786	740.56
501.003	678.56
501.22	571.56
501.437	534.56
501.654	472.56
501.871	437.56
502.088	385.56
502.305	389.56
502.522	352.56
502.739	333.56
502.956	342.56
503.172	329.56
503.389	305.56
503.606	313.56
503.823	311.56
504.04	309.56
504.256	294.56
504.473	321.56
504.69	308.56
504.907	305.56
505.123	289.56
505.34	258.56
505.557	272.56
505.773	259.56
505.99	254.56
506.207	255.56
506.423	257.56
506.64	264.56
506.856	231.56
507.073	258.56
507.289	255.56
507.506	228.56
507.722	253.56
507.939	257.56
508.155	249.56
508.372	233.56
508.588	250.56
508.805	230.56
509.021	220.56
509.238	246.56
509.454	233.56
509.67	216.56
509.887	222.56
510.103	214.56
510.319	229.56
510.536	230.56
510.752	233.56
510.968	231.56
511.184	241.56
511.401	229.56
511.617	228.56
511.833	219.56
512.049	244.56
512.265	236.56
512.481	231.56
512.698	243.56
512.914	236.56
513.13	236.56
513.346	221.56
513.562	217.56
513.778	242.56
513.994	232.56
514.21	233.56
514.426	240.56
514.642	242.56
514.858	240.56
515.074	220.56
515.29	243.56
515.506	258.56
515.721	248.56
515.937	252.56
516.153	257.56
516.369	250.56
516.585	245.56
516.801	269.56
517.016	257.56
517.232	276.56
517.448	279.56
517.664	309.56
517.879	285.56
518.095	318.56
518.311	307.56
518.527	294.56
518.742	273.56
518.958	264.56
519.173	282.56
519.389	257.56
519.605	249.56
519.82	241.56
520.036	230.56
520.251	243.56
520.467	260.56
520.682	248.56
520.898	224.56
521.113	227.56
521.329	214.56
521.544	240.56
521.76	224.56
521.975	239.56
522.19	233.56
522.406	211.56
522.621	228.56
522.836	209.56
523.052	216.56
523.267	227.56
523.482	223.56
523.698	207.56
523.913	216.56
524.128	215.56
524.343	216.56
524.559	228.56
524.774	230.56
524.989	216.56
525.204	211.56
525.419	225.56
525.634	224.56
525.849	214.56
526.064	193.56
526.28	231.56
526.495	220.56
526.71	220.56
526.925	220.56
527.14	208.56
527.355	223.56
527.57	221.56
527.785	215.56
527.999	198.56
528.214	239.56
528.429	215.56
528.644	225.56
528.859	215.56
529.074	225.56
529.289	211.56
529.503	225.56
529.718	225.56
529.933	212.56
530.148	236.56
530.363	217.56
530.577	219.56
530.792	217.56
531.007	207.56
531.221	221.56
531.436	220.56
531.651	217.56
531.865	230.56
532.08	233.56
532.295	228.56
532.509	219.56
532.724	223.56
532.938	214.56
533.153	216.56
533.367	223.56
533.582	231.56
533.796	244.56
534.011	207.56
534.225	230.56
534.44	213.56
534.654	222.56
534.868	222.56
535.083	223.56
535.297	213.56
535.511	214.56
535.726	213.56
535.94	224.56
536.154	214.56
536.369	212.56
536.583	206.56
536.797	211.56
537.011	208.56
537.225	207.56
537.44	216.56
537.654	205.56
537.868	202.56
538.082	202.56
538.296	198.56
538.51	199.56
538.724	219.56
538.938	204.56
539.153	213.56
539.367	210.56
539.581	191.56
539.795	217.56
540.009	209.56
540.222	200.56
540.436	218.56
540.65	218.56
540.864	205.56
541.078	212.56
541.292	220.56
541.506	203.56
541.72	213.56
541.934	204.56
542.147	204.56
542.361	205.56
542.575	209.56
542.789	202.56
543.002	203.56
543.216	211.56
543.43	201.56
543.644	202.56
543.857	221.56
544.071	197.56
544.285	216.56
544.498	215.56
544.712	213.56
544.925	225.56
545.139	205.56
545.352	235.56
545.566	223.56
545.779	220.56
545.993	227.56
546.206	217.56
546.42	201.56
546.633	220.56
546.847	213.56
547.06	222.56
547.274	214.56
547.487	227.56
547.7	212.56
547.914	220.56
548.127	224.56
548.34	227.56
548.554	205.56
548.767	219.56
548.98	230.56
549.193	217.56
549.407	215.56
549.62	226.56
549.833	220.56
550.046	205.56
550.259	196.56
550.473	220.56
550.686	230.56
550.899	203.56
551.112	199.56
551.325	192.56
551.538	205.56
551.751	214.56
551.964	210.56
552.177	198.56
552.39	205.56
552.603	211.56
552.816	222.56
553.029	224.56
553.242	228.56
553.455	234.56
553.667	248.56
553.88	236.56
554.093	216.56
554.306	224.56
554.519	213.56
554.732	209.56
554.944	210.56
555.157	212.56
555.37	217.56
555.583	207.56
555.795	227.56
556.008	216.56
556.221	200.56
556.433	202.56
556.646	191.56
556.859	204.56
557.071	203.56
557.284	198.56
557.496	193.56
557.709	204.56
557.921	195.56
558.134	210.56
558.346	190.56
558.559	182.56
558.771	202.56
558.984	197.56
559.196	198.56
559.409	205.56
559.621	201.56
559.833	194.56
560.046	193.56
560.258	189.56
560.47	192.56
560.683	195.56
560.895	211.56
561.107	176.56
561.32	185.56
561.532	178.56
561.744	210.56
561.956	205.56
562.168	192.56
562.381	188.56
562.593	189.56
562.805	204.56
563.017	195.56
563.229	189.56
563.441	209.56
563.653	204.56
563.865	183.56
564.077	192.56
564.289	192.56
564.501	189.56
564.713	192.56
564.925	205.56
565.137	211.56
565.349	215.56
565.561	215.56
565.773	211.56
565.985	223.56
566.197	233.56
566.408	236.56
566.62	241.56
566.832	263.56
567.044	273.56
567.255	274.56
567.467	273.56
567.679	267.56
567.891	324.56
568.102	343.56
568.314	334.56
568.526	276.56
568.737	281.56
568.949	235.56
569.161	227.56
569.372	217.56
569.584	211.56
569.795	227.56
570.007	196.56
570.218	192.56
570.43	215.56
570.641	200.56
570.853	181.56
571.064	199.56
571.276	193.56
571.487	196.56
571.698	204.56
571.91	192.56
572.121	176.56
572.333	175.56
572.544	172.56
572.755	176.56
572.966	183.56
573.178	178.56
573.389	181.56
573.6	168.56
573.811	179.56
574.023	177.56
574.234	172.56
574.445	183.56
574.656	170.56
574.867	171.56
575.078	172.56
575.289	175.56
575.501	177.56
575.712	169.56
575.923	172.56
576.134	151.56
576.345	172.56
576.556	164.56
576.767	179.56
576.978	157.56
577.188	158.56
577.399	172.56
577.61	148.56
577.821	172.56
578.032	164.56
578.243	149.56
578.454	158.56
578.665	163.56
578.875	151.56
579.086	161.56
579.297	168.56
579.508	160.56
579.718	156.56
579.929	164.56
580.14	171.56
580.35	167.56
580.561	185.56
580.772	157.56
580.982	168.56
581.193	163.56
581.403	147.56
581.614	150.56
581.825	165.56
582.035	161.56
582.246	171.56
582.456	147.56
582.667	160.56
582.877	151.56
583.087	155.56
583.298	151.56
583.508	152.56
583.719	155.56
583.929	165.56
584.139	159.56
584.35	152.56
584.56	159.56
584.77	152.56
584.981	165.56
585.191	149.56
585.401	159.56
585.611	153.56
585.821	156.56
586.032	155.56
586.242	154.56
586.452	155.56
586.662	150.56
586.872	159.56
587.082	153.56
587.292	166.56
587.502	159.56
587.713	158.56
587.923	142.56
588.133	156.56
588.343	163.56
588.553	151.56
588.762	153.56
588.972	162.56
589.182	160.56
589.392	153.56
589.602	149.56
589.812	166.56
590.022	160.56
590.232	160.56
590.441	149.56
590.651	137.56
590.861	161.56
591.071	170.56
591.281	166.56
591.49	160.56
591.7	153.56
591.91	165.56
592.119	156.56
592.329	168.56
592.539	178.56
592.748	185.56
592.958	168.56
593.167	168.56
593.377	193.56
593.587	179.56
593.796	173.56
594.006	185.56
594.215	192.56
594.424	186.56
594.634	190.56
594.843	177.56
595.053	179.56
595.262	175.56
595.472	172.56
595.681	183.56
595.89	153.56
596.1	152.56
596.309	150.56
596.518	148.56
596.727	144.56
596.937	141.56
597.146	147.56
597.355	155.56
597.564	149.56
597.774	151.56
597.983	147.56
598.192	157.56
598.401	139.56
598.61	143.56
598.819	140.56
599.028	145.56
599.237	140.56
599.446	140.56
599.655	149.56
599.864	150.56
600.073	154.56
600.282	144.56
600.491	142.56
600.7	140.56
600.909	151.56
601.118	138.56
601.327	132.56
601.536	142.56
601.745	130.56
601.953	125.56
602.162	131.56
602.371	142.56
602.58	144.56
602.789	151.56
602.997	137.56
603.206	136.56
603.415	147.56
603.623	139.56
603.832	141.56
604.041	129.56
604.249	135.56
604.458	142.56
604.666	131.56
604.875	139.56
605.084	148.56
605.292	147.56
605.501	140.56
605.709	127.56
605.918	124.56
606.126	126.56
606.334	125.56
606.543	140.56
606.751	140.56
606.96	141.56
607.168	142.56
607.376	144.56
607.585	121.56
607.793	136.56
608.001	120.56
608.21	137.56
608.418	137.56
608.626	140.56
608.834	127.56
609.043	143.56
609.251	138.56
609.459	131.56
609.667	130.56
609.875	137.56
610.083	127.56
610.291	140.56
610.499	132.56
610.707	128.56
610.916	130.56
611.124	146.56
611.332	136.56
611.54	125.56
611.748	122.56
611.955	141.56
612.163	138.56
612.371	125.56
612.579	124.56
612.787	144.56
612.995	123.56
613.203	131.56
613.411	120.56
613.618	131.56
613.826	136.56
614.034	138.56
614.242	150.56
614.449	129.56
614.657	121.56
614.865	137.56
615.072	141.56
615.28	117.56
615.488	120.56
615.695	125.56
615.903	133.56
616.111	124.56
616.318	137.56
616.526	124.56
616.733	140.56
616.941	127.56
617.148	128.56
617.356	131.56
617.563	133.56
617.771	135.56
617.978	137.56
618.185	147.56
618.393	138.56
618.6	126.56
618.807	132.56
619.015	137.56
619.222	141.56
619.429	140.56
619.637	117.56
619.844	133.56
620.051	146.56
620.258	131.56
620.466	129.56
620.673	133.56
620.88	128.56
621.087	127.56
621.294	129.56
621.501	131.56
621.708	128.56
621.915	108.56
622.122	140.56
622.329	131.56
622.536	109.56
622.743	122.56
622.95	122.56
623.157	127.56
623.364	132.56
623.571	120.56
623.778	123.56
623.985	124.56
624.192	129.56
624.399	125.56
624.606	135.56
624.812	110.56
625.019	122.56
625.226	140.56
625.433	132.56
625.639	135.56
625.846	122.56
626.053	114.56
626.259	131.56
626.466	124.56
626.673	129.56
626.879	122.56
627.086	116.56
627.293	124.56
627.499	121.56
627.706	119.56
627.912	129.56
628.119	135.56
628.325	128.56
628.532	126.56
628.738	121.56
628.945	116.56
629.151	122.56
629.357	130.56
629.564	124.56
629.77	119.56
629.976	119.56
630.183	104.56
630.389	100.56
630.595	116.56
630.802	120.56
631.008	104.56
631.214	125.56
631.42	116.56
631.627	99.56
631.833	101.56
632.039	112.56
632.245	108.56
632.451	106.56
632.657	105.56
632.863	116.56
633.069	117.56
633.275	118.56
633.481	125.56
633.688	113.56
633.893	119.56
634.099	122.56
634.305	114.56
634.511	117.56
634.717	114.56
634.923	115.56
635.129	126.56
635.335	107.56
635.541	105.56
635.747	125.56
635.952	101.56
636.158	113.56
636.364	112.56
636.57	103.56
636.775	121.56
636.981	105.56
637.187	101.56
637.392	119.56
637.598	123.56
637.804	114.56
638.009	105.56
638.215	105.56
638.421	99.56
638.626	102.56
638.832	113.56
639.037	114.56
639.243	113.56
639.448	135.56
639.654	119.56
639.859	124.56
640.065	107.56
640.27	129.56
640.475	118.56
640.681	109.56
640.886	122.56
641.091	108.56
641.297	117.56
641.502	114.56
641.707	118.56
641.913	122.56
642.118	107.56
642.323	103.56
642.528	101.56
642.733	116.56
642.939	111.56
643.144	125.56
643.349	111.56
643.554	116.56
643.759	117.56
643.964	109.56
644.169	108.56
644.374	109.56
644.579	105.56
644.784	110.56
644.989	97.56
645.194	118.56
645.399	120.56
645.604	107.56
645.809	113.56
646.014	113.56
646.219	122.56
646.423	101.56
646.628	122.56
646.833	103.56
647.038	121.56
647.243	104.56
647.447	123.56
647.652	125.56
647.857	111.56
648.062	124.56
648.266	113.56
648.471	113.56
648.676	111.56
648.88	122.56
649.085	103.56
649.289	116.56
649.494	114.56
649.698	100.56
649.903	111.56
650.107	105.56
650.312	115.56
650.516	99.56
650.721	92.56
650.925	108.56
651.13	103.56
651.334	100.56
651.539	107.56
651.743	95.56
651.947	115.56
652.152	103.56
652.356	98.56
652.56	114.56
652.764	120.56
652.969	109.56
653.173	119.56
653.377	103.56
653.581	106.56
653.785	103.56
653.99	106.56
654.194	113.56
654.398	93.56
654.602	98.56
654.806	89.56
655.01	102.56
655.214	102.56
655.418	100.56
655.622	103.56
655.826	101.56
656.03	109.56
656.234	96.56
656.438	112.56
656.642	98.56
656.846	103.56
657.049	109.56
657.253	102.56
657.457	105.56
657.661	95.56
657.865	100.56
658.068	93.56
658.272	103.56
658.476	107.56
658.68	106.56
658.883	74.56
659.087	94.56
659.291	85.56
659.494	90.56
659.698	82.56
659.901	78.56
660.105	86.56
660.309	86.56
660.512	88.56
660.716	80.56
660.919	87.56
661.123	84.56
661.326	99.56
661.53	108.56
661.733	82.56
661.936	80.56
662.14	80.56
662.343	75.56
662.546	81.56
662.75	82.56
662.953	81.56
663.156	84.56
663.36	90.56
663.563	77.56
663.766	101.56
663.969	72.56
664.173	77.56
664.376	83.56
664.579	84.56
664.782	91.56
664.985	78.56
665.188	79.56
665.391	97.56
665.594	76.56
665.797	85.56
666	92.56
666.203	87.56
666.406	81.56
666.609	88.56
666.812	77.56
667.015	85.56
667.218	94.56
667.421	94.56
667.624	95.56
667.827	87.56
668.03	101.56
668.232	90.56
668.435	84.56
668.638	76.56
668.841	74.56
669.043	85.56
669.246	96.56
669.449	78.56
669.651	76.56
669.854	72.56
670.057	89.56
670.259	87.56
670.462	88.56
670.665	87.56
670.867	85.56
671.07	97.56
671.272	82.56
671.475	77.56
671.677	60.56
671.88	77.56
672.082	93.56
672.284	77.56
672.487	90.56
672.689	69.56
672.892	78.56
