Data from 0.5MCu(NO3)2.Standard.Lamp.E10.CV._HRD10591_16-05-13-753.txt Node
Date: Mon Jul 22 16:05:13 EDT 2019
User: cochatt
Spectrometer: HR+D1059
Trigger mode: 1
Integration Time (sec): 1.000000E-1
Scans to average: 1
Electric dark correction enabled: true
Nonlinearity correction enabled: false
Boxcar width: 0
XAxis mode: Wavelengths
Number of Pixels in Spectrum: 2048
>>>>>Begin Spectral Data<<<<<
223.165	-30.25
223.4	-30.25
223.635	-30.25
223.869	-19.25
224.104	-14.25
224.338	-8.25
224.573	-28.25
224.808	-15.25
225.042	-5.25
225.277	-4.25
225.511	7.75
225.746	9.75
225.98	4.75
226.215	14.75
226.449	23.75
226.683	13.75
226.918	19.75
227.152	30.75
227.387	32.75
227.621	34.75
227.856	36.75
228.09	41.75
228.324	45.75
228.559	56.75
228.793	55.75
229.027	53.75
229.262	61.75
229.496	72.75
229.73	69.75
229.964	68.75
230.199	72.75
230.433	72.75
230.667	88.75
230.901	94.75
231.136	89.75
231.37	85.75
231.604	71.75
231.838	84.75
232.072	89.75
232.306	93.75
232.541	89.75
232.775	93.75
233.009	91.75
233.243	94.75
233.477	83.75
233.711	93.75
233.945	76.75
234.179	91.75
234.413	96.75
234.647	96.75
234.881	106.75
235.115	94.75
235.349	94.75
235.583	97.75
235.817	65.75
236.051	90.75
236.285	87.75
236.519	88.75
236.753	92.75
236.987	95.75
237.221	90.75
237.455	80.75
237.689	90.75
237.922	88.75
238.156	85.75
238.39	82.75
238.624	80.75
238.858	82.75
239.091	89.75
239.325	96.75
239.559	83.75
239.793	80.75
240.027	93.75
240.26	98.75
240.494	93.75
240.728	87.75
240.961	93.75
241.195	86.75
241.429	95.75
241.662	90.75
241.896	91.75
242.13	88.75
242.363	87.75
242.597	93.75
242.83	87.75
243.064	104.75
243.298	103.75
243.531	91.75
243.765	94.75
243.998	83.75
244.232	88.75
244.465	93.75
244.699	95.75
244.932	100.75
245.166	95.75
245.399	97.75
245.633	99.75
245.866	103.75
246.099	97.75
246.333	86.75
246.566	91.75
246.8	96.75
247.033	102.75
247.266	102.75
247.5	87.75
247.733	107.75
247.966	87.75
248.2	102.75
248.433	101.75
248.666	103.75
248.899	104.75
249.133	103.75
249.366	102.75
249.599	100.75
249.832	99.75
250.066	99.75
250.299	98.75
250.532	109.75
250.765	96.75
250.998	104.75
251.231	114.75
251.465	98.75
251.698	105.75
251.931	113.75
252.164	105.75
252.397	110.75
252.63	114.75
252.863	105.75
253.096	101.75
253.329	121.75
253.562	101.75
253.795	99.75
254.028	102.75
254.261	98.75
254.494	103.75
254.727	104.75
254.96	99.75
255.193	104.75
255.426	115.75
255.659	106.75
255.892	115.75
256.124	105.75
256.357	116.75
256.59	93.75
256.823	95.75
257.056	93.75
257.289	108.75
257.521	100.75
257.754	107.75
257.987	116.75
258.22	106.75
258.452	110.75
258.685	110.75
258.918	102.75
259.151	105.75
259.383	107.75
259.616	111.75
259.849	98.75
260.081	120.75
260.314	117.75
260.547	110.75
260.779	121.75
261.012	115.75
261.244	101.75
261.477	126.75
261.71	118.75
261.942	114.75
262.175	125.75
262.407	114.75
262.64	128.75
262.872	126.75
263.105	120.75
263.337	118.75
263.57	131.75
263.802	119.75
264.035	118.75
264.267	122.75
264.499	106.75
264.732	119.75
264.964	135.75
265.197	120.75
265.429	106.75
265.661	128.75
265.894	127.75
266.126	123.75
266.358	140.75
266.591	123.75
266.823	122.75
267.055	118.75
267.287	119.75
267.52	121.75
267.752	137.75
267.984	105.75
268.216	119.75
268.448	128.75
268.681	118.75
268.913	122.75
269.145	123.75
269.377	138.75
269.609	130.75
269.841	122.75
270.073	132.75
270.306	130.75
270.538	131.75
270.77	132.75
271.002	122.75
271.234	127.75
271.466	125.75
271.698	116.75
271.93	130.75
272.162	127.75
272.394	124.75
272.626	119.75
272.858	124.75
273.09	122.75
273.322	137.75
273.553	138.75
273.785	128.75
274.017	130.75
274.249	135.75
274.481	126.75
274.713	134.75
274.945	128.75
275.176	142.75
275.408	123.75
275.64	132.75
275.872	145.75
276.104	131.75
276.335	132.75
276.567	134.75
276.799	127.75
277.031	141.75
277.262	131.75
277.494	132.75
277.726	128.75
277.957	125.75
278.189	119.75
278.421	137.75
278.652	144.75
278.884	143.75
279.115	139.75
279.347	139.75
279.579	135.75
279.81	136.75
280.042	139.75
280.273	139.75
280.505	154.75
280.736	151.75
280.968	131.75
281.199	133.75
281.431	139.75
281.662	144.75
281.894	147.75
282.125	141.75
282.356	140.75
282.588	149.75
282.819	150.75
283.051	148.75
283.282	149.75
283.513	156.75
283.745	143.75
283.976	137.75
284.207	159.75
284.439	140.75
284.67	169.75
284.901	141.75
285.132	131.75
285.364	143.75
285.595	152.75
285.826	147.75
286.057	152.75
286.288	153.75
286.52	140.75
286.751	143.75
286.982	149.75
287.213	161.75
287.444	143.75
287.675	147.75
287.906	154.75
288.138	151.75
288.369	147.75
288.6	131.75
288.831	149.75
289.062	145.75
289.293	154.75
289.524	139.75
289.755	153.75
289.986	153.75
290.217	164.75
290.448	156.75
290.679	148.75
290.91	160.75
291.141	153.75
291.371	156.75
291.602	153.75
291.833	144.75
292.064	141.75
292.295	157.75
292.526	159.75
292.757	168.75
292.987	142.75
293.218	161.75
293.449	157.75
293.68	146.75
293.91	143.75
294.141	153.75
294.372	151.75
294.603	161.75
294.833	162.75
295.064	151.75
295.295	153.75
295.525	167.75
295.756	165.75
295.987	149.75
296.217	143.75
296.448	153.75
296.679	151.75
296.909	168.75
297.14	173.75
297.37	147.75
297.601	154.75
297.831	169.75
298.062	166.75
298.292	169.75
298.523	174.75
298.753	178.75
298.984	167.75
299.214	172.75
299.445	148.75
299.675	161.75
299.905	158.75
300.136	162.75
300.366	167.75
300.597	167.75
300.827	157.75
301.057	165.75
301.288	166.75
301.518	179.75
301.748	167.75
301.979	173.75
302.209	182.75
302.439	177.75
302.669	181.75
302.9	173.75
303.13	165.75
303.36	174.75
303.59	173.75
303.82	175.75
304.051	159.75
304.281	177.75
304.511	180.75
304.741	176.75
304.971	192.75
305.201	174.75
305.431	178.75
305.661	173.75
305.891	151.75
306.121	167.75
306.352	168.75
306.582	163.75
306.812	162.75
307.042	182.75
307.272	155.75
307.502	164.75
307.731	169.75
307.961	170.75
308.191	172.75
308.421	168.75
308.651	168.75
308.881	162.75
309.111	169.75
309.341	173.75
309.571	163.75
309.8	171.75
310.03	157.75
310.26	157.75
310.49	180.75
310.72	165.75
310.949	161.75
311.179	160.75
311.409	164.75
311.639	167.75
311.868	153.75
312.098	165.75
312.328	168.75
312.557	167.75
312.787	170.75
313.017	157.75
313.246	177.75
313.476	168.75
313.706	177.75
313.935	171.75
314.165	173.75
314.394	179.75
314.624	169.75
314.853	171.75
315.083	172.75
315.312	175.75
315.542	180.75
315.771	174.75
316.001	164.75
316.23	165.75
316.46	179.75
316.689	155.75
316.919	174.75
317.148	163.75
317.377	174.75
317.607	172.75
317.836	166.75
318.065	165.75
318.295	161.75
318.524	156.75
318.753	165.75
318.983	185.75
319.212	185.75
319.441	172.75
319.67	168.75
319.9	184.75
320.129	164.75
320.358	167.75
320.587	162.75
320.816	169.75
321.046	178.75
321.275	167.75
321.504	171.75
321.733	170.75
321.962	177.75
322.191	177.75
322.42	165.75
322.649	189.75
322.878	181.75
323.108	168.75
323.337	187.75
323.566	184.75
323.795	156.75
324.024	179.75
324.253	190.75
324.482	173.75
324.71	177.75
324.939	170.75
325.168	176.75
325.397	186.75
325.626	180.75
325.855	184.75
326.084	170.75
326.313	178.75
326.542	194.75
326.77	188.75
326.999	178.75
327.228	200.75
327.457	185.75
327.686	166.75
327.914	159.75
328.143	189.75
328.372	205.75
328.6	180.75
328.829	156.75
329.058	171.75
329.287	182.75
329.515	169.75
329.744	196.75
329.972	183.75
330.201	195.75
330.43	182.75
330.658	185.75
330.887	186.75
331.115	191.75
331.344	187.75
331.572	204.75
331.801	201.75
332.03	185.75
332.258	183.75
332.486	184.75
332.715	213.75
332.943	223.75
333.172	234.75
333.4	214.75
333.629	229.75
333.857	218.75
334.085	227.75
334.314	228.75
334.542	217.75
334.771	209.75
334.999	211.75
335.227	207.75
335.455	204.75
335.684	230.75
335.912	204.75
336.14	226.75
336.369	212.75
336.597	190.75
336.825	190.75
337.053	207.75
337.281	211.75
337.51	189.75
337.738	197.75
337.966	198.75
338.194	210.75
338.422	183.75
338.65	193.75
338.878	199.75
339.106	210.75
339.334	197.75
339.562	194.75
339.79	177.75
340.018	191.75
340.246	202.75
340.474	184.75
340.702	178.75
340.93	183.75
341.158	170.75
341.386	204.75
341.614	182.75
341.842	184.75
342.07	170.75
342.298	179.75
342.526	193.75
342.754	179.75
342.981	186.75
343.209	189.75
343.437	189.75
343.665	199.75
343.893	219.75
344.12	241.75
344.348	211.75
344.576	201.75
344.804	197.75
345.031	191.75
345.259	202.75
345.487	176.75
345.714	190.75
345.942	183.75
346.17	205.75
346.397	173.75
346.625	181.75
346.853	181.75
347.08	185.75
347.308	185.75
347.535	197.75
347.763	177.75
347.99	185.75
348.218	177.75
348.445	192.75
348.673	186.75
348.9	214.75
349.128	177.75
349.355	196.75
349.583	195.75
349.81	177.75
350.037	194.75
350.265	184.75
350.492	179.75
350.72	172.75
350.947	183.75
351.174	170.75
351.402	179.75
351.629	165.75
351.856	182.75
352.083	171.75
352.311	193.75
352.538	165.75
352.765	172.75
352.992	183.75
353.22	177.75
353.447	174.75
353.674	169.75
353.901	181.75
354.128	181.75
354.355	194.75
354.583	180.75
354.81	179.75
355.037	168.75
355.264	192.75
355.491	190.75
355.718	175.75
355.945	165.75
356.172	175.75
356.399	179.75
356.626	185.75
356.853	193.75
357.08	193.75
357.307	175.75
357.534	195.75
357.761	180.75
357.988	202.75
358.215	175.75
358.441	181.75
358.668	183.75
358.895	190.75
359.122	174.75
359.349	184.75
359.576	191.75
359.802	169.75
360.029	158.75
360.256	185.75
360.483	169.75
360.709	175.75
360.936	177.75
361.163	186.75
361.39	173.75
361.616	166.75
361.843	178.75
362.07	185.75
362.296	178.75
362.523	191.75
362.749	184.75
362.976	180.75
363.203	179.75
363.429	193.75
363.656	177.75
363.882	183.75
364.109	177.75
364.335	167.75
364.562	168.75
364.788	184.75
365.015	197.75
365.241	166.75
365.468	197.75
365.694	183.75
365.92	172.75
366.147	178.75
366.373	159.75
366.599	167.75
366.826	167.75
367.052	186.75
367.278	175.75
367.505	182.75
367.731	185.75
367.957	186.75
368.184	175.75
368.41	197.75
368.636	189.75
368.862	191.75
369.089	164.75
369.315	181.75
369.541	190.75
369.767	184.75
369.993	194.75
370.219	194.75
370.445	171.75
370.672	171.75
370.898	167.75
371.124	170.75
371.35	186.75
371.576	181.75
371.802	173.75
372.028	187.75
372.254	206.75
372.48	195.75
372.706	187.75
372.932	207.75
373.158	192.75
373.384	197.75
373.61	202.75
373.835	181.75
374.061	193.75
374.287	193.75
374.513	195.75
374.739	181.75
374.965	187.75
375.191	200.75
375.416	204.75
375.642	203.75
375.868	188.75
376.094	202.75
376.319	188.75
376.545	198.75
376.771	191.75
376.997	199.75
377.222	198.75
377.448	194.75
377.674	194.75
377.899	181.75
378.125	178.75
378.35	197.75
378.576	181.75
378.802	168.75
379.027	192.75
379.253	190.75
379.478	183.75
379.704	188.75
379.929	195.75
380.155	190.75
380.38	191.75
380.606	188.75
380.831	191.75
381.057	183.75
381.282	180.75
381.507	191.75
381.733	178.75
381.958	191.75
382.184	185.75
382.409	187.75
382.634	199.75
382.86	199.75
383.085	179.75
383.31	181.75
383.535	191.75
383.761	193.75
383.986	209.75
384.211	206.75
384.436	197.75
384.662	216.75
384.887	214.75
385.112	207.75
385.337	203.75
385.562	201.75
385.787	204.75
386.013	229.75
386.238	222.75
386.463	214.75
386.688	216.75
386.913	205.75
387.138	189.75
387.363	207.75
387.588	213.75
387.813	208.75
388.038	213.75
388.263	206.75
388.488	219.75
388.713	210.75
388.938	220.75
389.163	207.75
389.387	211.75
389.612	209.75
389.837	202.75
390.062	215.75
390.287	220.75
390.512	209.75
390.736	197.75
390.961	199.75
391.186	226.75
391.411	219.75
391.636	212.75
391.86	236.75
392.085	221.75
392.31	225.75
392.534	209.75
392.759	221.75
392.984	236.75
393.208	231.75
393.433	227.75
393.658	226.75
393.882	227.75
394.107	225.75
394.331	220.75
394.556	233.75
394.78	213.75
395.005	215.75
395.229	220.75
395.454	234.75
395.678	229.75
395.903	238.75
396.127	230.75
396.352	215.75
396.576	202.75
396.801	206.75
397.025	211.75
397.249	225.75
397.474	229.75
397.698	214.75
397.922	218.75
398.147	225.75
398.371	221.75
398.595	238.75
398.82	239.75
399.044	244.75
399.268	272.75
399.492	311.75
399.717	352.75
399.941	325.75
400.165	309.75
400.389	270.75
400.613	260.75
400.837	243.75
401.062	257.75
401.286	230.75
401.51	261.75
401.734	226.75
401.958	243.75
402.182	229.75
402.406	257.75
402.63	260.75
402.854	249.75
403.078	271.75
403.302	272.75
403.526	260.75
403.75	274.75
403.974	269.75
404.198	285.75
404.422	303.75
404.645	283.75
404.869	254.75
405.093	246.75
405.317	266.75
405.541	270.75
405.765	250.75
405.988	288.75
406.212	266.75
406.436	280.75
406.66	280.75
406.883	284.75
407.107	299.75
407.331	309.75
407.555	298.75
407.778	307.75
408.002	300.75
408.226	277.75
408.449	285.75
408.673	260.75
408.896	265.75
409.12	251.75
409.344	267.75
409.567	260.75
409.791	269.75
410.014	264.75
410.238	257.75
410.461	267.75
410.685	266.75
410.908	248.75
411.132	264.75
411.355	247.75
411.578	251.75
411.802	252.75
412.025	258.75
412.249	256.75
412.472	250.75
412.695	230.75
412.919	231.75
413.142	229.75
413.365	255.75
413.589	240.75
413.812	239.75
414.035	233.75
414.258	265.75
414.482	232.75
414.705	247.75
414.928	241.75
415.151	242.75
415.374	255.75
415.597	261.75
415.821	236.75
416.044	235.75
416.267	222.75
416.49	221.75
416.713	238.75
416.936	241.75
417.159	261.75
417.382	247.75
417.605	250.75
417.828	230.75
418.051	247.75
418.274	242.75
418.497	266.75
418.72	253.75
418.943	245.75
419.166	250.75
419.389	275.75
419.611	264.75
419.834	261.75
420.057	271.75
420.28	243.75
420.503	257.75
420.726	234.75
420.948	229.75
421.171	235.75
421.394	234.75
421.617	226.75
421.839	238.75
422.062	254.75
422.285	249.75
422.507	245.75
422.73	234.75
422.953	241.75
423.175	255.75
423.398	241.75
423.621	248.75
423.843	252.75
424.066	264.75
424.288	256.75
424.511	253.75
424.733	243.75
424.956	233.75
425.178	253.75
425.401	237.75
425.623	249.75
425.846	229.75
426.068	238.75
426.291	206.75
426.513	232.75
426.735	237.75
426.958	216.75
427.18	229.75
427.402	218.75
427.625	218.75
427.847	221.75
428.069	223.75
428.292	238.75
428.514	230.75
428.736	225.75
428.958	242.75
429.181	222.75
429.403	214.75
429.625	217.75
429.847	217.75
430.069	209.75
430.292	223.75
430.514	217.75
430.736	226.75
430.958	225.75
431.18	214.75
431.402	213.75
431.624	226.75
431.846	233.75
432.068	220.75
432.29	231.75
432.512	225.75
432.734	218.75
432.956	229.75
433.178	229.75
433.4	222.75
433.622	220.75
433.844	221.75
434.066	210.75
434.287	211.75
434.509	235.75
434.731	245.75
434.953	229.75
435.175	238.75
435.397	243.75
435.618	235.75
435.84	257.75
436.062	218.75
436.284	230.75
436.505	212.75
436.727	208.75
436.949	232.75
437.17	224.75
437.392	219.75
437.614	213.75
437.835	205.75
438.057	238.75
438.278	216.75
438.5	218.75
438.721	221.75
438.943	224.75
439.165	215.75
439.386	229.75
439.608	222.75
439.829	228.75
440.05	221.75
440.272	219.75
440.493	227.75
440.715	222.75
440.936	224.75
441.158	216.75
441.379	247.75
441.6	251.75
441.822	254.75
442.043	249.75
442.264	245.75
442.486	242.75
442.707	212.75
442.928	245.75
443.149	242.75
443.371	229.75
443.592	222.75
443.813	249.75
444.034	232.75
444.255	269.75
444.476	258.75
444.698	282.75
444.919	268.75
445.14	408.75
445.361	329.75
445.582	254.75
445.803	247.75
446.024	239.75
446.245	223.75
446.466	211.75
446.687	194.75
446.908	220.75
447.129	226.75
447.35	214.75
447.571	217.75
447.792	215.75
448.013	211.75
448.234	217.75
448.455	234.75
448.675	203.75
448.896	216.75
449.117	214.75
449.338	216.75
449.559	215.75
449.779	204.75
450	212.75
450.221	203.75
450.442	205.75
450.662	217.75
450.883	222.75
451.104	220.75
451.324	210.75
451.545	218.75
451.766	236.75
451.986	215.75
452.207	205.75
452.428	210.75
452.648	214.75
452.869	205.75
453.089	180.75
453.31	207.75
453.53	216.75
453.751	202.75
453.971	199.75
454.192	191.75
454.412	198.75
454.633	200.75
454.853	214.75
455.073	206.75
455.294	203.75
455.514	205.75
455.734	216.75
455.955	195.75
456.175	210.75
456.395	185.75
456.616	186.75
456.836	202.75
457.056	196.75
457.276	193.75
457.497	207.75
457.717	208.75
457.937	214.75
458.157	209.75
458.377	213.75
458.598	200.75
458.818	200.75
459.038	194.75
459.258	198.75
459.478	238.75
459.698	219.75
459.918	232.75
460.138	241.75
460.358	251.75
460.578	268.75
460.798	245.75
461.018	251.75
461.238	259.75
461.458	255.75
461.678	258.75
461.898	249.75
462.118	262.75
462.338	270.75
462.558	283.75
462.777	275.75
462.997	289.75
463.217	340.75
463.437	331.75
463.657	279.75
463.876	283.75
464.096	270.75
464.316	300.75
464.536	290.75
464.755	273.75
464.975	283.75
465.195	251.75
465.414	246.75
465.634	245.75
465.854	233.75
466.073	235.75
466.293	236.75
466.512	227.75
466.732	223.75
466.951	227.75
467.171	219.75
467.391	230.75
467.61	237.75
467.829	231.75
468.049	225.75
468.268	214.75
468.488	217.75
468.707	194.75
468.927	215.75
469.146	206.75
469.365	206.75
469.585	220.75
469.804	226.75
470.023	223.75
470.243	210.75
470.462	241.75
470.681	235.75
470.901	216.75
471.12	228.75
471.339	224.75
471.558	214.75
471.777	212.75
471.997	219.75
472.216	224.75
472.435	218.75
472.654	205.75
472.873	217.75
473.092	204.75
473.311	201.75
473.53	207.75
473.749	219.75
473.968	202.75
474.187	211.75
474.406	217.75
474.625	210.75
474.844	212.75
475.063	221.75
475.282	207.75
475.501	215.75
475.72	208.75
475.939	231.75
476.158	223.75
476.377	226.75
476.596	216.75
476.814	203.75
477.033	216.75
477.252	219.75
477.471	211.75
477.69	221.75
477.908	246.75
478.127	246.75
478.346	239.75
478.564	249.75
478.783	236.75
479.002	259.75
479.22	260.75
479.439	261.75
479.658	241.75
479.876	241.75
480.095	264.75
480.313	246.75
480.532	278.75
480.751	266.75
480.969	267.75
481.188	247.75
481.406	233.75
481.624	246.75
481.843	233.75
482.061	249.75
482.28	246.75
482.498	234.75
482.717	211.75
482.935	234.75
483.153	260.75
483.372	240.75
483.59	249.75
483.808	215.75
484.027	249.75
484.245	230.75
484.463	229.75
484.681	240.75
484.9	249.75
485.118	241.75
485.336	249.75
485.554	247.75
485.772	262.75
485.99	259.75
486.209	245.75
486.427	257.75
486.645	251.75
486.863	256.75
487.081	267.75
487.299	252.75
487.517	243.75
487.735	262.75
487.953	259.75
488.171	245.75
488.389	265.75
488.607	234.75
488.825	239.75
489.043	249.75
489.261	234.75
489.479	264.75
489.696	241.75
489.914	233.75
490.132	243.75
490.35	249.75
490.568	243.75
490.786	260.75
491.003	259.75
491.221	263.75
491.439	251.75
491.657	246.75
491.874	261.75
492.092	267.75
492.31	258.75
492.527	257.75
492.745	256.75
492.963	246.75
493.18	253.75
493.398	255.75
493.615	253.75
493.833	266.75
494.05	282.75
494.268	260.75
494.485	270.75
494.703	273.75
494.92	261.75
495.138	271.75
495.355	271.75
495.573	258.75
495.79	279.75
496.008	273.75
496.225	261.75
496.442	264.75
496.66	275.75
496.877	282.75
497.094	261.75
497.312	292.75
497.529	290.75
497.746	269.75
497.963	297.75
498.181	306.75
498.398	293.75
498.615	320.75
498.832	315.75
499.049	349.75
499.267	398.75
499.484	405.75
499.701	446.75
499.918	501.75
500.135	560.75
500.352	620.75
500.569	693.75
500.786	683.75
501.003	621.75
501.22	567.75
501.437	501.75
501.654	436.75
501.871	403.75
502.088	379.75
502.305	359.75
502.522	349.75
502.739	335.75
502.956	316.75
503.172	322.75
503.389	287.75
503.606	281.75
503.823	299.75
504.04	284.75
504.256	284.75
504.473	292.75
504.69	311.75
504.907	305.75
505.123	298.75
505.34	267.75
505.557	262.75
505.773	270.75
505.99	249.75
506.207	259.75
506.423	239.75
506.64	261.75
506.856	240.75
507.073	250.75
507.289	264.75
507.506	231.75
507.722	251.75
507.939	221.75
508.155	227.75
508.372	231.75
508.588	228.75
508.805	232.75
509.021	234.75
509.238	221.75
509.454	240.75
509.67	237.75
509.887	221.75
510.103	235.75
510.319	214.75
510.536	233.75
510.752	225.75
510.968	207.75
511.184	218.75
511.401	225.75
511.617	226.75
511.833	218.75
512.049	215.75
512.265	236.75
512.481	245.75
512.698	238.75
512.914	229.75
513.13	229.75
513.346	228.75
513.562	233.75
513.778	229.75
513.994	218.75
514.21	217.75
514.426	237.75
514.642	242.75
514.858	221.75
515.074	228.75
515.29	232.75
515.506	233.75
515.721	231.75
515.937	229.75
516.153	239.75
516.369	246.75
516.585	237.75
516.801	249.75
517.016	277.75
517.232	287.75
517.448	298.75
517.664	285.75
517.879	284.75
518.095	309.75
518.311	287.75
518.527	293.75
518.742	268.75
518.958	269.75
519.173	254.75
519.389	243.75
519.605	245.75
519.82	246.75
520.036	242.75
520.251	225.75
520.467	247.75
520.682	231.75
520.898	233.75
521.113	229.75
521.329	230.75
521.544	217.75
521.76	228.75
521.975	227.75
522.19	220.75
522.406	224.75
522.621	219.75
522.836	205.75
523.052	210.75
523.267	218.75
523.482	214.75
523.698	210.75
523.913	225.75
524.128	220.75
524.343	219.75
524.559	229.75
524.774	222.75
524.989	228.75
525.204	233.75
525.419	201.75
525.634	211.75
525.849	225.75
526.064	213.75
526.28	198.75
526.495	211.75
526.71	222.75
526.925	202.75
527.14	205.75
527.355	214.75
527.57	207.75
527.785	203.75
527.999	198.75
528.214	214.75
528.429	217.75
528.644	216.75
528.859	206.75
529.074	203.75
529.289	225.75
529.503	214.75
529.718	209.75
529.933	227.75
530.148	210.75
530.363	214.75
530.577	234.75
530.792	199.75
531.007	203.75
531.221	199.75
531.436	221.75
531.651	226.75
531.865	217.75
532.08	217.75
532.295	242.75
532.509	229.75
532.724	212.75
532.938	218.75
533.153	214.75
533.367	204.75
533.582	212.75
533.796	201.75
534.011	211.75
534.225	219.75
534.44	206.75
534.654	221.75
534.868	212.75
535.083	218.75
535.297	213.75
535.511	231.75
535.726	218.75
535.94	218.75
536.154	214.75
536.369	218.75
536.583	206.75
536.797	221.75
537.011	206.75
537.225	190.75
537.44	202.75
537.654	205.75
537.868	202.75
538.082	215.75
538.296	207.75
538.51	214.75
538.724	207.75
538.938	203.75
539.153	204.75
539.367	200.75
539.581	188.75
539.795	196.75
540.009	206.75
540.222	201.75
540.436	203.75
540.65	203.75
540.864	184.75
541.078	191.75
541.292	221.75
541.506	206.75
541.72	212.75
541.934	207.75
542.147	215.75
542.361	219.75
542.575	191.75
542.789	192.75
543.002	193.75
543.216	199.75
543.43	203.75
543.644	213.75
543.857	201.75
544.071	222.75
544.285	211.75
544.498	205.75
544.712	198.75
544.925	211.75
545.139	211.75
545.352	198.75
545.566	206.75
545.779	212.75
545.993	206.75
546.206	212.75
546.42	210.75
546.633	200.75
546.847	207.75
547.06	199.75
547.274	201.75
547.487	214.75
547.7	206.75
547.914	196.75
548.127	210.75
548.34	198.75
548.554	210.75
548.767	210.75
548.98	215.75
549.193	193.75
549.407	209.75
549.62	212.75
549.833	204.75
550.046	203.75
550.259	213.75
550.473	206.75
550.686	205.75
550.899	207.75
551.112	210.75
551.325	189.75
551.538	195.75
551.751	182.75
551.964	194.75
552.177	206.75
552.39	204.75
552.603	212.75
552.816	211.75
553.029	242.75
553.242	216.75
553.455	218.75
553.667	233.75
553.88	228.75
554.093	214.75
554.306	210.75
554.519	208.75
554.732	217.75
554.944	210.75
555.157	208.75
555.37	195.75
555.583	205.75
555.795	183.75
556.008	196.75
556.221	169.75
556.433	206.75
556.646	199.75
556.859	193.75
557.071	172.75
557.284	181.75
557.496	195.75
557.709	194.75
557.921	199.75
558.134	183.75
558.346	179.75
558.559	197.75
558.771	197.75
558.984	195.75
559.196	190.75
559.409	210.75
559.621	194.75
559.833	194.75
560.046	169.75
560.258	177.75
560.47	195.75
560.683	180.75
560.895	192.75
561.107	190.75
561.32	180.75
561.532	182.75
561.744	189.75
561.956	185.75
562.168	171.75
562.381	182.75
562.593	181.75
562.805	189.75
563.017	193.75
563.229	188.75
563.441	191.75
563.653	202.75
563.865	156.75
564.077	185.75
564.289	166.75
564.501	190.75
564.713	208.75
564.925	196.75
565.137	204.75
565.349	205.75
565.561	203.75
565.773	198.75
565.985	213.75
566.197	219.75
566.408	235.75
566.62	241.75
566.832	241.75
567.044	257.75
567.255	269.75
567.467	268.75
567.679	297.75
567.891	286.75
568.102	324.75
568.314	307.75
568.526	273.75
568.737	237.75
568.949	247.75
569.161	215.75
569.372	206.75
569.584	204.75
569.795	193.75
570.007	196.75
570.218	186.75
570.43	198.75
570.641	191.75
570.853	200.75
571.064	198.75
571.276	188.75
571.487	191.75
571.698	166.75
571.91	171.75
572.121	168.75
572.333	181.75
572.544	151.75
572.755	170.75
572.966	179.75
573.178	174.75
573.389	162.75
573.6	177.75
573.811	158.75
574.023	155.75
574.234	170.75
574.445	150.75
574.656	170.75
574.867	162.75
575.078	162.75
575.289	166.75
575.501	180.75
575.712	182.75
575.923	149.75
576.134	159.75
576.345	153.75
576.556	153.75
576.767	154.75
576.978	166.75
577.188	162.75
577.399	146.75
577.61	161.75
577.821	157.75
578.032	170.75
578.243	154.75
578.454	165.75
578.665	169.75
578.875	154.75
579.086	151.75
579.297	139.75
579.508	168.75
579.718	167.75
579.929	184.75
580.14	158.75
580.35	147.75
580.561	154.75
580.772	147.75
580.982	153.75
581.193	149.75
581.403	170.75
581.614	149.75
581.825	164.75
582.035	147.75
582.246	164.75
582.456	157.75
582.667	170.75
582.877	170.75
583.087	156.75
583.298	143.75
583.508	141.75
583.719	168.75
583.929	160.75
584.139	150.75
584.35	141.75
584.56	153.75
584.77	151.75
584.981	153.75
585.191	163.75
585.401	158.75
585.611	138.75
585.821	146.75
586.032	151.75
586.242	141.75
586.452	141.75
586.662	146.75
586.872	154.75
587.082	133.75
587.292	159.75
587.502	155.75
587.713	153.75
587.923	160.75
588.133	156.75
588.343	137.75
588.553	164.75
588.762	149.75
588.972	161.75
589.182	177.75
589.392	171.75
589.602	155.75
589.812	161.75
590.022	154.75
590.232	161.75
590.441	144.75
590.651	148.75
590.861	162.75
591.071	161.75
591.281	154.75
591.49	155.75
591.7	159.75
591.91	142.75
592.119	172.75
592.329	167.75
592.539	180.75
592.748	170.75
592.958	165.75
593.167	178.75
593.377	179.75
593.587	179.75
593.796	176.75
594.006	192.75
594.215	177.75
594.424	185.75
594.634	170.75
594.843	164.75
595.053	178.75
595.262	166.75
595.472	161.75
595.681	161.75
595.89	161.75
596.1	158.75
596.309	141.75
596.518	148.75
596.727	146.75
596.937	142.75
597.146	145.75
597.355	153.75
597.564	131.75
597.774	144.75
597.983	146.75
598.192	153.75
598.401	136.75
598.61	133.75
598.819	144.75
599.028	139.75
599.237	142.75
599.446	123.75
599.655	136.75
599.864	138.75
600.073	142.75
600.282	146.75
600.491	126.75
600.7	129.75
600.909	133.75
601.118	135.75
601.327	137.75
601.536	150.75
601.745	134.75
601.953	129.75
602.162	140.75
602.371	146.75
602.58	157.75
602.789	141.75
602.997	143.75
603.206	154.75
603.415	129.75
603.623	135.75
603.832	125.75
604.041	134.75
604.249	144.75
604.458	137.75
604.666	147.75
604.875	142.75
605.084	132.75
605.292	135.75
605.501	138.75
605.709	131.75
605.918	140.75
606.126	144.75
606.334	157.75
606.543	126.75
606.751	135.75
606.96	138.75
607.168	127.75
607.376	143.75
607.585	125.75
607.793	120.75
608.001	136.75
608.21	132.75
608.418	129.75
608.626	138.75
608.834	138.75
609.043	124.75
609.251	134.75
609.459	125.75
609.667	147.75
609.875	148.75
610.083	119.75
610.291	134.75
610.499	127.75
610.707	131.75
610.916	123.75
611.124	132.75
611.332	137.75
611.54	130.75
611.748	130.75
611.955	128.75
612.163	140.75
612.371	136.75
612.579	130.75
612.787	119.75
612.995	131.75
613.203	133.75
613.411	133.75
613.618	134.75
613.826	125.75
614.034	125.75
614.242	123.75
614.449	123.75
614.657	118.75
614.865	128.75
615.072	138.75
615.28	138.75
615.488	123.75
615.695	137.75
615.903	141.75
616.111	146.75
616.318	132.75
616.526	135.75
616.733	150.75
616.941	148.75
617.148	141.75
617.356	146.75
617.563	137.75
617.771	143.75
617.978	128.75
618.185	134.75
618.393	133.75
618.6	124.75
618.807	118.75
619.015	126.75
619.222	127.75
619.429	130.75
619.637	129.75
619.844	129.75
620.051	139.75
620.258	133.75
620.466	131.75
620.673	132.75
620.88	130.75
621.087	133.75
621.294	131.75
621.501	134.75
621.708	122.75
621.915	113.75
622.122	132.75
622.329	128.75
622.536	132.75
622.743	136.75
622.95	121.75
623.157	124.75
623.364	126.75
623.571	116.75
623.778	109.75
623.985	127.75
624.192	133.75
624.399	135.75
624.606	138.75
624.812	122.75
625.019	127.75
625.226	128.75
625.433	124.75
625.639	135.75
625.846	118.75
626.053	115.75
626.259	131.75
626.466	123.75
626.673	115.75
626.879	108.75
627.086	121.75
627.293	122.75
627.499	131.75
627.706	121.75
627.912	114.75
628.119	121.75
628.325	122.75
628.532	124.75
628.738	115.75
628.945	113.75
629.151	130.75
629.357	119.75
629.564	127.75
629.77	126.75
629.976	125.75
630.183	123.75
630.389	120.75
630.595	110.75
630.802	115.75
631.008	121.75
631.214	111.75
631.42	118.75
631.627	116.75
631.833	109.75
632.039	110.75
632.245	110.75
632.451	117.75
632.657	119.75
632.863	107.75
633.069	112.75
633.275	124.75
633.481	127.75
633.688	113.75
633.893	106.75
634.099	100.75
634.305	120.75
634.511	111.75
634.717	123.75
634.923	122.75
635.129	115.75
635.335	120.75
635.541	105.75
635.747	116.75
635.952	114.75
636.158	118.75
636.364	118.75
636.57	104.75
636.775	117.75
636.981	121.75
637.187	99.75
637.392	105.75
637.598	130.75
637.804	121.75
638.009	105.75
638.215	123.75
638.421	113.75
638.626	122.75
638.832	96.75
639.037	123.75
639.243	117.75
639.448	96.75
639.654	102.75
639.859	114.75
640.065	117.75
640.27	112.75
640.475	129.75
640.681	121.75
640.886	90.75
641.091	105.75
641.297	110.75
641.502	110.75
641.707	106.75
641.913	101.75
642.118	123.75
642.323	124.75
642.528	109.75
642.733	107.75
642.939	116.75
643.144	112.75
643.349	108.75
643.554	117.75
643.759	102.75
643.964	109.75
644.169	107.75
644.374	104.75
644.579	99.75
644.784	114.75
644.989	106.75
645.194	100.75
645.399	101.75
645.604	94.75
645.809	115.75
646.014	125.75
646.219	104.75
646.423	112.75
646.628	110.75
646.833	116.75
647.038	110.75
647.243	111.75
647.447	107.75
647.652	104.75
647.857	111.75
648.062	120.75
648.266	108.75
648.471	120.75
648.676	109.75
648.88	115.75
649.085	140.75
649.289	101.75
649.494	105.75
649.698	105.75
649.903	101.75
650.107	100.75
650.312	119.75
650.516	103.75
650.721	90.75
650.925	109.75
651.13	108.75
651.334	103.75
651.539	114.75
651.743	99.75
651.947	115.75
652.152	102.75
652.356	98.75
652.56	104.75
652.764	93.75
652.969	110.75
653.173	90.75
653.377	91.75
653.581	96.75
653.785	115.75
653.99	102.75
654.194	112.75
654.398	107.75
654.602	117.75
654.806	85.75
655.01	108.75
655.214	95.75
655.418	106.75
655.622	98.75
655.826	92.75
656.03	118.75
656.234	103.75
656.438	107.75
656.642	92.75
656.846	104.75
657.049	108.75
657.253	101.75
657.457	110.75
657.661	102.75
657.865	103.75
658.068	88.75
658.272	81.75
658.476	86.75
658.68	103.75
658.883	85.75
659.087	79.75
659.291	108.75
659.494	90.75
659.698	100.75
659.901	85.75
660.105	91.75
660.309	67.75
660.512	88.75
660.716	105.75
660.919	102.75
661.123	87.75
661.326	102.75
661.53	94.75
661.733	94.75
661.936	78.75
662.14	92.75
662.343	90.75
662.546	84.75
662.75	96.75
662.953	85.75
663.156	89.75
663.36	99.75
663.563	77.75
663.766	87.75
663.969	89.75
664.173	90.75
664.376	78.75
664.579	91.75
664.782	77.75
664.985	80.75
665.188	79.75
665.391	94.75
665.594	89.75
665.797	100.75
666	95.75
666.203	89.75
666.406	78.75
666.609	69.75
666.812	67.75
667.015	82.75
667.218	76.75
667.421	77.75
667.624	93.75
667.827	80.75
668.03	85.75
668.232	82.75
668.435	89.75
668.638	70.75
668.841	69.75
669.043	90.75
669.246	81.75
669.449	77.75
669.651	88.75
669.854	81.75
670.057	81.75
670.259	80.75
670.462	86.75
670.665	75.75
670.867	77.75
671.07	78.75
671.272	85.75
671.475	83.75
671.677	80.75
671.88	87.75
672.082	80.75
672.284	79.75
672.487	76.75
672.689	87.75
672.892	89.75
