Data from 0.5MCu(NO3)2.Standard.Lamp.E10.CV._HRD10591_16-06-16-753.txt Node
Date: Mon Jul 22 16:06:16 EDT 2019
User: cochatt
Spectrometer: HR+D1059
Trigger mode: 1
Integration Time (sec): 1.000000E-1
Scans to average: 1
Electric dark correction enabled: true
Nonlinearity correction enabled: false
Boxcar width: 0
XAxis mode: Wavelengths
Number of Pixels in Spectrum: 2048
>>>>>Begin Spectral Data<<<<<
223.165	-22.56
223.4	-22.56
223.635	-22.56
223.869	-7.56
224.104	-17.56
224.338	-8.56
224.573	-5.56
224.808	-11.56
225.042	1.44
225.277	-25.56
225.511	-16.56
225.746	-3.56
225.98	18.44
226.215	10.44
226.449	19.44
226.683	16.44
226.918	17.44
227.152	35.44
227.387	29.44
227.621	36.44
227.856	46.44
228.09	43.44
228.324	39.44
228.559	59.44
228.793	66.44
229.027	71.44
229.262	71.44
229.496	83.44
229.73	76.44
229.964	81.44
230.199	85.44
230.433	94.44
230.667	81.44
230.901	84.44
231.136	74.44
231.37	68.44
231.604	85.44
231.838	75.44
232.072	75.44
232.306	101.44
232.541	101.44
232.775	83.44
233.009	100.44
233.243	77.44
233.477	65.44
233.711	87.44
233.945	83.44
234.179	93.44
234.413	83.44
234.647	80.44
234.881	89.44
235.115	75.44
235.349	79.44
235.583	80.44
235.817	86.44
236.051	89.44
236.285	82.44
236.519	81.44
236.753	89.44
236.987	76.44
237.221	78.44
237.455	96.44
237.689	72.44
237.922	77.44
238.156	87.44
238.39	81.44
238.624	83.44
238.858	77.44
239.091	70.44
239.325	92.44
239.559	98.44
239.793	90.44
240.027	92.44
240.26	96.44
240.494	89.44
240.728	87.44
240.961	97.44
241.195	87.44
241.429	86.44
241.662	93.44
241.896	85.44
242.13	97.44
242.363	95.44
242.597	94.44
242.83	98.44
243.064	89.44
243.298	81.44
243.531	86.44
243.765	89.44
243.998	90.44
244.232	94.44
244.465	86.44
244.699	97.44
244.932	105.44
245.166	92.44
245.399	105.44
245.633	101.44
245.866	85.44
246.099	86.44
246.333	89.44
246.566	99.44
246.8	106.44
247.033	103.44
247.266	98.44
247.5	107.44
247.733	97.44
247.966	95.44
248.2	104.44
248.433	106.44
248.666	89.44
248.899	102.44
249.133	93.44
249.366	100.44
249.599	90.44
249.832	91.44
250.066	103.44
250.299	109.44
250.532	99.44
250.765	99.44
250.998	98.44
251.231	104.44
251.465	91.44
251.698	114.44
251.931	106.44
252.164	113.44
252.397	93.44
252.63	104.44
252.863	99.44
253.096	102.44
253.329	115.44
253.562	114.44
253.795	103.44
254.028	105.44
254.261	103.44
254.494	101.44
254.727	104.44
254.96	104.44
255.193	104.44
255.426	105.44
255.659	102.44
255.892	105.44
256.124	112.44
256.357	102.44
256.59	127.44
256.823	109.44
257.056	112.44
257.289	97.44
257.521	95.44
257.754	101.44
257.987	121.44
258.22	115.44
258.452	109.44
258.685	126.44
258.918	117.44
259.151	115.44
259.383	106.44
259.616	120.44
259.849	123.44
260.081	117.44
260.314	123.44
260.547	130.44
260.779	94.44
261.012	120.44
261.244	101.44
261.477	124.44
261.71	109.44
261.942	122.44
262.175	120.44
262.407	114.44
262.64	120.44
262.872	106.44
263.105	122.44
263.337	123.44
263.57	132.44
263.802	128.44
264.035	138.44
264.267	132.44
264.499	126.44
264.732	128.44
264.964	127.44
265.197	127.44
265.429	123.44
265.661	123.44
265.894	117.44
266.126	128.44
266.358	121.44
266.591	123.44
266.823	113.44
267.055	116.44
267.287	133.44
267.52	136.44
267.752	121.44
267.984	130.44
268.216	126.44
268.448	137.44
268.681	124.44
268.913	124.44
269.145	131.44
269.377	125.44
269.609	129.44
269.841	132.44
270.073	133.44
270.306	145.44
270.538	125.44
270.77	120.44
271.002	122.44
271.234	133.44
271.466	129.44
271.698	137.44
271.93	133.44
272.162	120.44
272.394	132.44
272.626	130.44
272.858	119.44
273.09	145.44
273.322	136.44
273.553	127.44
273.785	145.44
274.017	138.44
274.249	137.44
274.481	121.44
274.713	122.44
274.945	140.44
275.176	143.44
275.408	133.44
275.64	134.44
275.872	129.44
276.104	133.44
276.335	128.44
276.567	144.44
276.799	131.44
277.031	123.44
277.262	142.44
277.494	135.44
277.726	165.44
277.957	148.44
278.189	131.44
278.421	138.44
278.652	131.44
278.884	129.44
279.115	143.44
279.347	139.44
279.579	160.44
279.81	125.44
280.042	143.44
280.273	147.44
280.505	145.44
280.736	142.44
280.968	153.44
281.199	134.44
281.431	141.44
281.662	153.44
281.894	162.44
282.125	157.44
282.356	142.44
282.588	151.44
282.819	159.44
283.051	162.44
283.282	148.44
283.513	161.44
283.745	142.44
283.976	140.44
284.207	140.44
284.439	157.44
284.67	164.44
284.901	139.44
285.132	149.44
285.364	150.44
285.595	146.44
285.826	146.44
286.057	144.44
286.288	145.44
286.52	150.44
286.751	147.44
286.982	151.44
287.213	162.44
287.444	150.44
287.675	149.44
287.906	167.44
288.138	154.44
288.369	161.44
288.6	147.44
288.831	152.44
289.062	158.44
289.293	155.44
289.524	166.44
289.755	158.44
289.986	163.44
290.217	159.44
290.448	164.44
290.679	160.44
290.91	161.44
291.141	159.44
291.371	159.44
291.602	158.44
291.833	163.44
292.064	161.44
292.295	171.44
292.526	177.44
292.757	146.44
292.987	142.44
293.218	163.44
293.449	175.44
293.68	165.44
293.91	149.44
294.141	170.44
294.372	165.44
294.603	170.44
294.833	169.44
295.064	159.44
295.295	157.44
295.525	160.44
295.756	164.44
295.987	175.44
296.217	170.44
296.448	166.44
296.679	161.44
296.909	163.44
297.14	143.44
297.37	177.44
297.601	175.44
297.831	189.44
298.062	175.44
298.292	173.44
298.523	184.44
298.753	176.44
298.984	175.44
299.214	162.44
299.445	189.44
299.675	183.44
299.905	178.44
300.136	173.44
300.366	186.44
300.597	181.44
300.827	173.44
301.057	183.44
301.288	177.44
301.518	189.44
301.748	182.44
301.979	188.44
302.209	179.44
302.439	167.44
302.669	171.44
302.9	190.44
303.13	166.44
303.36	165.44
303.59	158.44
303.82	173.44
304.051	189.44
304.281	187.44
304.511	198.44
304.741	184.44
304.971	162.44
305.201	177.44
305.431	175.44
305.661	188.44
305.891	170.44
306.121	166.44
306.352	180.44
306.582	179.44
306.812	181.44
307.042	168.44
307.272	153.44
307.502	167.44
307.731	168.44
307.961	171.44
308.191	167.44
308.421	172.44
308.651	177.44
308.881	178.44
309.111	177.44
309.341	170.44
309.571	181.44
309.8	183.44
310.03	181.44
310.26	183.44
310.49	180.44
310.72	177.44
310.949	177.44
311.179	176.44
311.409	177.44
311.639	178.44
311.868	175.44
312.098	165.44
312.328	187.44
312.557	185.44
312.787	178.44
313.017	193.44
313.246	181.44
313.476	169.44
313.706	187.44
313.935	175.44
314.165	181.44
314.394	189.44
314.624	202.44
314.853	194.44
315.083	190.44
315.312	174.44
315.542	167.44
315.771	190.44
316.001	186.44
316.23	173.44
316.46	186.44
316.689	179.44
316.919	193.44
317.148	185.44
317.377	187.44
317.607	193.44
317.836	182.44
318.065	173.44
318.295	188.44
318.524	169.44
318.753	192.44
318.983	174.44
319.212	173.44
319.441	174.44
319.67	183.44
319.9	171.44
320.129	202.44
320.358	193.44
320.587	182.44
320.816	198.44
321.046	196.44
321.275	195.44
321.504	165.44
321.733	193.44
321.962	197.44
322.191	187.44
322.42	158.44
322.649	177.44
322.878	167.44
323.108	171.44
323.337	161.44
323.566	176.44
323.795	181.44
324.024	165.44
324.253	195.44
324.482	180.44
324.71	182.44
324.939	188.44
325.168	197.44
325.397	193.44
325.626	185.44
325.855	177.44
326.084	194.44
326.313	202.44
326.542	199.44
326.77	190.44
326.999	178.44
327.228	175.44
327.457	192.44
327.686	193.44
327.914	201.44
328.143	177.44
328.372	195.44
328.6	180.44
328.829	197.44
329.058	192.44
329.287	176.44
329.515	181.44
329.744	190.44
329.972	185.44
330.201	204.44
330.43	185.44
330.658	201.44
330.887	185.44
331.115	192.44
331.344	192.44
331.572	209.44
331.801	201.44
332.03	194.44
332.258	213.44
332.486	220.44
332.715	211.44
332.943	243.44
333.172	217.44
333.4	248.44
333.629	248.44
333.857	230.44
334.085	233.44
334.314	221.44
334.542	224.44
334.771	217.44
334.999	218.44
335.227	222.44
335.455	221.44
335.684	224.44
335.912	237.44
336.14	206.44
336.369	232.44
336.597	223.44
336.825	219.44
337.053	222.44
337.281	202.44
337.51	212.44
337.738	207.44
337.966	187.44
338.194	182.44
338.422	188.44
338.65	206.44
338.878	194.44
339.106	202.44
339.334	209.44
339.562	211.44
339.79	210.44
340.018	211.44
340.246	197.44
340.474	199.44
340.702	193.44
340.93	197.44
341.158	201.44
341.386	189.44
341.614	199.44
341.842	181.44
342.07	191.44
342.298	189.44
342.526	189.44
342.754	198.44
342.981	207.44
343.209	208.44
343.437	210.44
343.665	202.44
343.893	244.44
344.12	233.44
344.348	224.44
344.576	201.44
344.804	205.44
345.031	194.44
345.259	211.44
345.487	211.44
345.714	187.44
345.942	194.44
346.17	192.44
346.397	198.44
346.625	199.44
346.853	200.44
347.08	188.44
347.308	186.44
347.535	205.44
347.763	191.44
347.99	203.44
348.218	198.44
348.445	186.44
348.673	192.44
348.9	187.44
349.128	203.44
349.355	204.44
349.583	182.44
349.81	174.44
350.037	191.44
350.265	187.44
350.492	185.44
350.72	191.44
350.947	195.44
351.174	179.44
351.402	193.44
351.629	199.44
351.856	206.44
352.083	202.44
352.311	182.44
352.538	191.44
352.765	174.44
352.992	193.44
353.22	190.44
353.447	178.44
353.674	197.44
353.901	186.44
354.128	181.44
354.355	193.44
354.583	199.44
354.81	190.44
355.037	174.44
355.264	188.44
355.491	181.44
355.718	203.44
355.945	187.44
356.172	185.44
356.399	192.44
356.626	188.44
356.853	184.44
357.08	189.44
357.307	192.44
357.534	192.44
357.761	169.44
357.988	192.44
358.215	177.44
358.441	182.44
358.668	179.44
358.895	187.44
359.122	189.44
359.349	179.44
359.576	184.44
359.802	189.44
360.029	193.44
360.256	184.44
360.483	189.44
360.709	185.44
360.936	186.44
361.163	178.44
361.39	170.44
361.616	185.44
361.843	192.44
362.07	175.44
362.296	178.44
362.523	186.44
362.749	177.44
362.976	184.44
363.203	194.44
363.429	201.44
363.656	182.44
363.882	189.44
364.109	193.44
364.335	171.44
364.562	170.44
364.788	183.44
365.015	191.44
365.241	193.44
365.468	183.44
365.694	208.44
365.92	181.44
366.147	165.44
366.373	164.44
366.599	187.44
366.826	185.44
367.052	204.44
367.278	184.44
367.505	178.44
367.731	194.44
367.957	188.44
368.184	201.44
368.41	154.44
368.636	182.44
368.862	187.44
369.089	193.44
369.315	194.44
369.541	195.44
369.767	182.44
369.993	189.44
370.219	182.44
370.445	179.44
370.672	202.44
370.898	192.44
371.124	204.44
371.35	194.44
371.576	199.44
371.802	188.44
372.028	180.44
372.254	184.44
372.48	184.44
372.706	199.44
372.932	190.44
373.158	199.44
373.384	202.44
373.61	189.44
373.835	187.44
374.061	197.44
374.287	196.44
374.513	197.44
374.739	212.44
374.965	197.44
375.191	228.44
375.416	202.44
375.642	199.44
375.868	194.44
376.094	205.44
376.319	193.44
376.545	183.44
376.771	173.44
376.997	205.44
377.222	192.44
377.448	205.44
377.674	191.44
377.899	198.44
378.125	195.44
378.35	178.44
378.576	185.44
378.802	209.44
379.027	196.44
379.253	184.44
379.478	193.44
379.704	200.44
379.929	180.44
380.155	185.44
380.38	195.44
380.606	195.44
380.831	171.44
381.057	199.44
381.282	193.44
381.507	202.44
381.733	210.44
381.958	210.44
382.184	202.44
382.409	185.44
382.634	193.44
382.86	199.44
383.085	202.44
383.31	195.44
383.535	202.44
383.761	202.44
383.986	209.44
384.211	203.44
384.436	227.44
384.662	232.44
384.887	210.44
385.112	221.44
385.337	208.44
385.562	215.44
385.787	225.44
386.013	221.44
386.238	216.44
386.463	241.44
386.688	213.44
386.913	217.44
387.138	234.44
387.363	210.44
387.588	215.44
387.813	208.44
388.038	211.44
388.263	239.44
388.488	209.44
388.713	202.44
388.938	216.44
389.163	203.44
389.387	209.44
389.612	203.44
389.837	202.44
390.062	211.44
390.287	207.44
390.512	199.44
390.736	212.44
390.961	218.44
391.186	223.44
391.411	231.44
391.636	224.44
391.86	241.44
392.085	240.44
392.31	231.44
392.534	217.44
392.759	239.44
392.984	237.44
393.208	243.44
393.433	221.44
393.658	228.44
393.882	232.44
394.107	241.44
394.331	217.44
394.556	218.44
394.78	227.44
395.005	222.44
395.229	225.44
395.454	249.44
395.678	227.44
395.903	235.44
396.127	248.44
396.352	219.44
396.576	238.44
396.801	230.44
397.025	233.44
397.249	242.44
397.474	237.44
397.698	250.44
397.922	239.44
398.147	225.44
398.371	241.44
398.595	259.44
398.82	243.44
399.044	264.44
399.268	275.44
399.492	336.44
399.717	375.44
399.941	367.44
400.165	310.44
400.389	300.44
400.613	266.44
400.837	273.44
401.062	247.44
401.286	252.44
401.51	254.44
401.734	248.44
401.958	245.44
402.182	249.44
402.406	253.44
402.63	260.44
402.854	254.44
403.078	287.44
403.302	271.44
403.526	275.44
403.75	277.44
403.974	303.44
404.198	287.44
404.422	291.44
404.645	274.44
404.869	309.44
405.093	293.44
405.317	267.44
405.541	293.44
405.765	291.44
405.988	269.44
406.212	265.44
406.436	275.44
406.66	261.44
406.883	282.44
407.107	288.44
407.331	302.44
407.555	310.44
407.778	326.44
408.002	295.44
408.226	283.44
408.449	294.44
408.673	282.44
408.896	296.44
409.12	289.44
409.344	275.44
409.567	293.44
409.791	290.44
410.014	301.44
410.238	289.44
410.461	290.44
410.685	282.44
410.908	275.44
411.132	275.44
411.355	272.44
411.578	272.44
411.802	262.44
412.025	241.44
412.249	263.44
412.472	275.44
412.695	267.44
412.919	250.44
413.142	247.44
413.365	255.44
413.589	263.44
413.812	265.44
414.035	276.44
414.258	253.44
414.482	233.44
414.705	236.44
414.928	259.44
415.151	261.44
415.374	275.44
415.597	272.44
415.821	235.44
416.044	226.44
416.267	263.44
416.49	240.44
416.713	253.44
416.936	262.44
417.159	255.44
417.382	251.44
417.605	262.44
417.828	254.44
418.051	254.44
418.274	246.44
418.497	239.44
418.72	270.44
418.943	256.44
419.166	273.44
419.389	273.44
419.611	264.44
419.834	281.44
420.057	273.44
420.28	265.44
420.503	258.44
420.726	249.44
420.948	232.44
421.171	247.44
421.394	243.44
421.617	259.44
421.839	251.44
422.062	249.44
422.285	252.44
422.507	263.44
422.73	245.44
422.953	266.44
423.175	243.44
423.398	268.44
423.621	262.44
423.843	256.44
424.066	270.44
424.288	273.44
424.511	257.44
424.733	259.44
424.956	269.44
425.178	257.44
425.401	243.44
425.623	261.44
425.846	248.44
426.068	261.44
426.291	228.44
426.513	231.44
426.735	247.44
426.958	243.44
427.18	253.44
427.402	232.44
427.625	234.44
427.847	234.44
428.069	239.44
428.292	231.44
428.514	239.44
428.736	237.44
428.958	224.44
429.181	236.44
429.403	229.44
429.625	222.44
429.847	224.44
430.069	218.44
430.292	227.44
430.514	233.44
430.736	213.44
430.958	222.44
431.18	212.44
431.402	227.44
431.624	231.44
431.846	228.44
432.068	215.44
432.29	235.44
432.512	235.44
432.734	227.44
432.956	261.44
433.178	223.44
433.4	238.44
433.622	229.44
433.844	243.44
434.066	221.44
434.287	230.44
434.509	238.44
434.731	241.44
434.953	257.44
435.175	262.44
435.397	259.44
435.618	253.44
435.84	212.44
436.062	228.44
436.284	235.44
436.505	237.44
436.727	237.44
436.949	242.44
437.17	232.44
437.392	216.44
437.614	234.44
437.835	224.44
438.057	233.44
438.278	222.44
438.5	224.44
438.721	216.44
438.943	223.44
439.165	221.44
439.386	224.44
439.608	250.44
439.829	222.44
440.05	239.44
440.272	237.44
440.493	245.44
440.715	239.44
440.936	239.44
441.158	230.44
441.379	253.44
441.6	266.44
441.822	246.44
442.043	257.44
442.264	244.44
442.486	238.44
442.707	237.44
442.928	253.44
443.149	248.44
443.371	251.44
443.592	239.44
443.813	255.44
444.034	246.44
444.255	245.44
444.476	275.44
444.698	289.44
444.919	281.44
445.14	374.44
445.361	313.44
445.582	249.44
445.803	238.44
446.024	260.44
446.245	255.44
446.466	234.44
446.687	225.44
446.908	226.44
447.129	234.44
447.35	220.44
447.571	247.44
447.792	222.44
448.013	231.44
448.234	223.44
448.455	223.44
448.675	195.44
448.896	198.44
449.117	206.44
449.338	217.44
449.559	207.44
449.779	210.44
450	214.44
450.221	202.44
450.442	225.44
450.662	212.44
450.883	213.44
451.104	222.44
451.324	213.44
451.545	206.44
451.766	249.44
451.986	219.44
452.207	229.44
452.428	224.44
452.648	224.44
452.869	226.44
453.089	197.44
453.31	198.44
453.53	219.44
453.751	198.44
453.971	204.44
454.192	208.44
454.412	206.44
454.633	205.44
454.853	198.44
455.073	198.44
455.294	202.44
455.514	214.44
455.734	217.44
455.955	211.44
456.175	190.44
456.395	204.44
456.616	209.44
456.836	210.44
457.056	198.44
457.276	213.44
457.497	185.44
457.717	216.44
457.937	198.44
458.157	219.44
458.377	216.44
458.598	211.44
458.818	217.44
459.038	212.44
459.258	231.44
459.478	241.44
459.698	247.44
459.918	232.44
460.138	234.44
460.358	257.44
460.578	259.44
460.798	281.44
461.018	253.44
461.238	261.44
461.458	258.44
461.678	269.44
461.898	261.44
462.118	264.44
462.338	275.44
462.558	292.44
462.777	289.44
462.997	319.44
463.217	351.44
463.437	347.44
463.657	298.44
463.876	307.44
464.096	281.44
464.316	307.44
464.536	293.44
464.755	298.44
464.975	281.44
465.195	285.44
465.414	263.44
465.634	241.44
465.854	244.44
466.073	246.44
466.293	250.44
466.512	256.44
466.732	224.44
466.951	239.44
467.171	227.44
467.391	231.44
467.61	216.44
467.829	226.44
468.049	225.44
468.268	226.44
468.488	220.44
468.707	205.44
468.927	201.44
469.146	212.44
469.365	226.44
469.585	219.44
469.804	218.44
470.023	234.44
470.243	235.44
470.462	225.44
470.681	232.44
470.901	228.44
471.12	234.44
471.339	231.44
471.558	229.44
471.777	222.44
471.997	225.44
472.216	232.44
472.435	221.44
472.654	208.44
472.873	221.44
473.092	209.44
473.311	212.44
473.53	197.44
473.749	207.44
473.968	218.44
474.187	216.44
474.406	216.44
474.625	218.44
474.844	234.44
475.063	220.44
475.282	231.44
475.501	221.44
475.72	211.44
475.939	218.44
476.158	211.44
476.377	221.44
476.596	226.44
476.814	226.44
477.033	229.44
477.252	241.44
477.471	224.44
477.69	233.44
477.908	244.44
478.127	259.44
478.346	268.44
478.564	263.44
478.783	260.44
479.002	254.44
479.22	271.44
479.439	265.44
479.658	260.44
479.876	271.44
480.095	261.44
480.313	289.44
480.532	287.44
480.751	266.44
480.969	260.44
481.188	251.44
481.406	264.44
481.624	258.44
481.843	239.44
482.061	247.44
482.28	240.44
482.498	241.44
482.717	233.44
482.935	236.44
483.153	249.44
483.372	247.44
483.59	258.44
483.808	223.44
484.027	261.44
484.245	234.44
484.463	244.44
484.681	244.44
484.9	272.44
485.118	259.44
485.336	242.44
485.554	257.44
485.772	274.44
485.99	273.44
486.209	263.44
486.427	272.44
486.645	256.44
486.863	256.44
487.081	256.44
487.299	262.44
487.517	243.44
487.735	263.44
487.953	263.44
488.171	243.44
488.389	256.44
488.607	248.44
488.825	245.44
489.043	254.44
489.261	254.44
489.479	252.44
489.696	248.44
489.914	259.44
490.132	262.44
490.35	245.44
490.568	245.44
490.786	256.44
491.003	257.44
491.221	264.44
491.439	260.44
491.657	249.44
491.874	285.44
492.092	281.44
492.31	253.44
492.527	257.44
492.745	270.44
492.963	248.44
493.18	265.44
493.398	249.44
493.615	267.44
493.833	258.44
494.05	286.44
494.268	263.44
494.485	264.44
494.703	255.44
494.92	262.44
495.138	266.44
495.355	256.44
495.573	271.44
495.79	272.44
496.008	273.44
496.225	274.44
496.442	263.44
496.66	308.44
496.877	273.44
497.094	282.44
497.312	305.44
497.529	280.44
497.746	302.44
497.963	305.44
498.181	307.44
498.398	318.44
498.615	349.44
498.832	366.44
499.049	373.44
499.267	421.44
499.484	454.44
499.701	490.44
499.918	533.44
500.135	615.44
500.352	691.44
500.569	712.44
500.786	735.44
501.003	667.44
501.22	593.44
501.437	536.44
501.654	458.44
501.871	425.44
502.088	414.44
502.305	347.44
502.522	359.44
502.739	340.44
502.956	315.44
503.172	312.44
503.389	317.44
503.606	291.44
503.823	295.44
504.04	290.44
504.256	297.44
504.473	306.44
504.69	320.44
504.907	309.44
505.123	305.44
505.34	270.44
505.557	258.44
505.773	246.44
505.99	262.44
506.207	249.44
506.423	262.44
506.64	262.44
506.856	243.44
507.073	241.44
507.289	273.44
507.506	251.44
507.722	221.44
507.939	244.44
508.155	224.44
508.372	249.44
508.588	227.44
508.805	220.44
509.021	234.44
509.238	229.44
509.454	225.44
509.67	229.44
509.887	238.44
510.103	233.44
510.319	238.44
510.536	235.44
510.752	235.44
510.968	218.44
511.184	231.44
511.401	237.44
511.617	217.44
511.833	231.44
512.049	243.44
512.265	219.44
512.481	239.44
512.698	226.44
512.914	218.44
513.13	242.44
513.346	242.44
513.562	233.44
513.778	239.44
513.994	243.44
514.21	240.44
514.426	241.44
514.642	256.44
514.858	238.44
515.074	243.44
515.29	230.44
515.506	241.44
515.721	249.44
515.937	233.44
516.153	244.44
516.369	239.44
516.585	259.44
516.801	266.44
517.016	272.44
517.232	279.44
517.448	305.44
517.664	335.44
517.879	305.44
518.095	310.44
518.311	310.44
518.527	300.44
518.742	278.44
518.958	281.44
519.173	267.44
519.389	258.44
519.605	255.44
519.82	241.44
520.036	239.44
520.251	224.44
520.467	253.44
520.682	248.44
520.898	231.44
521.113	230.44
521.329	241.44
521.544	229.44
521.76	226.44
521.975	230.44
522.19	224.44
522.406	224.44
522.621	227.44
522.836	234.44
523.052	241.44
523.267	235.44
523.482	222.44
523.698	223.44
523.913	213.44
524.128	211.44
524.343	224.44
524.559	231.44
524.774	230.44
524.989	218.44
525.204	215.44
525.419	233.44
525.634	204.44
525.849	205.44
526.064	213.44
526.28	232.44
526.495	222.44
526.71	218.44
526.925	211.44
527.14	227.44
527.355	210.44
527.57	207.44
527.785	224.44
527.999	235.44
528.214	217.44
528.429	225.44
528.644	225.44
528.859	225.44
529.074	217.44
529.289	232.44
529.503	222.44
529.718	229.44
529.933	234.44
530.148	227.44
530.363	213.44
530.577	218.44
530.792	216.44
531.007	214.44
531.221	226.44
531.436	223.44
531.651	222.44
531.865	225.44
532.08	225.44
532.295	233.44
532.509	205.44
532.724	222.44
532.938	213.44
533.153	221.44
533.367	216.44
533.582	230.44
533.796	224.44
534.011	227.44
534.225	223.44
534.44	209.44
534.654	229.44
534.868	190.44
535.083	199.44
535.297	213.44
535.511	207.44
535.726	218.44
535.94	224.44
536.154	216.44
536.369	212.44
536.583	206.44
536.797	213.44
537.011	204.44
537.225	230.44
537.44	214.44
537.654	202.44
537.868	191.44
538.082	218.44
538.296	198.44
538.51	203.44
538.724	215.44
538.938	206.44
539.153	198.44
539.367	207.44
539.581	210.44
539.795	196.44
540.009	201.44
540.222	201.44
540.436	195.44
540.65	209.44
540.864	192.44
541.078	204.44
541.292	216.44
541.506	202.44
541.72	217.44
541.934	213.44
542.147	213.44
542.361	231.44
542.575	190.44
542.789	217.44
543.002	218.44
543.216	187.44
543.43	204.44
543.644	218.44
543.857	207.44
544.071	207.44
544.285	213.44
544.498	209.44
544.712	210.44
544.925	211.44
545.139	230.44
545.352	209.44
545.566	216.44
545.779	208.44
545.993	215.44
546.206	218.44
546.42	207.44
546.633	223.44
546.847	213.44
547.06	219.44
547.274	197.44
547.487	202.44
547.7	220.44
547.914	198.44
548.127	214.44
548.34	204.44
548.554	203.44
548.767	200.44
548.98	212.44
549.193	202.44
549.407	213.44
549.62	217.44
549.833	235.44
550.046	221.44
550.259	220.44
550.473	227.44
550.686	215.44
550.899	215.44
551.112	198.44
551.325	214.44
551.538	206.44
551.751	215.44
551.964	223.44
552.177	218.44
552.39	226.44
552.603	230.44
552.816	223.44
553.029	227.44
553.242	228.44
553.455	227.44
553.667	239.44
553.88	242.44
554.093	224.44
554.306	217.44
554.519	216.44
554.732	226.44
554.944	210.44
555.157	211.44
555.37	210.44
555.583	214.44
555.795	201.44
556.008	190.44
556.221	202.44
556.433	198.44
556.646	198.44
556.859	190.44
557.071	200.44
557.284	199.44
557.496	201.44
557.709	193.44
557.921	191.44
558.134	183.44
558.346	175.44
558.559	207.44
558.771	184.44
558.984	176.44
559.196	195.44
559.409	188.44
559.621	186.44
559.833	181.44
560.046	193.44
560.258	184.44
560.47	191.44
560.683	190.44
560.895	204.44
561.107	199.44
561.32	187.44
561.532	181.44
561.744	194.44
561.956	185.44
562.168	185.44
562.381	193.44
562.593	192.44
562.805	187.44
563.017	176.44
563.229	180.44
563.441	184.44
563.653	179.44
563.865	191.44
564.077	171.44
564.289	191.44
564.501	187.44
564.713	207.44
564.925	197.44
565.137	198.44
565.349	215.44
565.561	207.44
565.773	210.44
565.985	224.44
566.197	241.44
566.408	239.44
566.62	260.44
566.832	280.44
567.044	285.44
567.255	274.44
567.467	287.44
567.679	296.44
567.891	321.44
568.102	336.44
568.314	321.44
568.526	301.44
568.737	254.44
568.949	231.44
569.161	231.44
569.372	213.44
569.584	215.44
569.795	217.44
570.007	198.44
570.218	191.44
570.43	191.44
570.641	176.44
570.853	201.44
571.064	186.44
571.276	207.44
571.487	196.44
571.698	192.44
571.91	192.44
572.121	181.44
572.333	177.44
572.544	165.44
572.755	182.44
572.966	175.44
573.178	193.44
573.389	182.44
573.6	162.44
573.811	179.44
574.023	179.44
574.234	164.44
574.445	181.44
574.656	173.44
574.867	177.44
575.078	171.44
575.289	166.44
575.501	168.44
575.712	180.44
575.923	174.44
576.134	151.44
576.345	173.44
576.556	159.44
576.767	177.44
576.978	174.44
577.188	155.44
577.399	170.44
577.61	168.44
577.821	163.44
578.032	169.44
578.243	165.44
578.454	156.44
578.665	159.44
578.875	163.44
579.086	150.44
579.297	162.44
579.508	179.44
579.718	169.44
579.929	164.44
580.14	160.44
580.35	159.44
580.561	158.44
580.772	163.44
580.982	161.44
581.193	157.44
581.403	158.44
581.614	170.44
581.825	159.44
582.035	151.44
582.246	170.44
582.456	163.44
582.667	179.44
582.877	173.44
583.087	164.44
583.298	162.44
583.508	157.44
583.719	149.44
583.929	143.44
584.139	153.44
584.35	157.44
584.56	159.44
584.77	149.44
584.981	158.44
585.191	166.44
585.401	137.44
585.611	156.44
585.821	165.44
586.032	143.44
586.242	150.44
586.452	164.44
586.662	149.44
586.872	140.44
587.082	168.44
587.292	140.44
587.502	154.44
587.713	156.44
587.923	158.44
588.133	150.44
588.343	151.44
588.553	160.44
588.762	146.44
588.972	153.44
589.182	151.44
589.392	155.44
589.602	156.44
589.812	175.44
590.022	153.44
590.232	149.44
590.441	156.44
590.651	158.44
590.861	152.44
591.071	147.44
591.281	145.44
591.49	142.44
591.7	147.44
591.91	149.44
592.119	156.44
592.329	153.44
592.539	154.44
592.748	162.44
592.958	165.44
593.167	167.44
593.377	171.44
593.587	181.44
593.796	170.44
594.006	186.44
594.215	189.44
594.424	196.44
594.634	189.44
594.843	175.44
595.053	156.44
595.262	170.44
595.472	162.44
595.681	153.44
595.89	156.44
596.1	166.44
596.309	154.44
596.518	155.44
596.727	159.44
596.937	153.44
597.146	135.44
597.355	140.44
597.564	130.44
597.774	141.44
597.983	143.44
598.192	146.44
598.401	143.44
598.61	138.44
598.819	137.44
599.028	137.44
599.237	143.44
599.446	165.44
599.655	141.44
599.864	146.44
600.073	145.44
600.282	142.44
600.491	138.44
600.7	137.44
600.909	134.44
601.118	144.44
601.327	146.44
601.536	145.44
601.745	137.44
601.953	124.44
602.162	129.44
602.371	138.44
602.58	127.44
602.789	129.44
602.997	143.44
603.206	140.44
603.415	137.44
603.623	134.44
603.832	135.44
604.041	126.44
604.249	123.44
604.458	127.44
604.666	142.44
604.875	143.44
605.084	139.44
605.292	123.44
605.501	135.44
605.709	146.44
605.918	122.44
606.126	148.44
606.334	131.44
606.543	142.44
606.751	146.44
606.96	151.44
607.168	143.44
607.376	146.44
607.585	132.44
607.793	125.44
608.001	121.44
608.21	120.44
608.418	136.44
608.626	125.44
608.834	138.44
609.043	143.44
609.251	143.44
609.459	131.44
609.667	137.44
609.875	131.44
610.083	143.44
610.291	127.44
610.499	141.44
610.707	125.44
610.916	135.44
611.124	121.44
611.332	131.44
611.54	130.44
611.748	143.44
611.955	151.44
612.163	148.44
612.371	145.44
612.579	129.44
612.787	134.44
612.995	140.44
613.203	123.44
613.411	122.44
613.618	121.44
613.826	121.44
614.034	134.44
614.242	114.44
614.449	119.44
614.657	147.44
614.865	132.44
615.072	116.44
615.28	131.44
615.488	126.44
615.695	128.44
615.903	143.44
616.111	142.44
616.318	130.44
616.526	145.44
616.733	139.44
616.941	128.44
617.148	139.44
617.356	132.44
617.563	134.44
617.771	128.44
617.978	131.44
618.185	129.44
618.393	134.44
618.6	141.44
618.807	135.44
619.015	117.44
619.222	130.44
619.429	131.44
619.637	122.44
619.844	124.44
620.051	137.44
620.258	145.44
620.466	137.44
620.673	121.44
620.88	120.44
621.087	127.44
621.294	125.44
621.501	113.44
621.708	122.44
621.915	134.44
622.122	127.44
622.329	123.44
622.536	132.44
622.743	113.44
622.95	122.44
623.157	127.44
623.364	131.44
623.571	131.44
623.778	122.44
623.985	117.44
624.192	123.44
624.399	115.44
624.606	118.44
624.812	111.44
625.019	127.44
625.226	130.44
625.433	127.44
625.639	119.44
625.846	132.44
626.053	112.44
626.259	124.44
626.466	118.44
626.673	127.44
626.879	126.44
627.086	119.44
627.293	113.44
627.499	129.44
627.706	137.44
627.912	127.44
628.119	116.44
628.325	122.44
628.532	137.44
628.738	113.44
628.945	114.44
629.151	127.44
629.357	115.44
629.564	115.44
629.77	121.44
629.976	117.44
630.183	112.44
630.389	127.44
630.595	102.44
630.802	115.44
631.008	119.44
631.214	120.44
631.42	121.44
631.627	126.44
631.833	121.44
632.039	121.44
632.245	112.44
632.451	117.44
632.657	109.44
632.863	101.44
633.069	115.44
633.275	118.44
633.481	117.44
633.688	110.44
633.893	109.44
634.099	109.44
634.305	99.44
634.511	106.44
634.717	128.44
634.923	105.44
635.129	103.44
635.335	128.44
635.541	107.44
635.747	111.44
635.952	127.44
636.158	119.44
636.364	123.44
636.57	113.44
636.775	109.44
636.981	119.44
637.187	112.44
637.392	102.44
637.598	98.44
637.804	114.44
638.009	114.44
638.215	109.44
638.421	115.44
638.626	110.44
638.832	105.44
639.037	124.44
639.243	106.44
639.448	114.44
639.654	119.44
639.859	119.44
640.065	111.44
640.27	114.44
640.475	114.44
640.681	111.44
640.886	110.44
641.091	121.44
641.297	114.44
641.502	106.44
641.707	109.44
641.913	113.44
642.118	105.44
642.323	109.44
642.528	117.44
642.733	87.44
642.939	102.44
643.144	107.44
643.349	113.44
643.554	113.44
643.759	109.44
643.964	101.44
644.169	115.44
644.374	119.44
644.579	117.44
644.784	116.44
644.989	112.44
645.194	98.44
645.399	123.44
645.604	113.44
645.809	109.44
646.014	114.44
646.219	104.44
646.423	89.44
646.628	114.44
646.833	113.44
647.038	123.44
647.243	117.44
647.447	115.44
647.652	112.44
647.857	111.44
648.062	118.44
648.266	108.44
648.471	118.44
648.676	121.44
648.88	106.44
649.085	101.44
649.289	118.44
649.494	111.44
649.698	88.44
649.903	102.44
650.107	110.44
650.312	109.44
650.516	108.44
650.721	113.44
650.925	105.44
651.13	109.44
651.334	97.44
651.539	100.44
651.743	106.44
651.947	102.44
652.152	107.44
652.356	104.44
652.56	103.44
652.764	106.44
652.969	100.44
653.173	102.44
653.377	105.44
653.581	101.44
653.785	99.44
653.99	103.44
654.194	90.44
654.398	87.44
654.602	92.44
654.806	111.44
655.01	92.44
655.214	102.44
655.418	114.44
655.622	85.44
655.826	92.44
656.03	105.44
656.234	99.44
656.438	107.44
656.642	109.44
656.846	99.44
657.049	94.44
657.253	97.44
657.457	90.44
657.661	95.44
657.865	83.44
658.068	88.44
658.272	102.44
658.476	91.44
658.68	76.44
658.883	91.44
659.087	92.44
659.291	93.44
659.494	104.44
659.698	86.44
659.901	79.44
660.105	93.44
660.309	80.44
660.512	78.44
660.716	88.44
660.919	81.44
661.123	78.44
661.326	77.44
661.53	95.44
661.733	88.44
661.936	82.44
662.14	93.44
662.343	80.44
662.546	87.44
662.75	76.44
662.953	88.44
663.156	84.44
663.36	70.44
663.563	83.44
663.766	76.44
663.969	86.44
664.173	71.44
664.376	71.44
664.579	82.44
664.782	89.44
664.985	82.44
665.188	78.44
665.391	71.44
665.594	72.44
665.797	79.44
666	61.44
666.203	75.44
666.406	81.44
666.609	73.44
666.812	74.44
667.015	69.44
667.218	72.44
667.421	83.44
667.624	81.44
667.827	73.44
668.03	70.44
668.232	79.44
668.435	84.44
668.638	84.44
668.841	86.44
669.043	86.44
669.246	75.44
669.449	83.44
669.651	73.44
669.854	73.44
670.057	85.44
670.259	69.44
670.462	69.44
670.665	71.44
670.867	81.44
671.07	80.44
671.272	80.44
671.475	81.44
671.677	82.44
671.88	73.44
672.082	75.44
672.284	78.44
672.487	75.44
672.689	66.44
672.892	79.44
