Data from 0.5MCu(NO3)2.Standard.Lamp.E10.CV._HRD10591_16-05-09-753.txt Node
Date: Mon Jul 22 16:05:09 EDT 2019
User: cochatt
Spectrometer: HR+D1059
Trigger mode: 1
Integration Time (sec): 1.000000E-1
Scans to average: 1
Electric dark correction enabled: true
Nonlinearity correction enabled: false
Boxcar width: 0
XAxis mode: Wavelengths
Number of Pixels in Spectrum: 2048
>>>>>Begin Spectral Data<<<<<
223.165	-11.88
223.4	-11.88
223.635	-11.88
223.869	-26.88
224.104	-17.88
224.338	-10.88
224.573	-23.88
224.808	-8.88
225.042	-0.88
225.277	-5.88
225.511	-3.88
225.746	6.12
225.98	-10.88
226.215	23.12
226.449	7.12
226.683	22.12
226.918	29.12
227.152	34.12
227.387	41.12
227.621	40.12
227.856	61.12
228.09	46.12
228.324	64.12
228.559	60.12
228.793	56.12
229.027	67.12
229.262	72.12
229.496	62.12
229.73	91.12
229.964	74.12
230.199	76.12
230.433	84.12
230.667	84.12
230.901	82.12
231.136	92.12
231.37	79.12
231.604	85.12
231.838	97.12
232.072	87.12
232.306	95.12
232.541	109.12
232.775	84.12
233.009	81.12
233.243	93.12
233.477	97.12
233.711	91.12
233.945	81.12
234.179	103.12
234.413	98.12
234.647	92.12
234.881	96.12
235.115	90.12
235.349	85.12
235.583	83.12
235.817	79.12
236.051	89.12
236.285	99.12
236.519	81.12
236.753	84.12
236.987	90.12
237.221	78.12
237.455	86.12
237.689	84.12
237.922	95.12
238.156	88.12
238.39	100.12
238.624	78.12
238.858	95.12
239.091	86.12
239.325	83.12
239.559	93.12
239.793	93.12
240.027	96.12
240.26	91.12
240.494	107.12
240.728	105.12
240.961	98.12
241.195	88.12
241.429	95.12
241.662	103.12
241.896	89.12
242.13	88.12
242.363	84.12
242.597	86.12
242.83	80.12
243.064	101.12
243.298	96.12
243.531	93.12
243.765	93.12
243.998	91.12
244.232	89.12
244.465	102.12
244.699	107.12
244.932	105.12
245.166	90.12
245.399	105.12
245.633	94.12
245.866	101.12
246.099	99.12
246.333	107.12
246.566	92.12
246.8	89.12
247.033	100.12
247.266	113.12
247.5	97.12
247.733	93.12
247.966	97.12
248.2	96.12
248.433	102.12
248.666	97.12
248.899	108.12
249.133	89.12
249.366	105.12
249.599	97.12
249.832	107.12
250.066	103.12
250.299	124.12
250.532	104.12
250.765	106.12
250.998	110.12
251.231	100.12
251.465	111.12
251.698	108.12
251.931	103.12
252.164	113.12
252.397	109.12
252.63	108.12
252.863	125.12
253.096	124.12
253.329	111.12
253.562	110.12
253.795	99.12
254.028	115.12
254.261	96.12
254.494	119.12
254.727	115.12
254.96	103.12
255.193	124.12
255.426	113.12
255.659	103.12
255.892	96.12
256.124	118.12
256.357	117.12
256.59	103.12
256.823	116.12
257.056	120.12
257.289	111.12
257.521	104.12
257.754	104.12
257.987	114.12
258.22	114.12
258.452	115.12
258.685	111.12
258.918	122.12
259.151	114.12
259.383	128.12
259.616	105.12
259.849	121.12
260.081	122.12
260.314	109.12
260.547	123.12
260.779	114.12
261.012	127.12
261.244	124.12
261.477	122.12
261.71	119.12
261.942	106.12
262.175	121.12
262.407	128.12
262.64	115.12
262.872	112.12
263.105	111.12
263.337	113.12
263.57	127.12
263.802	119.12
264.035	115.12
264.267	106.12
264.499	118.12
264.732	127.12
264.964	135.12
265.197	123.12
265.429	124.12
265.661	121.12
265.894	131.12
266.126	122.12
266.358	114.12
266.591	122.12
266.823	134.12
267.055	130.12
267.287	142.12
267.52	124.12
267.752	109.12
267.984	112.12
268.216	121.12
268.448	131.12
268.681	122.12
268.913	134.12
269.145	110.12
269.377	124.12
269.609	132.12
269.841	137.12
270.073	122.12
270.306	110.12
270.538	127.12
270.77	120.12
271.002	140.12
271.234	127.12
271.466	148.12
271.698	132.12
271.93	135.12
272.162	127.12
272.394	128.12
272.626	126.12
272.858	127.12
273.09	136.12
273.322	139.12
273.553	133.12
273.785	127.12
274.017	131.12
274.249	133.12
274.481	141.12
274.713	132.12
274.945	134.12
275.176	141.12
275.408	125.12
275.64	143.12
275.872	124.12
276.104	150.12
276.335	154.12
276.567	130.12
276.799	116.12
277.031	137.12
277.262	133.12
277.494	134.12
277.726	141.12
277.957	130.12
278.189	130.12
278.421	138.12
278.652	134.12
278.884	139.12
279.115	139.12
279.347	141.12
279.579	122.12
279.81	148.12
280.042	151.12
280.273	134.12
280.505	144.12
280.736	156.12
280.968	129.12
281.199	152.12
281.431	143.12
281.662	137.12
281.894	139.12
282.125	140.12
282.356	157.12
282.588	150.12
282.819	160.12
283.051	147.12
283.282	152.12
283.513	163.12
283.745	155.12
283.976	158.12
284.207	148.12
284.439	139.12
284.67	146.12
284.901	143.12
285.132	154.12
285.364	138.12
285.595	156.12
285.826	146.12
286.057	146.12
286.288	154.12
286.52	144.12
286.751	141.12
286.982	151.12
287.213	150.12
287.444	149.12
287.675	159.12
287.906	140.12
288.138	155.12
288.369	153.12
288.6	146.12
288.831	154.12
289.062	147.12
289.293	160.12
289.524	144.12
289.755	128.12
289.986	164.12
290.217	153.12
290.448	165.12
290.679	145.12
290.91	167.12
291.141	134.12
291.371	154.12
291.602	157.12
291.833	162.12
292.064	164.12
292.295	171.12
292.526	143.12
292.757	150.12
292.987	144.12
293.218	156.12
293.449	171.12
293.68	156.12
293.91	167.12
294.141	162.12
294.372	146.12
294.603	166.12
294.833	156.12
295.064	157.12
295.295	170.12
295.525	155.12
295.756	167.12
295.987	165.12
296.217	163.12
296.448	175.12
296.679	172.12
296.909	157.12
297.14	152.12
297.37	180.12
297.601	154.12
297.831	168.12
298.062	167.12
298.292	154.12
298.523	173.12
298.753	164.12
298.984	159.12
299.214	186.12
299.445	182.12
299.675	162.12
299.905	166.12
300.136	181.12
300.366	170.12
300.597	168.12
300.827	178.12
301.057	174.12
301.288	190.12
301.518	163.12
301.748	182.12
301.979	162.12
302.209	171.12
302.439	173.12
302.669	168.12
302.9	184.12
303.13	183.12
303.36	166.12
303.59	175.12
303.82	174.12
304.051	172.12
304.281	180.12
304.511	173.12
304.741	178.12
304.971	162.12
305.201	164.12
305.431	165.12
305.661	179.12
305.891	171.12
306.121	194.12
306.352	168.12
306.582	165.12
306.812	167.12
307.042	162.12
307.272	175.12
307.502	168.12
307.731	173.12
307.961	186.12
308.191	155.12
308.421	180.12
308.651	189.12
308.881	184.12
309.111	162.12
309.341	165.12
309.571	184.12
309.8	168.12
310.03	186.12
310.26	179.12
310.49	170.12
310.72	152.12
310.949	172.12
311.179	167.12
311.409	158.12
311.639	168.12
311.868	178.12
312.098	165.12
312.328	158.12
312.557	187.12
312.787	172.12
313.017	187.12
313.246	171.12
313.476	186.12
313.706	176.12
313.935	178.12
314.165	180.12
314.394	171.12
314.624	195.12
314.853	169.12
315.083	194.12
315.312	170.12
315.542	164.12
315.771	171.12
316.001	181.12
316.23	176.12
316.46	175.12
316.689	184.12
316.919	186.12
317.148	159.12
317.377	171.12
317.607	178.12
317.836	156.12
318.065	173.12
318.295	173.12
318.524	176.12
318.753	187.12
318.983	177.12
319.212	174.12
319.441	179.12
319.67	169.12
319.9	174.12
320.129	166.12
320.358	169.12
320.587	182.12
320.816	174.12
321.046	176.12
321.275	168.12
321.504	179.12
321.733	166.12
321.962	165.12
322.191	191.12
322.42	180.12
322.649	178.12
322.878	172.12
323.108	186.12
323.337	180.12
323.566	178.12
323.795	189.12
324.024	179.12
324.253	186.12
324.482	187.12
324.71	183.12
324.939	178.12
325.168	180.12
325.397	173.12
325.626	175.12
325.855	187.12
326.084	196.12
326.313	200.12
326.542	201.12
326.77	203.12
326.999	190.12
327.228	175.12
327.457	182.12
327.686	187.12
327.914	180.12
328.143	186.12
328.372	195.12
328.6	191.12
328.829	189.12
329.058	183.12
329.287	179.12
329.515	174.12
329.744	184.12
329.972	197.12
330.201	202.12
330.43	193.12
330.658	202.12
330.887	184.12
331.115	198.12
331.344	196.12
331.572	172.12
331.801	187.12
332.03	189.12
332.258	204.12
332.486	202.12
332.715	213.12
332.943	228.12
333.172	210.12
333.4	231.12
333.629	233.12
333.857	222.12
334.085	232.12
334.314	219.12
334.542	213.12
334.771	213.12
334.999	220.12
335.227	221.12
335.455	200.12
335.684	214.12
335.912	211.12
336.14	222.12
336.369	213.12
336.597	220.12
336.825	206.12
337.053	205.12
337.281	218.12
337.51	208.12
337.738	221.12
337.966	207.12
338.194	200.12
338.422	199.12
338.65	192.12
338.878	187.12
339.106	198.12
339.334	195.12
339.562	183.12
339.79	197.12
340.018	205.12
340.246	195.12
340.474	202.12
340.702	204.12
340.93	174.12
341.158	193.12
341.386	178.12
341.614	198.12
341.842	199.12
342.07	190.12
342.298	201.12
342.526	190.12
342.754	196.12
342.981	201.12
343.209	204.12
343.437	214.12
343.665	204.12
343.893	222.12
344.12	226.12
344.348	195.12
344.576	213.12
344.804	190.12
345.031	211.12
345.259	197.12
345.487	200.12
345.714	187.12
345.942	194.12
346.17	212.12
346.397	196.12
346.625	180.12
346.853	188.12
347.08	184.12
347.308	185.12
347.535	175.12
347.763	194.12
347.99	210.12
348.218	218.12
348.445	190.12
348.673	196.12
348.9	182.12
349.128	178.12
349.355	188.12
349.583	164.12
349.81	193.12
350.037	174.12
350.265	182.12
350.492	186.12
350.72	187.12
350.947	187.12
351.174	197.12
351.402	183.12
351.629	171.12
351.856	164.12
352.083	182.12
352.311	173.12
352.538	187.12
352.765	185.12
352.992	185.12
353.22	172.12
353.447	174.12
353.674	189.12
353.901	180.12
354.128	183.12
354.355	188.12
354.583	169.12
354.81	190.12
355.037	184.12
355.264	187.12
355.491	188.12
355.718	191.12
355.945	198.12
356.172	172.12
356.399	191.12
356.626	178.12
356.853	186.12
357.08	185.12
357.307	183.12
357.534	179.12
357.761	175.12
357.988	190.12
358.215	181.12
358.441	192.12
358.668	166.12
358.895	189.12
359.122	173.12
359.349	192.12
359.576	191.12
359.802	178.12
360.029	190.12
360.256	181.12
360.483	196.12
360.709	191.12
360.936	204.12
361.163	197.12
361.39	181.12
361.616	167.12
361.843	175.12
362.07	175.12
362.296	187.12
362.523	196.12
362.749	186.12
362.976	173.12
363.203	178.12
363.429	173.12
363.656	188.12
363.882	178.12
364.109	188.12
364.335	170.12
364.562	173.12
364.788	184.12
365.015	173.12
365.241	178.12
365.468	188.12
365.694	178.12
365.92	167.12
366.147	180.12
366.373	170.12
366.599	180.12
366.826	178.12
367.052	173.12
367.278	188.12
367.505	186.12
367.731	165.12
367.957	178.12
368.184	178.12
368.41	193.12
368.636	186.12
368.862	186.12
369.089	188.12
369.315	184.12
369.541	197.12
369.767	182.12
369.993	192.12
370.219	188.12
370.445	204.12
370.672	200.12
370.898	190.12
371.124	188.12
371.35	194.12
371.576	199.12
371.802	200.12
372.028	188.12
372.254	199.12
372.48	208.12
372.706	191.12
372.932	199.12
373.158	183.12
373.384	183.12
373.61	200.12
373.835	191.12
374.061	194.12
374.287	184.12
374.513	188.12
374.739	199.12
374.965	197.12
375.191	189.12
375.416	208.12
375.642	198.12
375.868	204.12
376.094	188.12
376.319	196.12
376.545	186.12
376.771	179.12
376.997	186.12
377.222	193.12
377.448	202.12
377.674	200.12
377.899	198.12
378.125	175.12
378.35	200.12
378.576	190.12
378.802	186.12
379.027	183.12
379.253	188.12
379.478	170.12
379.704	184.12
379.929	209.12
380.155	179.12
380.38	188.12
380.606	182.12
380.831	190.12
381.057	192.12
381.282	189.12
381.507	182.12
381.733	168.12
381.958	185.12
382.184	193.12
382.409	182.12
382.634	188.12
382.86	195.12
383.085	195.12
383.31	219.12
383.535	212.12
383.761	204.12
383.986	202.12
384.211	203.12
384.436	207.12
384.662	221.12
384.887	237.12
385.112	210.12
385.337	211.12
385.562	219.12
385.787	213.12
386.013	221.12
386.238	212.12
386.463	215.12
386.688	214.12
386.913	224.12
387.138	212.12
387.363	224.12
387.588	216.12
387.813	211.12
388.038	205.12
388.263	190.12
388.488	213.12
388.713	208.12
388.938	224.12
389.163	214.12
389.387	226.12
389.612	197.12
389.837	205.12
390.062	195.12
390.287	214.12
390.512	197.12
390.736	223.12
390.961	202.12
391.186	228.12
391.411	223.12
391.636	236.12
391.86	236.12
392.085	235.12
392.31	238.12
392.534	244.12
392.759	214.12
392.984	212.12
393.208	230.12
393.433	217.12
393.658	218.12
393.882	218.12
394.107	237.12
394.331	221.12
394.556	219.12
394.78	221.12
395.005	227.12
395.229	239.12
395.454	214.12
395.678	234.12
395.903	205.12
396.127	221.12
396.352	211.12
396.576	232.12
396.801	236.12
397.025	230.12
397.249	224.12
397.474	233.12
397.698	234.12
397.922	224.12
398.147	248.12
398.371	245.12
398.595	230.12
398.82	231.12
399.044	254.12
399.268	290.12
399.492	327.12
399.717	354.12
399.941	338.12
400.165	306.12
400.389	279.12
400.613	273.12
400.837	268.12
401.062	260.12
401.286	259.12
401.51	248.12
401.734	226.12
401.958	230.12
402.182	249.12
402.406	246.12
402.63	246.12
402.854	251.12
403.078	268.12
403.302	261.12
403.526	256.12
403.75	280.12
403.974	280.12
404.198	290.12
404.422	298.12
404.645	283.12
404.869	286.12
405.093	268.12
405.317	270.12
405.541	276.12
405.765	261.12
405.988	255.12
406.212	270.12
406.436	261.12
406.66	260.12
406.883	262.12
407.107	290.12
407.331	293.12
407.555	342.12
407.778	295.12
408.002	287.12
408.226	307.12
408.449	276.12
408.673	278.12
408.896	280.12
409.12	272.12
409.344	276.12
409.567	276.12
409.791	273.12
410.014	255.12
410.238	274.12
410.461	266.12
410.685	263.12
410.908	252.12
411.132	248.12
411.355	262.12
411.578	271.12
411.802	255.12
412.025	250.12
412.249	264.12
412.472	262.12
412.695	258.12
412.919	237.12
413.142	253.12
413.365	218.12
413.589	242.12
413.812	232.12
414.035	249.12
414.258	252.12
414.482	271.12
414.705	279.12
414.928	266.12
415.151	267.12
415.374	255.12
415.597	237.12
415.821	251.12
416.044	264.12
416.267	245.12
416.49	246.12
416.713	230.12
416.936	263.12
417.159	236.12
417.382	250.12
417.605	238.12
417.828	239.12
418.051	250.12
418.274	253.12
418.497	251.12
418.72	259.12
418.943	261.12
419.166	267.12
419.389	269.12
419.611	254.12
419.834	261.12
420.057	254.12
420.28	269.12
420.503	260.12
420.726	241.12
420.948	236.12
421.171	240.12
421.394	252.12
421.617	238.12
421.839	243.12
422.062	245.12
422.285	248.12
422.507	250.12
422.73	275.12
422.953	246.12
423.175	261.12
423.398	256.12
423.621	264.12
423.843	262.12
424.066	262.12
424.288	274.12
424.511	284.12
424.733	263.12
424.956	266.12
425.178	245.12
425.401	263.12
425.623	245.12
425.846	239.12
426.068	242.12
426.291	242.12
426.513	237.12
426.735	228.12
426.958	234.12
427.18	227.12
427.402	247.12
427.625	219.12
427.847	217.12
428.069	237.12
428.292	232.12
428.514	230.12
428.736	218.12
428.958	232.12
429.181	231.12
429.403	223.12
429.625	207.12
429.847	235.12
430.069	192.12
430.292	232.12
430.514	228.12
430.736	228.12
430.958	209.12
431.18	207.12
431.402	235.12
431.624	221.12
431.846	231.12
432.068	240.12
432.29	246.12
432.512	226.12
432.734	219.12
432.956	226.12
433.178	219.12
433.4	238.12
433.622	230.12
433.844	243.12
434.066	232.12
434.287	238.12
434.509	239.12
434.731	248.12
434.953	242.12
435.175	264.12
435.397	265.12
435.618	246.12
435.84	219.12
436.062	225.12
436.284	231.12
436.505	222.12
436.727	233.12
436.949	208.12
437.17	225.12
437.392	216.12
437.614	215.12
437.835	227.12
438.057	214.12
438.278	216.12
438.5	219.12
438.721	224.12
438.943	215.12
439.165	230.12
439.386	216.12
439.608	248.12
439.829	230.12
440.05	214.12
440.272	235.12
440.493	234.12
440.715	244.12
440.936	227.12
441.158	237.12
441.379	237.12
441.6	243.12
441.822	242.12
442.043	247.12
442.264	254.12
442.486	249.12
442.707	241.12
442.928	244.12
443.149	257.12
443.371	251.12
443.592	252.12
443.813	244.12
444.034	244.12
444.255	255.12
444.476	262.12
444.698	276.12
444.919	285.12
445.14	401.12
445.361	322.12
445.582	260.12
445.803	245.12
446.024	245.12
446.245	219.12
446.466	237.12
446.687	216.12
446.908	236.12
447.129	216.12
447.35	220.12
447.571	214.12
447.792	222.12
448.013	216.12
448.234	211.12
448.455	211.12
448.675	215.12
448.896	207.12
449.117	211.12
449.338	210.12
449.559	218.12
449.779	226.12
450	219.12
450.221	213.12
450.442	219.12
450.662	216.12
450.883	219.12
451.104	202.12
451.324	215.12
451.545	220.12
451.766	225.12
451.986	216.12
452.207	214.12
452.428	206.12
452.648	222.12
452.869	205.12
453.089	194.12
453.31	207.12
453.53	217.12
453.751	204.12
453.971	212.12
454.192	221.12
454.412	200.12
454.633	193.12
454.853	191.12
455.073	190.12
455.294	210.12
455.514	199.12
455.734	216.12
455.955	203.12
456.175	197.12
456.395	196.12
456.616	220.12
456.836	206.12
457.056	210.12
457.276	197.12
457.497	178.12
457.717	196.12
457.937	208.12
458.157	218.12
458.377	208.12
458.598	194.12
458.818	198.12
459.038	209.12
459.258	230.12
459.478	238.12
459.698	244.12
459.918	236.12
460.138	239.12
460.358	261.12
460.578	258.12
460.798	247.12
461.018	265.12
461.238	263.12
461.458	256.12
461.678	260.12
461.898	254.12
462.118	268.12
462.338	277.12
462.558	282.12
462.777	271.12
462.997	299.12
463.217	329.12
463.437	337.12
463.657	288.12
463.876	284.12
464.096	305.12
464.316	296.12
464.536	299.12
464.755	283.12
464.975	252.12
465.195	262.12
465.414	240.12
465.634	242.12
465.854	232.12
466.073	237.12
466.293	232.12
466.512	212.12
466.732	223.12
466.951	218.12
467.171	216.12
467.391	237.12
467.61	210.12
467.829	222.12
468.049	230.12
468.268	213.12
468.488	209.12
468.707	213.12
468.927	208.12
469.146	215.12
469.365	211.12
469.585	199.12
469.804	230.12
470.023	234.12
470.243	215.12
470.462	220.12
470.681	223.12
470.901	221.12
471.12	218.12
471.339	228.12
471.558	233.12
471.777	226.12
471.997	227.12
472.216	222.12
472.435	230.12
472.654	212.12
472.873	202.12
473.092	208.12
473.311	232.12
473.53	211.12
473.749	207.12
473.968	213.12
474.187	211.12
474.406	222.12
474.625	214.12
474.844	218.12
475.063	213.12
475.282	235.12
475.501	211.12
475.72	220.12
475.939	215.12
476.158	206.12
476.377	226.12
476.596	211.12
476.814	223.12
477.033	218.12
477.252	221.12
477.471	221.12
477.69	233.12
477.908	245.12
478.127	263.12
478.346	262.12
478.564	237.12
478.783	246.12
479.002	264.12
479.22	260.12
479.439	261.12
479.658	258.12
479.876	263.12
480.095	268.12
480.313	277.12
480.532	292.12
480.751	285.12
480.969	265.12
481.188	255.12
481.406	243.12
481.624	245.12
481.843	237.12
482.061	256.12
482.28	236.12
482.498	234.12
482.717	231.12
482.935	221.12
483.153	259.12
483.372	236.12
483.59	251.12
483.808	229.12
484.027	236.12
484.245	229.12
484.463	235.12
484.681	242.12
484.9	251.12
485.118	269.12
485.336	251.12
485.554	248.12
485.772	259.12
485.99	236.12
486.209	258.12
486.427	260.12
486.645	259.12
486.863	247.12
487.081	244.12
487.299	247.12
487.517	255.12
487.735	252.12
487.953	265.12
488.171	270.12
488.389	269.12
488.607	259.12
488.825	230.12
489.043	254.12
489.261	240.12
489.479	244.12
489.696	266.12
489.914	282.12
490.132	260.12
490.35	254.12
490.568	236.12
490.786	262.12
491.003	260.12
491.221	253.12
491.439	246.12
491.657	254.12
491.874	260.12
492.092	262.12
492.31	252.12
492.527	261.12
492.745	256.12
492.963	264.12
493.18	250.12
493.398	264.12
493.615	267.12
493.833	254.12
494.05	247.12
494.268	271.12
494.485	277.12
494.703	271.12
494.92	270.12
495.138	271.12
495.355	263.12
495.573	256.12
495.79	262.12
496.008	246.12
496.225	275.12
496.442	300.12
496.66	282.12
496.877	266.12
497.094	277.12
497.312	276.12
497.529	289.12
497.746	295.12
497.963	293.12
498.181	317.12
498.398	324.12
498.615	319.12
498.832	339.12
499.049	361.12
499.267	395.12
499.484	408.12
499.701	463.12
499.918	498.12
500.135	547.12
500.352	646.12
500.569	692.12
500.786	692.12
501.003	652.12
501.22	577.12
501.437	532.12
501.654	454.12
501.871	410.12
502.088	383.12
502.305	348.12
502.522	328.12
502.739	338.12
502.956	340.12
503.172	313.12
503.389	296.12
503.606	291.12
503.823	287.12
504.04	283.12
504.256	294.12
504.473	297.12
504.69	298.12
504.907	314.12
505.123	262.12
505.34	263.12
505.557	238.12
505.773	249.12
505.99	272.12
506.207	270.12
506.423	256.12
506.64	255.12
506.856	240.12
507.073	250.12
507.289	244.12
507.506	232.12
507.722	265.12
507.939	239.12
508.155	226.12
508.372	250.12
508.588	227.12
508.805	232.12
509.021	224.12
509.238	229.12
509.454	228.12
509.67	246.12
509.887	217.12
510.103	251.12
510.319	224.12
510.536	226.12
510.752	223.12
510.968	225.12
511.184	233.12
511.401	240.12
511.617	213.12
511.833	223.12
512.049	223.12
512.265	226.12
512.481	244.12
512.698	242.12
512.914	237.12
513.13	231.12
513.346	222.12
513.562	238.12
513.778	230.12
513.994	222.12
514.21	224.12
514.426	238.12
514.642	227.12
514.858	226.12
515.074	242.12
515.29	234.12
515.506	255.12
515.721	237.12
515.937	244.12
516.153	254.12
516.369	246.12
516.585	237.12
516.801	246.12
517.016	264.12
517.232	272.12
517.448	271.12
517.664	314.12
517.879	310.12
518.095	311.12
518.311	306.12
518.527	280.12
518.742	278.12
518.958	260.12
519.173	257.12
519.389	247.12
519.605	242.12
519.82	252.12
520.036	239.12
520.251	235.12
520.467	231.12
520.682	229.12
520.898	213.12
521.113	214.12
521.329	238.12
521.544	237.12
521.76	223.12
521.975	218.12
522.19	231.12
522.406	221.12
522.621	222.12
522.836	216.12
523.052	233.12
523.267	234.12
523.482	227.12
523.698	226.12
523.913	213.12
524.128	216.12
524.343	214.12
524.559	216.12
524.774	211.12
524.989	227.12
525.204	220.12
525.419	215.12
525.634	219.12
525.849	216.12
526.064	201.12
526.28	202.12
526.495	218.12
526.71	219.12
526.925	215.12
527.14	217.12
527.355	199.12
527.57	218.12
527.785	208.12
527.999	218.12
528.214	201.12
528.429	217.12
528.644	211.12
528.859	227.12
529.074	233.12
529.289	223.12
529.503	227.12
529.718	216.12
529.933	205.12
530.148	230.12
530.363	218.12
530.577	222.12
530.792	217.12
531.007	212.12
531.221	224.12
531.436	218.12
531.651	221.12
531.865	211.12
532.08	218.12
532.295	215.12
532.509	201.12
532.724	220.12
532.938	227.12
533.153	241.12
533.367	218.12
533.582	226.12
533.796	210.12
534.011	217.12
534.225	198.12
534.44	214.12
534.654	219.12
534.868	210.12
535.083	206.12
535.297	201.12
535.511	219.12
535.726	210.12
535.94	212.12
536.154	210.12
536.369	209.12
536.583	191.12
536.797	216.12
537.011	204.12
537.225	207.12
537.44	230.12
537.654	213.12
537.868	215.12
538.082	204.12
538.296	211.12
538.51	200.12
538.724	209.12
538.938	203.12
539.153	183.12
539.367	210.12
539.581	201.12
539.795	207.12
540.009	189.12
540.222	196.12
540.436	198.12
540.65	205.12
540.864	216.12
541.078	218.12
541.292	204.12
541.506	214.12
541.72	207.12
541.934	218.12
542.147	207.12
542.361	211.12
542.575	210.12
542.789	212.12
543.002	201.12
543.216	199.12
543.43	211.12
543.644	212.12
543.857	215.12
544.071	198.12
544.285	187.12
544.498	202.12
544.712	215.12
544.925	205.12
545.139	207.12
545.352	186.12
545.566	194.12
545.779	208.12
545.993	210.12
546.206	206.12
546.42	218.12
546.633	207.12
546.847	210.12
547.06	219.12
547.274	207.12
547.487	202.12
547.7	209.12
547.914	219.12
548.127	210.12
548.34	214.12
548.554	215.12
548.767	221.12
548.98	222.12
549.193	211.12
549.407	206.12
549.62	228.12
549.833	224.12
550.046	218.12
550.259	215.12
550.473	211.12
550.686	202.12
550.899	231.12
551.112	230.12
551.325	197.12
551.538	213.12
551.751	194.12
551.964	220.12
552.177	222.12
552.39	219.12
552.603	220.12
552.816	191.12
553.029	206.12
553.242	226.12
553.455	233.12
553.667	240.12
553.88	240.12
554.093	217.12
554.306	227.12
554.519	231.12
554.732	214.12
554.944	213.12
555.157	191.12
555.37	212.12
555.583	210.12
555.795	201.12
556.008	216.12
556.221	197.12
556.433	201.12
556.646	193.12
556.859	200.12
557.071	190.12
557.284	178.12
557.496	183.12
557.709	199.12
557.921	199.12
558.134	180.12
558.346	196.12
558.559	203.12
558.771	190.12
558.984	178.12
559.196	196.12
559.409	181.12
559.621	192.12
559.833	183.12
560.046	198.12
560.258	195.12
560.47	192.12
560.683	181.12
560.895	182.12
561.107	188.12
561.32	188.12
561.532	181.12
561.744	195.12
561.956	183.12
562.168	182.12
562.381	189.12
562.593	182.12
562.805	186.12
563.017	194.12
563.229	199.12
563.441	192.12
563.653	209.12
563.865	194.12
564.077	195.12
564.289	189.12
564.501	198.12
564.713	181.12
564.925	182.12
565.137	190.12
565.349	203.12
565.561	215.12
565.773	219.12
565.985	207.12
566.197	226.12
566.408	231.12
566.62	246.12
566.832	270.12
567.044	287.12
567.255	258.12
567.467	278.12
567.679	289.12
567.891	306.12
568.102	299.12
568.314	304.12
568.526	278.12
568.737	281.12
568.949	249.12
569.161	213.12
569.372	231.12
569.584	202.12
569.795	206.12
570.007	172.12
570.218	188.12
570.43	189.12
570.641	195.12
570.853	194.12
571.064	212.12
571.276	202.12
571.487	193.12
571.698	196.12
571.91	172.12
572.121	182.12
572.333	186.12
572.544	168.12
572.755	169.12
572.966	175.12
573.178	181.12
573.389	173.12
573.6	171.12
573.811	176.12
574.023	178.12
574.234	162.12
574.445	172.12
574.656	167.12
574.867	168.12
575.078	174.12
575.289	165.12
575.501	164.12
575.712	169.12
575.923	170.12
576.134	176.12
576.345	153.12
576.556	167.12
576.767	169.12
576.978	171.12
577.188	167.12
577.399	164.12
577.61	169.12
577.821	156.12
578.032	166.12
578.243	162.12
578.454	165.12
578.665	159.12
578.875	158.12
579.086	158.12
579.297	155.12
579.508	152.12
579.718	176.12
579.929	144.12
580.14	174.12
580.35	154.12
580.561	163.12
580.772	148.12
580.982	163.12
581.193	151.12
581.403	142.12
581.614	158.12
581.825	166.12
582.035	175.12
582.246	158.12
582.456	141.12
582.667	151.12
582.877	160.12
583.087	154.12
583.298	158.12
583.508	162.12
583.719	142.12
583.929	167.12
584.139	148.12
584.35	160.12
584.56	153.12
584.77	152.12
584.981	147.12
585.191	144.12
585.401	142.12
585.611	155.12
585.821	166.12
586.032	150.12
586.242	168.12
586.452	167.12
586.662	157.12
586.872	155.12
587.082	156.12
587.292	140.12
587.502	151.12
587.713	150.12
587.923	144.12
588.133	141.12
588.343	163.12
588.553	160.12
588.762	134.12
588.972	156.12
589.182	166.12
589.392	158.12
589.602	152.12
589.812	147.12
590.022	171.12
590.232	143.12
590.441	162.12
590.651	156.12
590.861	169.12
591.071	154.12
591.281	164.12
591.49	164.12
591.7	163.12
591.91	173.12
592.119	158.12
592.329	169.12
592.539	178.12
592.748	171.12
592.958	172.12
593.167	161.12
593.377	182.12
593.587	200.12
593.796	193.12
594.006	197.12
594.215	175.12
594.424	188.12
594.634	182.12
594.843	162.12
595.053	159.12
595.262	181.12
595.472	159.12
595.681	160.12
595.89	157.12
596.1	154.12
596.309	163.12
596.518	156.12
596.727	154.12
596.937	135.12
597.146	147.12
597.355	137.12
597.564	158.12
597.774	161.12
597.983	137.12
598.192	143.12
598.401	126.12
598.61	149.12
598.819	160.12
599.028	141.12
599.237	138.12
599.446	149.12
599.655	156.12
599.864	138.12
600.073	145.12
600.282	142.12
600.491	142.12
600.7	130.12
600.909	142.12
601.118	141.12
601.327	149.12
601.536	144.12
601.745	144.12
601.953	155.12
602.162	137.12
602.371	132.12
602.58	150.12
602.789	144.12
602.997	137.12
603.206	149.12
603.415	140.12
603.623	147.12
603.832	141.12
604.041	150.12
604.249	124.12
604.458	142.12
604.666	134.12
604.875	133.12
605.084	133.12
605.292	150.12
605.501	141.12
605.709	140.12
605.918	143.12
606.126	133.12
606.334	151.12
606.543	137.12
606.751	139.12
606.96	141.12
607.168	139.12
607.376	134.12
607.585	138.12
607.793	134.12
608.001	146.12
608.21	140.12
608.418	136.12
608.626	139.12
608.834	142.12
609.043	139.12
609.251	134.12
609.459	135.12
609.667	120.12
609.875	145.12
610.083	145.12
610.291	135.12
610.499	121.12
610.707	133.12
610.916	131.12
611.124	149.12
611.332	144.12
611.54	123.12
611.748	130.12
611.955	147.12
612.163	134.12
612.371	141.12
612.579	130.12
612.787	142.12
612.995	130.12
613.203	122.12
613.411	145.12
613.618	130.12
613.826	139.12
614.034	116.12
614.242	144.12
614.449	142.12
614.657	131.12
614.865	155.12
615.072	130.12
615.28	128.12
615.488	133.12
615.695	143.12
615.903	144.12
616.111	152.12
616.318	150.12
616.526	130.12
616.733	129.12
616.941	127.12
617.148	128.12
617.356	134.12
617.563	140.12
617.771	124.12
617.978	130.12
618.185	127.12
618.393	136.12
618.6	137.12
618.807	127.12
619.015	124.12
619.222	129.12
619.429	117.12
619.637	120.12
619.844	135.12
620.051	139.12
620.258	137.12
620.466	130.12
620.673	115.12
620.88	116.12
621.087	125.12
621.294	117.12
621.501	132.12
621.708	125.12
621.915	125.12
622.122	129.12
622.329	130.12
622.536	123.12
622.743	118.12
622.95	121.12
623.157	130.12
623.364	134.12
623.571	135.12
623.778	136.12
623.985	126.12
624.192	115.12
624.399	118.12
624.606	139.12
624.812	118.12
625.019	132.12
625.226	127.12
625.433	138.12
625.639	126.12
625.846	116.12
626.053	132.12
626.259	119.12
626.466	129.12
626.673	136.12
626.879	123.12
627.086	125.12
627.293	125.12
627.499	123.12
627.706	121.12
627.912	117.12
628.119	117.12
628.325	128.12
628.532	121.12
628.738	121.12
628.945	120.12
629.151	117.12
629.357	119.12
629.564	119.12
629.77	111.12
629.976	131.12
630.183	121.12
630.389	137.12
630.595	125.12
630.802	125.12
631.008	132.12
631.214	119.12
631.42	116.12
631.627	124.12
631.833	113.12
632.039	109.12
632.245	125.12
632.451	122.12
632.657	126.12
632.863	108.12
633.069	115.12
633.275	120.12
633.481	116.12
633.688	110.12
633.893	132.12
634.099	127.12
634.305	111.12
634.511	123.12
634.717	121.12
634.923	117.12
635.129	122.12
635.335	112.12
635.541	98.12
635.747	122.12
635.952	102.12
636.158	125.12
636.364	129.12
636.57	129.12
636.775	117.12
636.981	114.12
637.187	109.12
637.392	126.12
637.598	122.12
637.804	127.12
638.009	99.12
638.215	109.12
638.421	104.12
638.626	98.12
638.832	128.12
639.037	134.12
639.243	120.12
639.448	124.12
639.654	118.12
639.859	107.12
640.065	111.12
640.27	137.12
640.475	118.12
640.681	114.12
640.886	97.12
641.091	119.12
641.297	130.12
641.502	125.12
641.707	117.12
641.913	124.12
642.118	117.12
642.323	108.12
642.528	116.12
642.733	106.12
642.939	105.12
643.144	121.12
643.349	94.12
643.554	111.12
643.759	126.12
643.964	122.12
644.169	107.12
644.374	102.12
644.579	122.12
644.784	122.12
644.989	126.12
645.194	120.12
645.399	104.12
645.604	122.12
645.809	94.12
646.014	128.12
646.219	118.12
646.423	109.12
646.628	126.12
646.833	122.12
647.038	125.12
647.243	105.12
647.447	104.12
647.652	104.12
647.857	101.12
648.062	119.12
648.266	106.12
648.471	122.12
648.676	120.12
648.88	110.12
649.085	109.12
649.289	102.12
649.494	135.12
649.698	109.12
649.903	123.12
650.107	106.12
650.312	114.12
650.516	105.12
650.721	111.12
650.925	114.12
651.13	118.12
651.334	96.12
651.539	119.12
651.743	118.12
651.947	107.12
652.152	108.12
652.356	89.12
652.56	102.12
652.764	101.12
652.969	97.12
653.173	110.12
653.377	99.12
653.581	103.12
653.785	112.12
653.99	111.12
654.194	86.12
654.398	112.12
654.602	104.12
654.806	106.12
655.01	107.12
655.214	113.12
655.418	116.12
655.622	97.12
655.826	101.12
656.03	118.12
656.234	125.12
656.438	106.12
656.642	116.12
656.846	114.12
657.049	103.12
657.253	104.12
657.457	102.12
657.661	115.12
657.865	103.12
658.068	98.12
658.272	106.12
658.476	96.12
658.68	101.12
658.883	90.12
659.087	95.12
659.291	102.12
659.494	83.12
659.698	97.12
659.901	99.12
660.105	83.12
660.309	80.12
660.512	75.12
660.716	92.12
660.919	89.12
661.123	99.12
661.326	79.12
661.53	92.12
661.733	93.12
661.936	70.12
662.14	82.12
662.343	94.12
662.546	91.12
662.75	88.12
662.953	81.12
663.156	76.12
663.36	75.12
663.563	85.12
663.766	90.12
663.969	96.12
664.173	84.12
664.376	91.12
664.579	89.12
664.782	83.12
664.985	104.12
665.188	72.12
665.391	79.12
665.594	72.12
665.797	85.12
666	81.12
666.203	84.12
666.406	83.12
666.609	67.12
666.812	80.12
667.015	73.12
667.218	81.12
667.421	90.12
667.624	94.12
667.827	84.12
668.03	76.12
668.232	84.12
668.435	85.12
668.638	78.12
668.841	93.12
669.043	90.12
669.246	94.12
669.449	75.12
669.651	76.12
669.854	90.12
670.057	94.12
670.259	93.12
670.462	94.12
670.665	82.12
670.867	89.12
671.07	77.12
671.272	79.12
671.475	98.12
671.677	95.12
671.88	85.12
672.082	88.12
672.284	73.12
672.487	93.12
672.689	88.12
672.892	81.12
