Data from 0.5MCu(NO3)2.Standard.Lamp.E10.CV._HRD10591_16-06-37-754.txt Node
Date: Mon Jul 22 16:06:37 EDT 2019
User: cochatt
Spectrometer: HR+D1059
Trigger mode: 1
Integration Time (sec): 1.000000E-1
Scans to average: 1
Electric dark correction enabled: true
Nonlinearity correction enabled: false
Boxcar width: 0
XAxis mode: Wavelengths
Number of Pixels in Spectrum: 2048
>>>>>Begin Spectral Data<<<<<
223.165	-20.88
223.4	-20.88
223.635	-20.88
223.869	-25.88
224.104	-28.88
224.338	-5.88
224.573	-2.88
224.808	-1.88
225.042	-2.88
225.277	-8.88
225.511	7.12
225.746	7.12
225.98	-4.88
226.215	14.12
226.449	23.12
226.683	16.12
226.918	17.12
227.152	18.12
227.387	26.12
227.621	47.12
227.856	61.12
228.09	40.12
228.324	68.12
228.559	65.12
228.793	60.12
229.027	73.12
229.262	59.12
229.496	78.12
229.73	75.12
229.964	70.12
230.199	75.12
230.433	85.12
230.667	97.12
230.901	94.12
231.136	98.12
231.37	97.12
231.604	90.12
231.838	95.12
232.072	97.12
232.306	94.12
232.541	97.12
232.775	95.12
233.009	90.12
233.243	95.12
233.477	83.12
233.711	94.12
233.945	87.12
234.179	83.12
234.413	85.12
234.647	90.12
234.881	85.12
235.115	96.12
235.349	83.12
235.583	93.12
235.817	75.12
236.051	79.12
236.285	99.12
236.519	94.12
236.753	97.12
236.987	101.12
237.221	77.12
237.455	86.12
237.689	93.12
237.922	94.12
238.156	90.12
238.39	99.12
238.624	86.12
238.858	84.12
239.091	96.12
239.325	100.12
239.559	85.12
239.793	95.12
240.027	77.12
240.26	93.12
240.494	92.12
240.728	92.12
240.961	87.12
241.195	106.12
241.429	91.12
241.662	102.12
241.896	83.12
242.13	91.12
242.363	88.12
242.597	83.12
242.83	99.12
243.064	93.12
243.298	94.12
243.531	104.12
243.765	93.12
243.998	104.12
244.232	97.12
244.465	106.12
244.699	110.12
244.932	110.12
245.166	106.12
245.399	98.12
245.633	95.12
245.866	107.12
246.099	101.12
246.333	89.12
246.566	103.12
246.8	104.12
247.033	83.12
247.266	105.12
247.5	108.12
247.733	110.12
247.966	98.12
248.2	99.12
248.433	110.12
248.666	117.12
248.899	96.12
249.133	109.12
249.366	104.12
249.599	97.12
249.832	86.12
250.066	114.12
250.299	106.12
250.532	114.12
250.765	105.12
250.998	110.12
251.231	108.12
251.465	104.12
251.698	120.12
251.931	107.12
252.164	113.12
252.397	128.12
252.63	117.12
252.863	102.12
253.096	103.12
253.329	119.12
253.562	115.12
253.795	118.12
254.028	96.12
254.261	104.12
254.494	97.12
254.727	107.12
254.96	103.12
255.193	118.12
255.426	109.12
255.659	117.12
255.892	120.12
256.124	120.12
256.357	108.12
256.59	107.12
256.823	108.12
257.056	111.12
257.289	124.12
257.521	99.12
257.754	91.12
257.987	115.12
258.22	98.12
258.452	108.12
258.685	123.12
258.918	118.12
259.151	124.12
259.383	114.12
259.616	133.12
259.849	113.12
260.081	120.12
260.314	126.12
260.547	117.12
260.779	122.12
261.012	134.12
261.244	126.12
261.477	120.12
261.71	126.12
261.942	118.12
262.175	115.12
262.407	129.12
262.64	119.12
262.872	118.12
263.105	126.12
263.337	128.12
263.57	108.12
263.802	126.12
264.035	115.12
264.267	131.12
264.499	116.12
264.732	127.12
264.964	115.12
265.197	126.12
265.429	124.12
265.661	131.12
265.894	111.12
266.126	127.12
266.358	131.12
266.591	111.12
266.823	126.12
267.055	117.12
267.287	113.12
267.52	125.12
267.752	129.12
267.984	122.12
268.216	130.12
268.448	118.12
268.681	123.12
268.913	121.12
269.145	127.12
269.377	136.12
269.609	134.12
269.841	131.12
270.073	126.12
270.306	118.12
270.538	138.12
270.77	135.12
271.002	130.12
271.234	127.12
271.466	135.12
271.698	131.12
271.93	131.12
272.162	126.12
272.394	134.12
272.626	111.12
272.858	134.12
273.09	141.12
273.322	143.12
273.553	121.12
273.785	140.12
274.017	132.12
274.249	138.12
274.481	136.12
274.713	119.12
274.945	121.12
275.176	126.12
275.408	148.12
275.64	144.12
275.872	132.12
276.104	138.12
276.335	142.12
276.567	141.12
276.799	141.12
277.031	134.12
277.262	135.12
277.494	141.12
277.726	143.12
277.957	138.12
278.189	143.12
278.421	141.12
278.652	139.12
278.884	138.12
279.115	138.12
279.347	136.12
279.579	157.12
279.81	155.12
280.042	152.12
280.273	155.12
280.505	149.12
280.736	137.12
280.968	137.12
281.199	138.12
281.431	159.12
281.662	145.12
281.894	132.12
282.125	156.12
282.356	148.12
282.588	150.12
282.819	129.12
283.051	141.12
283.282	158.12
283.513	133.12
283.745	152.12
283.976	163.12
284.207	157.12
284.439	143.12
284.67	139.12
284.901	155.12
285.132	148.12
285.364	134.12
285.595	168.12
285.826	162.12
286.057	156.12
286.288	160.12
286.52	139.12
286.751	141.12
286.982	148.12
287.213	158.12
287.444	154.12
287.675	153.12
287.906	165.12
288.138	159.12
288.369	149.12
288.6	157.12
288.831	167.12
289.062	171.12
289.293	152.12
289.524	153.12
289.755	148.12
289.986	163.12
290.217	177.12
290.448	166.12
290.679	156.12
290.91	166.12
291.141	143.12
291.371	169.12
291.602	164.12
291.833	154.12
292.064	142.12
292.295	170.12
292.526	155.12
292.757	154.12
292.987	156.12
293.218	169.12
293.449	161.12
293.68	168.12
293.91	177.12
294.141	150.12
294.372	173.12
294.603	154.12
294.833	169.12
295.064	171.12
295.295	163.12
295.525	147.12
295.756	147.12
295.987	157.12
296.217	159.12
296.448	157.12
296.679	163.12
296.909	177.12
297.14	169.12
297.37	165.12
297.601	179.12
297.831	176.12
298.062	159.12
298.292	177.12
298.523	192.12
298.753	164.12
298.984	165.12
299.214	160.12
299.445	158.12
299.675	175.12
299.905	157.12
300.136	175.12
300.366	168.12
300.597	177.12
300.827	166.12
301.057	167.12
301.288	182.12
301.518	169.12
301.748	165.12
301.979	195.12
302.209	190.12
302.439	167.12
302.669	177.12
302.9	166.12
303.13	187.12
303.36	185.12
303.59	156.12
303.82	173.12
304.051	167.12
304.281	179.12
304.511	174.12
304.741	164.12
304.971	174.12
305.201	182.12
305.431	165.12
305.661	170.12
305.891	174.12
306.121	179.12
306.352	159.12
306.582	163.12
306.812	171.12
307.042	186.12
307.272	168.12
307.502	170.12
307.731	168.12
307.961	171.12
308.191	172.12
308.421	164.12
308.651	185.12
308.881	172.12
309.111	181.12
309.341	174.12
309.571	168.12
309.8	168.12
310.03	170.12
310.26	181.12
310.49	180.12
310.72	180.12
310.949	165.12
311.179	173.12
311.409	174.12
311.639	200.12
311.868	177.12
312.098	180.12
312.328	194.12
312.557	184.12
312.787	173.12
313.017	180.12
313.246	173.12
313.476	161.12
313.706	187.12
313.935	180.12
314.165	174.12
314.394	191.12
314.624	173.12
314.853	163.12
315.083	175.12
315.312	188.12
315.542	185.12
315.771	158.12
316.001	166.12
316.23	174.12
316.46	178.12
316.689	174.12
316.919	186.12
317.148	174.12
317.377	174.12
317.607	172.12
317.836	177.12
318.065	187.12
318.295	172.12
318.524	191.12
318.753	169.12
318.983	174.12
319.212	165.12
319.441	178.12
319.67	161.12
319.9	187.12
320.129	181.12
320.358	189.12
320.587	179.12
320.816	189.12
321.046	170.12
321.275	153.12
321.504	170.12
321.733	163.12
321.962	171.12
322.191	183.12
322.42	189.12
322.649	172.12
322.878	182.12
323.108	188.12
323.337	161.12
323.566	182.12
323.795	157.12
324.024	168.12
324.253	188.12
324.482	178.12
324.71	178.12
324.939	186.12
325.168	186.12
325.397	182.12
325.626	181.12
325.855	192.12
326.084	204.12
326.313	200.12
326.542	192.12
326.77	190.12
326.999	177.12
327.228	188.12
327.457	179.12
327.686	195.12
327.914	190.12
328.143	193.12
328.372	196.12
328.6	181.12
328.829	191.12
329.058	192.12
329.287	169.12
329.515	176.12
329.744	192.12
329.972	184.12
330.201	187.12
330.43	177.12
330.658	190.12
330.887	189.12
331.115	193.12
331.344	203.12
331.572	207.12
331.801	206.12
332.03	204.12
332.258	212.12
332.486	216.12
332.715	202.12
332.943	230.12
333.172	227.12
333.4	236.12
333.629	234.12
333.857	242.12
334.085	218.12
334.314	218.12
334.542	229.12
334.771	224.12
334.999	221.12
335.227	221.12
335.455	215.12
335.684	205.12
335.912	217.12
336.14	210.12
336.369	210.12
336.597	220.12
336.825	208.12
337.053	221.12
337.281	213.12
337.51	205.12
337.738	210.12
337.966	199.12
338.194	193.12
338.422	202.12
338.65	200.12
338.878	203.12
339.106	189.12
339.334	195.12
339.562	196.12
339.79	194.12
340.018	194.12
340.246	186.12
340.474	186.12
340.702	208.12
340.93	201.12
341.158	180.12
341.386	209.12
341.614	197.12
341.842	199.12
342.07	187.12
342.298	174.12
342.526	189.12
342.754	200.12
342.981	201.12
343.209	186.12
343.437	208.12
343.665	193.12
343.893	227.12
344.12	233.12
344.348	225.12
344.576	193.12
344.804	192.12
345.031	190.12
345.259	181.12
345.487	195.12
345.714	196.12
345.942	178.12
346.17	185.12
346.397	178.12
346.625	176.12
346.853	179.12
347.08	207.12
347.308	193.12
347.535	187.12
347.763	172.12
347.99	204.12
348.218	207.12
348.445	191.12
348.673	193.12
348.9	195.12
349.128	201.12
349.355	202.12
349.583	181.12
349.81	188.12
350.037	177.12
350.265	168.12
350.492	168.12
350.72	196.12
350.947	202.12
351.174	185.12
351.402	165.12
351.629	189.12
351.856	196.12
352.083	191.12
352.311	194.12
352.538	170.12
352.765	182.12
352.992	187.12
353.22	174.12
353.447	179.12
353.674	194.12
353.901	185.12
354.128	164.12
354.355	180.12
354.583	179.12
354.81	178.12
355.037	191.12
355.264	187.12
355.491	173.12
355.718	177.12
355.945	182.12
356.172	190.12
356.399	182.12
356.626	193.12
356.853	166.12
357.08	184.12
357.307	170.12
357.534	194.12
357.761	182.12
357.988	162.12
358.215	175.12
358.441	193.12
358.668	184.12
358.895	197.12
359.122	194.12
359.349	184.12
359.576	172.12
359.802	177.12
360.029	185.12
360.256	189.12
360.483	190.12
360.709	179.12
360.936	191.12
361.163	193.12
361.39	175.12
361.616	183.12
361.843	187.12
362.07	195.12
362.296	180.12
362.523	187.12
362.749	190.12
362.976	171.12
363.203	179.12
363.429	191.12
363.656	179.12
363.882	171.12
364.109	183.12
364.335	180.12
364.562	182.12
364.788	167.12
365.015	181.12
365.241	173.12
365.468	162.12
365.694	181.12
365.92	172.12
366.147	178.12
366.373	174.12
366.599	173.12
366.826	172.12
367.052	185.12
367.278	186.12
367.505	172.12
367.731	189.12
367.957	179.12
368.184	169.12
368.41	172.12
368.636	181.12
368.862	191.12
369.089	188.12
369.315	189.12
369.541	192.12
369.767	183.12
369.993	189.12
370.219	191.12
370.445	208.12
370.672	165.12
370.898	180.12
371.124	183.12
371.35	182.12
371.576	180.12
371.802	188.12
372.028	184.12
372.254	179.12
372.48	191.12
372.706	202.12
372.932	217.12
373.158	196.12
373.384	193.12
373.61	191.12
373.835	188.12
374.061	185.12
374.287	191.12
374.513	206.12
374.739	197.12
374.965	216.12
375.191	198.12
375.416	194.12
375.642	191.12
375.868	210.12
376.094	180.12
376.319	182.12
376.545	200.12
376.771	207.12
376.997	195.12
377.222	193.12
377.448	213.12
377.674	185.12
377.899	191.12
378.125	182.12
378.35	181.12
378.576	201.12
378.802	202.12
379.027	190.12
379.253	173.12
379.478	193.12
379.704	189.12
379.929	173.12
380.155	188.12
380.38	192.12
380.606	191.12
380.831	205.12
381.057	190.12
381.282	180.12
381.507	197.12
381.733	214.12
381.958	211.12
382.184	178.12
382.409	194.12
382.634	203.12
382.86	191.12
383.085	214.12
383.31	210.12
383.535	194.12
383.761	215.12
383.986	212.12
384.211	213.12
384.436	191.12
384.662	211.12
384.887	217.12
385.112	215.12
385.337	229.12
385.562	207.12
385.787	225.12
386.013	219.12
386.238	214.12
386.463	226.12
386.688	235.12
386.913	211.12
387.138	220.12
387.363	206.12
387.588	205.12
387.813	217.12
388.038	228.12
388.263	204.12
388.488	210.12
388.713	202.12
388.938	202.12
389.163	196.12
389.387	214.12
389.612	204.12
389.837	210.12
390.062	205.12
390.287	195.12
390.512	197.12
390.736	196.12
390.961	212.12
391.186	202.12
391.411	221.12
391.636	235.12
391.86	222.12
392.085	233.12
392.31	230.12
392.534	236.12
392.759	232.12
392.984	199.12
393.208	210.12
393.433	219.12
393.658	224.12
393.882	215.12
394.107	210.12
394.331	212.12
394.556	197.12
394.78	227.12
395.005	230.12
395.229	214.12
395.454	234.12
395.678	235.12
395.903	230.12
396.127	214.12
396.352	213.12
396.576	217.12
396.801	206.12
397.025	228.12
397.249	226.12
397.474	239.12
397.698	232.12
397.922	236.12
398.147	236.12
398.371	220.12
398.595	232.12
398.82	246.12
399.044	245.12
399.268	290.12
399.492	306.12
399.717	364.12
399.941	328.12
400.165	293.12
400.389	279.12
400.613	236.12
400.837	246.12
401.062	257.12
401.286	257.12
401.51	241.12
401.734	246.12
401.958	243.12
402.182	245.12
402.406	266.12
402.63	261.12
402.854	277.12
403.078	273.12
403.302	263.12
403.526	289.12
403.75	275.12
403.974	274.12
404.198	298.12
404.422	283.12
404.645	279.12
404.869	283.12
405.093	294.12
405.317	292.12
405.541	285.12
405.765	271.12
405.988	263.12
406.212	262.12
406.436	245.12
406.66	279.12
406.883	271.12
407.107	294.12
407.331	306.12
407.555	314.12
407.778	306.12
408.002	290.12
408.226	293.12
408.449	288.12
408.673	284.12
408.896	279.12
409.12	291.12
409.344	277.12
409.567	287.12
409.791	296.12
410.014	283.12
410.238	265.12
410.461	278.12
410.685	263.12
410.908	268.12
411.132	268.12
411.355	242.12
411.578	267.12
411.802	251.12
412.025	251.12
412.249	271.12
412.472	272.12
412.695	248.12
412.919	260.12
413.142	233.12
413.365	244.12
413.589	239.12
413.812	253.12
414.035	248.12
414.258	245.12
414.482	243.12
414.705	250.12
414.928	252.12
415.151	243.12
415.374	253.12
415.597	260.12
415.821	228.12
416.044	243.12
416.267	219.12
416.49	245.12
416.713	225.12
416.936	251.12
417.159	249.12
417.382	235.12
417.605	243.12
417.828	248.12
418.051	228.12
418.274	249.12
418.497	238.12
418.72	255.12
418.943	247.12
419.166	264.12
419.389	277.12
419.611	262.12
419.834	278.12
420.057	249.12
420.28	238.12
420.503	249.12
420.726	239.12
420.948	243.12
421.171	257.12
421.394	245.12
421.617	256.12
421.839	251.12
422.062	253.12
422.285	250.12
422.507	267.12
422.73	241.12
422.953	247.12
423.175	269.12
423.398	255.12
423.621	264.12
423.843	251.12
424.066	267.12
424.288	251.12
424.511	244.12
424.733	254.12
424.956	254.12
425.178	237.12
425.401	234.12
425.623	257.12
425.846	249.12
426.068	242.12
426.291	231.12
426.513	222.12
426.735	222.12
426.958	218.12
427.18	229.12
427.402	241.12
427.625	221.12
427.847	234.12
428.069	226.12
428.292	220.12
428.514	233.12
428.736	224.12
428.958	218.12
429.181	214.12
429.403	222.12
429.625	228.12
429.847	217.12
430.069	201.12
430.292	234.12
430.514	223.12
430.736	223.12
430.958	235.12
431.18	204.12
431.402	214.12
431.624	218.12
431.846	219.12
432.068	220.12
432.29	233.12
432.512	234.12
432.734	235.12
432.956	227.12
433.178	217.12
433.4	221.12
433.622	217.12
433.844	238.12
434.066	221.12
434.287	230.12
434.509	229.12
434.731	231.12
434.953	251.12
435.175	244.12
435.397	244.12
435.618	259.12
435.84	235.12
436.062	225.12
436.284	227.12
436.505	234.12
436.727	224.12
436.949	213.12
437.17	223.12
437.392	237.12
437.614	215.12
437.835	206.12
438.057	226.12
438.278	213.12
438.5	219.12
438.721	223.12
438.943	213.12
439.165	193.12
439.386	215.12
439.608	222.12
439.829	234.12
440.05	225.12
440.272	232.12
440.493	229.12
440.715	245.12
440.936	210.12
441.158	243.12
441.379	260.12
441.6	249.12
441.822	264.12
442.043	244.12
442.264	238.12
442.486	252.12
442.707	234.12
442.928	248.12
443.149	243.12
443.371	249.12
443.592	228.12
443.813	259.12
444.034	254.12
444.255	269.12
444.476	239.12
444.698	287.12
444.919	299.12
445.14	366.12
445.361	278.12
445.582	236.12
445.803	246.12
446.024	237.12
446.245	248.12
446.466	229.12
446.687	242.12
446.908	237.12
447.129	238.12
447.35	218.12
447.571	215.12
447.792	219.12
448.013	201.12
448.234	223.12
448.455	216.12
448.675	218.12
448.896	200.12
449.117	198.12
449.338	214.12
449.559	199.12
449.779	207.12
450	215.12
450.221	211.12
450.442	214.12
450.662	214.12
450.883	210.12
451.104	223.12
451.324	230.12
451.545	211.12
451.766	227.12
451.986	214.12
452.207	214.12
452.428	209.12
452.648	222.12
452.869	217.12
453.089	217.12
453.31	223.12
453.53	213.12
453.751	217.12
453.971	220.12
454.192	220.12
454.412	198.12
454.633	206.12
454.853	197.12
455.073	202.12
455.294	216.12
455.514	186.12
455.734	185.12
455.955	208.12
456.175	208.12
456.395	213.12
456.616	213.12
456.836	222.12
457.056	213.12
457.276	222.12
457.497	206.12
457.717	197.12
457.937	194.12
458.157	212.12
458.377	202.12
458.598	201.12
458.818	209.12
459.038	205.12
459.258	218.12
459.478	241.12
459.698	228.12
459.918	238.12
460.138	251.12
460.358	253.12
460.578	253.12
460.798	277.12
461.018	267.12
461.238	271.12
461.458	247.12
461.678	260.12
461.898	274.12
462.118	268.12
462.338	287.12
462.558	275.12
462.777	279.12
462.997	319.12
463.217	331.12
463.437	321.12
463.657	311.12
463.876	309.12
464.096	290.12
464.316	281.12
464.536	315.12
464.755	288.12
464.975	285.12
465.195	265.12
465.414	265.12
465.634	249.12
465.854	242.12
466.073	228.12
466.293	229.12
466.512	223.12
466.732	215.12
466.951	222.12
467.171	214.12
467.391	214.12
467.61	209.12
467.829	204.12
468.049	227.12
468.268	220.12
468.488	206.12
468.707	218.12
468.927	214.12
469.146	212.12
469.365	220.12
469.585	208.12
469.804	216.12
470.023	210.12
470.243	214.12
470.462	227.12
470.681	227.12
470.901	252.12
471.12	235.12
471.339	229.12
471.558	214.12
471.777	209.12
471.997	213.12
472.216	217.12
472.435	211.12
472.654	216.12
472.873	212.12
473.092	213.12
473.311	206.12
473.53	206.12
473.749	233.12
473.968	234.12
474.187	205.12
474.406	208.12
474.625	221.12
474.844	191.12
475.063	224.12
475.282	205.12
475.501	203.12
475.72	219.12
475.939	206.12
476.158	226.12
476.377	208.12
476.596	227.12
476.814	225.12
477.033	221.12
477.252	213.12
477.471	217.12
477.69	224.12
477.908	241.12
478.127	251.12
478.346	243.12
478.564	241.12
478.783	253.12
479.002	250.12
479.22	274.12
479.439	241.12
479.658	237.12
479.876	246.12
480.095	245.12
480.313	269.12
480.532	284.12
480.751	262.12
480.969	275.12
481.188	241.12
481.406	256.12
481.624	235.12
481.843	261.12
482.061	241.12
482.28	252.12
482.498	243.12
482.717	229.12
482.935	240.12
483.153	232.12
483.372	255.12
483.59	238.12
483.808	234.12
484.027	259.12
484.245	243.12
484.463	263.12
484.681	248.12
484.9	250.12
485.118	256.12
485.336	248.12
485.554	246.12
485.772	247.12
485.99	244.12
486.209	259.12
486.427	246.12
486.645	245.12
486.863	275.12
487.081	275.12
487.299	258.12
487.517	277.12
487.735	245.12
487.953	263.12
488.171	240.12
488.389	244.12
488.607	243.12
488.825	232.12
489.043	253.12
489.261	251.12
489.479	250.12
489.696	267.12
489.914	242.12
490.132	241.12
490.35	257.12
490.568	255.12
490.786	246.12
491.003	228.12
491.221	260.12
491.439	265.12
491.657	253.12
491.874	250.12
492.092	237.12
492.31	267.12
492.527	260.12
492.745	276.12
492.963	255.12
493.18	281.12
493.398	281.12
493.615	290.12
493.833	268.12
494.05	262.12
494.268	260.12
494.485	278.12
494.703	251.12
494.92	239.12
495.138	268.12
495.355	260.12
495.573	271.12
495.79	269.12
496.008	257.12
496.225	267.12
496.442	267.12
496.66	287.12
496.877	254.12
497.094	271.12
497.312	303.12
497.529	290.12
497.746	293.12
497.963	302.12
498.181	303.12
498.398	308.12
498.615	313.12
498.832	357.12
499.049	374.12
499.267	393.12
499.484	421.12
499.701	495.12
499.918	491.12
500.135	596.12
500.352	663.12
500.569	707.12
500.786	716.12
501.003	667.12
501.22	568.12
501.437	527.12
501.654	465.12
501.871	418.12
502.088	384.12
502.305	360.12
502.522	361.12
502.739	333.12
502.956	336.12
503.172	302.12
503.389	310.12
503.606	294.12
503.823	281.12
504.04	300.12
504.256	293.12
504.473	294.12
504.69	302.12
504.907	305.12
505.123	292.12
505.34	269.12
505.557	254.12
505.773	246.12
505.99	228.12
506.207	228.12
506.423	250.12
506.64	266.12
506.856	235.12
507.073	261.12
507.289	229.12
507.506	251.12
507.722	234.12
507.939	241.12
508.155	229.12
508.372	232.12
508.588	232.12
508.805	227.12
509.021	250.12
509.238	251.12
509.454	216.12
509.67	226.12
509.887	246.12
510.103	231.12
510.319	227.12
510.536	230.12
510.752	227.12
510.968	215.12
511.184	208.12
511.401	219.12
511.617	219.12
511.833	223.12
512.049	222.12
512.265	223.12
512.481	224.12
512.698	221.12
512.914	228.12
513.13	249.12
513.346	223.12
513.562	223.12
513.778	229.12
513.994	240.12
514.21	234.12
514.426	238.12
514.642	223.12
514.858	220.12
515.074	244.12
515.29	249.12
515.506	231.12
515.721	246.12
515.937	247.12
516.153	242.12
516.369	246.12
516.585	246.12
516.801	248.12
517.016	249.12
517.232	265.12
517.448	270.12
517.664	316.12
517.879	300.12
518.095	302.12
518.311	316.12
518.527	287.12
518.742	267.12
518.958	273.12
519.173	265.12
519.389	255.12
519.605	251.12
519.82	242.12
520.036	238.12
520.251	227.12
520.467	229.12
520.682	230.12
520.898	228.12
521.113	247.12
521.329	216.12
521.544	226.12
521.76	227.12
521.975	237.12
522.19	211.12
522.406	218.12
522.621	232.12
522.836	230.12
523.052	218.12
523.267	218.12
523.482	226.12
523.698	222.12
523.913	198.12
524.128	214.12
524.343	214.12
524.559	237.12
524.774	223.12
524.989	215.12
525.204	207.12
525.419	219.12
525.634	217.12
525.849	221.12
526.064	221.12
526.28	222.12
526.495	212.12
526.71	222.12
526.925	213.12
527.14	211.12
527.355	217.12
527.57	210.12
527.785	213.12
527.999	199.12
528.214	203.12
528.429	211.12
528.644	223.12
528.859	227.12
529.074	230.12
529.289	233.12
529.503	218.12
529.718	212.12
529.933	222.12
530.148	225.12
530.363	217.12
530.577	222.12
530.792	234.12
531.007	219.12
531.221	217.12
531.436	200.12
531.651	218.12
531.865	215.12
532.08	216.12
532.295	202.12
532.509	200.12
532.724	219.12
532.938	230.12
533.153	231.12
533.367	233.12
533.582	213.12
533.796	219.12
534.011	218.12
534.225	207.12
534.44	194.12
534.654	225.12
534.868	207.12
535.083	205.12
535.297	213.12
535.511	196.12
535.726	217.12
535.94	213.12
536.154	217.12
536.369	211.12
536.583	214.12
536.797	217.12
537.011	199.12
537.225	201.12
537.44	218.12
537.654	207.12
537.868	207.12
538.082	210.12
538.296	206.12
538.51	212.12
538.724	190.12
538.938	218.12
539.153	215.12
539.367	208.12
539.581	196.12
539.795	215.12
540.009	203.12
540.222	206.12
540.436	210.12
540.65	208.12
540.864	200.12
541.078	191.12
541.292	195.12
541.506	212.12
541.72	207.12
541.934	183.12
542.147	194.12
542.361	209.12
542.575	197.12
542.789	201.12
543.002	195.12
543.216	205.12
543.43	200.12
543.644	198.12
543.857	201.12
544.071	211.12
544.285	218.12
544.498	215.12
544.712	202.12
544.925	231.12
545.139	205.12
545.352	207.12
545.566	213.12
545.779	216.12
545.993	201.12
546.206	217.12
546.42	202.12
546.633	214.12
546.847	208.12
547.06	195.12
547.274	215.12
547.487	211.12
547.7	223.12
547.914	212.12
548.127	201.12
548.34	198.12
548.554	216.12
548.767	213.12
548.98	216.12
549.193	208.12
549.407	197.12
549.62	222.12
549.833	213.12
550.046	217.12
550.259	230.12
550.473	219.12
550.686	211.12
550.899	211.12
551.112	195.12
551.325	207.12
551.538	208.12
551.751	185.12
551.964	206.12
552.177	209.12
552.39	208.12
552.603	222.12
552.816	225.12
553.029	236.12
553.242	228.12
553.455	218.12
553.667	231.12
553.88	233.12
554.093	231.12
554.306	237.12
554.519	207.12
554.732	211.12
554.944	214.12
555.157	215.12
555.37	215.12
555.583	214.12
555.795	203.12
556.008	200.12
556.221	210.12
556.433	192.12
556.646	198.12
556.859	191.12
557.071	171.12
557.284	183.12
557.496	185.12
557.709	196.12
557.921	206.12
558.134	203.12
558.346	186.12
558.559	200.12
558.771	181.12
558.984	187.12
559.196	172.12
559.409	181.12
559.621	182.12
559.833	181.12
560.046	195.12
560.258	201.12
560.47	180.12
560.683	180.12
560.895	179.12
561.107	192.12
561.32	188.12
561.532	180.12
561.744	181.12
561.956	195.12
562.168	181.12
562.381	180.12
562.593	185.12
562.805	188.12
563.017	187.12
563.229	180.12
563.441	180.12
563.653	183.12
563.865	190.12
564.077	195.12
564.289	194.12
564.501	194.12
564.713	191.12
564.925	201.12
565.137	201.12
565.349	186.12
565.561	203.12
565.773	204.12
565.985	217.12
566.197	229.12
566.408	235.12
566.62	257.12
566.832	269.12
567.044	266.12
567.255	266.12
567.467	278.12
567.679	290.12
567.891	300.12
568.102	319.12
568.314	323.12
568.526	273.12
568.737	249.12
568.949	236.12
569.161	224.12
569.372	204.12
569.584	206.12
569.795	198.12
570.007	198.12
570.218	188.12
570.43	194.12
570.641	204.12
570.853	180.12
571.064	197.12
571.276	206.12
571.487	200.12
571.698	186.12
571.91	180.12
572.121	199.12
572.333	180.12
572.544	186.12
572.755	168.12
572.966	182.12
573.178	163.12
573.389	163.12
573.6	165.12
573.811	181.12
574.023	174.12
574.234	161.12
574.445	170.12
574.656	182.12
574.867	168.12
575.078	171.12
575.289	174.12
575.501	194.12
575.712	167.12
575.923	165.12
576.134	169.12
576.345	169.12
576.556	170.12
576.767	165.12
576.978	144.12
577.188	173.12
577.399	163.12
577.61	162.12
577.821	157.12
578.032	179.12
578.243	165.12
578.454	162.12
578.665	160.12
578.875	150.12
579.086	157.12
579.297	167.12
579.508	165.12
579.718	166.12
579.929	161.12
580.14	143.12
580.35	158.12
580.561	172.12
580.772	163.12
580.982	169.12
581.193	146.12
581.403	156.12
581.614	159.12
581.825	147.12
582.035	152.12
582.246	156.12
582.456	159.12
582.667	159.12
582.877	139.12
583.087	173.12
583.298	149.12
583.508	158.12
583.719	158.12
583.929	157.12
584.139	161.12
584.35	155.12
584.56	141.12
584.77	151.12
584.981	147.12
585.191	177.12
585.401	166.12
585.611	154.12
585.821	141.12
586.032	152.12
586.242	151.12
586.452	152.12
586.662	143.12
586.872	154.12
587.082	160.12
587.292	134.12
587.502	158.12
587.713	148.12
587.923	157.12
588.133	161.12
588.343	164.12
588.553	149.12
588.762	156.12
588.972	159.12
589.182	161.12
589.392	164.12
589.602	140.12
589.812	150.12
590.022	153.12
590.232	151.12
590.441	149.12
590.651	152.12
590.861	173.12
591.071	175.12
591.281	167.12
591.49	169.12
591.7	161.12
591.91	152.12
592.119	154.12
592.329	161.12
592.539	177.12
592.748	163.12
592.958	165.12
593.167	184.12
593.377	177.12
593.587	187.12
593.796	178.12
594.006	189.12
594.215	193.12
594.424	184.12
594.634	178.12
594.843	181.12
595.053	151.12
595.262	177.12
595.472	172.12
595.681	150.12
595.89	170.12
596.1	136.12
596.309	143.12
596.518	153.12
596.727	164.12
596.937	147.12
597.146	149.12
597.355	153.12
597.564	161.12
597.774	142.12
597.983	140.12
598.192	135.12
598.401	129.12
598.61	137.12
598.819	142.12
599.028	140.12
599.237	158.12
599.446	153.12
599.655	137.12
599.864	133.12
600.073	147.12
600.282	140.12
600.491	157.12
600.7	142.12
600.909	143.12
601.118	149.12
601.327	137.12
601.536	144.12
601.745	151.12
601.953	148.12
602.162	142.12
602.371	143.12
602.58	139.12
602.789	133.12
602.997	138.12
603.206	147.12
603.415	132.12
603.623	143.12
603.832	141.12
604.041	144.12
604.249	136.12
604.458	130.12
604.666	136.12
604.875	132.12
605.084	146.12
605.292	133.12
605.501	133.12
605.709	131.12
605.918	139.12
606.126	139.12
606.334	140.12
606.543	154.12
606.751	140.12
606.96	127.12
607.168	135.12
607.376	132.12
607.585	137.12
607.793	142.12
608.001	135.12
608.21	136.12
608.418	129.12
608.626	149.12
608.834	142.12
609.043	135.12
609.251	141.12
609.459	118.12
609.667	154.12
609.875	138.12
610.083	140.12
610.291	138.12
610.499	133.12
610.707	125.12
610.916	123.12
611.124	132.12
611.332	128.12
611.54	131.12
611.748	140.12
611.955	140.12
612.163	138.12
612.371	138.12
612.579	118.12
612.787	129.12
612.995	131.12
613.203	142.12
613.411	126.12
613.618	140.12
613.826	135.12
614.034	121.12
614.242	131.12
614.449	118.12
614.657	142.12
614.865	127.12
615.072	126.12
615.28	131.12
615.488	126.12
615.695	146.12
615.903	127.12
616.111	136.12
616.318	137.12
616.526	142.12
616.733	135.12
616.941	141.12
617.148	140.12
617.356	139.12
617.563	151.12
617.771	139.12
617.978	134.12
618.185	146.12
618.393	127.12
618.6	129.12
618.807	123.12
619.015	136.12
619.222	130.12
619.429	132.12
619.637	127.12
619.844	122.12
620.051	155.12
620.258	132.12
620.466	134.12
620.673	141.12
620.88	131.12
621.087	110.12
621.294	127.12
621.501	120.12
621.708	124.12
621.915	111.12
622.122	134.12
622.329	133.12
622.536	110.12
622.743	131.12
622.95	134.12
623.157	128.12
623.364	133.12
623.571	135.12
623.778	150.12
623.985	137.12
624.192	136.12
624.399	127.12
624.606	112.12
624.812	128.12
625.019	124.12
625.226	123.12
625.433	122.12
625.639	127.12
625.846	119.12
626.053	133.12
626.259	126.12
626.466	113.12
626.673	121.12
626.879	129.12
627.086	123.12
627.293	119.12
627.499	118.12
627.706	123.12
627.912	125.12
628.119	103.12
628.325	118.12
628.532	120.12
628.738	131.12
628.945	115.12
629.151	113.12
629.357	120.12
629.564	132.12
629.77	127.12
629.976	125.12
630.183	124.12
630.389	131.12
630.595	125.12
630.802	111.12
631.008	121.12
631.214	126.12
631.42	127.12
631.627	131.12
631.833	119.12
632.039	116.12
632.245	98.12
632.451	114.12
632.657	114.12
632.863	123.12
633.069	121.12
633.275	119.12
633.481	127.12
633.688	126.12
633.893	112.12
634.099	129.12
634.305	135.12
634.511	115.12
634.717	122.12
634.923	128.12
635.129	116.12
635.335	122.12
635.541	121.12
635.747	105.12
635.952	131.12
636.158	116.12
636.364	131.12
636.57	102.12
636.775	129.12
636.981	117.12
637.187	111.12
637.392	123.12
637.598	116.12
637.804	103.12
638.009	122.12
638.215	115.12
638.421	118.12
638.626	116.12
638.832	120.12
639.037	105.12
639.243	110.12
639.448	117.12
639.654	131.12
639.859	115.12
640.065	121.12
640.27	121.12
640.475	107.12
640.681	107.12
640.886	126.12
641.091	97.12
641.297	117.12
641.502	112.12
641.707	115.12
641.913	114.12
642.118	109.12
642.323	124.12
642.528	125.12
642.733	117.12
642.939	125.12
643.144	116.12
643.349	119.12
643.554	116.12
643.759	122.12
643.964	114.12
644.169	118.12
644.374	109.12
644.579	115.12
644.784	104.12
644.989	114.12
645.194	109.12
645.399	122.12
645.604	113.12
645.809	106.12
646.014	112.12
646.219	113.12
646.423	111.12
646.628	97.12
646.833	113.12
647.038	104.12
647.243	108.12
647.447	112.12
647.652	109.12
647.857	126.12
648.062	118.12
648.266	120.12
648.471	117.12
648.676	104.12
648.88	125.12
649.085	121.12
649.289	115.12
649.494	109.12
649.698	131.12
649.903	108.12
650.107	117.12
650.312	121.12
650.516	100.12
650.721	98.12
650.925	116.12
651.13	95.12
651.334	111.12
651.539	107.12
651.743	120.12
651.947	107.12
652.152	111.12
652.356	113.12
652.56	103.12
652.764	108.12
652.969	121.12
653.173	107.12
653.377	103.12
653.581	91.12
653.785	100.12
653.99	102.12
654.194	110.12
654.398	100.12
654.602	107.12
654.806	95.12
655.01	93.12
655.214	108.12
655.418	103.12
655.622	87.12
655.826	117.12
656.03	97.12
656.234	108.12
656.438	110.12
656.642	114.12
656.846	101.12
657.049	107.12
657.253	91.12
657.457	90.12
657.661	98.12
657.865	102.12
658.068	103.12
658.272	81.12
658.476	108.12
658.68	96.12
658.883	90.12
659.087	76.12
659.291	85.12
659.494	91.12
659.698	86.12
659.901	87.12
660.105	97.12
660.309	94.12
660.512	78.12
660.716	87.12
660.919	87.12
661.123	86.12
661.326	91.12
661.53	83.12
661.733	92.12
661.936	83.12
662.14	76.12
662.343	86.12
662.546	89.12
662.75	88.12
662.953	89.12
663.156	93.12
663.36	82.12
663.563	91.12
663.766	95.12
663.969	89.12
664.173	61.12
664.376	93.12
664.579	100.12
664.782	91.12
664.985	82.12
665.188	83.12
665.391	82.12
665.594	88.12
665.797	90.12
666	92.12
666.203	74.12
666.406	80.12
666.609	78.12
666.812	88.12
667.015	80.12
667.218	76.12
667.421	79.12
667.624	77.12
667.827	72.12
668.03	93.12
668.232	85.12
668.435	81.12
668.638	87.12
668.841	76.12
669.043	86.12
669.246	86.12
669.449	89.12
669.651	85.12
669.854	95.12
670.057	71.12
670.259	85.12
670.462	94.12
670.665	85.12
670.867	89.12
671.07	89.12
671.272	87.12
671.475	71.12
671.677	93.12
671.88	92.12
672.082	94.12
672.284	88.12
672.487	77.12
672.689	86.12
672.892	98.12
