Data from 0.5MCu(NO3)2.Standard.Lamp.E10.CV._HRD10591_16-06-05-753.txt Node
Date: Mon Jul 22 16:06:05 EDT 2019
User: cochatt
Spectrometer: HR+D1059
Trigger mode: 1
Integration Time (sec): 1.000000E-1
Scans to average: 1
Electric dark correction enabled: true
Nonlinearity correction enabled: false
Boxcar width: 0
XAxis mode: Wavelengths
Number of Pixels in Spectrum: 2048
>>>>>Begin Spectral Data<<<<<
223.165	-12.06
223.4	-12.06
223.635	-12.06
223.869	-7.06
224.104	-25.06
224.338	-11.06
224.573	-6.06
224.808	-7.06
225.042	-9.06
225.277	-15.06
225.511	-16.06
225.746	-19.06
225.98	13.94
226.215	10.94
226.449	18.94
226.683	17.94
226.918	36.94
227.152	28.94
227.387	27.94
227.621	39.94
227.856	52.94
228.09	58.94
228.324	51.94
228.559	51.94
228.793	45.94
229.027	47.94
229.262	74.94
229.496	79.94
229.73	100.94
229.964	72.94
230.199	71.94
230.433	86.94
230.667	88.94
230.901	72.94
231.136	93.94
231.37	99.94
231.604	81.94
231.838	98.94
232.072	85.94
232.306	86.94
232.541	82.94
232.775	87.94
233.009	89.94
233.243	90.94
233.477	91.94
233.711	95.94
233.945	102.94
234.179	86.94
234.413	92.94
234.647	95.94
234.881	86.94
235.115	98.94
235.349	96.94
235.583	93.94
235.817	97.94
236.051	82.94
236.285	95.94
236.519	95.94
236.753	104.94
236.987	96.94
237.221	85.94
237.455	89.94
237.689	83.94
237.922	88.94
238.156	95.94
238.39	91.94
238.624	73.94
238.858	87.94
239.091	99.94
239.325	89.94
239.559	86.94
239.793	98.94
240.027	76.94
240.26	83.94
240.494	99.94
240.728	96.94
240.961	97.94
241.195	81.94
241.429	94.94
241.662	104.94
241.896	85.94
242.13	86.94
242.363	113.94
242.597	92.94
242.83	108.94
243.064	91.94
243.298	97.94
243.531	87.94
243.765	95.94
243.998	94.94
244.232	98.94
244.465	102.94
244.699	99.94
244.932	100.94
245.166	92.94
245.399	80.94
245.633	90.94
245.866	97.94
246.099	98.94
246.333	104.94
246.566	115.94
246.8	87.94
247.033	93.94
247.266	87.94
247.5	94.94
247.733	104.94
247.966	108.94
248.2	108.94
248.433	82.94
248.666	100.94
248.899	105.94
249.133	129.94
249.366	104.94
249.599	101.94
249.832	88.94
250.066	103.94
250.299	105.94
250.532	107.94
250.765	116.94
250.998	126.94
251.231	118.94
251.465	100.94
251.698	112.94
251.931	110.94
252.164	107.94
252.397	112.94
252.63	104.94
252.863	122.94
253.096	116.94
253.329	112.94
253.562	108.94
253.795	118.94
254.028	120.94
254.261	114.94
254.494	108.94
254.727	116.94
254.96	113.94
255.193	102.94
255.426	114.94
255.659	117.94
255.892	103.94
256.124	116.94
256.357	114.94
256.59	111.94
256.823	99.94
257.056	103.94
257.289	115.94
257.521	120.94
257.754	119.94
257.987	116.94
258.22	96.94
258.452	115.94
258.685	109.94
258.918	125.94
259.151	119.94
259.383	121.94
259.616	113.94
259.849	116.94
260.081	118.94
260.314	106.94
260.547	124.94
260.779	131.94
261.012	128.94
261.244	114.94
261.477	137.94
261.71	121.94
261.942	115.94
262.175	126.94
262.407	120.94
262.64	125.94
262.872	129.94
263.105	124.94
263.337	129.94
263.57	135.94
263.802	120.94
264.035	115.94
264.267	118.94
264.499	116.94
264.732	135.94
264.964	116.94
265.197	129.94
265.429	114.94
265.661	125.94
265.894	136.94
266.126	120.94
266.358	120.94
266.591	133.94
266.823	122.94
267.055	140.94
267.287	123.94
267.52	132.94
267.752	134.94
267.984	118.94
268.216	111.94
268.448	128.94
268.681	132.94
268.913	134.94
269.145	123.94
269.377	128.94
269.609	124.94
269.841	141.94
270.073	146.94
270.306	126.94
270.538	132.94
270.77	128.94
271.002	139.94
271.234	125.94
271.466	131.94
271.698	122.94
271.93	138.94
272.162	143.94
272.394	155.94
272.626	141.94
272.858	129.94
273.09	129.94
273.322	143.94
273.553	132.94
273.785	129.94
274.017	115.94
274.249	129.94
274.481	131.94
274.713	130.94
274.945	133.94
275.176	136.94
275.408	139.94
275.64	131.94
275.872	142.94
276.104	140.94
276.335	142.94
276.567	142.94
276.799	140.94
277.031	128.94
277.262	147.94
277.494	152.94
277.726	148.94
277.957	130.94
278.189	152.94
278.421	146.94
278.652	134.94
278.884	144.94
279.115	148.94
279.347	152.94
279.579	143.94
279.81	135.94
280.042	167.94
280.273	140.94
280.505	145.94
280.736	148.94
280.968	133.94
281.199	146.94
281.431	135.94
281.662	149.94
281.894	152.94
282.125	142.94
282.356	152.94
282.588	142.94
282.819	154.94
283.051	150.94
283.282	138.94
283.513	152.94
283.745	146.94
283.976	140.94
284.207	161.94
284.439	138.94
284.67	162.94
284.901	136.94
285.132	143.94
285.364	147.94
285.595	142.94
285.826	158.94
286.057	139.94
286.288	147.94
286.52	151.94
286.751	158.94
286.982	151.94
287.213	155.94
287.444	154.94
287.675	150.94
287.906	142.94
288.138	161.94
288.369	168.94
288.6	160.94
288.831	158.94
289.062	169.94
289.293	167.94
289.524	170.94
289.755	162.94
289.986	153.94
290.217	149.94
290.448	155.94
290.679	174.94
290.91	166.94
291.141	164.94
291.371	167.94
291.602	163.94
291.833	154.94
292.064	149.94
292.295	175.94
292.526	168.94
292.757	149.94
292.987	173.94
293.218	148.94
293.449	160.94
293.68	169.94
293.91	171.94
294.141	169.94
294.372	161.94
294.603	162.94
294.833	169.94
295.064	155.94
295.295	153.94
295.525	179.94
295.756	162.94
295.987	175.94
296.217	158.94
296.448	187.94
296.679	154.94
296.909	165.94
297.14	157.94
297.37	176.94
297.601	173.94
297.831	154.94
298.062	161.94
298.292	166.94
298.523	175.94
298.753	175.94
298.984	175.94
299.214	168.94
299.445	182.94
299.675	186.94
299.905	173.94
300.136	167.94
300.366	178.94
300.597	178.94
300.827	173.94
301.057	188.94
301.288	188.94
301.518	187.94
301.748	161.94
301.979	173.94
302.209	172.94
302.439	189.94
302.669	190.94
302.9	166.94
303.13	174.94
303.36	162.94
303.59	168.94
303.82	181.94
304.051	168.94
304.281	172.94
304.511	179.94
304.741	178.94
304.971	167.94
305.201	170.94
305.431	186.94
305.661	180.94
305.891	174.94
306.121	190.94
306.352	185.94
306.582	175.94
306.812	178.94
307.042	165.94
307.272	150.94
307.502	177.94
307.731	178.94
307.961	179.94
308.191	175.94
308.421	158.94
308.651	173.94
308.881	189.94
309.111	174.94
309.341	191.94
309.571	155.94
309.8	169.94
310.03	173.94
310.26	176.94
310.49	181.94
310.72	180.94
310.949	170.94
311.179	174.94
311.409	161.94
311.639	172.94
311.868	182.94
312.098	161.94
312.328	174.94
312.557	178.94
312.787	178.94
313.017	183.94
313.246	164.94
313.476	174.94
313.706	170.94
313.935	197.94
314.165	186.94
314.394	178.94
314.624	188.94
314.853	187.94
315.083	174.94
315.312	181.94
315.542	184.94
315.771	172.94
316.001	171.94
316.23	173.94
316.46	188.94
316.689	193.94
316.919	185.94
317.148	168.94
317.377	188.94
317.607	164.94
317.836	170.94
318.065	192.94
318.295	180.94
318.524	185.94
318.753	184.94
318.983	172.94
319.212	173.94
319.441	195.94
319.67	167.94
319.9	185.94
320.129	159.94
320.358	163.94
320.587	174.94
320.816	178.94
321.046	179.94
321.275	187.94
321.504	180.94
321.733	174.94
321.962	168.94
322.191	192.94
322.42	182.94
322.649	186.94
322.878	187.94
323.108	170.94
323.337	186.94
323.566	196.94
323.795	190.94
324.024	180.94
324.253	186.94
324.482	182.94
324.71	168.94
324.939	171.94
325.168	183.94
325.397	182.94
325.626	201.94
325.855	203.94
326.084	183.94
326.313	188.94
326.542	203.94
326.77	187.94
326.999	202.94
327.228	188.94
327.457	186.94
327.686	171.94
327.914	181.94
328.143	189.94
328.372	177.94
328.6	187.94
328.829	199.94
329.058	203.94
329.287	196.94
329.515	191.94
329.744	199.94
329.972	195.94
330.201	186.94
330.43	184.94
330.658	195.94
330.887	205.94
331.115	193.94
331.344	191.94
331.572	199.94
331.801	192.94
332.03	207.94
332.258	203.94
332.486	222.94
332.715	206.94
332.943	218.94
333.172	245.94
333.4	242.94
333.629	240.94
333.857	238.94
334.085	239.94
334.314	226.94
334.542	211.94
334.771	226.94
334.999	218.94
335.227	220.94
335.455	226.94
335.684	220.94
335.912	217.94
336.14	204.94
336.369	218.94
336.597	228.94
336.825	198.94
337.053	210.94
337.281	216.94
337.51	217.94
337.738	207.94
337.966	194.94
338.194	203.94
338.422	207.94
338.65	199.94
338.878	203.94
339.106	214.94
339.334	214.94
339.562	195.94
339.79	207.94
340.018	200.94
340.246	184.94
340.474	187.94
340.702	186.94
340.93	199.94
341.158	193.94
341.386	200.94
341.614	183.94
341.842	191.94
342.07	201.94
342.298	193.94
342.526	184.94
342.754	195.94
342.981	197.94
343.209	206.94
343.437	206.94
343.665	212.94
343.893	224.94
344.12	239.94
344.348	227.94
344.576	203.94
344.804	208.94
345.031	205.94
345.259	203.94
345.487	201.94
345.714	189.94
345.942	197.94
346.17	187.94
346.397	198.94
346.625	211.94
346.853	190.94
347.08	198.94
347.308	185.94
347.535	191.94
347.763	201.94
347.99	190.94
348.218	203.94
348.445	179.94
348.673	183.94
348.9	182.94
349.128	202.94
349.355	190.94
349.583	203.94
349.81	186.94
350.037	171.94
350.265	166.94
350.492	185.94
350.72	183.94
350.947	186.94
351.174	178.94
351.402	178.94
351.629	191.94
351.856	162.94
352.083	182.94
352.311	190.94
352.538	196.94
352.765	180.94
352.992	199.94
353.22	176.94
353.447	184.94
353.674	194.94
353.901	194.94
354.128	184.94
354.355	192.94
354.583	166.94
354.81	186.94
355.037	185.94
355.264	162.94
355.491	186.94
355.718	171.94
355.945	200.94
356.172	191.94
356.399	201.94
356.626	194.94
356.853	181.94
357.08	192.94
357.307	193.94
357.534	171.94
357.761	184.94
357.988	192.94
358.215	190.94
358.441	185.94
358.668	186.94
358.895	191.94
359.122	186.94
359.349	176.94
359.576	195.94
359.802	197.94
360.029	185.94
360.256	181.94
360.483	178.94
360.709	176.94
360.936	188.94
361.163	179.94
361.39	194.94
361.616	203.94
361.843	184.94
362.07	179.94
362.296	175.94
362.523	169.94
362.749	183.94
362.976	176.94
363.203	196.94
363.429	178.94
363.656	165.94
363.882	188.94
364.109	175.94
364.335	176.94
364.562	176.94
364.788	174.94
365.015	178.94
365.241	186.94
365.468	183.94
365.694	188.94
365.92	183.94
366.147	171.94
366.373	174.94
366.599	190.94
366.826	190.94
367.052	190.94
367.278	168.94
367.505	191.94
367.731	187.94
367.957	190.94
368.184	179.94
368.41	184.94
368.636	176.94
368.862	190.94
369.089	182.94
369.315	187.94
369.541	172.94
369.767	178.94
369.993	181.94
370.219	202.94
370.445	197.94
370.672	178.94
370.898	200.94
371.124	197.94
371.35	194.94
371.576	194.94
371.802	196.94
372.028	187.94
372.254	174.94
372.48	186.94
372.706	195.94
372.932	195.94
373.158	211.94
373.384	189.94
373.61	205.94
373.835	192.94
374.061	196.94
374.287	201.94
374.513	213.94
374.739	189.94
374.965	191.94
375.191	206.94
375.416	205.94
375.642	207.94
375.868	200.94
376.094	203.94
376.319	204.94
376.545	197.94
376.771	199.94
376.997	195.94
377.222	196.94
377.448	191.94
377.674	205.94
377.899	195.94
378.125	192.94
378.35	198.94
378.576	174.94
378.802	198.94
379.027	208.94
379.253	197.94
379.478	198.94
379.704	181.94
379.929	182.94
380.155	204.94
380.38	180.94
380.606	190.94
380.831	176.94
381.057	212.94
381.282	190.94
381.507	204.94
381.733	202.94
381.958	200.94
382.184	205.94
382.409	190.94
382.634	193.94
382.86	196.94
383.085	205.94
383.31	209.94
383.535	220.94
383.761	208.94
383.986	203.94
384.211	199.94
384.436	226.94
384.662	209.94
384.887	216.94
385.112	216.94
385.337	213.94
385.562	224.94
385.787	207.94
386.013	233.94
386.238	236.94
386.463	243.94
386.688	219.94
386.913	214.94
387.138	226.94
387.363	216.94
387.588	204.94
387.813	222.94
388.038	213.94
388.263	219.94
388.488	217.94
388.713	209.94
388.938	215.94
389.163	216.94
389.387	227.94
389.612	211.94
389.837	228.94
390.062	210.94
390.287	218.94
390.512	199.94
390.736	199.94
390.961	201.94
391.186	225.94
391.411	228.94
391.636	253.94
391.86	214.94
392.085	231.94
392.31	217.94
392.534	222.94
392.759	243.94
392.984	243.94
393.208	220.94
393.433	221.94
393.658	242.94
393.882	234.94
394.107	216.94
394.331	224.94
394.556	232.94
394.78	230.94
395.005	218.94
395.229	230.94
395.454	235.94
395.678	225.94
395.903	232.94
396.127	240.94
396.352	239.94
396.576	218.94
396.801	225.94
397.025	227.94
397.249	223.94
397.474	227.94
397.698	230.94
397.922	217.94
398.147	236.94
398.371	230.94
398.595	246.94
398.82	248.94
399.044	267.94
399.268	292.94
399.492	330.94
399.717	365.94
399.941	355.94
400.165	341.94
400.389	292.94
400.613	276.94
400.837	275.94
401.062	262.94
401.286	264.94
401.51	251.94
401.734	239.94
401.958	244.94
402.182	242.94
402.406	273.94
402.63	262.94
402.854	268.94
403.078	280.94
403.302	284.94
403.526	279.94
403.75	293.94
403.974	291.94
404.198	286.94
404.422	303.94
404.645	272.94
404.869	268.94
405.093	288.94
405.317	284.94
405.541	298.94
405.765	283.94
405.988	280.94
406.212	283.94
406.436	266.94
406.66	284.94
406.883	269.94
407.107	288.94
407.331	295.94
407.555	326.94
407.778	324.94
408.002	311.94
408.226	304.94
408.449	279.94
408.673	292.94
408.896	285.94
409.12	274.94
409.344	268.94
409.567	286.94
409.791	294.94
410.014	281.94
410.238	270.94
410.461	271.94
410.685	286.94
410.908	265.94
411.132	256.94
411.355	254.94
411.578	279.94
411.802	258.94
412.025	260.94
412.249	252.94
412.472	253.94
412.695	242.94
412.919	261.94
413.142	262.94
413.365	257.94
413.589	250.94
413.812	235.94
414.035	242.94
414.258	228.94
414.482	240.94
414.705	265.94
414.928	253.94
415.151	262.94
415.374	264.94
415.597	241.94
415.821	249.94
416.044	248.94
416.267	250.94
416.49	233.94
416.713	229.94
416.936	255.94
417.159	244.94
417.382	248.94
417.605	254.94
417.828	259.94
418.051	238.94
418.274	264.94
418.497	264.94
418.72	260.94
418.943	262.94
419.166	276.94
419.389	280.94
419.611	266.94
419.834	268.94
420.057	259.94
420.28	242.94
420.503	235.94
420.726	254.94
420.948	251.94
421.171	271.94
421.394	270.94
421.617	262.94
421.839	262.94
422.062	245.94
422.285	258.94
422.507	254.94
422.73	275.94
422.953	272.94
423.175	271.94
423.398	273.94
423.621	263.94
423.843	258.94
424.066	286.94
424.288	283.94
424.511	264.94
424.733	293.94
424.956	266.94
425.178	273.94
425.401	250.94
425.623	250.94
425.846	248.94
426.068	235.94
426.291	240.94
426.513	244.94
426.735	255.94
426.958	234.94
427.18	230.94
427.402	236.94
427.625	214.94
427.847	205.94
428.069	231.94
428.292	235.94
428.514	219.94
428.736	233.94
428.958	233.94
429.181	215.94
429.403	221.94
429.625	228.94
429.847	233.94
430.069	221.94
430.292	242.94
430.514	226.94
430.736	214.94
430.958	236.94
431.18	237.94
431.402	227.94
431.624	214.94
431.846	224.94
432.068	218.94
432.29	219.94
432.512	242.94
432.734	226.94
432.956	245.94
433.178	242.94
433.4	246.94
433.622	235.94
433.844	228.94
434.066	233.94
434.287	246.94
434.509	247.94
434.731	258.94
434.953	262.94
435.175	284.94
435.397	259.94
435.618	245.94
435.84	245.94
436.062	223.94
436.284	229.94
436.505	242.94
436.727	222.94
436.949	252.94
437.17	217.94
437.392	227.94
437.614	227.94
437.835	230.94
438.057	220.94
438.278	230.94
438.5	247.94
438.721	232.94
438.943	227.94
439.165	234.94
439.386	220.94
439.608	217.94
439.829	238.94
440.05	229.94
440.272	226.94
440.493	234.94
440.715	234.94
440.936	233.94
441.158	239.94
441.379	252.94
441.6	243.94
441.822	266.94
442.043	244.94
442.264	252.94
442.486	240.94
442.707	234.94
442.928	250.94
443.149	249.94
443.371	249.94
443.592	242.94
443.813	258.94
444.034	240.94
444.255	274.94
444.476	264.94
444.698	279.94
444.919	283.94
445.14	374.94
445.361	320.94
445.582	250.94
445.803	248.94
446.024	254.94
446.245	234.94
446.466	251.94
446.687	242.94
446.908	237.94
447.129	236.94
447.35	220.94
447.571	223.94
447.792	219.94
448.013	216.94
448.234	226.94
448.455	221.94
448.675	246.94
448.896	215.94
449.117	214.94
449.338	211.94
449.559	225.94
449.779	212.94
450	221.94
450.221	218.94
450.442	218.94
450.662	219.94
450.883	224.94
451.104	229.94
451.324	217.94
451.545	203.94
451.766	219.94
451.986	224.94
452.207	217.94
452.428	227.94
452.648	220.94
452.869	217.94
453.089	200.94
453.31	218.94
453.53	227.94
453.751	216.94
453.971	221.94
454.192	203.94
454.412	214.94
454.633	208.94
454.853	200.94
455.073	207.94
455.294	210.94
455.514	206.94
455.734	207.94
455.955	207.94
456.175	199.94
456.395	201.94
456.616	193.94
456.836	214.94
457.056	205.94
457.276	202.94
457.497	195.94
457.717	196.94
457.937	208.94
458.157	221.94
458.377	216.94
458.598	210.94
458.818	236.94
459.038	213.94
459.258	216.94
459.478	226.94
459.698	231.94
459.918	237.94
460.138	250.94
460.358	268.94
460.578	261.94
460.798	265.94
461.018	265.94
461.238	264.94
461.458	262.94
461.678	262.94
461.898	264.94
462.118	263.94
462.338	279.94
462.558	299.94
462.777	292.94
462.997	334.94
463.217	361.94
463.437	355.94
463.657	324.94
463.876	302.94
464.096	314.94
464.316	309.94
464.536	318.94
464.755	298.94
464.975	268.94
465.195	273.94
465.414	279.94
465.634	255.94
465.854	242.94
466.073	243.94
466.293	236.94
466.512	234.94
466.732	231.94
466.951	217.94
467.171	236.94
467.391	216.94
467.61	238.94
467.829	219.94
468.049	228.94
468.268	233.94
468.488	203.94
468.707	212.94
468.927	220.94
469.146	226.94
469.365	216.94
469.585	237.94
469.804	247.94
470.023	226.94
470.243	227.94
470.462	241.94
470.681	248.94
470.901	242.94
471.12	238.94
471.339	240.94
471.558	222.94
471.777	226.94
471.997	234.94
472.216	223.94
472.435	230.94
472.654	216.94
472.873	222.94
473.092	218.94
473.311	205.94
473.53	236.94
473.749	235.94
473.968	210.94
474.187	218.94
474.406	212.94
474.625	226.94
474.844	206.94
475.063	202.94
475.282	210.94
475.501	231.94
475.72	215.94
475.939	228.94
476.158	230.94
476.377	233.94
476.596	224.94
476.814	225.94
477.033	215.94
477.252	234.94
477.471	253.94
477.69	251.94
477.908	253.94
478.127	234.94
478.346	248.94
478.564	239.94
478.783	242.94
479.002	273.94
479.22	242.94
479.439	262.94
479.658	259.94
479.876	259.94
480.095	275.94
480.313	271.94
480.532	283.94
480.751	300.94
480.969	255.94
481.188	264.94
481.406	255.94
481.624	270.94
481.843	238.94
482.061	224.94
482.28	251.94
482.498	242.94
482.717	226.94
482.935	254.94
483.153	251.94
483.372	255.94
483.59	235.94
483.808	236.94
484.027	249.94
484.245	264.94
484.463	257.94
484.681	256.94
484.9	239.94
485.118	267.94
485.336	267.94
485.554	265.94
485.772	254.94
485.99	267.94
486.209	262.94
486.427	276.94
486.645	260.94
486.863	273.94
487.081	260.94
487.299	244.94
487.517	244.94
487.735	256.94
487.953	268.94
488.171	271.94
488.389	255.94
488.607	246.94
488.825	239.94
489.043	260.94
489.261	270.94
489.479	257.94
489.696	234.94
489.914	245.94
490.132	245.94
490.35	254.94
490.568	272.94
490.786	265.94
491.003	278.94
491.221	266.94
491.439	250.94
491.657	265.94
491.874	252.94
492.092	256.94
492.31	268.94
492.527	263.94
492.745	247.94
492.963	267.94
493.18	266.94
493.398	257.94
493.615	271.94
493.833	286.94
494.05	258.94
494.268	262.94
494.485	286.94
494.703	278.94
494.92	264.94
495.138	271.94
495.355	262.94
495.573	266.94
495.79	271.94
496.008	283.94
496.225	278.94
496.442	279.94
496.66	290.94
496.877	276.94
497.094	266.94
497.312	287.94
497.529	284.94
497.746	308.94
497.963	313.94
498.181	306.94
498.398	301.94
498.615	332.94
498.832	373.94
499.049	372.94
499.267	394.94
499.484	442.94
499.701	469.94
499.918	521.94
500.135	592.94
500.352	701.94
500.569	722.94
500.786	713.94
501.003	664.94
501.22	596.94
501.437	527.94
501.654	461.94
501.871	418.94
502.088	390.94
502.305	377.94
502.522	358.94
502.739	347.94
502.956	342.94
503.172	322.94
503.389	323.94
503.606	285.94
503.823	291.94
504.04	298.94
504.256	287.94
504.473	310.94
504.69	314.94
504.907	309.94
505.123	269.94
505.34	279.94
505.557	276.94
505.773	280.94
505.99	243.94
506.207	249.94
506.423	251.94
506.64	239.94
506.856	258.94
507.073	234.94
507.289	241.94
507.506	242.94
507.722	243.94
507.939	260.94
508.155	250.94
508.372	240.94
508.588	239.94
508.805	246.94
509.021	257.94
509.238	232.94
509.454	233.94
509.67	227.94
509.887	228.94
510.103	223.94
510.319	240.94
510.536	223.94
510.752	228.94
510.968	237.94
511.184	251.94
511.401	246.94
511.617	239.94
511.833	228.94
512.049	239.94
512.265	234.94
512.481	223.94
512.698	232.94
512.914	246.94
513.13	233.94
513.346	242.94
513.562	235.94
513.778	225.94
513.994	243.94
514.21	223.94
514.426	238.94
514.642	242.94
514.858	243.94
515.074	231.94
515.29	243.94
515.506	244.94
515.721	235.94
515.937	260.94
516.153	264.94
516.369	249.94
516.585	253.94
516.801	263.94
517.016	262.94
517.232	282.94
517.448	300.94
517.664	306.94
517.879	301.94
518.095	310.94
518.311	317.94
518.527	298.94
518.742	260.94
518.958	283.94
519.173	270.94
519.389	260.94
519.605	245.94
519.82	242.94
520.036	239.94
520.251	230.94
520.467	222.94
520.682	230.94
520.898	238.94
521.113	225.94
521.329	240.94
521.544	218.94
521.76	223.94
521.975	232.94
522.19	231.94
522.406	220.94
522.621	207.94
522.836	236.94
523.052	258.94
523.267	227.94
523.482	234.94
523.698	223.94
523.913	219.94
524.128	230.94
524.343	234.94
524.559	229.94
524.774	218.94
524.989	217.94
525.204	220.94
525.419	200.94
525.634	225.94
525.849	213.94
526.064	215.94
526.28	223.94
526.495	219.94
526.71	210.94
526.925	222.94
527.14	216.94
527.355	210.94
527.57	215.94
527.785	225.94
527.999	231.94
528.214	230.94
528.429	214.94
528.644	211.94
528.859	222.94
529.074	219.94
529.289	217.94
529.503	208.94
529.718	230.94
529.933	242.94
530.148	249.94
530.363	204.94
530.577	229.94
530.792	214.94
531.007	239.94
531.221	223.94
531.436	215.94
531.651	220.94
531.865	217.94
532.08	208.94
532.295	199.94
532.509	202.94
532.724	232.94
532.938	220.94
533.153	223.94
533.367	214.94
533.582	231.94
533.796	228.94
534.011	227.94
534.225	218.94
534.44	205.94
534.654	206.94
534.868	218.94
535.083	227.94
535.297	215.94
535.511	228.94
535.726	202.94
535.94	227.94
536.154	207.94
536.369	206.94
536.583	214.94
536.797	204.94
537.011	206.94
537.225	209.94
537.44	212.94
537.654	212.94
537.868	205.94
538.082	228.94
538.296	219.94
538.51	214.94
538.724	213.94
538.938	202.94
539.153	218.94
539.367	211.94
539.581	216.94
539.795	205.94
540.009	219.94
540.222	222.94
540.436	199.94
540.65	211.94
540.864	182.94
541.078	224.94
541.292	216.94
541.506	201.94
541.72	200.94
541.934	213.94
542.147	210.94
542.361	201.94
542.575	202.94
542.789	208.94
543.002	213.94
543.216	213.94
543.43	203.94
543.644	193.94
543.857	208.94
544.071	216.94
544.285	211.94
544.498	207.94
544.712	207.94
544.925	208.94
545.139	204.94
545.352	217.94
545.566	206.94
545.779	219.94
545.993	230.94
546.206	224.94
546.42	212.94
546.633	205.94
546.847	206.94
547.06	208.94
547.274	224.94
547.487	224.94
547.7	223.94
547.914	204.94
548.127	198.94
548.34	206.94
548.554	194.94
548.767	223.94
548.98	224.94
549.193	213.94
549.407	228.94
549.62	221.94
549.833	214.94
550.046	226.94
550.259	219.94
550.473	213.94
550.686	216.94
550.899	223.94
551.112	224.94
551.325	199.94
551.538	206.94
551.751	204.94
551.964	219.94
552.177	212.94
552.39	214.94
552.603	209.94
552.816	222.94
553.029	210.94
553.242	259.94
553.455	250.94
553.667	250.94
553.88	232.94
554.093	215.94
554.306	235.94
554.519	224.94
554.732	227.94
554.944	215.94
555.157	209.94
555.37	205.94
555.583	204.94
555.795	205.94
556.008	205.94
556.221	197.94
556.433	201.94
556.646	212.94
556.859	185.94
557.071	192.94
557.284	197.94
557.496	191.94
557.709	192.94
557.921	207.94
558.134	196.94
558.346	188.94
558.559	189.94
558.771	203.94
558.984	188.94
559.196	183.94
559.409	189.94
559.621	195.94
559.833	186.94
560.046	192.94
560.258	182.94
560.47	191.94
560.683	190.94
560.895	189.94
561.107	188.94
561.32	175.94
561.532	182.94
561.744	182.94
561.956	199.94
562.168	197.94
562.381	189.94
562.593	198.94
562.805	195.94
563.017	188.94
563.229	189.94
563.441	200.94
563.653	194.94
563.865	189.94
564.077	189.94
564.289	199.94
564.501	193.94
564.713	197.94
564.925	190.94
565.137	192.94
565.349	197.94
565.561	218.94
565.773	216.94
565.985	228.94
566.197	223.94
566.408	243.94
566.62	272.94
566.832	284.94
567.044	280.94
567.255	262.94
567.467	270.94
567.679	290.94
567.891	335.94
568.102	327.94
568.314	321.94
568.526	288.94
568.737	256.94
568.949	204.94
569.161	211.94
569.372	210.94
569.584	204.94
569.795	206.94
570.007	194.94
570.218	198.94
570.43	191.94
570.641	189.94
570.853	193.94
571.064	201.94
571.276	213.94
571.487	194.94
571.698	193.94
571.91	179.94
572.121	193.94
572.333	173.94
572.544	188.94
572.755	181.94
572.966	165.94
573.178	191.94
573.389	183.94
573.6	181.94
573.811	168.94
574.023	166.94
574.234	163.94
574.445	184.94
574.656	178.94
574.867	169.94
575.078	172.94
575.289	164.94
575.501	173.94
575.712	174.94
575.923	167.94
576.134	173.94
576.345	167.94
576.556	171.94
576.767	163.94
576.978	185.94
577.188	159.94
577.399	167.94
577.61	158.94
577.821	162.94
578.032	162.94
578.243	161.94
578.454	157.94
578.665	176.94
578.875	160.94
579.086	166.94
579.297	159.94
579.508	167.94
579.718	161.94
579.929	167.94
580.14	148.94
580.35	163.94
580.561	154.94
580.772	155.94
580.982	168.94
581.193	166.94
581.403	173.94
581.614	167.94
581.825	167.94
582.035	158.94
582.246	159.94
582.456	161.94
582.667	168.94
582.877	170.94
583.087	166.94
583.298	148.94
583.508	151.94
583.719	171.94
583.929	168.94
584.139	151.94
584.35	144.94
584.56	157.94
584.77	150.94
584.981	162.94
585.191	171.94
585.401	163.94
585.611	171.94
585.821	148.94
586.032	156.94
586.242	154.94
586.452	168.94
586.662	162.94
586.872	145.94
587.082	163.94
587.292	153.94
587.502	160.94
587.713	162.94
587.923	158.94
588.133	149.94
588.343	165.94
588.553	151.94
588.762	142.94
588.972	140.94
589.182	165.94
589.392	157.94
589.602	160.94
589.812	151.94
590.022	178.94
590.232	158.94
590.441	158.94
590.651	159.94
590.861	158.94
591.071	155.94
591.281	138.94
591.49	156.94
591.7	179.94
591.91	166.94
592.119	158.94
592.329	159.94
592.539	166.94
592.748	186.94
592.958	192.94
593.167	193.94
593.377	178.94
593.587	187.94
593.796	179.94
594.006	197.94
594.215	187.94
594.424	200.94
594.634	174.94
594.843	178.94
595.053	180.94
595.262	167.94
595.472	178.94
595.681	167.94
595.89	163.94
596.1	156.94
596.309	143.94
596.518	153.94
596.727	146.94
596.937	162.94
597.146	145.94
597.355	148.94
597.564	151.94
597.774	151.94
597.983	143.94
598.192	134.94
598.401	127.94
598.61	143.94
598.819	145.94
599.028	144.94
599.237	141.94
599.446	146.94
599.655	153.94
599.864	144.94
600.073	137.94
600.282	142.94
600.491	142.94
600.7	137.94
600.909	137.94
601.118	147.94
601.327	166.94
601.536	141.94
601.745	145.94
601.953	140.94
602.162	138.94
602.371	147.94
602.58	146.94
602.789	150.94
602.997	155.94
603.206	150.94
603.415	154.94
603.623	144.94
603.832	155.94
604.041	128.94
604.249	144.94
604.458	148.94
604.666	142.94
604.875	128.94
605.084	147.94
605.292	133.94
605.501	122.94
605.709	145.94
605.918	118.94
606.126	145.94
606.334	148.94
606.543	144.94
606.751	144.94
606.96	139.94
607.168	155.94
607.376	123.94
607.585	139.94
607.793	162.94
608.001	135.94
608.21	140.94
608.418	132.94
608.626	131.94
608.834	139.94
609.043	145.94
609.251	133.94
609.459	140.94
609.667	144.94
609.875	135.94
610.083	126.94
610.291	154.94
610.499	138.94
610.707	141.94
610.916	128.94
611.124	145.94
611.332	135.94
611.54	117.94
611.748	138.94
611.955	137.94
612.163	135.94
612.371	134.94
612.579	139.94
612.787	141.94
612.995	146.94
613.203	137.94
613.411	142.94
613.618	140.94
613.826	144.94
614.034	128.94
614.242	128.94
614.449	137.94
614.657	130.94
614.865	138.94
615.072	123.94
615.28	118.94
615.488	148.94
615.695	141.94
615.903	145.94
616.111	143.94
616.318	125.94
616.526	149.94
616.733	151.94
616.941	138.94
617.148	124.94
617.356	142.94
617.563	133.94
617.771	139.94
617.978	133.94
618.185	135.94
618.393	126.94
618.6	135.94
618.807	121.94
619.015	137.94
619.222	141.94
619.429	129.94
619.637	126.94
619.844	125.94
620.051	126.94
620.258	133.94
620.466	135.94
620.673	125.94
620.88	129.94
621.087	138.94
621.294	135.94
621.501	142.94
621.708	139.94
621.915	126.94
622.122	125.94
622.329	127.94
622.536	138.94
622.743	127.94
622.95	123.94
623.157	114.94
623.364	115.94
623.571	128.94
623.778	127.94
623.985	137.94
624.192	122.94
624.399	126.94
624.606	137.94
624.812	123.94
625.019	117.94
625.226	133.94
625.433	138.94
625.639	133.94
625.846	122.94
626.053	128.94
626.259	130.94
626.466	137.94
626.673	120.94
626.879	119.94
627.086	125.94
627.293	123.94
627.499	141.94
627.706	132.94
627.912	130.94
628.119	127.94
628.325	138.94
628.532	120.94
628.738	130.94
628.945	130.94
629.151	126.94
629.357	118.94
629.564	123.94
629.77	102.94
629.976	123.94
630.183	105.94
630.389	121.94
630.595	124.94
630.802	119.94
631.008	118.94
631.214	120.94
631.42	138.94
631.627	124.94
631.833	120.94
632.039	134.94
632.245	122.94
632.451	112.94
632.657	110.94
632.863	117.94
633.069	109.94
633.275	128.94
633.481	115.94
633.688	112.94
633.893	124.94
634.099	121.94
634.305	118.94
634.511	129.94
634.717	114.94
634.923	121.94
635.129	101.94
635.335	115.94
635.541	106.94
635.747	118.94
635.952	104.94
636.158	108.94
636.364	127.94
636.57	120.94
636.775	112.94
636.981	125.94
637.187	111.94
637.392	120.94
637.598	119.94
637.804	119.94
638.009	116.94
638.215	113.94
638.421	105.94
638.626	118.94
638.832	128.94
639.037	111.94
639.243	107.94
639.448	127.94
639.654	110.94
639.859	107.94
640.065	108.94
640.27	122.94
640.475	114.94
640.681	114.94
640.886	114.94
641.091	107.94
641.297	109.94
641.502	118.94
641.707	108.94
641.913	124.94
642.118	110.94
642.323	120.94
642.528	119.94
642.733	128.94
642.939	107.94
643.144	122.94
643.349	124.94
643.554	124.94
643.759	117.94
643.964	102.94
644.169	115.94
644.374	130.94
644.579	119.94
644.784	107.94
644.989	114.94
645.194	118.94
645.399	118.94
645.604	126.94
645.809	107.94
646.014	102.94
646.219	104.94
646.423	111.94
646.628	121.94
646.833	112.94
647.038	114.94
647.243	120.94
647.447	127.94
647.652	111.94
647.857	118.94
648.062	125.94
648.266	128.94
648.471	121.94
648.676	111.94
648.88	118.94
649.085	122.94
649.289	115.94
649.494	123.94
649.698	121.94
649.903	104.94
650.107	117.94
650.312	118.94
650.516	116.94
650.721	124.94
650.925	113.94
651.13	107.94
651.334	110.94
651.539	107.94
651.743	101.94
651.947	107.94
652.152	109.94
652.356	111.94
652.56	95.94
652.764	114.94
652.969	100.94
653.173	122.94
653.377	109.94
653.581	116.94
653.785	92.94
653.99	89.94
654.194	106.94
654.398	110.94
654.602	101.94
654.806	91.94
655.01	104.94
655.214	98.94
655.418	99.94
655.622	116.94
655.826	107.94
656.03	106.94
656.234	101.94
656.438	109.94
656.642	117.94
656.846	114.94
657.049	96.94
657.253	93.94
657.457	90.94
657.661	104.94
657.865	109.94
658.068	99.94
658.272	90.94
658.476	82.94
658.68	98.94
658.883	84.94
659.087	94.94
659.291	90.94
659.494	87.94
659.698	92.94
659.901	82.94
660.105	80.94
660.309	103.94
660.512	104.94
660.716	85.94
660.919	83.94
661.123	102.94
661.326	100.94
661.53	89.94
661.733	90.94
661.936	74.94
662.14	86.94
662.343	87.94
662.546	91.94
662.75	84.94
662.953	102.94
663.156	85.94
663.36	92.94
663.563	90.94
663.766	76.94
663.969	88.94
664.173	80.94
664.376	88.94
664.579	73.94
664.782	76.94
664.985	91.94
665.188	72.94
665.391	94.94
665.594	79.94
665.797	90.94
666	74.94
666.203	104.94
666.406	94.94
666.609	86.94
666.812	84.94
667.015	87.94
667.218	74.94
667.421	81.94
667.624	72.94
667.827	87.94
668.03	100.94
668.232	85.94
668.435	85.94
668.638	81.94
668.841	101.94
669.043	87.94
669.246	80.94
669.449	72.94
669.651	86.94
669.854	70.94
670.057	95.94
670.259	96.94
670.462	83.94
670.665	91.94
670.867	81.94
671.07	94.94
671.272	88.94
671.475	98.94
671.677	96.94
671.88	76.94
672.082	81.94
672.284	77.94
672.487	99.94
672.689	84.94
672.892	79.94
