Data from Fe(NO3)3@0.1M.TitratingCurve.Agarose3%dH2O.NegLispCup.LampEnergy10.LIBS07252019_HRD10591_16-40-50-333.txt Node
Date: Thu Jul 25 16:40:50 EDT 2019
User: cochatt
Spectrometer: HR+D1059
Trigger mode: 1
Integration Time (sec): 1.000000E-1
Scans to average: 1
Electric dark correction enabled: true
Nonlinearity correction enabled: false
Boxcar width: 0
XAxis mode: Wavelengths
Number of Pixels in Spectrum: 2048
>>>>>Begin Spectral Data<<<<<
223.165	-18.69
223.4	-18.69
223.635	-18.69
223.869	-22.69
224.104	-21.69
224.338	-4.69
224.573	-1.69
224.808	-9.69
225.042	0.31
225.277	0.31
225.511	-16.69
225.746	-3.69
225.98	3.31
226.215	19.31
226.449	9.31
226.683	28.31
226.918	13.31
227.152	25.31
227.387	44.31
227.621	41.31
227.856	38.31
228.09	57.31
228.324	37.31
228.559	61.31
228.793	65.31
229.027	80.31
229.262	78.31
229.496	102.31
229.73	94.31
229.964	94.31
230.199	94.31
230.433	103.31
230.667	108.31
230.901	111.31
231.136	104.31
231.37	99.31
231.604	118.31
231.838	107.31
232.072	102.31
232.306	113.31
232.541	123.31
232.775	99.31
233.009	109.31
233.243	121.31
233.477	132.31
233.711	113.31
233.945	108.31
234.179	105.31
234.413	113.31
234.647	114.31
234.881	114.31
235.115	123.31
235.349	116.31
235.583	114.31
235.817	121.31
236.051	108.31
236.285	123.31
236.519	131.31
236.753	138.31
236.987	108.31
237.221	137.31
237.455	126.31
237.689	115.31
237.922	127.31
238.156	115.31
238.39	117.31
238.624	113.31
238.858	125.31
239.091	125.31
239.325	139.31
239.559	121.31
239.793	111.31
240.027	127.31
240.26	117.31
240.494	121.31
240.728	124.31
240.961	123.31
241.195	121.31
241.429	131.31
241.662	131.31
241.896	129.31
242.13	137.31
242.363	122.31
242.597	136.31
242.83	139.31
243.064	138.31
243.298	139.31
243.531	141.31
243.765	155.31
243.998	134.31
244.232	138.31
244.465	133.31
244.699	157.31
244.932	139.31
245.166	136.31
245.399	133.31
245.633	144.31
245.866	141.31
246.099	139.31
246.333	145.31
246.566	169.31
246.8	150.31
247.033	163.31
247.266	145.31
247.5	149.31
247.733	155.31
247.966	154.31
248.2	138.31
248.433	154.31
248.666	161.31
248.899	155.31
249.133	170.31
249.366	158.31
249.599	153.31
249.832	168.31
250.066	164.31
250.299	153.31
250.532	179.31
250.765	158.31
250.998	144.31
251.231	151.31
251.465	162.31
251.698	167.31
251.931	162.31
252.164	175.31
252.397	169.31
252.63	162.31
252.863	173.31
253.096	164.31
253.329	186.31
253.562	177.31
253.795	175.31
254.028	178.31
254.261	181.31
254.494	165.31
254.727	184.31
254.96	191.31
255.193	177.31
255.426	189.31
255.659	180.31
255.892	184.31
256.124	179.31
256.357	190.31
256.59	200.31
256.823	191.31
257.056	193.31
257.289	209.31
257.521	183.31
257.754	183.31
257.987	179.31
258.22	183.31
258.452	190.31
258.685	198.31
258.918	203.31
259.151	204.31
259.383	196.31
259.616	191.31
259.849	188.31
260.081	193.31
260.314	191.31
260.547	203.31
260.779	198.31
261.012	189.31
261.244	195.31
261.477	196.31
261.71	215.31
261.942	201.31
262.175	200.31
262.407	197.31
262.64	196.31
262.872	193.31
263.105	209.31
263.337	215.31
263.57	205.31
263.802	207.31
264.035	198.31
264.267	215.31
264.499	206.31
264.732	221.31
264.964	217.31
265.197	222.31
265.429	231.31
265.661	208.31
265.894	220.31
266.126	216.31
266.358	219.31
266.591	205.31
266.823	218.31
267.055	219.31
267.287	227.31
267.52	213.31
267.752	221.31
267.984	228.31
268.216	226.31
268.448	233.31
268.681	236.31
268.913	225.31
269.145	225.31
269.377	223.31
269.609	234.31
269.841	221.31
270.073	233.31
270.306	221.31
270.538	238.31
270.77	223.31
271.002	235.31
271.234	219.31
271.466	246.31
271.698	235.31
271.93	229.31
272.162	232.31
272.394	238.31
272.626	233.31
272.858	238.31
273.09	230.31
273.322	222.31
273.553	237.31
273.785	253.31
274.017	232.31
274.249	242.31
274.481	243.31
274.713	247.31
274.945	231.31
275.176	267.31
275.408	243.31
275.64	264.31
275.872	263.31
276.104	259.31
276.335	262.31
276.567	233.31
276.799	257.31
277.031	263.31
277.262	250.31
277.494	274.31
277.726	263.31
277.957	271.31
278.189	258.31
278.421	267.31
278.652	238.31
278.884	250.31
279.115	227.31
279.347	256.31
279.579	264.31
279.81	270.31
280.042	261.31
280.273	260.31
280.505	278.31
280.736	268.31
280.968	266.31
281.199	270.31
281.431	271.31
281.662	263.31
281.894	285.31
282.125	274.31
282.356	273.31
282.588	285.31
282.819	269.31
283.051	276.31
283.282	291.31
283.513	278.31
283.745	275.31
283.976	280.31
284.207	294.31
284.439	268.31
284.67	291.31
284.901	282.31
285.132	287.31
285.364	279.31
285.595	293.31
285.826	282.31
286.057	273.31
286.288	300.31
286.52	308.31
286.751	293.31
286.982	300.31
287.213	299.31
287.444	306.31
287.675	293.31
287.906	306.31
288.138	294.31
288.369	279.31
288.6	309.31
288.831	282.31
289.062	297.31
289.293	289.31
289.524	295.31
289.755	310.31
289.986	294.31
290.217	314.31
290.448	321.31
290.679	297.31
290.91	307.31
291.141	271.31
291.371	291.31
291.602	306.31
291.833	309.31
292.064	302.31
292.295	294.31
292.526	298.31
292.757	309.31
292.987	313.31
293.218	287.31
293.449	307.31
293.68	309.31
293.91	307.31
294.141	332.31
294.372	318.31
294.603	319.31
294.833	311.31
295.064	299.31
295.295	312.31
295.525	325.31
295.756	315.31
295.987	300.31
296.217	311.31
296.448	310.31
296.679	338.31
296.909	302.31
297.14	331.31
297.37	338.31
297.601	311.31
297.831	321.31
298.062	333.31
298.292	337.31
298.523	339.31
298.753	334.31
298.984	322.31
299.214	315.31
299.445	321.31
299.675	320.31
299.905	338.31
300.136	305.31
300.366	345.31
300.597	347.31
300.827	348.31
301.057	337.31
301.288	325.31
301.518	327.31
301.748	333.31
301.979	347.31
302.209	337.31
302.439	345.31
302.669	346.31
302.9	349.31
303.13	321.31
303.36	347.31
303.59	332.31
303.82	347.31
304.051	355.31
304.281	343.31
304.511	357.31
304.741	344.31
304.971	335.31
305.201	333.31
305.431	353.31
305.661	347.31
305.891	332.31
306.121	348.31
306.352	359.31
306.582	338.31
306.812	334.31
307.042	350.31
307.272	330.31
307.502	339.31
307.731	330.31
307.961	335.31
308.191	327.31
308.421	312.31
308.651	340.31
308.881	341.31
309.111	336.31
309.341	358.31
309.571	355.31
309.8	337.31
310.03	343.31
310.26	322.31
310.49	345.31
310.72	341.31
310.949	358.31
311.179	346.31
311.409	359.31
311.639	347.31
311.868	362.31
312.098	357.31
312.328	349.31
312.557	340.31
312.787	361.31
313.017	364.31
313.246	351.31
313.476	355.31
313.706	360.31
313.935	366.31
314.165	364.31
314.394	331.31
314.624	364.31
314.853	360.31
315.083	347.31
315.312	378.31
315.542	373.31
315.771	359.31
316.001	367.31
316.23	338.31
316.46	367.31
316.689	367.31
316.919	364.31
317.148	367.31
317.377	366.31
317.607	359.31
317.836	355.31
318.065	364.31
318.295	355.31
318.524	364.31
318.753	356.31
318.983	376.31
319.212	352.31
319.441	346.31
319.67	366.31
319.9	356.31
320.129	355.31
320.358	374.31
320.587	383.31
320.816	365.31
321.046	359.31
321.275	363.31
321.504	354.31
321.733	375.31
321.962	375.31
322.191	386.31
322.42	348.31
322.649	381.31
322.878	389.31
323.108	376.31
323.337	355.31
323.566	369.31
323.795	386.31
324.024	374.31
324.253	393.31
324.482	371.31
324.71	377.31
324.939	386.31
325.168	401.31
325.397	373.31
325.626	378.31
325.855	389.31
326.084	392.31
326.313	401.31
326.542	420.31
326.77	400.31
326.999	383.31
327.228	381.31
327.457	388.31
327.686	391.31
327.914	400.31
328.143	385.31
328.372	393.31
328.6	395.31
328.829	403.31
329.058	397.31
329.287	401.31
329.515	393.31
329.744	392.31
329.972	412.31
330.201	403.31
330.43	416.31
330.658	416.31
330.887	394.31
331.115	419.31
331.344	419.31
331.572	434.31
331.801	402.31
332.03	433.31
332.258	437.31
332.486	442.31
332.715	439.31
332.943	463.31
333.172	472.31
333.4	481.31
333.629	494.31
333.857	508.31
334.085	508.31
334.314	466.31
334.542	517.31
334.771	487.31
334.999	493.31
335.227	477.31
335.455	478.31
335.684	482.31
335.912	467.31
336.14	469.31
336.369	490.31
336.597	468.31
336.825	469.31
337.053	491.31
337.281	463.31
337.51	455.31
337.738	439.31
337.966	434.31
338.194	439.31
338.422	422.31
338.65	455.31
338.878	415.31
339.106	412.31
339.334	417.31
339.562	421.31
339.79	417.31
340.018	419.31
340.246	424.31
340.474	407.31
340.702	409.31
340.93	413.31
341.158	411.31
341.386	410.31
341.614	422.31
341.842	413.31
342.07	433.31
342.298	426.31
342.526	407.31
342.754	424.31
342.981	412.31
343.209	409.31
343.437	446.31
343.665	437.31
343.893	471.31
344.12	492.31
344.348	491.31
344.576	467.31
344.804	437.31
345.031	441.31
345.259	431.31
345.487	423.31
345.714	414.31
345.942	411.31
346.17	419.31
346.397	415.31
346.625	377.31
346.853	386.31
347.08	394.31
347.308	405.31
347.535	403.31
347.763	417.31
347.99	392.31
348.218	400.31
348.445	411.31
348.673	396.31
348.9	387.31
349.128	389.31
349.355	400.31
349.583	398.31
349.81	393.31
350.037	408.31
350.265	396.31
350.492	391.31
350.72	400.31
350.947	381.31
351.174	393.31
351.402	406.31
351.629	391.31
351.856	370.31
352.083	381.31
352.311	394.31
352.538	369.31
352.765	407.31
352.992	392.31
353.22	387.31
353.447	396.31
353.674	390.31
353.901	408.31
354.128	397.31
354.355	387.31
354.583	384.31
354.81	414.31
355.037	387.31
355.264	400.31
355.491	398.31
355.718	396.31
355.945	406.31
356.172	394.31
356.399	389.31
356.626	382.31
356.853	404.31
357.08	399.31
357.307	401.31
357.534	393.31
357.761	400.31
357.988	406.31
358.215	411.31
358.441	391.31
358.668	388.31
358.895	383.31
359.122	393.31
359.349	402.31
359.576	410.31
359.802	396.31
360.029	419.31
360.256	433.31
360.483	382.31
360.709	395.31
360.936	396.31
361.163	406.31
361.39	377.31
361.616	378.31
361.843	395.31
362.07	402.31
362.296	391.31
362.523	403.31
362.749	400.31
362.976	386.31
363.203	390.31
363.429	380.31
363.656	412.31
363.882	399.31
364.109	389.31
364.335	413.31
364.562	402.31
364.788	387.31
365.015	397.31
365.241	398.31
365.468	390.31
365.694	383.31
365.92	409.31
366.147	390.31
366.373	394.31
366.599	407.31
366.826	389.31
367.052	396.31
367.278	402.31
367.505	389.31
367.731	397.31
367.957	418.31
368.184	420.31
368.41	403.31
368.636	439.31
368.862	394.31
369.089	412.31
369.315	402.31
369.541	430.31
369.767	425.31
369.993	415.31
370.219	431.31
370.445	420.31
370.672	425.31
370.898	415.31
371.124	417.31
371.35	421.31
371.576	446.31
371.802	425.31
372.028	445.31
372.254	442.31
372.48	435.31
372.706	439.31
372.932	460.31
373.158	458.31
373.384	444.31
373.61	430.31
373.835	438.31
374.061	453.31
374.287	440.31
374.513	453.31
374.739	460.31
374.965	479.31
375.191	471.31
375.416	467.31
375.642	465.31
375.868	474.31
376.094	448.31
376.319	446.31
376.545	433.31
376.771	429.31
376.997	421.31
377.222	428.31
377.448	446.31
377.674	443.31
377.899	429.31
378.125	423.31
378.35	418.31
378.576	443.31
378.802	433.31
379.027	419.31
379.253	453.31
379.478	435.31
379.704	429.31
379.929	429.31
380.155	428.31
380.38	446.31
380.606	410.31
380.831	425.31
381.057	434.31
381.282	423.31
381.507	443.31
381.733	446.31
381.958	450.31
382.184	457.31
382.409	457.31
382.634	452.31
382.86	453.31
383.085	472.31
383.31	446.31
383.535	455.31
383.761	456.31
383.986	495.31
384.211	485.31
384.436	501.31
384.662	499.31
384.887	465.31
385.112	490.31
385.337	515.31
385.562	495.31
385.787	502.31
386.013	503.31
386.238	507.31
386.463	528.31
386.688	518.31
386.913	516.31
387.138	518.31
387.363	516.31
387.588	504.31
387.813	508.31
388.038	505.31
388.263	532.31
388.488	512.31
388.713	516.31
388.938	507.31
389.163	513.31
389.387	492.31
389.612	491.31
389.837	527.31
390.062	493.31
390.287	524.31
390.512	531.31
390.736	526.31
390.961	527.31
391.186	513.31
391.411	549.31
391.636	564.31
391.86	558.31
392.085	564.31
392.31	548.31
392.534	560.31
392.759	536.31
392.984	531.31
393.208	564.31
393.433	535.31
393.658	537.31
393.882	555.31
394.107	526.31
394.331	530.31
394.556	550.31
394.78	543.31
395.005	527.31
395.229	544.31
395.454	568.31
395.678	558.31
395.903	575.31
396.127	572.31
396.352	532.31
396.576	553.31
396.801	566.31
397.025	542.31
397.249	567.31
397.474	561.31
397.698	568.31
397.922	570.31
398.147	575.31
398.371	595.31
398.595	594.31
398.82	612.31
399.044	651.31
399.268	718.31
399.492	771.31
399.717	837.31
399.941	845.31
400.165	776.31
400.389	734.31
400.613	685.31
400.837	674.31
401.062	639.31
401.286	646.31
401.51	643.31
401.734	620.31
401.958	661.31
402.182	647.31
402.406	647.31
402.63	654.31
402.854	641.31
403.078	646.31
403.302	682.31
403.526	660.31
403.75	689.31
403.974	677.31
404.198	668.31
404.422	701.31
404.645	675.31
404.869	655.31
405.093	700.31
405.317	674.31
405.541	681.31
405.765	677.31
405.988	664.31
406.212	676.31
406.436	668.31
406.66	723.31
406.883	696.31
407.107	732.31
407.331	773.31
407.555	777.31
407.778	765.31
408.002	740.31
408.226	760.31
408.449	749.31
408.673	712.31
408.896	716.31
409.12	700.31
409.344	723.31
409.567	699.31
409.791	707.31
410.014	730.31
410.238	717.31
410.461	715.31
410.685	690.31
410.908	710.31
411.132	686.31
411.355	663.31
411.578	676.31
411.802	651.31
412.025	682.31
412.249	695.31
412.472	666.31
412.695	649.31
412.919	654.31
413.142	653.31
413.365	630.31
413.589	631.31
413.812	633.31
414.035	650.31
414.258	645.31
414.482	660.31
414.705	627.31
414.928	645.31
415.151	631.31
415.374	639.31
415.597	623.31
415.821	653.31
416.044	626.31
416.267	637.31
416.49	639.31
416.713	605.31
416.936	635.31
417.159	641.31
417.382	626.31
417.605	635.31
417.828	652.31
418.051	619.31
418.274	657.31
418.497	641.31
418.72	632.31
418.943	622.31
419.166	678.31
419.389	689.31
419.611	690.31
419.834	702.31
420.057	653.31
420.28	630.31
420.503	617.31
420.726	644.31
420.948	625.31
421.171	642.31
421.394	614.31
421.617	643.31
421.839	641.31
422.062	606.31
422.285	621.31
422.507	628.31
422.73	614.31
422.953	629.31
423.175	639.31
423.398	643.31
423.621	627.31
423.843	638.31
424.066	632.31
424.288	647.31
424.511	646.31
424.733	631.31
424.956	633.31
425.178	618.31
425.401	628.31
425.623	625.31
425.846	618.31
426.068	611.31
426.291	602.31
426.513	613.31
426.735	608.31
426.958	592.31
427.18	593.31
427.402	581.31
427.625	606.31
427.847	579.31
428.069	570.31
428.292	578.31
428.514	574.31
428.736	582.31
428.958	589.31
429.181	554.31
429.403	550.31
429.625	568.31
429.847	561.31
430.069	553.31
430.292	578.31
430.514	569.31
430.736	584.31
430.958	585.31
431.18	572.31
431.402	585.31
431.624	553.31
431.846	578.31
432.068	565.31
432.29	571.31
432.512	586.31
432.734	588.31
432.956	591.31
433.178	587.31
433.4	565.31
433.622	588.31
433.844	598.31
434.066	593.31
434.287	587.31
434.509	603.31
434.731	613.31
434.953	632.31
435.175	643.31
435.397	643.31
435.618	604.31
435.84	589.31
436.062	606.31
436.284	569.31
436.505	574.31
436.727	612.31
436.949	582.31
437.17	592.31
437.392	587.31
437.614	594.31
437.835	579.31
438.057	574.31
438.278	548.31
438.5	578.31
438.721	561.31
438.943	585.31
439.165	597.31
439.386	584.31
439.608	557.31
439.829	595.31
440.05	594.31
440.272	588.31
440.493	586.31
440.715	580.31
440.936	602.31
441.158	602.31
441.379	602.31
441.6	637.31
441.822	643.31
442.043	610.31
442.264	615.31
442.486	615.31
442.707	649.31
442.928	627.31
443.149	631.31
443.371	642.31
443.592	619.31
443.813	637.31
444.034	662.31
444.255	665.31
444.476	675.31
444.698	711.31
444.919	722.31
445.14	786.31
445.361	711.31
445.582	641.31
445.803	644.31
446.024	629.31
446.245	609.31
446.466	594.31
446.687	588.31
446.908	608.31
447.129	569.31
447.35	599.31
447.571	580.31
447.792	563.31
448.013	564.31
448.234	549.31
448.455	541.31
448.675	564.31
448.896	579.31
449.117	541.31
449.338	555.31
449.559	523.31
449.779	543.31
450	535.31
450.221	546.31
450.442	554.31
450.662	563.31
450.883	518.31
451.104	549.31
451.324	540.31
451.545	535.31
451.766	542.31
451.986	548.31
452.207	531.31
452.428	549.31
452.648	534.31
452.869	529.31
453.089	520.31
453.31	541.31
453.53	523.31
453.751	514.31
453.971	535.31
454.192	503.31
454.412	501.31
454.633	507.31
454.853	490.31
455.073	509.31
455.294	533.31
455.514	507.31
455.734	485.31
455.955	497.31
456.175	495.31
456.395	527.31
456.616	532.31
456.836	524.31
457.056	492.31
457.276	479.31
457.497	498.31
457.717	515.31
457.937	509.31
458.157	502.31
458.377	525.31
458.598	531.31
458.818	537.31
459.038	547.31
459.258	569.31
459.478	574.31
459.698	594.31
459.918	607.31
460.138	599.31
460.358	634.31
460.578	673.31
460.798	671.31
461.018	654.31
461.238	645.31
461.458	642.31
461.678	645.31
461.898	653.31
462.118	652.31
462.338	699.31
462.558	719.31
462.777	734.31
462.997	776.31
463.217	824.31
463.437	822.31
463.657	776.31
463.876	737.31
464.096	765.31
464.316	748.31
464.536	739.31
464.755	724.31
464.975	675.31
465.195	639.31
465.414	632.31
465.634	605.31
465.854	606.31
466.073	590.31
466.293	583.31
466.512	569.31
466.732	554.31
466.951	567.31
467.171	566.31
467.391	554.31
467.61	561.31
467.829	542.31
468.049	536.31
468.268	518.31
468.488	539.31
468.707	567.31
468.927	547.31
469.146	548.31
469.365	535.31
469.585	521.31
469.804	549.31
470.023	561.31
470.243	576.31
470.462	555.31
470.681	570.31
470.901	563.31
471.12	596.31
471.339	560.31
471.558	566.31
471.777	550.31
471.997	567.31
472.216	552.31
472.435	525.31
472.654	531.31
472.873	523.31
473.092	518.31
473.311	498.31
473.53	538.31
473.749	527.31
473.968	521.31
474.187	500.31
474.406	516.31
474.625	527.31
474.844	522.31
475.063	547.31
475.282	533.31
475.501	525.31
475.72	539.31
475.939	521.31
476.158	533.31
476.377	553.31
476.596	534.31
476.814	545.31
477.033	542.31
477.252	543.31
477.471	554.31
477.69	564.31
477.908	609.31
478.127	600.31
478.346	606.31
478.564	607.31
478.783	611.31
479.002	632.31
479.22	637.31
479.439	635.31
479.658	633.31
479.876	625.31
480.095	637.31
480.313	668.31
480.532	653.31
480.751	667.31
480.969	639.31
481.188	645.31
481.406	601.31
481.624	602.31
481.843	577.31
482.061	598.31
482.28	620.31
482.498	593.31
482.717	562.31
482.935	599.31
483.153	592.31
483.372	591.31
483.59	602.31
483.808	575.31
484.027	594.31
484.245	588.31
484.463	614.31
484.681	626.31
484.9	603.31
485.118	579.31
485.336	607.31
485.554	616.31
485.772	628.31
485.99	618.31
486.209	613.31
486.427	606.31
486.645	611.31
486.863	599.31
487.081	618.31
487.299	587.31
487.517	625.31
487.735	622.31
487.953	628.31
488.171	627.31
488.389	609.31
488.607	616.31
488.825	580.31
489.043	591.31
489.261	604.31
489.479	601.31
489.696	604.31
489.914	618.31
490.132	606.31
490.35	605.31
490.568	611.31
490.786	623.31
491.003	627.31
491.221	627.31
491.439	617.31
491.657	609.31
491.874	627.31
492.092	643.31
492.31	643.31
492.527	626.31
492.745	646.31
492.963	643.31
493.18	633.31
493.398	630.31
493.615	619.31
493.833	668.31
494.05	669.31
494.268	653.31
494.485	643.31
494.703	638.31
494.92	637.31
495.138	656.31
495.355	651.31
495.573	635.31
495.79	640.31
496.008	668.31
496.225	658.31
496.442	675.31
496.66	677.31
496.877	692.31
497.094	682.31
497.312	705.31
497.529	729.31
497.746	726.31
497.963	742.31
498.181	776.31
498.398	812.31
498.615	835.31
498.832	900.31
499.049	949.31
499.267	990.31
499.484	1062.31
499.701	1173.31
499.918	1213.31
500.135	1361.31
500.352	1482.31
500.569	1531.31
500.786	1523.31
501.003	1442.31
501.22	1314.31
501.437	1191.31
501.654	1131.31
501.871	1043.31
502.088	981.31
502.305	897.31
502.522	878.31
502.739	837.31
502.956	842.31
503.172	790.31
503.389	755.31
503.606	715.31
503.823	730.31
504.04	691.31
504.256	716.31
504.473	722.31
504.69	732.31
504.907	738.31
505.123	686.31
505.34	663.31
505.557	633.31
505.773	641.31
505.99	610.31
506.207	609.31
506.423	595.31
506.64	581.31
506.856	598.31
507.073	583.31
507.289	580.31
507.506	556.31
507.722	593.31
507.939	564.31
508.155	557.31
508.372	555.31
508.588	551.31
508.805	540.31
509.021	544.31
509.238	548.31
509.454	554.31
509.67	567.31
509.887	541.31
510.103	537.31
510.319	518.31
510.536	523.31
510.752	525.31
510.968	516.31
511.184	522.31
511.401	505.31
511.617	525.31
511.833	542.31
512.049	520.31
512.265	525.31
512.481	541.31
512.698	521.31
512.914	520.31
513.13	511.31
513.346	515.31
513.562	527.31
513.778	534.31
513.994	522.31
514.21	549.31
514.426	549.31
514.642	540.31
514.858	540.31
515.074	535.31
515.29	555.31
515.506	535.31
515.721	558.31
515.937	551.31
516.153	566.31
516.369	591.31
516.585	618.31
516.801	625.31
517.016	627.31
517.232	650.31
517.448	666.31
517.664	671.31
517.879	681.31
518.095	663.31
518.311	663.31
518.527	666.31
518.742	623.31
518.958	589.31
519.173	603.31
519.389	566.31
519.605	567.31
519.82	563.31
520.036	540.31
520.251	541.31
520.467	545.31
520.682	536.31
520.898	514.31
521.113	523.31
521.329	536.31
521.544	510.31
521.76	527.31
521.975	502.31
522.19	507.31
522.406	520.31
522.621	500.31
522.836	497.31
523.052	488.31
523.267	474.31
523.482	486.31
523.698	493.31
523.913	466.31
524.128	481.31
524.343	486.31
524.559	503.31
524.774	489.31
524.989	487.31
525.204	479.31
525.419	485.31
525.634	481.31
525.849	473.31
526.064	468.31
526.28	477.31
526.495	479.31
526.71	464.31
526.925	477.31
527.14	487.31
527.355	466.31
527.57	467.31
527.785	471.31
527.999	481.31
528.214	499.31
528.429	485.31
528.644	486.31
528.859	484.31
529.074	477.31
529.289	478.31
529.503	471.31
529.718	471.31
529.933	464.31
530.148	478.31
530.363	480.31
530.577	462.31
530.792	451.31
531.007	475.31
531.221	481.31
531.436	482.31
531.651	469.31
531.865	480.31
532.08	464.31
532.295	456.31
532.509	463.31
532.724	474.31
532.938	471.31
533.153	486.31
533.367	476.31
533.582	469.31
533.796	473.31
534.011	454.31
534.225	459.31
534.44	463.31
534.654	460.31
534.868	455.31
535.083	461.31
535.297	471.31
535.511	447.31
535.726	492.31
535.94	453.31
536.154	439.31
536.369	455.31
536.583	460.31
536.797	437.31
537.011	443.31
537.225	454.31
537.44	450.31
537.654	451.31
537.868	451.31
538.082	418.31
538.296	430.31
538.51	414.31
538.724	433.31
538.938	444.31
539.153	453.31
539.367	447.31
539.581	417.31
539.795	451.31
540.009	422.31
540.222	433.31
540.436	446.31
540.65	451.31
540.864	441.31
541.078	437.31
541.292	430.31
541.506	428.31
541.72	426.31
541.934	420.31
542.147	448.31
542.361	425.31
542.575	437.31
542.789	399.31
543.002	435.31
543.216	430.31
543.43	436.31
543.644	434.31
543.857	437.31
544.071	421.31
544.285	431.31
544.498	423.31
544.712	438.31
544.925	426.31
545.139	441.31
545.352	440.31
545.566	429.31
545.779	437.31
545.993	426.31
546.206	440.31
546.42	441.31
546.633	448.31
546.847	439.31
547.06	437.31
547.274	437.31
547.487	424.31
547.7	449.31
547.914	449.31
548.127	444.31
548.34	459.31
548.554	446.31
548.767	436.31
548.98	430.31
549.193	437.31
549.407	438.31
549.62	449.31
549.833	439.31
550.046	442.31
550.259	445.31
550.473	452.31
550.686	442.31
550.899	415.31
551.112	426.31
551.325	417.31
551.538	429.31
551.751	431.31
551.964	433.31
552.177	448.31
552.39	418.31
552.603	447.31
552.816	445.31
553.029	451.31
553.242	467.31
553.455	463.31
553.667	472.31
553.88	450.31
554.093	450.31
554.306	443.31
554.519	446.31
554.732	438.31
554.944	423.31
555.157	432.31
555.37	409.31
555.583	412.31
555.795	419.31
556.008	407.31
556.221	388.31
556.433	386.31
556.646	397.31
556.859	398.31
557.071	378.31
557.284	388.31
557.496	383.31
557.709	386.31
557.921	383.31
558.134	393.31
558.346	388.31
558.559	378.31
558.771	386.31
558.984	369.31
559.196	383.31
559.409	365.31
559.621	387.31
559.833	377.31
560.046	385.31
560.258	382.31
560.47	379.31
560.683	355.31
560.895	372.31
561.107	392.31
561.32	374.31
561.532	373.31
561.744	390.31
561.956	371.31
562.168	375.31
562.381	380.31
562.593	364.31
562.805	386.31
563.017	377.31
563.229	374.31
563.441	385.31
563.653	384.31
563.865	386.31
564.077	373.31
564.289	376.31
564.501	396.31
564.713	392.31
564.925	412.31
565.137	388.31
565.349	409.31
565.561	422.31
565.773	437.31
565.985	428.31
566.197	487.31
566.408	485.31
566.62	493.31
566.832	523.31
567.044	541.31
567.255	544.31
567.467	555.31
567.679	553.31
567.891	599.31
568.102	595.31
568.314	569.31
568.526	502.31
568.737	484.31
568.949	462.31
569.161	437.31
569.372	421.31
569.584	411.31
569.795	399.31
570.007	387.31
570.218	385.31
570.43	375.31
570.641	364.31
570.853	381.31
571.064	385.31
571.276	383.31
571.487	369.31
571.698	348.31
571.91	346.31
572.121	343.31
572.333	326.31
572.544	325.31
572.755	323.31
572.966	325.31
573.178	322.31
573.389	307.31
573.6	313.31
573.811	308.31
574.023	302.31
574.234	320.31
574.445	329.31
574.656	306.31
574.867	299.31
575.078	293.31
575.289	301.31
575.501	306.31
575.712	307.31
575.923	298.31
576.134	286.31
576.345	315.31
576.556	289.31
576.767	326.31
576.978	294.31
577.188	302.31
577.399	290.31
577.61	292.31
577.821	283.31
578.032	289.31
578.243	291.31
578.454	295.31
578.665	292.31
578.875	283.31
579.086	284.31
579.297	289.31
579.508	286.31
579.718	283.31
579.929	269.31
580.14	274.31
580.35	270.31
580.561	286.31
580.772	262.31
580.982	279.31
581.193	281.31
581.403	255.31
581.614	277.31
581.825	263.31
582.035	269.31
582.246	264.31
582.456	257.31
582.667	259.31
582.877	269.31
583.087	262.31
583.298	269.31
583.508	276.31
583.719	273.31
583.929	267.31
584.139	260.31
584.35	266.31
584.56	283.31
584.77	257.31
584.981	263.31
585.191	251.31
585.401	272.31
585.611	284.31
585.821	275.31
586.032	254.31
586.242	243.31
586.452	265.31
586.662	238.31
586.872	263.31
587.082	255.31
587.292	260.31
587.502	280.31
587.713	256.31
587.923	246.31
588.133	236.31
588.343	233.31
588.553	250.31
588.762	278.31
588.972	251.31
589.182	268.31
589.392	257.31
589.602	259.31
589.812	243.31
590.022	268.31
590.232	257.31
590.441	257.31
590.651	262.31
590.861	246.31
591.071	274.31
591.281	264.31
591.49	269.31
591.7	268.31
591.91	266.31
592.119	269.31
592.329	269.31
592.539	280.31
592.748	275.31
592.958	261.31
593.167	293.31
593.377	289.31
593.587	286.31
593.796	321.31
594.006	301.31
594.215	294.31
594.424	301.31
594.634	294.31
594.843	302.31
595.053	285.31
595.262	265.31
595.472	272.31
595.681	262.31
595.89	250.31
596.1	258.31
596.309	262.31
596.518	247.31
596.727	244.31
596.937	239.31
597.146	249.31
597.355	229.31
597.564	249.31
597.774	259.31
597.983	239.31
598.192	242.31
598.401	233.31
598.61	226.31
598.819	217.31
599.028	245.31
599.237	234.31
599.446	246.31
599.655	241.31
599.864	234.31
600.073	227.31
600.282	221.31
600.491	227.31
600.7	221.31
600.909	237.31
601.118	220.31
601.327	198.31
601.536	214.31
601.745	227.31
601.953	219.31
602.162	203.31
602.371	220.31
602.58	214.31
602.789	210.31
602.997	218.31
603.206	237.31
603.415	206.31
603.623	210.31
603.832	220.31
604.041	204.31
604.249	217.31
604.458	211.31
604.666	207.31
604.875	181.31
605.084	219.31
605.292	204.31
605.501	215.31
605.709	208.31
605.918	207.31
606.126	198.31
606.334	211.31
606.543	207.31
606.751	214.31
606.96	213.31
607.168	216.31
607.376	196.31
607.585	215.31
607.793	214.31
608.001	203.31
608.21	213.31
608.418	204.31
608.626	207.31
608.834	212.31
609.043	201.31
609.251	189.31
609.459	199.31
609.667	211.31
609.875	197.31
610.083	200.31
610.291	208.31
610.499	203.31
610.707	214.31
610.916	217.31
611.124	206.31
611.332	196.31
611.54	219.31
611.748	206.31
611.955	204.31
612.163	194.31
612.371	191.31
612.579	199.31
612.787	203.31
612.995	194.31
613.203	195.31
613.411	199.31
613.618	193.31
613.826	195.31
614.034	198.31
614.242	179.31
614.449	187.31
614.657	202.31
614.865	196.31
615.072	189.31
615.28	212.31
615.488	202.31
615.695	197.31
615.903	197.31
616.111	192.31
616.318	209.31
616.526	194.31
616.733	207.31
616.941	182.31
617.148	186.31
617.356	215.31
617.563	201.31
617.771	201.31
617.978	194.31
618.185	192.31
618.393	205.31
618.6	201.31
618.807	198.31
619.015	205.31
619.222	186.31
619.429	192.31
619.637	196.31
619.844	198.31
620.051	207.31
620.258	190.31
620.466	184.31
620.673	185.31
620.88	183.31
621.087	187.31
621.294	183.31
621.501	197.31
621.708	191.31
621.915	175.31
622.122	202.31
622.329	180.31
622.536	197.31
622.743	177.31
622.95	184.31
623.157	185.31
623.364	199.31
623.571	190.31
623.778	185.31
623.985	191.31
624.192	184.31
624.399	176.31
624.606	173.31
624.812	181.31
625.019	181.31
625.226	167.31
625.433	167.31
625.639	181.31
625.846	172.31
626.053	165.31
626.259	175.31
626.466	185.31
626.673	178.31
626.879	168.31
627.086	185.31
627.293	182.31
627.499	166.31
627.706	179.31
627.912	186.31
628.119	179.31
628.325	181.31
628.532	179.31
628.738	166.31
628.945	149.31
629.151	169.31
629.357	167.31
629.564	175.31
629.77	162.31
629.976	166.31
630.183	161.31
630.389	173.31
630.595	175.31
630.802	187.31
631.008	158.31
631.214	163.31
631.42	157.31
631.627	174.31
631.833	167.31
632.039	156.31
632.245	158.31
632.451	171.31
632.657	146.31
632.863	168.31
633.069	148.31
633.275	165.31
633.481	161.31
633.688	160.31
633.893	160.31
634.099	171.31
634.305	157.31
634.511	156.31
634.717	148.31
634.923	153.31
635.129	162.31
635.335	144.31
635.541	173.31
635.747	155.31
635.952	177.31
636.158	149.31
636.364	146.31
636.57	169.31
636.775	151.31
636.981	152.31
637.187	157.31
637.392	162.31
637.598	140.31
637.804	154.31
638.009	171.31
638.215	152.31
638.421	155.31
638.626	155.31
638.832	155.31
639.037	156.31
639.243	153.31
639.448	158.31
639.654	148.31
639.859	144.31
640.065	153.31
640.27	162.31
640.475	147.31
640.681	156.31
640.886	155.31
641.091	171.31
641.297	138.31
641.502	131.31
641.707	152.31
641.913	156.31
642.118	148.31
642.323	150.31
642.528	147.31
642.733	148.31
642.939	145.31
643.144	153.31
643.349	139.31
643.554	140.31
643.759	145.31
643.964	147.31
644.169	146.31
644.374	146.31
644.579	162.31
644.784	151.31
644.989	135.31
645.194	148.31
645.399	146.31
645.604	144.31
645.809	137.31
646.014	145.31
646.219	147.31
646.423	139.31
646.628	131.31
646.833	131.31
647.038	149.31
647.243	145.31
647.447	147.31
647.652	138.31
647.857	155.31
648.062	147.31
648.266	147.31
648.471	166.31
648.676	153.31
648.88	146.31
649.085	139.31
649.289	139.31
649.494	152.31
649.698	160.31
649.903	128.31
650.107	167.31
650.312	148.31
650.516	154.31
650.721	131.31
650.925	135.31
651.13	135.31
651.334	149.31
651.539	139.31
651.743	119.31
651.947	137.31
652.152	139.31
652.356	125.31
652.56	134.31
652.764	133.31
652.969	115.31
653.173	132.31
653.377	130.31
653.581	125.31
653.785	119.31
653.99	115.31
654.194	120.31
654.398	133.31
654.602	131.31
654.806	127.31
655.01	109.31
655.214	131.31
655.418	127.31
655.622	122.31
655.826	121.31
656.03	133.31
656.234	114.31
656.438	121.31
656.642	117.31
656.846	104.31
657.049	133.31
657.253	122.31
657.457	104.31
657.661	115.31
657.865	117.31
658.068	107.31
658.272	96.31
658.476	94.31
658.68	109.31
658.883	104.31
659.087	100.31
659.291	103.31
659.494	97.31
659.698	94.31
659.901	94.31
660.105	99.31
660.309	102.31
660.512	100.31
660.716	102.31
660.919	87.31
661.123	84.31
661.326	90.31
661.53	91.31
661.733	95.31
661.936	88.31
662.14	93.31
662.343	90.31
662.546	94.31
662.75	98.31
662.953	94.31
663.156	82.31
663.36	94.31
663.563	75.31
663.766	75.31
663.969	93.31
664.173	83.31
664.376	93.31
664.579	94.31
664.782	79.31
664.985	91.31
665.188	84.31
665.391	97.31
665.594	89.31
665.797	93.31
666	84.31
666.203	79.31
666.406	94.31
666.609	79.31
666.812	91.31
667.015	78.31
667.218	84.31
667.421	78.31
667.624	90.31
667.827	101.31
668.03	84.31
668.232	95.31
668.435	82.31
668.638	82.31
668.841	85.31
669.043	90.31
669.246	78.31
669.449	89.31
669.651	79.31
669.854	80.31
670.057	69.31
670.259	94.31
670.462	78.31
670.665	95.31
670.867	85.31
671.07	71.31
671.272	78.31
671.475	113.31
671.677	83.31
671.88	92.31
672.082	98.31
672.284	89.31
672.487	85.31
672.689	83.31
672.892	77.31
