Data from Fe(NO3)3@0.1M.TitratingCurve.Agarose3%dH2O.NegLispCup.LampEnergy10.LIBS07252019_HRD10591_16-41-55-333.txt Node
Date: Thu Jul 25 16:41:55 EDT 2019
User: cochatt
Spectrometer: HR+D1059
Trigger mode: 1
Integration Time (sec): 1.000000E-1
Scans to average: 1
Electric dark correction enabled: true
Nonlinearity correction enabled: false
Boxcar width: 0
XAxis mode: Wavelengths
Number of Pixels in Spectrum: 2048
>>>>>Begin Spectral Data<<<<<
223.165	-20.5
223.4	-20.5
223.635	-20.5
223.869	-12.5
224.104	-13.5
224.338	-7.5
224.573	-12.5
224.808	-25.5
225.042	-9.5
225.277	-12.5
225.511	-18.5
225.746	-5.5
225.98	16.5
226.215	22.5
226.449	22.5
226.683	32.5
226.918	7.5
227.152	36.5
227.387	26.5
227.621	54.5
227.856	51.5
228.09	38.5
228.324	63.5
228.559	52.5
228.793	55.5
229.027	78.5
229.262	88.5
229.496	94.5
229.73	89.5
229.964	104.5
230.199	102.5
230.433	91.5
230.667	98.5
230.901	102.5
231.136	104.5
231.37	103.5
231.604	98.5
231.838	117.5
232.072	91.5
232.306	107.5
232.541	115.5
232.775	109.5
233.009	107.5
233.243	127.5
233.477	106.5
233.711	109.5
233.945	111.5
234.179	99.5
234.413	124.5
234.647	109.5
234.881	116.5
235.115	108.5
235.349	101.5
235.583	106.5
235.817	105.5
236.051	92.5
236.285	98.5
236.519	100.5
236.753	94.5
236.987	114.5
237.221	106.5
237.455	112.5
237.689	106.5
237.922	101.5
238.156	114.5
238.39	106.5
238.624	117.5
238.858	111.5
239.091	121.5
239.325	99.5
239.559	123.5
239.793	122.5
240.027	120.5
240.26	127.5
240.494	113.5
240.728	108.5
240.961	122.5
241.195	106.5
241.429	106.5
241.662	111.5
241.896	107.5
242.13	115.5
242.363	106.5
242.597	110.5
242.83	126.5
243.064	126.5
243.298	128.5
243.531	128.5
243.765	128.5
243.998	131.5
244.232	113.5
244.465	115.5
244.699	122.5
244.932	127.5
245.166	128.5
245.399	137.5
245.633	132.5
245.866	124.5
246.099	136.5
246.333	141.5
246.566	132.5
246.8	126.5
247.033	134.5
247.266	126.5
247.5	140.5
247.733	130.5
247.966	145.5
248.2	134.5
248.433	134.5
248.666	139.5
248.899	129.5
249.133	138.5
249.366	136.5
249.599	134.5
249.832	136.5
250.066	135.5
250.299	143.5
250.532	144.5
250.765	141.5
250.998	147.5
251.231	137.5
251.465	150.5
251.698	138.5
251.931	131.5
252.164	136.5
252.397	156.5
252.63	151.5
252.863	150.5
253.096	138.5
253.329	144.5
253.562	157.5
253.795	140.5
254.028	157.5
254.261	139.5
254.494	130.5
254.727	152.5
254.96	132.5
255.193	146.5
255.426	150.5
255.659	151.5
255.892	155.5
256.124	161.5
256.357	153.5
256.59	157.5
256.823	155.5
257.056	154.5
257.289	161.5
257.521	155.5
257.754	165.5
257.987	161.5
258.22	160.5
258.452	154.5
258.685	163.5
258.918	141.5
259.151	158.5
259.383	158.5
259.616	164.5
259.849	157.5
260.081	150.5
260.314	167.5
260.547	153.5
260.779	167.5
261.012	150.5
261.244	158.5
261.477	168.5
261.71	158.5
261.942	152.5
262.175	161.5
262.407	167.5
262.64	173.5
262.872	172.5
263.105	165.5
263.337	178.5
263.57	159.5
263.802	172.5
264.035	190.5
264.267	174.5
264.499	178.5
264.732	168.5
264.964	154.5
265.197	168.5
265.429	180.5
265.661	182.5
265.894	178.5
266.126	163.5
266.358	170.5
266.591	170.5
266.823	168.5
267.055	178.5
267.287	182.5
267.52	170.5
267.752	188.5
267.984	176.5
268.216	167.5
268.448	195.5
268.681	185.5
268.913	183.5
269.145	176.5
269.377	202.5
269.609	188.5
269.841	174.5
270.073	185.5
270.306	188.5
270.538	196.5
270.77	189.5
271.002	198.5
271.234	182.5
271.466	184.5
271.698	207.5
271.93	190.5
272.162	199.5
272.394	190.5
272.626	198.5
272.858	204.5
273.09	192.5
273.322	192.5
273.553	186.5
273.785	202.5
274.017	206.5
274.249	207.5
274.481	213.5
274.713	213.5
274.945	198.5
275.176	203.5
275.408	188.5
275.64	200.5
275.872	200.5
276.104	194.5
276.335	211.5
276.567	211.5
276.799	202.5
277.031	198.5
277.262	195.5
277.494	205.5
277.726	194.5
277.957	204.5
278.189	216.5
278.421	202.5
278.652	199.5
278.884	212.5
279.115	216.5
279.347	218.5
279.579	211.5
279.81	203.5
280.042	207.5
280.273	219.5
280.505	207.5
280.736	215.5
280.968	216.5
281.199	237.5
281.431	192.5
281.662	208.5
281.894	218.5
282.125	219.5
282.356	235.5
282.588	231.5
282.819	224.5
283.051	223.5
283.282	216.5
283.513	239.5
283.745	238.5
283.976	232.5
284.207	236.5
284.439	220.5
284.67	218.5
284.901	237.5
285.132	239.5
285.364	236.5
285.595	222.5
285.826	223.5
286.057	233.5
286.288	223.5
286.52	223.5
286.751	236.5
286.982	223.5
287.213	227.5
287.444	245.5
287.675	230.5
287.906	253.5
288.138	226.5
288.369	236.5
288.6	242.5
288.831	237.5
289.062	226.5
289.293	240.5
289.524	246.5
289.755	236.5
289.986	238.5
290.217	229.5
290.448	233.5
290.679	249.5
290.91	251.5
291.141	237.5
291.371	246.5
291.602	256.5
291.833	263.5
292.064	250.5
292.295	242.5
292.526	259.5
292.757	245.5
292.987	248.5
293.218	230.5
293.449	247.5
293.68	234.5
293.91	248.5
294.141	258.5
294.372	255.5
294.603	248.5
294.833	248.5
295.064	235.5
295.295	258.5
295.525	258.5
295.756	243.5
295.987	235.5
296.217	254.5
296.448	243.5
296.679	247.5
296.909	256.5
297.14	260.5
297.37	249.5
297.601	262.5
297.831	264.5
298.062	253.5
298.292	260.5
298.523	262.5
298.753	272.5
298.984	262.5
299.214	266.5
299.445	263.5
299.675	260.5
299.905	273.5
300.136	267.5
300.366	265.5
300.597	279.5
300.827	261.5
301.057	266.5
301.288	243.5
301.518	283.5
301.748	263.5
301.979	286.5
302.209	280.5
302.439	276.5
302.669	261.5
302.9	277.5
303.13	291.5
303.36	268.5
303.59	272.5
303.82	277.5
304.051	260.5
304.281	274.5
304.511	272.5
304.741	266.5
304.971	274.5
305.201	280.5
305.431	278.5
305.661	278.5
305.891	280.5
306.121	280.5
306.352	269.5
306.582	259.5
306.812	273.5
307.042	271.5
307.272	259.5
307.502	284.5
307.731	270.5
307.961	272.5
308.191	278.5
308.421	283.5
308.651	292.5
308.881	265.5
309.111	268.5
309.341	267.5
309.571	260.5
309.8	262.5
310.03	271.5
310.26	283.5
310.49	276.5
310.72	290.5
310.949	288.5
311.179	283.5
311.409	292.5
311.639	291.5
311.868	285.5
312.098	272.5
312.328	302.5
312.557	296.5
312.787	290.5
313.017	291.5
313.246	293.5
313.476	286.5
313.706	298.5
313.935	300.5
314.165	292.5
314.394	298.5
314.624	303.5
314.853	287.5
315.083	300.5
315.312	294.5
315.542	283.5
315.771	297.5
316.001	299.5
316.23	328.5
316.46	282.5
316.689	293.5
316.919	299.5
317.148	295.5
317.377	298.5
317.607	278.5
317.836	291.5
318.065	282.5
318.295	282.5
318.524	294.5
318.753	284.5
318.983	287.5
319.212	295.5
319.441	299.5
319.67	294.5
319.9	269.5
320.129	292.5
320.358	287.5
320.587	292.5
320.816	295.5
321.046	295.5
321.275	300.5
321.504	318.5
321.733	302.5
321.962	296.5
322.191	307.5
322.42	296.5
322.649	301.5
322.878	307.5
323.108	310.5
323.337	299.5
323.566	306.5
323.795	302.5
324.024	312.5
324.253	322.5
324.482	301.5
324.71	304.5
324.939	293.5
325.168	301.5
325.397	324.5
325.626	318.5
325.855	314.5
326.084	318.5
326.313	322.5
326.542	303.5
326.77	322.5
326.999	312.5
327.228	328.5
327.457	324.5
327.686	324.5
327.914	315.5
328.143	345.5
328.372	330.5
328.6	307.5
328.829	340.5
329.058	348.5
329.287	318.5
329.515	328.5
329.744	332.5
329.972	316.5
330.201	325.5
330.43	304.5
330.658	319.5
330.887	329.5
331.115	339.5
331.344	346.5
331.572	310.5
331.801	333.5
332.03	370.5
332.258	357.5
332.486	370.5
332.715	374.5
332.943	374.5
333.172	393.5
333.4	390.5
333.629	414.5
333.857	414.5
334.085	416.5
334.314	402.5
334.542	396.5
334.771	396.5
334.999	389.5
335.227	394.5
335.455	386.5
335.684	358.5
335.912	379.5
336.14	376.5
336.369	358.5
336.597	376.5
336.825	358.5
337.053	362.5
337.281	392.5
337.51	361.5
337.738	372.5
337.966	354.5
338.194	352.5
338.422	342.5
338.65	339.5
338.878	338.5
339.106	344.5
339.334	359.5
339.562	342.5
339.79	340.5
340.018	335.5
340.246	336.5
340.474	321.5
340.702	350.5
340.93	320.5
341.158	324.5
341.386	336.5
341.614	345.5
341.842	328.5
342.07	314.5
342.298	350.5
342.526	343.5
342.754	330.5
342.981	327.5
343.209	357.5
343.437	374.5
343.665	379.5
343.893	382.5
344.12	387.5
344.348	386.5
344.576	372.5
344.804	347.5
345.031	357.5
345.259	351.5
345.487	360.5
345.714	335.5
345.942	329.5
346.17	340.5
346.397	337.5
346.625	322.5
346.853	333.5
347.08	320.5
347.308	326.5
347.535	330.5
347.763	358.5
347.99	343.5
348.218	343.5
348.445	328.5
348.673	321.5
348.9	349.5
349.128	333.5
349.355	339.5
349.583	344.5
349.81	329.5
350.037	316.5
350.265	306.5
350.492	315.5
350.72	337.5
350.947	337.5
351.174	311.5
351.402	314.5
351.629	325.5
351.856	302.5
352.083	326.5
352.311	308.5
352.538	325.5
352.765	323.5
352.992	347.5
353.22	316.5
353.447	327.5
353.674	335.5
353.901	320.5
354.128	312.5
354.355	314.5
354.583	318.5
354.81	312.5
355.037	348.5
355.264	336.5
355.491	329.5
355.718	321.5
355.945	323.5
356.172	317.5
356.399	328.5
356.626	338.5
356.853	315.5
357.08	333.5
357.307	330.5
357.534	326.5
357.761	325.5
357.988	320.5
358.215	335.5
358.441	333.5
358.668	327.5
358.895	318.5
359.122	338.5
359.349	331.5
359.576	330.5
359.802	334.5
360.029	335.5
360.256	305.5
360.483	325.5
360.709	315.5
360.936	319.5
361.163	324.5
361.39	327.5
361.616	331.5
361.843	323.5
362.07	337.5
362.296	334.5
362.523	337.5
362.749	317.5
362.976	311.5
363.203	325.5
363.429	313.5
363.656	309.5
363.882	315.5
364.109	327.5
364.335	323.5
364.562	325.5
364.788	326.5
365.015	327.5
365.241	331.5
365.468	324.5
365.694	332.5
365.92	332.5
366.147	312.5
366.373	337.5
366.599	326.5
366.826	301.5
367.052	302.5
367.278	322.5
367.505	336.5
367.731	328.5
367.957	349.5
368.184	328.5
368.41	321.5
368.636	341.5
368.862	311.5
369.089	342.5
369.315	348.5
369.541	322.5
369.767	344.5
369.993	329.5
370.219	346.5
370.445	352.5
370.672	341.5
370.898	346.5
371.124	345.5
371.35	355.5
371.576	349.5
371.802	356.5
372.028	361.5
372.254	366.5
372.48	372.5
372.706	350.5
372.932	367.5
373.158	356.5
373.384	378.5
373.61	362.5
373.835	345.5
374.061	364.5
374.287	354.5
374.513	370.5
374.739	377.5
374.965	372.5
375.191	388.5
375.416	375.5
375.642	371.5
375.868	379.5
376.094	364.5
376.319	364.5
376.545	349.5
376.771	363.5
376.997	354.5
377.222	353.5
377.448	347.5
377.674	363.5
377.899	350.5
378.125	346.5
378.35	346.5
378.576	348.5
378.802	362.5
379.027	344.5
379.253	357.5
379.478	361.5
379.704	344.5
379.929	336.5
380.155	333.5
380.38	351.5
380.606	374.5
380.831	352.5
381.057	363.5
381.282	335.5
381.507	342.5
381.733	374.5
381.958	347.5
382.184	357.5
382.409	365.5
382.634	375.5
382.86	355.5
383.085	382.5
383.31	384.5
383.535	389.5
383.761	382.5
383.986	386.5
384.211	406.5
384.436	403.5
384.662	411.5
384.887	402.5
385.112	394.5
385.337	439.5
385.562	417.5
385.787	420.5
386.013	425.5
386.238	421.5
386.463	415.5
386.688	419.5
386.913	395.5
387.138	412.5
387.363	438.5
387.588	423.5
387.813	418.5
388.038	423.5
388.263	414.5
388.488	398.5
388.713	397.5
388.938	384.5
389.163	411.5
389.387	406.5
389.612	417.5
389.837	422.5
390.062	407.5
390.287	408.5
390.512	388.5
390.736	394.5
390.961	447.5
391.186	431.5
391.411	422.5
391.636	459.5
391.86	445.5
392.085	444.5
392.31	444.5
392.534	459.5
392.759	429.5
392.984	435.5
393.208	448.5
393.433	445.5
393.658	447.5
393.882	413.5
394.107	442.5
394.331	446.5
394.556	436.5
394.78	421.5
395.005	454.5
395.229	452.5
395.454	455.5
395.678	478.5
395.903	453.5
396.127	455.5
396.352	447.5
396.576	444.5
396.801	443.5
397.025	455.5
397.249	467.5
397.474	455.5
397.698	456.5
397.922	482.5
398.147	487.5
398.371	484.5
398.595	488.5
398.82	499.5
399.044	549.5
399.268	581.5
399.492	670.5
399.717	695.5
399.941	676.5
400.165	628.5
400.389	599.5
400.613	546.5
400.837	520.5
401.062	539.5
401.286	522.5
401.51	498.5
401.734	499.5
401.958	512.5
402.182	517.5
402.406	512.5
402.63	514.5
402.854	539.5
403.078	572.5
403.302	553.5
403.526	525.5
403.75	548.5
403.974	546.5
404.198	553.5
404.422	574.5
404.645	559.5
404.869	561.5
405.093	564.5
405.317	578.5
405.541	569.5
405.765	553.5
405.988	563.5
406.212	534.5
406.436	547.5
406.66	573.5
406.883	579.5
407.107	603.5
407.331	620.5
407.555	616.5
407.778	628.5
408.002	628.5
408.226	599.5
408.449	595.5
408.673	557.5
408.896	564.5
409.12	546.5
409.344	564.5
409.567	558.5
409.791	566.5
410.014	546.5
410.238	543.5
410.461	546.5
410.685	559.5
410.908	533.5
411.132	507.5
411.355	517.5
411.578	518.5
411.802	524.5
412.025	534.5
412.249	545.5
412.472	549.5
412.695	534.5
412.919	527.5
413.142	502.5
413.365	534.5
413.589	514.5
413.812	513.5
414.035	514.5
414.258	507.5
414.482	525.5
414.705	535.5
414.928	506.5
415.151	530.5
415.374	532.5
415.597	544.5
415.821	518.5
416.044	508.5
416.267	511.5
416.49	484.5
416.713	495.5
416.936	499.5
417.159	480.5
417.382	504.5
417.605	496.5
417.828	479.5
418.051	517.5
418.274	513.5
418.497	492.5
418.72	527.5
418.943	529.5
419.166	548.5
419.389	576.5
419.611	530.5
419.834	542.5
420.057	545.5
420.28	500.5
420.503	491.5
420.726	512.5
420.948	520.5
421.171	510.5
421.394	514.5
421.617	495.5
421.839	506.5
422.062	520.5
422.285	524.5
422.507	513.5
422.73	517.5
422.953	508.5
423.175	501.5
423.398	545.5
423.621	544.5
423.843	523.5
424.066	503.5
424.288	518.5
424.511	515.5
424.733	514.5
424.956	512.5
425.178	514.5
425.401	484.5
425.623	493.5
425.846	495.5
426.068	476.5
426.291	500.5
426.513	476.5
426.735	495.5
426.958	487.5
427.18	470.5
427.402	447.5
427.625	467.5
427.847	457.5
428.069	460.5
428.292	460.5
428.514	456.5
428.736	479.5
428.958	465.5
429.181	475.5
429.403	457.5
429.625	473.5
429.847	459.5
430.069	460.5
430.292	461.5
430.514	466.5
430.736	462.5
430.958	467.5
431.18	451.5
431.402	463.5
431.624	454.5
431.846	454.5
432.068	459.5
432.29	477.5
432.512	458.5
432.734	470.5
432.956	481.5
433.178	475.5
433.4	474.5
433.622	478.5
433.844	477.5
434.066	494.5
434.287	478.5
434.509	489.5
434.731	516.5
434.953	514.5
435.175	506.5
435.397	512.5
435.618	462.5
435.84	467.5
436.062	474.5
436.284	464.5
436.505	455.5
436.727	471.5
436.949	453.5
437.17	464.5
437.392	469.5
437.614	474.5
437.835	453.5
438.057	467.5
438.278	436.5
438.5	457.5
438.721	445.5
438.943	458.5
439.165	469.5
439.386	452.5
439.608	454.5
439.829	473.5
440.05	464.5
440.272	483.5
440.493	485.5
440.715	478.5
440.936	505.5
441.158	502.5
441.379	521.5
441.6	529.5
441.822	517.5
442.043	514.5
442.264	521.5
442.486	515.5
442.707	502.5
442.928	508.5
443.149	512.5
443.371	517.5
443.592	522.5
443.813	515.5
444.034	532.5
444.255	530.5
444.476	574.5
444.698	566.5
444.919	589.5
445.14	639.5
445.361	569.5
445.582	542.5
445.803	493.5
446.024	483.5
446.245	487.5
446.466	534.5
446.687	479.5
446.908	476.5
447.129	475.5
447.35	462.5
447.571	461.5
447.792	453.5
448.013	449.5
448.234	461.5
448.455	465.5
448.675	431.5
448.896	445.5
449.117	418.5
449.338	429.5
449.559	442.5
449.779	459.5
450	435.5
450.221	434.5
450.442	441.5
450.662	434.5
450.883	437.5
451.104	463.5
451.324	440.5
451.545	414.5
451.766	454.5
451.986	439.5
452.207	424.5
452.428	436.5
452.648	438.5
452.869	430.5
453.089	422.5
453.31	409.5
453.53	440.5
453.751	412.5
453.971	428.5
454.192	408.5
454.412	416.5
454.633	413.5
454.853	413.5
455.073	419.5
455.294	410.5
455.514	406.5
455.734	413.5
455.955	412.5
456.175	425.5
456.395	394.5
456.616	416.5
456.836	409.5
457.056	400.5
457.276	392.5
457.497	426.5
457.717	398.5
457.937	415.5
458.157	404.5
458.377	431.5
458.598	423.5
458.818	412.5
459.038	454.5
459.258	438.5
459.478	448.5
459.698	454.5
459.918	477.5
460.138	501.5
460.358	522.5
460.578	526.5
460.798	533.5
461.018	532.5
461.238	533.5
461.458	522.5
461.678	530.5
461.898	531.5
462.118	523.5
462.338	562.5
462.558	578.5
462.777	602.5
462.997	646.5
463.217	692.5
463.437	665.5
463.657	615.5
463.876	605.5
464.096	590.5
464.316	591.5
464.536	604.5
464.755	580.5
464.975	545.5
465.195	537.5
465.414	515.5
465.634	489.5
465.854	509.5
466.073	471.5
466.293	474.5
466.512	462.5
466.732	438.5
466.951	435.5
467.171	448.5
467.391	453.5
467.61	447.5
467.829	456.5
468.049	447.5
468.268	446.5
468.488	434.5
468.707	433.5
468.927	447.5
469.146	434.5
469.365	448.5
469.585	446.5
469.804	450.5
470.023	450.5
470.243	435.5
470.462	461.5
470.681	463.5
470.901	446.5
471.12	463.5
471.339	440.5
471.558	450.5
471.777	469.5
471.997	446.5
472.216	421.5
472.435	424.5
472.654	409.5
472.873	418.5
473.092	395.5
473.311	422.5
473.53	445.5
473.749	416.5
473.968	428.5
474.187	410.5
474.406	435.5
474.625	429.5
474.844	442.5
475.063	431.5
475.282	411.5
475.501	426.5
475.72	438.5
475.939	428.5
476.158	444.5
476.377	439.5
476.596	436.5
476.814	444.5
477.033	431.5
477.252	448.5
477.471	462.5
477.69	475.5
477.908	486.5
478.127	466.5
478.346	485.5
478.564	499.5
478.783	493.5
479.002	525.5
479.22	499.5
479.439	541.5
479.658	500.5
479.876	487.5
480.095	487.5
480.313	521.5
480.532	521.5
480.751	551.5
480.969	512.5
481.188	506.5
481.406	481.5
481.624	481.5
481.843	481.5
482.061	460.5
482.28	460.5
482.498	451.5
482.717	474.5
482.935	458.5
483.153	446.5
483.372	453.5
483.59	461.5
483.808	494.5
484.027	461.5
484.245	455.5
484.463	481.5
484.681	493.5
484.9	494.5
485.118	476.5
485.336	483.5
485.554	474.5
485.772	495.5
485.99	475.5
486.209	477.5
486.427	462.5
486.645	488.5
486.863	493.5
487.081	500.5
487.299	467.5
487.517	468.5
487.735	482.5
487.953	501.5
488.171	494.5
488.389	501.5
488.607	470.5
488.825	468.5
489.043	480.5
489.261	471.5
489.479	495.5
489.696	464.5
489.914	485.5
490.132	503.5
490.35	489.5
490.568	529.5
490.786	516.5
491.003	488.5
491.221	520.5
491.439	507.5
491.657	484.5
491.874	496.5
492.092	515.5
492.31	516.5
492.527	504.5
492.745	506.5
492.963	524.5
493.18	522.5
493.398	533.5
493.615	499.5
493.833	526.5
494.05	519.5
494.268	511.5
494.485	527.5
494.703	531.5
494.92	539.5
495.138	518.5
495.355	538.5
495.573	543.5
495.79	516.5
496.008	542.5
496.225	546.5
496.442	541.5
496.66	537.5
496.877	551.5
497.094	563.5
497.312	568.5
497.529	575.5
497.746	604.5
497.963	593.5
498.181	620.5
498.398	650.5
498.615	650.5
498.832	696.5
499.049	763.5
499.267	822.5
499.484	869.5
499.701	926.5
499.918	1026.5
500.135	1138.5
500.352	1244.5
500.569	1290.5
500.786	1279.5
501.003	1188.5
501.22	1084.5
501.437	970.5
501.654	871.5
501.871	824.5
502.088	777.5
502.305	730.5
502.522	710.5
502.739	664.5
502.956	622.5
503.172	588.5
503.389	575.5
503.606	578.5
503.823	589.5
504.04	586.5
504.256	587.5
504.473	596.5
504.69	587.5
504.907	571.5
505.123	538.5
505.34	558.5
505.557	500.5
505.773	509.5
505.99	502.5
506.207	484.5
506.423	479.5
506.64	469.5
506.856	461.5
507.073	458.5
507.289	463.5
507.506	456.5
507.722	450.5
507.939	455.5
508.155	443.5
508.372	431.5
508.588	438.5
508.805	453.5
509.021	445.5
509.238	410.5
509.454	405.5
509.67	410.5
509.887	412.5
510.103	415.5
510.319	420.5
510.536	426.5
510.752	434.5
510.968	424.5
511.184	412.5
511.401	418.5
511.617	425.5
511.833	426.5
512.049	420.5
512.265	429.5
512.481	418.5
512.698	418.5
512.914	427.5
513.13	429.5
513.346	429.5
513.562	408.5
513.778	425.5
513.994	410.5
514.21	435.5
514.426	413.5
514.642	426.5
514.858	434.5
515.074	427.5
515.29	459.5
515.506	443.5
515.721	459.5
515.937	451.5
516.153	452.5
516.369	451.5
516.585	473.5
516.801	469.5
517.016	500.5
517.232	513.5
517.448	526.5
517.664	550.5
517.879	566.5
518.095	547.5
518.311	534.5
518.527	508.5
518.742	507.5
518.958	476.5
519.173	478.5
519.389	470.5
519.605	460.5
519.82	431.5
520.036	438.5
520.251	426.5
520.467	409.5
520.682	434.5
520.898	417.5
521.113	423.5
521.329	421.5
521.544	416.5
521.76	406.5
521.975	404.5
522.19	412.5
522.406	395.5
522.621	405.5
522.836	400.5
523.052	383.5
523.267	406.5
523.482	391.5
523.698	379.5
523.913	379.5
524.128	391.5
524.343	389.5
524.559	383.5
524.774	388.5
524.989	378.5
525.204	388.5
525.419	382.5
525.634	398.5
525.849	379.5
526.064	382.5
526.28	374.5
526.495	373.5
526.71	371.5
526.925	379.5
527.14	384.5
527.355	376.5
527.57	360.5
527.785	392.5
527.999	393.5
528.214	378.5
528.429	377.5
528.644	388.5
528.859	380.5
529.074	399.5
529.289	399.5
529.503	375.5
529.718	387.5
529.933	384.5
530.148	370.5
530.363	401.5
530.577	386.5
530.792	378.5
531.007	385.5
531.221	391.5
531.436	383.5
531.651	400.5
531.865	373.5
532.08	378.5
532.295	383.5
532.509	373.5
532.724	392.5
532.938	391.5
533.153	380.5
533.367	376.5
533.582	379.5
533.796	363.5
534.011	357.5
534.225	373.5
534.44	380.5
534.654	385.5
534.868	371.5
535.083	359.5
535.297	362.5
535.511	351.5
535.726	383.5
535.94	367.5
536.154	381.5
536.369	374.5
536.583	359.5
536.797	364.5
537.011	363.5
537.225	348.5
537.44	355.5
537.654	339.5
537.868	343.5
538.082	350.5
538.296	371.5
538.51	354.5
538.724	353.5
538.938	345.5
539.153	339.5
539.367	359.5
539.581	342.5
539.795	349.5
540.009	369.5
540.222	353.5
540.436	374.5
540.65	358.5
540.864	352.5
541.078	334.5
541.292	371.5
541.506	363.5
541.72	358.5
541.934	353.5
542.147	349.5
542.361	363.5
542.575	328.5
542.789	358.5
543.002	352.5
543.216	339.5
543.43	349.5
543.644	346.5
543.857	355.5
544.071	352.5
544.285	359.5
544.498	346.5
544.712	343.5
544.925	367.5
545.139	358.5
545.352	346.5
545.566	351.5
545.779	362.5
545.993	371.5
546.206	368.5
546.42	368.5
546.633	343.5
546.847	354.5
547.06	359.5
547.274	359.5
547.487	358.5
547.7	363.5
547.914	374.5
548.127	358.5
548.34	374.5
548.554	362.5
548.767	375.5
548.98	364.5
549.193	367.5
549.407	346.5
549.62	357.5
549.833	378.5
550.046	372.5
550.259	370.5
550.473	350.5
550.686	350.5
550.899	361.5
551.112	349.5
551.325	342.5
551.538	330.5
551.751	355.5
551.964	359.5
552.177	358.5
552.39	355.5
552.603	383.5
552.816	373.5
553.029	363.5
553.242	378.5
553.455	391.5
553.667	382.5
553.88	365.5
554.093	367.5
554.306	365.5
554.519	342.5
554.732	343.5
554.944	356.5
555.157	326.5
555.37	347.5
555.583	356.5
555.795	325.5
556.008	331.5
556.221	309.5
556.433	295.5
556.646	320.5
556.859	306.5
557.071	300.5
557.284	322.5
557.496	317.5
557.709	330.5
557.921	308.5
558.134	314.5
558.346	309.5
558.559	310.5
558.771	329.5
558.984	322.5
559.196	316.5
559.409	292.5
559.621	302.5
559.833	300.5
560.046	298.5
560.258	318.5
560.47	300.5
560.683	303.5
560.895	311.5
561.107	318.5
561.32	305.5
561.532	309.5
561.744	300.5
561.956	302.5
562.168	322.5
562.381	308.5
562.593	306.5
562.805	301.5
563.017	298.5
563.229	298.5
563.441	308.5
563.653	303.5
563.865	312.5
564.077	301.5
564.289	300.5
564.501	308.5
564.713	336.5
564.925	327.5
565.137	320.5
565.349	327.5
565.561	328.5
565.773	352.5
565.985	373.5
566.197	368.5
566.408	392.5
566.62	414.5
566.832	443.5
567.044	446.5
567.255	442.5
567.467	444.5
567.679	468.5
567.891	503.5
568.102	505.5
568.314	465.5
568.526	452.5
568.737	424.5
568.949	392.5
569.161	363.5
569.372	332.5
569.584	334.5
569.795	299.5
570.007	306.5
570.218	314.5
570.43	312.5
570.641	307.5
570.853	314.5
571.064	308.5
571.276	316.5
571.487	300.5
571.698	288.5
571.91	282.5
572.121	261.5
572.333	286.5
572.544	262.5
572.755	275.5
572.966	264.5
573.178	258.5
573.389	269.5
573.6	260.5
573.811	255.5
574.023	246.5
574.234	258.5
574.445	258.5
574.656	248.5
574.867	250.5
575.078	236.5
575.289	245.5
575.501	242.5
575.712	262.5
575.923	250.5
576.134	249.5
576.345	246.5
576.556	238.5
576.767	244.5
576.978	236.5
577.188	246.5
577.399	238.5
577.61	246.5
577.821	235.5
578.032	225.5
578.243	235.5
578.454	228.5
578.665	223.5
578.875	234.5
579.086	226.5
579.297	227.5
579.508	235.5
579.718	222.5
579.929	214.5
580.14	218.5
580.35	223.5
580.561	226.5
580.772	236.5
580.982	236.5
581.193	256.5
581.403	233.5
581.614	226.5
581.825	228.5
582.035	244.5
582.246	218.5
582.456	216.5
582.667	221.5
582.877	216.5
583.087	231.5
583.298	231.5
583.508	227.5
583.719	222.5
583.929	211.5
584.139	199.5
584.35	214.5
584.56	206.5
584.77	216.5
584.981	210.5
585.191	220.5
585.401	207.5
585.611	213.5
585.821	206.5
586.032	205.5
586.242	207.5
586.452	209.5
586.662	212.5
586.872	198.5
587.082	213.5
587.292	218.5
587.502	214.5
587.713	211.5
587.923	213.5
588.133	220.5
588.343	225.5
588.553	211.5
588.762	213.5
588.972	208.5
589.182	233.5
589.392	227.5
589.602	204.5
589.812	216.5
590.022	207.5
590.232	199.5
590.441	206.5
590.651	222.5
590.861	224.5
591.071	205.5
591.281	210.5
591.49	231.5
591.7	220.5
591.91	220.5
592.119	201.5
592.329	224.5
592.539	231.5
592.748	244.5
592.958	232.5
593.167	246.5
593.377	242.5
593.587	250.5
593.796	262.5
594.006	262.5
594.215	246.5
594.424	259.5
594.634	275.5
594.843	230.5
595.053	234.5
595.262	213.5
595.472	226.5
595.681	207.5
595.89	217.5
596.1	214.5
596.309	216.5
596.518	208.5
596.727	222.5
596.937	210.5
597.146	201.5
597.355	218.5
597.564	188.5
597.774	203.5
597.983	202.5
598.192	195.5
598.401	203.5
598.61	200.5
598.819	198.5
599.028	182.5
599.237	201.5
599.446	179.5
599.655	194.5
599.864	208.5
600.073	194.5
600.282	195.5
600.491	173.5
600.7	186.5
600.909	196.5
601.118	188.5
601.327	194.5
601.536	198.5
601.745	207.5
601.953	186.5
602.162	198.5
602.371	175.5
602.58	179.5
602.789	189.5
602.997	171.5
603.206	190.5
603.415	189.5
603.623	207.5
603.832	184.5
604.041	203.5
604.249	176.5
604.458	170.5
604.666	186.5
604.875	173.5
605.084	173.5
605.292	166.5
605.501	157.5
605.709	177.5
605.918	173.5
606.126	178.5
606.334	160.5
606.543	180.5
606.751	189.5
606.96	167.5
607.168	174.5
607.376	195.5
607.585	168.5
607.793	191.5
608.001	182.5
608.21	176.5
608.418	186.5
608.626	182.5
608.834	170.5
609.043	178.5
609.251	194.5
609.459	171.5
609.667	185.5
609.875	167.5
610.083	180.5
610.291	171.5
610.499	172.5
610.707	168.5
610.916	184.5
611.124	169.5
611.332	186.5
611.54	191.5
611.748	169.5
611.955	172.5
612.163	163.5
612.371	175.5
612.579	168.5
612.787	153.5
612.995	147.5
613.203	154.5
613.411	169.5
613.618	153.5
613.826	163.5
614.034	176.5
614.242	170.5
614.449	158.5
614.657	176.5
614.865	180.5
615.072	162.5
615.28	162.5
615.488	174.5
615.695	152.5
615.903	160.5
616.111	169.5
616.318	168.5
616.526	163.5
616.733	183.5
616.941	164.5
617.148	169.5
617.356	189.5
617.563	179.5
617.771	182.5
617.978	172.5
618.185	165.5
618.393	172.5
618.6	145.5
618.807	168.5
619.015	180.5
619.222	162.5
619.429	163.5
619.637	164.5
619.844	163.5
620.051	164.5
620.258	159.5
620.466	165.5
620.673	156.5
620.88	155.5
621.087	158.5
621.294	162.5
621.501	167.5
621.708	170.5
621.915	163.5
622.122	155.5
622.329	164.5
622.536	166.5
622.743	170.5
622.95	172.5
623.157	164.5
623.364	144.5
623.571	143.5
623.778	162.5
623.985	153.5
624.192	163.5
624.399	157.5
624.606	163.5
624.812	144.5
625.019	143.5
625.226	136.5
625.433	165.5
625.639	150.5
625.846	168.5
626.053	156.5
626.259	157.5
626.466	140.5
626.673	157.5
626.879	159.5
627.086	164.5
627.293	152.5
627.499	170.5
627.706	142.5
627.912	160.5
628.119	150.5
628.325	151.5
628.532	148.5
628.738	158.5
628.945	140.5
629.151	143.5
629.357	149.5
629.564	148.5
629.77	154.5
629.976	147.5
630.183	158.5
630.389	143.5
630.595	137.5
630.802	154.5
631.008	150.5
631.214	159.5
631.42	142.5
631.627	136.5
631.833	133.5
632.039	151.5
632.245	136.5
632.451	141.5
632.657	153.5
632.863	148.5
633.069	139.5
633.275	144.5
633.481	141.5
633.688	148.5
633.893	144.5
634.099	146.5
634.305	133.5
634.511	150.5
634.717	144.5
634.923	158.5
635.129	136.5
635.335	126.5
635.541	134.5
635.747	128.5
635.952	140.5
636.158	146.5
636.364	146.5
636.57	133.5
636.775	150.5
636.981	148.5
637.187	145.5
637.392	143.5
637.598	145.5
637.804	128.5
638.009	142.5
638.215	142.5
638.421	127.5
638.626	144.5
638.832	122.5
639.037	124.5
639.243	141.5
639.448	126.5
639.654	126.5
639.859	125.5
640.065	130.5
640.27	130.5
640.475	127.5
640.681	137.5
640.886	132.5
641.091	146.5
641.297	149.5
641.502	142.5
641.707	151.5
641.913	135.5
642.118	126.5
642.323	123.5
642.528	147.5
642.733	132.5
642.939	138.5
643.144	131.5
643.349	143.5
643.554	136.5
643.759	136.5
643.964	123.5
644.169	125.5
644.374	131.5
644.579	138.5
644.784	134.5
644.989	142.5
645.194	146.5
645.399	130.5
645.604	134.5
645.809	137.5
646.014	133.5
646.219	142.5
646.423	126.5
646.628	132.5
646.833	128.5
647.038	139.5
647.243	130.5
647.447	126.5
647.652	128.5
647.857	137.5
648.062	128.5
648.266	143.5
648.471	145.5
648.676	146.5
648.88	147.5
649.085	147.5
649.289	138.5
649.494	140.5
649.698	132.5
649.903	114.5
650.107	129.5
650.312	134.5
650.516	126.5
650.721	129.5
650.925	150.5
651.13	122.5
651.334	115.5
651.539	119.5
651.743	124.5
651.947	126.5
652.152	129.5
652.356	134.5
652.56	135.5
652.764	134.5
652.969	118.5
653.173	130.5
653.377	121.5
653.581	119.5
653.785	122.5
653.99	111.5
654.194	123.5
654.398	107.5
654.602	123.5
654.806	124.5
655.01	118.5
655.214	115.5
655.418	110.5
655.622	111.5
655.826	122.5
656.03	106.5
656.234	112.5
656.438	116.5
656.642	122.5
656.846	122.5
657.049	125.5
657.253	128.5
657.457	116.5
657.661	98.5
657.865	107.5
658.068	123.5
658.272	115.5
658.476	108.5
658.68	97.5
658.883	93.5
659.087	99.5
659.291	103.5
659.494	98.5
659.698	104.5
659.901	102.5
660.105	91.5
660.309	106.5
660.512	98.5
660.716	92.5
660.919	101.5
661.123	116.5
661.326	103.5
661.53	112.5
661.733	103.5
661.936	99.5
662.14	90.5
662.343	97.5
662.546	63.5
662.75	84.5
662.953	85.5
663.156	84.5
663.36	88.5
663.563	95.5
663.766	80.5
663.969	88.5
664.173	88.5
664.376	101.5
664.579	91.5
664.782	86.5
664.985	91.5
665.188	86.5
665.391	81.5
665.594	74.5
665.797	90.5
666	78.5
666.203	84.5
666.406	82.5
666.609	82.5
666.812	96.5
667.015	105.5
667.218	101.5
667.421	81.5
667.624	84.5
667.827	80.5
668.03	82.5
668.232	81.5
668.435	87.5
668.638	89.5
668.841	86.5
669.043	75.5
669.246	86.5
669.449	100.5
669.651	84.5
669.854	96.5
670.057	98.5
670.259	88.5
670.462	98.5
670.665	77.5
670.867	93.5
671.07	92.5
671.272	84.5
671.475	97.5
671.677	90.5
671.88	98.5
672.082	87.5
672.284	102.5
672.487	100.5
672.689	87.5
672.892	95.5
