Data from Fe(NO3)3@0.025M.TitratingCurve.Agarose3%dH2O.NegLispCup.LampEnergy10.LIBS07252019_HRD10591_16-56-55-336.txt Node
Date: Thu Jul 25 16:56:55 EDT 2019
User: cochatt
Spectrometer: HR+D1059
Trigger mode: 1
Integration Time (sec): 1.000000E-1
Scans to average: 1
Electric dark correction enabled: true
Nonlinearity correction enabled: false
Boxcar width: 0
XAxis mode: Wavelengths
Number of Pixels in Spectrum: 2048
>>>>>Begin Spectral Data<<<<<
223.165	6.31
223.4	6.31
223.635	6.31
223.869	-9.69
224.104	-2.69
224.338	-27.69
224.573	-17.69
224.808	-33.69
225.042	-0.69
225.277	-14.69
225.511	-8.69
225.746	0.31
225.98	7.31
226.215	10.31
226.449	16.31
226.683	30.31
226.918	24.31
227.152	20.31
227.387	41.31
227.621	45.31
227.856	43.31
228.09	31.31
228.324	41.31
228.559	54.31
228.793	59.31
229.027	80.31
229.262	87.31
229.496	75.31
229.73	82.31
229.964	82.31
230.199	81.31
230.433	96.31
230.667	90.31
230.901	96.31
231.136	96.31
231.37	107.31
231.604	95.31
231.838	84.31
232.072	101.31
232.306	90.31
232.541	97.31
232.775	93.31
233.009	103.31
233.243	92.31
233.477	90.31
233.711	100.31
233.945	103.31
234.179	108.31
234.413	89.31
234.647	81.31
234.881	88.31
235.115	103.31
235.349	93.31
235.583	111.31
235.817	85.31
236.051	101.31
236.285	93.31
236.519	97.31
236.753	105.31
236.987	123.31
237.221	107.31
237.455	104.31
237.689	104.31
237.922	90.31
238.156	103.31
238.39	95.31
238.624	94.31
238.858	93.31
239.091	96.31
239.325	82.31
239.559	118.31
239.793	105.31
240.027	97.31
240.26	98.31
240.494	90.31
240.728	109.31
240.961	99.31
241.195	104.31
241.429	101.31
241.662	109.31
241.896	97.31
242.13	123.31
242.363	117.31
242.597	110.31
242.83	99.31
243.064	115.31
243.298	106.31
243.531	111.31
243.765	111.31
243.998	123.31
244.232	104.31
244.465	121.31
244.699	121.31
244.932	127.31
245.166	122.31
245.399	123.31
245.633	118.31
245.866	107.31
246.099	120.31
246.333	102.31
246.566	113.31
246.8	111.31
247.033	129.31
247.266	115.31
247.5	121.31
247.733	103.31
247.966	113.31
248.2	113.31
248.433	144.31
248.666	135.31
248.899	115.31
249.133	117.31
249.366	119.31
249.599	136.31
249.832	123.31
250.066	120.31
250.299	121.31
250.532	125.31
250.765	124.31
250.998	116.31
251.231	135.31
251.465	121.31
251.698	123.31
251.931	122.31
252.164	127.31
252.397	143.31
252.63	136.31
252.863	128.31
253.096	121.31
253.329	131.31
253.562	138.31
253.795	137.31
254.028	145.31
254.261	136.31
254.494	146.31
254.727	140.31
254.96	117.31
255.193	132.31
255.426	135.31
255.659	135.31
255.892	150.31
256.124	128.31
256.357	142.31
256.59	151.31
256.823	154.31
257.056	147.31
257.289	132.31
257.521	134.31
257.754	135.31
257.987	133.31
258.22	137.31
258.452	142.31
258.685	151.31
258.918	141.31
259.151	138.31
259.383	132.31
259.616	154.31
259.849	155.31
260.081	151.31
260.314	143.31
260.547	142.31
260.779	165.31
261.012	148.31
261.244	138.31
261.477	151.31
261.71	142.31
261.942	144.31
262.175	150.31
262.407	158.31
262.64	159.31
262.872	144.31
263.105	137.31
263.337	155.31
263.57	152.31
263.802	150.31
264.035	158.31
264.267	162.31
264.499	144.31
264.732	181.31
264.964	145.31
265.197	151.31
265.429	143.31
265.661	149.31
265.894	144.31
266.126	166.31
266.358	151.31
266.591	178.31
266.823	157.31
267.055	159.31
267.287	160.31
267.52	166.31
267.752	154.31
267.984	168.31
268.216	167.31
268.448	184.31
268.681	170.31
268.913	182.31
269.145	168.31
269.377	175.31
269.609	154.31
269.841	160.31
270.073	155.31
270.306	164.31
270.538	184.31
270.77	165.31
271.002	177.31
271.234	192.31
271.466	168.31
271.698	174.31
271.93	180.31
272.162	182.31
272.394	159.31
272.626	187.31
272.858	181.31
273.09	189.31
273.322	181.31
273.553	176.31
273.785	173.31
274.017	182.31
274.249	198.31
274.481	187.31
274.713	179.31
274.945	189.31
275.176	199.31
275.408	176.31
275.64	189.31
275.872	178.31
276.104	173.31
276.335	181.31
276.567	181.31
276.799	194.31
277.031	186.31
277.262	176.31
277.494	197.31
277.726	207.31
277.957	195.31
278.189	202.31
278.421	190.31
278.652	197.31
278.884	192.31
279.115	196.31
279.347	196.31
279.579	181.31
279.81	197.31
280.042	210.31
280.273	200.31
280.505	194.31
280.736	189.31
280.968	199.31
281.199	209.31
281.431	210.31
281.662	203.31
281.894	206.31
282.125	203.31
282.356	195.31
282.588	197.31
282.819	209.31
283.051	190.31
283.282	200.31
283.513	209.31
283.745	217.31
283.976	214.31
284.207	207.31
284.439	226.31
284.67	200.31
284.901	226.31
285.132	210.31
285.364	211.31
285.595	207.31
285.826	220.31
286.057	213.31
286.288	217.31
286.52	195.31
286.751	203.31
286.982	238.31
287.213	234.31
287.444	229.31
287.675	216.31
287.906	216.31
288.138	217.31
288.369	229.31
288.6	225.31
288.831	233.31
289.062	243.31
289.293	231.31
289.524	223.31
289.755	244.31
289.986	225.31
290.217	224.31
290.448	225.31
290.679	223.31
290.91	230.31
291.141	228.31
291.371	227.31
291.602	230.31
291.833	237.31
292.064	224.31
292.295	234.31
292.526	215.31
292.757	232.31
292.987	219.31
293.218	216.31
293.449	232.31
293.68	239.31
293.91	243.31
294.141	221.31
294.372	224.31
294.603	223.31
294.833	218.31
295.064	225.31
295.295	225.31
295.525	231.31
295.756	211.31
295.987	237.31
296.217	239.31
296.448	238.31
296.679	244.31
296.909	231.31
297.14	247.31
297.37	246.31
297.601	244.31
297.831	226.31
298.062	245.31
298.292	255.31
298.523	249.31
298.753	257.31
298.984	255.31
299.214	238.31
299.445	254.31
299.675	252.31
299.905	257.31
300.136	249.31
300.366	253.31
300.597	250.31
300.827	257.31
301.057	242.31
301.288	268.31
301.518	261.31
301.748	248.31
301.979	264.31
302.209	282.31
302.439	241.31
302.669	258.31
302.9	269.31
303.13	271.31
303.36	256.31
303.59	265.31
303.82	261.31
304.051	271.31
304.281	263.31
304.511	276.31
304.741	263.31
304.971	262.31
305.201	254.31
305.431	263.31
305.661	246.31
305.891	267.31
306.121	272.31
306.352	275.31
306.582	275.31
306.812	262.31
307.042	288.31
307.272	277.31
307.502	257.31
307.731	269.31
307.961	282.31
308.191	274.31
308.421	271.31
308.651	261.31
308.881	269.31
309.111	256.31
309.341	272.31
309.571	270.31
309.8	278.31
310.03	285.31
310.26	243.31
310.49	271.31
310.72	268.31
310.949	271.31
311.179	279.31
311.409	272.31
311.639	268.31
311.868	281.31
312.098	277.31
312.328	260.31
312.557	291.31
312.787	282.31
313.017	289.31
313.246	271.31
313.476	288.31
313.706	291.31
313.935	281.31
314.165	277.31
314.394	296.31
314.624	299.31
314.853	302.31
315.083	282.31
315.312	286.31
315.542	288.31
315.771	278.31
316.001	268.31
316.23	295.31
316.46	283.31
316.689	284.31
316.919	289.31
317.148	286.31
317.377	307.31
317.607	279.31
317.836	289.31
318.065	292.31
318.295	303.31
318.524	304.31
318.753	296.31
318.983	296.31
319.212	301.31
319.441	300.31
319.67	305.31
319.9	293.31
320.129	301.31
320.358	288.31
320.587	295.31
320.816	298.31
321.046	294.31
321.275	310.31
321.504	281.31
321.733	287.31
321.962	298.31
322.191	316.31
322.42	303.31
322.649	306.31
322.878	323.31
323.108	289.31
323.337	315.31
323.566	305.31
323.795	314.31
324.024	312.31
324.253	281.31
324.482	319.31
324.71	299.31
324.939	322.31
325.168	306.31
325.397	314.31
325.626	320.31
325.855	314.31
326.084	314.31
326.313	315.31
326.542	313.31
326.77	331.31
326.999	314.31
327.228	312.31
327.457	308.31
327.686	311.31
327.914	314.31
328.143	317.31
328.372	321.31
328.6	332.31
328.829	337.31
329.058	321.31
329.287	336.31
329.515	330.31
329.744	337.31
329.972	328.31
330.201	347.31
330.43	327.31
330.658	326.31
330.887	329.31
331.115	334.31
331.344	311.31
331.572	338.31
331.801	338.31
332.03	346.31
332.258	344.31
332.486	343.31
332.715	338.31
332.943	348.31
333.172	378.31
333.4	365.31
333.629	380.31
333.857	382.31
334.085	374.31
334.314	368.31
334.542	365.31
334.771	377.31
334.999	384.31
335.227	372.31
335.455	374.31
335.684	372.31
335.912	370.31
336.14	381.31
336.369	374.31
336.597	372.31
336.825	362.31
337.053	358.31
337.281	369.31
337.51	358.31
337.738	375.31
337.966	344.31
338.194	330.31
338.422	356.31
338.65	368.31
338.878	362.31
339.106	344.31
339.334	359.31
339.562	354.31
339.79	347.31
340.018	338.31
340.246	347.31
340.474	366.31
340.702	349.31
340.93	347.31
341.158	344.31
341.386	335.31
341.614	340.31
341.842	353.31
342.07	346.31
342.298	333.31
342.526	355.31
342.754	353.31
342.981	358.31
343.209	363.31
343.437	362.31
343.665	380.31
343.893	371.31
344.12	383.31
344.348	378.31
344.576	358.31
344.804	381.31
345.031	341.31
345.259	335.31
345.487	340.31
345.714	353.31
345.942	329.31
346.17	343.31
346.397	335.31
346.625	345.31
346.853	313.31
347.08	341.31
347.308	349.31
347.535	326.31
347.763	324.31
347.99	317.31
348.218	344.31
348.445	333.31
348.673	361.31
348.9	351.31
349.128	332.31
349.355	348.31
349.583	337.31
349.81	352.31
350.037	360.31
350.265	352.31
350.492	340.31
350.72	320.31
350.947	325.31
351.174	325.31
351.402	331.31
351.629	331.31
351.856	321.31
352.083	340.31
352.311	325.31
352.538	320.31
352.765	326.31
352.992	342.31
353.22	325.31
353.447	334.31
353.674	339.31
353.901	330.31
354.128	316.31
354.355	311.31
354.583	330.31
354.81	331.31
355.037	335.31
355.264	330.31
355.491	336.31
355.718	318.31
355.945	331.31
356.172	327.31
356.399	322.31
356.626	321.31
356.853	330.31
357.08	340.31
357.307	331.31
357.534	320.31
357.761	328.31
357.988	344.31
358.215	338.31
358.441	337.31
358.668	318.31
358.895	334.31
359.122	334.31
359.349	341.31
359.576	336.31
359.802	335.31
360.029	345.31
360.256	333.31
360.483	337.31
360.709	320.31
360.936	339.31
361.163	353.31
361.39	336.31
361.616	351.31
361.843	349.31
362.07	341.31
362.296	360.31
362.523	347.31
362.749	354.31
362.976	338.31
363.203	353.31
363.429	322.31
363.656	352.31
363.882	346.31
364.109	346.31
364.335	343.31
364.562	339.31
364.788	332.31
365.015	331.31
365.241	338.31
365.468	355.31
365.694	326.31
365.92	343.31
366.147	331.31
366.373	327.31
366.599	348.31
366.826	336.31
367.052	356.31
367.278	342.31
367.505	349.31
367.731	352.31
367.957	342.31
368.184	359.31
368.41	342.31
368.636	349.31
368.862	354.31
369.089	354.31
369.315	350.31
369.541	346.31
369.767	351.31
369.993	362.31
370.219	354.31
370.445	360.31
370.672	354.31
370.898	350.31
371.124	367.31
371.35	365.31
371.576	343.31
371.802	356.31
372.028	367.31
372.254	372.31
372.48	345.31
372.706	384.31
372.932	383.31
373.158	382.31
373.384	360.31
373.61	375.31
373.835	359.31
374.061	353.31
374.287	363.31
374.513	372.31
374.739	371.31
374.965	370.31
375.191	380.31
375.416	376.31
375.642	371.31
375.868	383.31
376.094	376.31
376.319	377.31
376.545	368.31
376.771	370.31
376.997	354.31
377.222	357.31
377.448	359.31
377.674	380.31
377.899	361.31
378.125	363.31
378.35	374.31
378.576	352.31
378.802	355.31
379.027	376.31
379.253	363.31
379.478	365.31
379.704	377.31
379.929	370.31
380.155	362.31
380.38	354.31
380.606	370.31
380.831	359.31
381.057	391.31
381.282	386.31
381.507	380.31
381.733	383.31
381.958	375.31
382.184	374.31
382.409	387.31
382.634	376.31
382.86	386.31
383.085	373.31
383.31	386.31
383.535	384.31
383.761	393.31
383.986	396.31
384.211	404.31
384.436	375.31
384.662	390.31
384.887	389.31
385.112	396.31
385.337	408.31
385.562	403.31
385.787	411.31
386.013	425.31
386.238	385.31
386.463	392.31
386.688	405.31
386.913	421.31
387.138	395.31
387.363	420.31
387.588	414.31
387.813	417.31
388.038	406.31
388.263	437.31
388.488	448.31
388.713	422.31
388.938	417.31
389.163	416.31
389.387	422.31
389.612	410.31
389.837	433.31
390.062	438.31
390.287	437.31
390.512	416.31
390.736	429.31
390.961	439.31
391.186	445.31
391.411	438.31
391.636	446.31
391.86	427.31
392.085	434.31
392.31	460.31
392.534	446.31
392.759	456.31
392.984	441.31
393.208	431.31
393.433	434.31
393.658	433.31
393.882	441.31
394.107	470.31
394.331	471.31
394.556	457.31
394.78	459.31
395.005	440.31
395.229	441.31
395.454	452.31
395.678	433.31
395.903	469.31
396.127	459.31
396.352	449.31
396.576	448.31
396.801	445.31
397.025	459.31
397.249	467.31
397.474	464.31
397.698	479.31
397.922	467.31
398.147	478.31
398.371	463.31
398.595	497.31
398.82	527.31
399.044	537.31
399.268	565.31
399.492	586.31
399.717	602.31
399.941	607.31
400.165	578.31
400.389	576.31
400.613	531.31
400.837	537.31
401.062	508.31
401.286	520.31
401.51	493.31
401.734	499.31
401.958	502.31
402.182	513.31
402.406	500.31
402.63	496.31
402.854	493.31
403.078	503.31
403.302	511.31
403.526	495.31
403.75	527.31
403.974	515.31
404.198	513.31
404.422	530.31
404.645	547.31
404.869	513.31
405.093	522.31
405.317	526.31
405.541	531.31
405.765	505.31
405.988	510.31
406.212	532.31
406.436	525.31
406.66	516.31
406.883	534.31
407.107	573.31
407.331	573.31
407.555	569.31
407.778	584.31
408.002	535.31
408.226	541.31
408.449	557.31
408.673	555.31
408.896	551.31
409.12	555.31
409.344	507.31
409.567	509.31
409.791	541.31
410.014	545.31
410.238	521.31
410.461	523.31
410.685	511.31
410.908	517.31
411.132	530.31
411.355	501.31
411.578	486.31
411.802	511.31
412.025	490.31
412.249	506.31
412.472	510.31
412.695	504.31
412.919	505.31
413.142	498.31
413.365	529.31
413.589	511.31
413.812	523.31
414.035	498.31
414.258	502.31
414.482	487.31
414.705	509.31
414.928	498.31
415.151	486.31
415.374	497.31
415.597	499.31
415.821	467.31
416.044	477.31
416.267	478.31
416.49	496.31
416.713	489.31
416.936	477.31
417.159	497.31
417.382	477.31
417.605	458.31
417.828	465.31
418.051	478.31
418.274	447.31
418.497	459.31
418.72	474.31
418.943	487.31
419.166	509.31
419.389	506.31
419.611	517.31
419.834	501.31
420.057	504.31
420.28	478.31
420.503	469.31
420.726	462.31
420.948	475.31
421.171	483.31
421.394	489.31
421.617	463.31
421.839	504.31
422.062	485.31
422.285	441.31
422.507	454.31
422.73	463.31
422.953	458.31
423.175	475.31
423.398	471.31
423.621	485.31
423.843	482.31
424.066	470.31
424.288	451.31
424.511	485.31
424.733	446.31
424.956	474.31
425.178	472.31
425.401	484.31
425.623	475.31
425.846	463.31
426.068	467.31
426.291	464.31
426.513	444.31
426.735	482.31
426.958	463.31
427.18	427.31
427.402	444.31
427.625	457.31
427.847	448.31
428.069	430.31
428.292	448.31
428.514	437.31
428.736	423.31
428.958	440.31
429.181	453.31
429.403	447.31
429.625	439.31
429.847	439.31
430.069	439.31
430.292	442.31
430.514	421.31
430.736	444.31
430.958	449.31
431.18	442.31
431.402	439.31
431.624	410.31
431.846	442.31
432.068	443.31
432.29	445.31
432.512	439.31
432.734	465.31
432.956	455.31
433.178	449.31
433.4	447.31
433.622	439.31
433.844	463.31
434.066	445.31
434.287	477.31
434.509	450.31
434.731	480.31
434.953	478.31
435.175	454.31
435.397	479.31
435.618	451.31
435.84	464.31
436.062	448.31
436.284	451.31
436.505	417.31
436.727	438.31
436.949	448.31
437.17	443.31
437.392	439.31
437.614	436.31
437.835	438.31
438.057	418.31
438.278	416.31
438.5	418.31
438.721	416.31
438.943	443.31
439.165	432.31
439.386	418.31
439.608	438.31
439.829	439.31
440.05	441.31
440.272	443.31
440.493	439.31
440.715	433.31
440.936	454.31
441.158	442.31
441.379	460.31
441.6	453.31
441.822	460.31
442.043	440.31
442.264	441.31
442.486	459.31
442.707	448.31
442.928	469.31
443.149	463.31
443.371	445.31
443.592	456.31
443.813	478.31
444.034	483.31
444.255	486.31
444.476	467.31
444.698	480.31
444.919	500.31
445.14	592.31
445.361	515.31
445.582	481.31
445.803	451.31
446.024	436.31
446.245	439.31
446.466	450.31
446.687	440.31
446.908	433.31
447.129	431.31
447.35	405.31
447.571	413.31
447.792	405.31
448.013	392.31
448.234	404.31
448.455	419.31
448.675	406.31
448.896	405.31
449.117	393.31
449.338	404.31
449.559	401.31
449.779	407.31
450	399.31
450.221	399.31
450.442	386.31
450.662	419.31
450.883	401.31
451.104	421.31
451.324	403.31
451.545	405.31
451.766	401.31
451.986	413.31
452.207	387.31
452.428	398.31
452.648	404.31
452.869	378.31
453.089	386.31
453.31	398.31
453.53	380.31
453.751	399.31
453.971	390.31
454.192	381.31
454.412	374.31
454.633	379.31
454.853	369.31
455.073	375.31
455.294	391.31
455.514	369.31
455.734	368.31
455.955	371.31
456.175	383.31
456.395	404.31
456.616	371.31
456.836	374.31
457.056	382.31
457.276	370.31
457.497	378.31
457.717	390.31
457.937	369.31
458.157	384.31
458.377	382.31
458.598	405.31
458.818	418.31
459.038	402.31
459.258	434.31
459.478	441.31
459.698	431.31
459.918	431.31
460.138	456.31
460.358	461.31
460.578	468.31
460.798	466.31
461.018	469.31
461.238	483.31
461.458	513.31
461.678	477.31
461.898	486.31
462.118	465.31
462.338	513.31
462.558	507.31
462.777	505.31
462.997	540.31
463.217	550.31
463.437	547.31
463.657	542.31
463.876	505.31
464.096	540.31
464.316	522.31
464.536	521.31
464.755	528.31
464.975	477.31
465.195	473.31
465.414	448.31
465.634	465.31
465.854	427.31
466.073	447.31
466.293	422.31
466.512	430.31
466.732	427.31
466.951	426.31
467.171	428.31
467.391	423.31
467.61	425.31
467.829	439.31
468.049	412.31
468.268	417.31
468.488	407.31
468.707	422.31
468.927	426.31
469.146	423.31
469.365	422.31
469.585	411.31
469.804	409.31
470.023	398.31
470.243	415.31
470.462	419.31
470.681	429.31
470.901	433.31
471.12	421.31
471.339	411.31
471.558	436.31
471.777	413.31
471.997	419.31
472.216	424.31
472.435	429.31
472.654	404.31
472.873	421.31
473.092	432.31
473.311	424.31
473.53	422.31
473.749	388.31
473.968	431.31
474.187	395.31
474.406	418.31
474.625	408.31
474.844	408.31
475.063	426.31
475.282	417.31
475.501	409.31
475.72	431.31
475.939	413.31
476.158	418.31
476.377	440.31
476.596	437.31
476.814	442.31
477.033	437.31
477.252	449.31
477.471	472.31
477.69	473.31
477.908	478.31
478.127	490.31
478.346	477.31
478.564	494.31
478.783	472.31
479.002	476.31
479.22	485.31
479.439	505.31
479.658	491.31
479.876	509.31
480.095	511.31
480.313	527.31
480.532	527.31
480.751	502.31
480.969	495.31
481.188	513.31
481.406	488.31
481.624	496.31
481.843	508.31
482.061	501.31
482.28	499.31
482.498	492.31
482.717	497.31
482.935	503.31
483.153	509.31
483.372	494.31
483.59	500.31
483.808	491.31
484.027	501.31
484.245	516.31
484.463	512.31
484.681	501.31
484.9	488.31
485.118	523.31
485.336	489.31
485.554	507.31
485.772	537.31
485.99	490.31
486.209	491.31
486.427	521.31
486.645	524.31
486.863	505.31
487.081	503.31
487.299	509.31
487.517	519.31
487.735	498.31
487.953	525.31
488.171	527.31
488.389	522.31
488.607	513.31
488.825	479.31
489.043	521.31
489.261	505.31
489.479	493.31
489.696	492.31
489.914	510.31
490.132	503.31
490.35	518.31
490.568	508.31
490.786	523.31
491.003	490.31
491.221	521.31
491.439	492.31
491.657	483.31
491.874	517.31
492.092	524.31
492.31	517.31
492.527	510.31
492.745	498.31
492.963	520.31
493.18	515.31
493.398	527.31
493.615	528.31
493.833	514.31
494.05	517.31
494.268	527.31
494.485	533.31
494.703	528.31
494.92	513.31
495.138	524.31
495.355	540.31
495.573	538.31
495.79	533.31
496.008	553.31
496.225	563.31
496.442	560.31
496.66	551.31
496.877	561.31
497.094	559.31
497.312	602.31
497.529	579.31
497.746	606.31
497.963	607.31
498.181	629.31
498.398	645.31
498.615	663.31
498.832	698.31
499.049	727.31
499.267	791.31
499.484	829.31
499.701	862.31
499.918	902.31
500.135	947.31
500.352	981.31
500.569	989.31
500.786	989.31
501.003	961.31
501.22	930.31
501.437	884.31
501.654	816.31
501.871	771.31
502.088	731.31
502.305	704.31
502.522	686.31
502.739	671.31
502.956	648.31
503.172	616.31
503.389	618.31
503.606	596.31
503.823	593.31
504.04	588.31
504.256	569.31
504.473	560.31
504.69	586.31
504.907	579.31
505.123	559.31
505.34	535.31
505.557	523.31
505.773	517.31
505.99	518.31
506.207	505.31
506.423	488.31
506.64	488.31
506.856	512.31
507.073	461.31
507.289	467.31
507.506	465.31
507.722	455.31
507.939	464.31
508.155	453.31
508.372	447.31
508.588	444.31
508.805	457.31
509.021	443.31
509.238	450.31
509.454	426.31
509.67	453.31
509.887	437.31
510.103	435.31
510.319	452.31
510.536	422.31
510.752	427.31
510.968	433.31
511.184	408.31
511.401	440.31
511.617	420.31
511.833	424.31
512.049	414.31
512.265	418.31
512.481	441.31
512.698	449.31
512.914	441.31
513.13	434.31
513.346	435.31
513.562	440.31
513.778	438.31
513.994	445.31
514.21	421.31
514.426	435.31
514.642	437.31
514.858	422.31
515.074	434.31
515.29	446.31
515.506	449.31
515.721	457.31
515.937	438.31
516.153	445.31
516.369	452.31
516.585	468.31
516.801	469.31
517.016	498.31
517.232	486.31
517.448	502.31
517.664	499.31
517.879	504.31
518.095	507.31
518.311	499.31
518.527	491.31
518.742	501.31
518.958	464.31
519.173	469.31
519.389	469.31
519.605	442.31
519.82	455.31
520.036	451.31
520.251	445.31
520.467	445.31
520.682	441.31
520.898	440.31
521.113	422.31
521.329	434.31
521.544	413.31
521.76	417.31
521.975	417.31
522.19	434.31
522.406	417.31
522.621	421.31
522.836	412.31
523.052	381.31
523.267	394.31
523.482	401.31
523.698	378.31
523.913	407.31
524.128	389.31
524.343	395.31
524.559	423.31
524.774	407.31
524.989	408.31
525.204	381.31
525.419	395.31
525.634	383.31
525.849	393.31
526.064	385.31
526.28	408.31
526.495	367.31
526.71	379.31
526.925	389.31
527.14	373.31
527.355	386.31
527.57	370.31
527.785	387.31
527.999	382.31
528.214	361.31
528.429	374.31
528.644	379.31
528.859	376.31
529.074	385.31
529.289	385.31
529.503	396.31
529.718	397.31
529.933	379.31
530.148	388.31
530.363	381.31
530.577	391.31
530.792	388.31
531.007	395.31
531.221	401.31
531.436	368.31
531.651	382.31
531.865	390.31
532.08	390.31
532.295	379.31
532.509	384.31
532.724	347.31
532.938	394.31
533.153	381.31
533.367	402.31
533.582	389.31
533.796	373.31
534.011	375.31
534.225	387.31
534.44	375.31
534.654	370.31
534.868	351.31
535.083	356.31
535.297	375.31
535.511	368.31
535.726	365.31
535.94	383.31
536.154	362.31
536.369	359.31
536.583	365.31
536.797	362.31
537.011	385.31
537.225	357.31
537.44	352.31
537.654	372.31
537.868	360.31
538.082	361.31
538.296	367.31
538.51	378.31
538.724	366.31
538.938	361.31
539.153	335.31
539.367	370.31
539.581	347.31
539.795	363.31
540.009	373.31
540.222	357.31
540.436	339.31
540.65	366.31
540.864	334.31
541.078	347.31
541.292	369.31
541.506	363.31
541.72	348.31
541.934	365.31
542.147	359.31
542.361	343.31
542.575	342.31
542.789	345.31
543.002	354.31
543.216	350.31
543.43	354.31
543.644	351.31
543.857	362.31
544.071	335.31
544.285	352.31
544.498	357.31
544.712	343.31
544.925	344.31
545.139	350.31
545.352	362.31
545.566	341.31
545.779	332.31
545.993	364.31
546.206	378.31
546.42	343.31
546.633	348.31
546.847	360.31
547.06	354.31
547.274	353.31
547.487	373.31
547.7	353.31
547.914	367.31
548.127	356.31
548.34	359.31
548.554	373.31
548.767	383.31
548.98	362.31
549.193	354.31
549.407	355.31
549.62	354.31
549.833	394.31
550.046	391.31
550.259	350.31
550.473	355.31
550.686	365.31
550.899	360.31
551.112	358.31
551.325	342.31
551.538	357.31
551.751	346.31
551.964	336.31
552.177	360.31
552.39	357.31
552.603	369.31
552.816	378.31
553.029	350.31
553.242	385.31
553.455	374.31
553.667	377.31
553.88	366.31
554.093	356.31
554.306	326.31
554.519	358.31
554.732	355.31
554.944	360.31
555.157	348.31
555.37	335.31
555.583	337.31
555.795	338.31
556.008	316.31
556.221	334.31
556.433	330.31
556.646	327.31
556.859	315.31
557.071	327.31
557.284	320.31
557.496	317.31
557.709	307.31
557.921	321.31
558.134	329.31
558.346	317.31
558.559	315.31
558.771	324.31
558.984	325.31
559.196	303.31
559.409	324.31
559.621	309.31
559.833	305.31
560.046	293.31
560.258	307.31
560.47	293.31
560.683	307.31
560.895	296.31
561.107	328.31
561.32	307.31
561.532	325.31
561.744	310.31
561.956	326.31
562.168	293.31
562.381	314.31
562.593	304.31
562.805	329.31
563.017	320.31
563.229	311.31
563.441	315.31
563.653	308.31
563.865	320.31
564.077	334.31
564.289	326.31
564.501	329.31
564.713	319.31
564.925	327.31
565.137	320.31
565.349	340.31
565.561	362.31
565.773	354.31
565.985	356.31
566.197	369.31
566.408	377.31
566.62	405.31
566.832	399.31
567.044	411.31
567.255	419.31
567.467	424.31
567.679	421.31
567.891	403.31
568.102	431.31
568.314	416.31
568.526	407.31
568.737	371.31
568.949	350.31
569.161	371.31
569.372	349.31
569.584	343.31
569.795	322.31
570.007	338.31
570.218	290.31
570.43	293.31
570.641	305.31
570.853	320.31
571.064	303.31
571.276	316.31
571.487	307.31
571.698	305.31
571.91	287.31
572.121	279.31
572.333	288.31
572.544	271.31
572.755	283.31
572.966	287.31
573.178	267.31
573.389	281.31
573.6	282.31
573.811	257.31
574.023	276.31
574.234	273.31
574.445	266.31
574.656	263.31
574.867	262.31
575.078	249.31
575.289	258.31
575.501	259.31
575.712	254.31
575.923	258.31
576.134	258.31
576.345	257.31
576.556	260.31
576.767	243.31
576.978	260.31
577.188	257.31
577.399	254.31
577.61	254.31
577.821	234.31
578.032	244.31
578.243	242.31
578.454	254.31
578.665	224.31
578.875	244.31
579.086	233.31
579.297	225.31
579.508	258.31
579.718	236.31
579.929	231.31
580.14	235.31
580.35	237.31
580.561	242.31
580.772	261.31
580.982	222.31
581.193	219.31
581.403	218.31
581.614	217.31
581.825	217.31
582.035	232.31
582.246	216.31
582.456	231.31
582.667	237.31
582.877	205.31
583.087	218.31
583.298	227.31
583.508	210.31
583.719	229.31
583.929	234.31
584.139	234.31
584.35	208.31
584.56	230.31
584.77	213.31
584.981	218.31
585.191	222.31
585.401	233.31
585.611	227.31
585.821	220.31
586.032	221.31
586.242	220.31
586.452	219.31
586.662	206.31
586.872	212.31
587.082	219.31
587.292	220.31
587.502	238.31
587.713	216.31
587.923	232.31
588.133	210.31
588.343	215.31
588.553	232.31
588.762	233.31
588.972	208.31
589.182	230.31
589.392	230.31
589.602	236.31
589.812	209.31
590.022	210.31
590.232	219.31
590.441	199.31
590.651	221.31
590.861	203.31
591.071	222.31
591.281	226.31
591.49	233.31
591.7	232.31
591.91	243.31
592.119	228.31
592.329	255.31
592.539	239.31
592.748	257.31
592.958	245.31
593.167	237.31
593.377	242.31
593.587	237.31
593.796	238.31
594.006	222.31
594.215	249.31
594.424	248.31
594.634	231.31
594.843	232.31
595.053	229.31
595.262	226.31
595.472	223.31
595.681	223.31
595.89	222.31
596.1	217.31
596.309	230.31
596.518	216.31
596.727	218.31
596.937	206.31
597.146	209.31
597.355	197.31
597.564	195.31
597.774	177.31
597.983	196.31
598.192	189.31
598.401	198.31
598.61	203.31
598.819	212.31
599.028	191.31
599.237	195.31
599.446	190.31
599.655	183.31
599.864	183.31
600.073	190.31
600.282	202.31
600.491	191.31
600.7	198.31
600.909	200.31
601.118	191.31
601.327	202.31
601.536	181.31
601.745	197.31
601.953	205.31
602.162	196.31
602.371	190.31
602.58	188.31
602.789	191.31
602.997	190.31
603.206	186.31
603.415	189.31
603.623	187.31
603.832	195.31
604.041	189.31
604.249	167.31
604.458	176.31
604.666	177.31
604.875	196.31
605.084	186.31
605.292	193.31
605.501	192.31
605.709	187.31
605.918	185.31
606.126	185.31
606.334	193.31
606.543	181.31
606.751	192.31
606.96	184.31
607.168	183.31
607.376	178.31
607.585	168.31
607.793	186.31
608.001	191.31
608.21	190.31
608.418	182.31
608.626	173.31
608.834	173.31
609.043	162.31
609.251	177.31
609.459	189.31
609.667	182.31
609.875	185.31
610.083	179.31
610.291	197.31
610.499	169.31
610.707	167.31
610.916	170.31
611.124	187.31
611.332	191.31
611.54	177.31
611.748	158.31
611.955	168.31
612.163	177.31
612.371	152.31
612.579	189.31
612.787	181.31
612.995	175.31
613.203	167.31
613.411	184.31
613.618	153.31
613.826	180.31
614.034	179.31
614.242	155.31
614.449	167.31
614.657	176.31
614.865	151.31
615.072	182.31
615.28	181.31
615.488	169.31
615.695	179.31
615.903	160.31
616.111	173.31
616.318	167.31
616.526	182.31
616.733	183.31
616.941	171.31
617.148	182.31
617.356	173.31
617.563	184.31
617.771	158.31
617.978	186.31
618.185	171.31
618.393	179.31
618.6	165.31
618.807	168.31
619.015	184.31
619.222	176.31
619.429	158.31
619.637	163.31
619.844	162.31
620.051	176.31
620.258	161.31
620.466	169.31
620.673	177.31
620.88	187.31
621.087	167.31
621.294	170.31
621.501	157.31
621.708	178.31
621.915	167.31
622.122	153.31
622.329	182.31
622.536	161.31
622.743	156.31
622.95	161.31
623.157	147.31
623.364	158.31
623.571	168.31
623.778	157.31
623.985	161.31
624.192	161.31
624.399	164.31
624.606	166.31
624.812	163.31
625.019	170.31
625.226	154.31
625.433	179.31
625.639	165.31
625.846	155.31
626.053	162.31
626.259	165.31
626.466	171.31
626.673	164.31
626.879	166.31
627.086	159.31
627.293	155.31
627.499	152.31
627.706	163.31
627.912	169.31
628.119	162.31
628.325	144.31
628.532	147.31
628.738	160.31
628.945	163.31
629.151	156.31
629.357	149.31
629.564	148.31
629.77	148.31
629.976	152.31
630.183	150.31
630.389	150.31
630.595	159.31
630.802	151.31
631.008	147.31
631.214	163.31
631.42	173.31
631.627	149.31
631.833	148.31
632.039	159.31
632.245	160.31
632.451	157.31
632.657	157.31
632.863	159.31
633.069	155.31
633.275	138.31
633.481	148.31
633.688	166.31
633.893	147.31
634.099	166.31
634.305	146.31
634.511	154.31
634.717	151.31
634.923	144.31
635.129	148.31
635.335	149.31
635.541	145.31
635.747	144.31
635.952	161.31
636.158	159.31
636.364	150.31
636.57	158.31
636.775	147.31
636.981	148.31
637.187	147.31
637.392	149.31
637.598	138.31
637.804	138.31
638.009	141.31
638.215	133.31
638.421	144.31
638.626	151.31
638.832	139.31
639.037	149.31
639.243	143.31
639.448	134.31
639.654	144.31
639.859	138.31
640.065	166.31
640.27	154.31
640.475	135.31
640.681	143.31
640.886	157.31
641.091	133.31
641.297	144.31
641.502	152.31
641.707	139.31
641.913	144.31
642.118	145.31
642.323	133.31
642.528	134.31
642.733	150.31
642.939	139.31
643.144	137.31
643.349	143.31
643.554	145.31
643.759	145.31
643.964	146.31
644.169	145.31
644.374	142.31
644.579	133.31
644.784	147.31
644.989	141.31
645.194	131.31
645.399	134.31
645.604	166.31
645.809	153.31
646.014	152.31
646.219	155.31
646.423	149.31
646.628	153.31
646.833	131.31
647.038	157.31
647.243	136.31
647.447	148.31
647.652	148.31
647.857	145.31
648.062	129.31
648.266	162.31
648.471	158.31
648.676	143.31
648.88	153.31
649.085	158.31
649.289	153.31
649.494	140.31
649.698	156.31
649.903	149.31
650.107	159.31
650.312	144.31
650.516	149.31
650.721	148.31
650.925	150.31
651.13	138.31
651.334	127.31
651.539	142.31
651.743	131.31
651.947	132.31
652.152	150.31
652.356	132.31
652.56	155.31
652.764	158.31
652.969	146.31
653.173	140.31
653.377	159.31
653.581	146.31
653.785	161.31
653.99	149.31
654.194	162.31
654.398	155.31
654.602	151.31
654.806	158.31
655.01	157.31
655.214	176.31
655.418	149.31
655.622	151.31
655.826	155.31
656.03	169.31
656.234	174.31
656.438	175.31
656.642	177.31
656.846	174.31
657.049	175.31
657.253	167.31
657.457	147.31
657.661	149.31
657.865	139.31
658.068	147.31
658.272	125.31
658.476	121.31
658.68	130.31
658.883	116.31
659.087	131.31
659.291	124.31
659.494	112.31
659.698	100.31
659.901	109.31
660.105	96.31
660.309	106.31
660.512	111.31
660.716	98.31
660.919	107.31
661.123	98.31
661.326	93.31
661.53	78.31
661.733	95.31
661.936	100.31
662.14	91.31
662.343	81.31
662.546	90.31
662.75	82.31
662.953	76.31
663.156	78.31
663.36	75.31
663.563	71.31
663.766	89.31
663.969	80.31
664.173	85.31
664.376	95.31
664.579	81.31
664.782	92.31
664.985	85.31
665.188	80.31
665.391	73.31
665.594	81.31
665.797	82.31
666	78.31
666.203	81.31
666.406	81.31
666.609	73.31
666.812	86.31
667.015	83.31
667.218	69.31
667.421	90.31
667.624	84.31
667.827	67.31
668.03	87.31
668.232	80.31
668.435	72.31
668.638	78.31
668.841	69.31
669.043	84.31
669.246	68.31
669.449	92.31
669.651	79.31
669.854	65.31
670.057	83.31
670.259	67.31
670.462	80.31
670.665	75.31
670.867	66.31
671.07	84.31
671.272	99.31
671.475	81.31
671.677	82.31
671.88	82.31
672.082	77.31
672.284	75.31
672.487	83.31
672.689	91.31
672.892	88.31
