Data from Fe(NO3)3@0.1M.TitratingCurve.Agarose3%dH2O.NegLispCup.LampEnergy10.LIBS07252019_HRD10591_16-39-52-332.txt Node
Date: Thu Jul 25 16:39:52 EDT 2019
User: cochatt
Spectrometer: HR+D1059
Trigger mode: 1
Integration Time (sec): 1.000000E-1
Scans to average: 1
Electric dark correction enabled: true
Nonlinearity correction enabled: false
Boxcar width: 0
XAxis mode: Wavelengths
Number of Pixels in Spectrum: 2048
>>>>>Begin Spectral Data<<<<<
223.165	-23.88
223.4	-23.88
223.635	-23.88
223.869	-16.88
224.104	-8.88
224.338	-7.88
224.573	-12.88
224.808	-19.88
225.042	-10.88
225.277	-8.88
225.511	-8.88
225.746	5.12
225.98	17.12
226.215	10.12
226.449	21.12
226.683	14.12
226.918	18.12
227.152	33.12
227.387	44.12
227.621	40.12
227.856	50.12
228.09	42.12
228.324	51.12
228.559	59.12
228.793	65.12
229.027	87.12
229.262	86.12
229.496	90.12
229.73	83.12
229.964	110.12
230.199	94.12
230.433	94.12
230.667	108.12
230.901	116.12
231.136	105.12
231.37	116.12
231.604	106.12
231.838	102.12
232.072	111.12
232.306	115.12
232.541	115.12
232.775	123.12
233.009	118.12
233.243	105.12
233.477	99.12
233.711	113.12
233.945	116.12
234.179	121.12
234.413	124.12
234.647	106.12
234.881	139.12
235.115	130.12
235.349	128.12
235.583	123.12
235.817	118.12
236.051	106.12
236.285	126.12
236.519	120.12
236.753	124.12
236.987	113.12
237.221	145.12
237.455	134.12
237.689	123.12
237.922	128.12
238.156	120.12
238.39	126.12
238.624	117.12
238.858	139.12
239.091	129.12
239.325	115.12
239.559	135.12
239.793	129.12
240.027	127.12
240.26	133.12
240.494	136.12
240.728	131.12
240.961	120.12
241.195	143.12
241.429	123.12
241.662	144.12
241.896	130.12
242.13	125.12
242.363	138.12
242.597	132.12
242.83	134.12
243.064	145.12
243.298	146.12
243.531	143.12
243.765	157.12
243.998	144.12
244.232	139.12
244.465	138.12
244.699	139.12
244.932	156.12
245.166	149.12
245.399	152.12
245.633	156.12
245.866	142.12
246.099	149.12
246.333	153.12
246.566	134.12
246.8	159.12
247.033	146.12
247.266	163.12
247.5	157.12
247.733	150.12
247.966	169.12
248.2	164.12
248.433	161.12
248.666	154.12
248.899	146.12
249.133	155.12
249.366	170.12
249.599	166.12
249.832	177.12
250.066	155.12
250.299	162.12
250.532	177.12
250.765	172.12
250.998	163.12
251.231	177.12
251.465	173.12
251.698	166.12
251.931	161.12
252.164	186.12
252.397	172.12
252.63	179.12
252.863	172.12
253.096	171.12
253.329	178.12
253.562	166.12
253.795	175.12
254.028	175.12
254.261	165.12
254.494	183.12
254.727	194.12
254.96	172.12
255.193	192.12
255.426	186.12
255.659	175.12
255.892	203.12
256.124	175.12
256.357	175.12
256.59	177.12
256.823	195.12
257.056	188.12
257.289	205.12
257.521	199.12
257.754	187.12
257.987	195.12
258.22	193.12
258.452	188.12
258.685	183.12
258.918	197.12
259.151	178.12
259.383	197.12
259.616	192.12
259.849	211.12
260.081	205.12
260.314	209.12
260.547	186.12
260.779	192.12
261.012	204.12
261.244	197.12
261.477	201.12
261.71	210.12
261.942	223.12
262.175	209.12
262.407	201.12
262.64	195.12
262.872	202.12
263.105	215.12
263.337	219.12
263.57	207.12
263.802	218.12
264.035	225.12
264.267	206.12
264.499	222.12
264.732	216.12
264.964	216.12
265.197	211.12
265.429	225.12
265.661	216.12
265.894	224.12
266.126	231.12
266.358	202.12
266.591	208.12
266.823	232.12
267.055	233.12
267.287	218.12
267.52	226.12
267.752	223.12
267.984	225.12
268.216	212.12
268.448	226.12
268.681	224.12
268.913	229.12
269.145	224.12
269.377	228.12
269.609	216.12
269.841	228.12
270.073	230.12
270.306	227.12
270.538	227.12
270.77	248.12
271.002	246.12
271.234	228.12
271.466	232.12
271.698	234.12
271.93	233.12
272.162	216.12
272.394	248.12
272.626	247.12
272.858	233.12
273.09	241.12
273.322	268.12
273.553	246.12
273.785	254.12
274.017	251.12
274.249	264.12
274.481	249.12
274.713	248.12
274.945	265.12
275.176	260.12
275.408	254.12
275.64	256.12
275.872	248.12
276.104	274.12
276.335	257.12
276.567	264.12
276.799	261.12
277.031	262.12
277.262	266.12
277.494	247.12
277.726	263.12
277.957	276.12
278.189	251.12
278.421	268.12
278.652	257.12
278.884	264.12
279.115	270.12
279.347	280.12
279.579	276.12
279.81	282.12
280.042	279.12
280.273	279.12
280.505	256.12
280.736	281.12
280.968	269.12
281.199	282.12
281.431	284.12
281.662	267.12
281.894	284.12
282.125	286.12
282.356	275.12
282.588	273.12
282.819	264.12
283.051	293.12
283.282	280.12
283.513	298.12
283.745	292.12
283.976	289.12
284.207	292.12
284.439	309.12
284.67	312.12
284.901	292.12
285.132	300.12
285.364	292.12
285.595	291.12
285.826	292.12
286.057	304.12
286.288	287.12
286.52	303.12
286.751	300.12
286.982	309.12
287.213	309.12
287.444	312.12
287.675	289.12
287.906	300.12
288.138	299.12
288.369	298.12
288.6	320.12
288.831	303.12
289.062	321.12
289.293	310.12
289.524	331.12
289.755	321.12
289.986	313.12
290.217	306.12
290.448	308.12
290.679	306.12
290.91	288.12
291.141	311.12
291.371	331.12
291.602	314.12
291.833	305.12
292.064	303.12
292.295	308.12
292.526	296.12
292.757	299.12
292.987	300.12
293.218	301.12
293.449	308.12
293.68	298.12
293.91	325.12
294.141	300.12
294.372	314.12
294.603	323.12
294.833	329.12
295.064	321.12
295.295	300.12
295.525	316.12
295.756	325.12
295.987	316.12
296.217	345.12
296.448	324.12
296.679	329.12
296.909	332.12
297.14	326.12
297.37	328.12
297.601	329.12
297.831	328.12
298.062	332.12
298.292	332.12
298.523	331.12
298.753	356.12
298.984	339.12
299.214	326.12
299.445	328.12
299.675	328.12
299.905	332.12
300.136	340.12
300.366	344.12
300.597	354.12
300.827	331.12
301.057	329.12
301.288	352.12
301.518	332.12
301.748	371.12
301.979	354.12
302.209	332.12
302.439	358.12
302.669	350.12
302.9	345.12
303.13	356.12
303.36	345.12
303.59	332.12
303.82	374.12
304.051	360.12
304.281	357.12
304.511	373.12
304.741	364.12
304.971	343.12
305.201	376.12
305.431	361.12
305.661	367.12
305.891	347.12
306.121	355.12
306.352	351.12
306.582	347.12
306.812	338.12
307.042	348.12
307.272	336.12
307.502	358.12
307.731	340.12
307.961	335.12
308.191	346.12
308.421	374.12
308.651	343.12
308.881	357.12
309.111	341.12
309.341	367.12
309.571	342.12
309.8	335.12
310.03	352.12
310.26	360.12
310.49	357.12
310.72	353.12
310.949	337.12
311.179	348.12
311.409	357.12
311.639	340.12
311.868	369.12
312.098	365.12
312.328	387.12
312.557	372.12
312.787	367.12
313.017	380.12
313.246	363.12
313.476	360.12
313.706	361.12
313.935	372.12
314.165	369.12
314.394	378.12
314.624	401.12
314.853	372.12
315.083	375.12
315.312	369.12
315.542	378.12
315.771	375.12
316.001	371.12
316.23	369.12
316.46	372.12
316.689	372.12
316.919	358.12
317.148	385.12
317.377	369.12
317.607	363.12
317.836	356.12
318.065	377.12
318.295	373.12
318.524	353.12
318.753	349.12
318.983	362.12
319.212	361.12
319.441	381.12
319.67	372.12
319.9	377.12
320.129	359.12
320.358	369.12
320.587	382.12
320.816	381.12
321.046	379.12
321.275	389.12
321.504	383.12
321.733	370.12
321.962	377.12
322.191	365.12
322.42	363.12
322.649	383.12
322.878	374.12
323.108	377.12
323.337	377.12
323.566	376.12
323.795	382.12
324.024	377.12
324.253	376.12
324.482	377.12
324.71	386.12
324.939	391.12
325.168	388.12
325.397	373.12
325.626	388.12
325.855	394.12
326.084	398.12
326.313	393.12
326.542	402.12
326.77	416.12
326.999	409.12
327.228	403.12
327.457	409.12
327.686	387.12
327.914	410.12
328.143	406.12
328.372	413.12
328.6	404.12
328.829	425.12
329.058	423.12
329.287	411.12
329.515	391.12
329.744	413.12
329.972	419.12
330.201	431.12
330.43	436.12
330.658	411.12
330.887	415.12
331.115	440.12
331.344	419.12
331.572	444.12
331.801	460.12
332.03	446.12
332.258	452.12
332.486	456.12
332.715	478.12
332.943	476.12
333.172	513.12
333.4	517.12
333.629	496.12
333.857	537.12
334.085	531.12
334.314	517.12
334.542	503.12
334.771	541.12
334.999	509.12
335.227	518.12
335.455	519.12
335.684	522.12
335.912	493.12
336.14	504.12
336.369	487.12
336.597	493.12
336.825	496.12
337.053	483.12
337.281	472.12
337.51	493.12
337.738	456.12
337.966	483.12
338.194	453.12
338.422	456.12
338.65	428.12
338.878	467.12
339.106	458.12
339.334	439.12
339.562	445.12
339.79	433.12
340.018	440.12
340.246	431.12
340.474	424.12
340.702	468.12
340.93	427.12
341.158	419.12
341.386	457.12
341.614	417.12
341.842	432.12
342.07	411.12
342.298	431.12
342.526	440.12
342.754	416.12
342.981	442.12
343.209	446.12
343.437	440.12
343.665	471.12
343.893	452.12
344.12	501.12
344.348	490.12
344.576	482.12
344.804	465.12
345.031	442.12
345.259	433.12
345.487	440.12
345.714	423.12
345.942	438.12
346.17	426.12
346.397	423.12
346.625	402.12
346.853	415.12
347.08	413.12
347.308	418.12
347.535	420.12
347.763	414.12
347.99	414.12
348.218	426.12
348.445	423.12
348.673	426.12
348.9	431.12
349.128	423.12
349.355	395.12
349.583	416.12
349.81	407.12
350.037	391.12
350.265	406.12
350.492	409.12
350.72	403.12
350.947	379.12
351.174	392.12
351.402	407.12
351.629	412.12
351.856	415.12
352.083	400.12
352.311	413.12
352.538	391.12
352.765	396.12
352.992	387.12
353.22	388.12
353.447	395.12
353.674	401.12
353.901	418.12
354.128	387.12
354.355	398.12
354.583	388.12
354.81	402.12
355.037	405.12
355.264	405.12
355.491	416.12
355.718	409.12
355.945	423.12
356.172	392.12
356.399	413.12
356.626	413.12
356.853	427.12
357.08	401.12
357.307	421.12
357.534	393.12
357.761	387.12
357.988	419.12
358.215	404.12
358.441	419.12
358.668	405.12
358.895	429.12
359.122	402.12
359.349	387.12
359.576	411.12
359.802	405.12
360.029	400.12
360.256	396.12
360.483	421.12
360.709	413.12
360.936	396.12
361.163	410.12
361.39	392.12
361.616	413.12
361.843	411.12
362.07	392.12
362.296	411.12
362.523	411.12
362.749	399.12
362.976	420.12
363.203	415.12
363.429	423.12
363.656	411.12
363.882	402.12
364.109	391.12
364.335	405.12
364.562	431.12
364.788	410.12
365.015	409.12
365.241	415.12
365.468	410.12
365.694	409.12
365.92	401.12
366.147	398.12
366.373	404.12
366.599	415.12
366.826	414.12
367.052	388.12
367.278	409.12
367.505	433.12
367.731	423.12
367.957	415.12
368.184	426.12
368.41	430.12
368.636	434.12
368.862	425.12
369.089	439.12
369.315	428.12
369.541	433.12
369.767	424.12
369.993	435.12
370.219	419.12
370.445	445.12
370.672	440.12
370.898	445.12
371.124	451.12
371.35	444.12
371.576	465.12
371.802	444.12
372.028	452.12
372.254	440.12
372.48	459.12
372.706	458.12
372.932	460.12
373.158	471.12
373.384	465.12
373.61	477.12
373.835	468.12
374.061	458.12
374.287	465.12
374.513	467.12
374.739	481.12
374.965	493.12
375.191	524.12
375.416	471.12
375.642	477.12
375.868	457.12
376.094	468.12
376.319	461.12
376.545	454.12
376.771	471.12
376.997	467.12
377.222	447.12
377.448	454.12
377.674	451.12
377.899	458.12
378.125	423.12
378.35	428.12
378.576	456.12
378.802	441.12
379.027	458.12
379.253	445.12
379.478	445.12
379.704	445.12
379.929	454.12
380.155	436.12
380.38	457.12
380.606	462.12
380.831	471.12
381.057	441.12
381.282	454.12
381.507	452.12
381.733	469.12
381.958	466.12
382.184	465.12
382.409	484.12
382.634	477.12
382.86	479.12
383.085	478.12
383.31	489.12
383.535	485.12
383.761	488.12
383.986	491.12
384.211	516.12
384.436	536.12
384.662	519.12
384.887	519.12
385.112	540.12
385.337	547.12
385.562	514.12
385.787	533.12
386.013	562.12
386.238	549.12
386.463	535.12
386.688	547.12
386.913	544.12
387.138	543.12
387.363	533.12
387.588	536.12
387.813	540.12
388.038	550.12
388.263	551.12
388.488	567.12
388.713	531.12
388.938	538.12
389.163	528.12
389.387	533.12
389.612	515.12
389.837	549.12
390.062	550.12
390.287	550.12
390.512	543.12
390.736	543.12
390.961	571.12
391.186	575.12
391.411	576.12
391.636	580.12
391.86	613.12
392.085	634.12
392.31	601.12
392.534	590.12
392.759	575.12
392.984	573.12
393.208	565.12
393.433	562.12
393.658	562.12
393.882	545.12
394.107	578.12
394.331	592.12
394.556	577.12
394.78	565.12
395.005	604.12
395.229	595.12
395.454	607.12
395.678	617.12
395.903	610.12
396.127	604.12
396.352	600.12
396.576	581.12
396.801	591.12
397.025	593.12
397.249	597.12
397.474	609.12
397.698	623.12
397.922	604.12
398.147	609.12
398.371	640.12
398.595	637.12
398.82	667.12
399.044	723.12
399.268	763.12
399.492	828.12
399.717	891.12
399.941	914.12
400.165	868.12
400.389	815.12
400.613	749.12
400.837	725.12
401.062	693.12
401.286	680.12
401.51	682.12
401.734	676.12
401.958	692.12
402.182	691.12
402.406	685.12
402.63	718.12
402.854	724.12
403.078	704.12
403.302	721.12
403.526	716.12
403.75	735.12
403.974	764.12
404.198	747.12
404.422	733.12
404.645	726.12
404.869	724.12
405.093	752.12
405.317	739.12
405.541	724.12
405.765	740.12
405.988	733.12
406.212	749.12
406.436	763.12
406.66	763.12
406.883	764.12
407.107	809.12
407.331	839.12
407.555	876.12
407.778	878.12
408.002	818.12
408.226	817.12
408.449	817.12
408.673	797.12
408.896	761.12
409.12	781.12
409.344	765.12
409.567	777.12
409.791	782.12
410.014	807.12
410.238	726.12
410.461	767.12
410.685	778.12
410.908	721.12
411.132	733.12
411.355	705.12
411.578	722.12
411.802	715.12
412.025	726.12
412.249	719.12
412.472	736.12
412.695	688.12
412.919	696.12
413.142	694.12
413.365	688.12
413.589	690.12
413.812	694.12
414.035	707.12
414.258	674.12
414.482	706.12
414.705	704.12
414.928	704.12
415.151	683.12
415.374	715.12
415.597	702.12
415.821	658.12
416.044	649.12
416.267	700.12
416.49	676.12
416.713	675.12
416.936	672.12
417.159	666.12
417.382	667.12
417.605	687.12
417.828	659.12
418.051	697.12
418.274	710.12
418.497	681.12
418.72	702.12
418.943	666.12
419.166	696.12
419.389	757.12
419.611	751.12
419.834	701.12
420.057	700.12
420.28	684.12
420.503	692.12
420.726	669.12
420.948	674.12
421.171	665.12
421.394	674.12
421.617	682.12
421.839	683.12
422.062	678.12
422.285	664.12
422.507	691.12
422.73	688.12
422.953	679.12
423.175	671.12
423.398	702.12
423.621	705.12
423.843	707.12
424.066	715.12
424.288	707.12
424.511	672.12
424.733	696.12
424.956	663.12
425.178	685.12
425.401	667.12
425.623	675.12
425.846	650.12
426.068	653.12
426.291	673.12
426.513	661.12
426.735	657.12
426.958	640.12
427.18	605.12
427.402	633.12
427.625	652.12
427.847	623.12
428.069	637.12
428.292	623.12
428.514	626.12
428.736	621.12
428.958	630.12
429.181	615.12
429.403	596.12
429.625	588.12
429.847	612.12
430.069	593.12
430.292	619.12
430.514	620.12
430.736	627.12
430.958	611.12
431.18	603.12
431.402	600.12
431.624	604.12
431.846	609.12
432.068	614.12
432.29	632.12
432.512	613.12
432.734	609.12
432.956	628.12
433.178	634.12
433.4	623.12
433.622	613.12
433.844	627.12
434.066	642.12
434.287	619.12
434.509	647.12
434.731	665.12
434.953	687.12
435.175	712.12
435.397	677.12
435.618	687.12
435.84	618.12
436.062	643.12
436.284	643.12
436.505	624.12
436.727	647.12
436.949	620.12
437.17	612.12
437.392	610.12
437.614	619.12
437.835	608.12
438.057	598.12
438.278	601.12
438.5	594.12
438.721	612.12
438.943	612.12
439.165	631.12
439.386	637.12
439.608	621.12
439.829	624.12
440.05	615.12
440.272	629.12
440.493	651.12
440.715	625.12
440.936	634.12
441.158	631.12
441.379	660.12
441.6	703.12
441.822	687.12
442.043	688.12
442.264	691.12
442.486	650.12
442.707	678.12
442.928	660.12
443.149	688.12
443.371	680.12
443.592	683.12
443.813	691.12
444.034	691.12
444.255	723.12
444.476	729.12
444.698	755.12
444.919	807.12
445.14	859.12
445.361	797.12
445.582	725.12
445.803	693.12
446.024	666.12
446.245	646.12
446.466	632.12
446.687	653.12
446.908	631.12
447.129	612.12
447.35	607.12
447.571	617.12
447.792	608.12
448.013	596.12
448.234	589.12
448.455	604.12
448.675	585.12
448.896	576.12
449.117	585.12
449.338	570.12
449.559	559.12
449.779	559.12
450	594.12
450.221	579.12
450.442	567.12
450.662	584.12
450.883	581.12
451.104	573.12
451.324	590.12
451.545	583.12
451.766	584.12
451.986	586.12
452.207	539.12
452.428	575.12
452.648	584.12
452.869	553.12
453.089	530.12
453.31	545.12
453.53	543.12
453.751	546.12
453.971	555.12
454.192	542.12
454.412	536.12
454.633	552.12
454.853	559.12
455.073	537.12
455.294	541.12
455.514	539.12
455.734	559.12
455.955	542.12
456.175	532.12
456.395	546.12
456.616	543.12
456.836	521.12
457.056	540.12
457.276	515.12
457.497	533.12
457.717	543.12
457.937	563.12
458.157	556.12
458.377	540.12
458.598	564.12
458.818	574.12
459.038	625.12
459.258	590.12
459.478	619.12
459.698	628.12
459.918	651.12
460.138	663.12
460.358	665.12
460.578	707.12
460.798	696.12
461.018	698.12
461.238	697.12
461.458	692.12
461.678	699.12
461.898	730.12
462.118	714.12
462.338	746.12
462.558	756.12
462.777	794.12
462.997	827.12
463.217	889.12
463.437	919.12
463.657	812.12
463.876	835.12
464.096	841.12
464.316	803.12
464.536	817.12
464.755	780.12
464.975	748.12
465.195	724.12
465.414	690.12
465.634	679.12
465.854	645.12
466.073	645.12
466.293	638.12
466.512	609.12
466.732	615.12
466.951	606.12
467.171	607.12
467.391	608.12
467.61	595.12
467.829	579.12
468.049	587.12
468.268	572.12
468.488	584.12
468.707	545.12
468.927	574.12
469.146	571.12
469.365	589.12
469.585	591.12
469.804	609.12
470.023	607.12
470.243	585.12
470.462	614.12
470.681	605.12
470.901	616.12
471.12	599.12
471.339	595.12
471.558	576.12
471.777	578.12
471.997	598.12
472.216	577.12
472.435	554.12
472.654	589.12
472.873	541.12
473.092	562.12
473.311	563.12
473.53	547.12
473.749	546.12
473.968	545.12
474.187	535.12
474.406	547.12
474.625	553.12
474.844	561.12
475.063	589.12
475.282	554.12
475.501	531.12
475.72	570.12
475.939	546.12
476.158	572.12
476.377	581.12
476.596	575.12
476.814	605.12
477.033	565.12
477.252	599.12
477.471	584.12
477.69	617.12
477.908	615.12
478.127	624.12
478.346	635.12
478.564	657.12
478.783	659.12
479.002	685.12
479.22	682.12
479.439	707.12
479.658	694.12
479.876	646.12
480.095	680.12
480.313	690.12
480.532	696.12
480.751	722.12
480.969	687.12
481.188	690.12
481.406	641.12
481.624	654.12
481.843	615.12
482.061	633.12
482.28	653.12
482.498	632.12
482.717	618.12
482.935	647.12
483.153	626.12
483.372	625.12
483.59	631.12
483.808	627.12
484.027	632.12
484.245	649.12
484.463	638.12
484.681	631.12
484.9	631.12
485.118	657.12
485.336	656.12
485.554	630.12
485.772	656.12
485.99	672.12
486.209	663.12
486.427	661.12
486.645	649.12
486.863	656.12
487.081	648.12
487.299	641.12
487.517	640.12
487.735	647.12
487.953	657.12
488.171	653.12
488.389	642.12
488.607	617.12
488.825	635.12
489.043	629.12
489.261	643.12
489.479	668.12
489.696	653.12
489.914	661.12
490.132	643.12
490.35	649.12
490.568	653.12
490.786	646.12
491.003	676.12
491.221	662.12
491.439	659.12
491.657	666.12
491.874	672.12
492.092	657.12
492.31	662.12
492.527	672.12
492.745	680.12
492.963	673.12
493.18	687.12
493.398	652.12
493.615	713.12
493.833	675.12
494.05	660.12
494.268	692.12
494.485	702.12
494.703	688.12
494.92	687.12
495.138	681.12
495.355	713.12
495.573	693.12
495.79	700.12
496.008	706.12
496.225	700.12
496.442	730.12
496.66	736.12
496.877	716.12
497.094	742.12
497.312	748.12
497.529	818.12
497.746	781.12
497.963	798.12
498.181	833.12
498.398	892.12
498.615	913.12
498.832	972.12
499.049	1051.12
499.267	1107.12
499.484	1199.12
499.701	1302.12
499.918	1448.12
500.135	1552.12
500.352	1731.12
500.569	1783.12
500.786	1740.12
501.003	1668.12
501.22	1480.12
501.437	1367.12
501.654	1255.12
501.871	1158.12
502.088	1094.12
502.305	983.12
502.522	965.12
502.739	910.12
502.956	881.12
503.172	860.12
503.389	807.12
503.606	803.12
503.823	781.12
504.04	786.12
504.256	787.12
504.473	774.12
504.69	795.12
504.907	760.12
505.123	754.12
505.34	695.12
505.557	693.12
505.773	669.12
505.99	661.12
506.207	629.12
506.423	635.12
506.64	633.12
506.856	641.12
507.073	601.12
507.289	601.12
507.506	604.12
507.722	618.12
507.939	595.12
508.155	595.12
508.372	588.12
508.588	593.12
508.805	603.12
509.021	592.12
509.238	598.12
509.454	569.12
509.67	543.12
509.887	565.12
510.103	587.12
510.319	543.12
510.536	561.12
510.752	537.12
510.968	563.12
511.184	529.12
511.401	558.12
511.617	555.12
511.833	544.12
512.049	539.12
512.265	551.12
512.481	558.12
512.698	561.12
512.914	564.12
513.13	550.12
513.346	543.12
513.562	562.12
513.778	559.12
513.994	579.12
514.21	555.12
514.426	556.12
514.642	560.12
514.858	573.12
515.074	577.12
515.29	592.12
515.506	574.12
515.721	580.12
515.937	594.12
516.153	597.12
516.369	614.12
516.585	666.12
516.801	646.12
517.016	661.12
517.232	682.12
517.448	724.12
517.664	713.12
517.879	732.12
518.095	738.12
518.311	730.12
518.527	721.12
518.742	670.12
518.958	642.12
519.173	640.12
519.389	635.12
519.605	608.12
519.82	585.12
520.036	591.12
520.251	561.12
520.467	575.12
520.682	571.12
520.898	565.12
521.113	553.12
521.329	536.12
521.544	562.12
521.76	572.12
521.975	520.12
522.19	509.12
522.406	540.12
522.621	515.12
522.836	527.12
523.052	514.12
523.267	528.12
523.482	504.12
523.698	509.12
523.913	518.12
524.128	517.12
524.343	505.12
524.559	531.12
524.774	509.12
524.989	520.12
525.204	501.12
525.419	512.12
525.634	500.12
525.849	509.12
526.064	522.12
526.28	522.12
526.495	508.12
526.71	502.12
526.925	501.12
527.14	484.12
527.355	519.12
527.57	511.12
527.785	506.12
527.999	488.12
528.214	488.12
528.429	495.12
528.644	498.12
528.859	498.12
529.074	513.12
529.289	500.12
529.503	520.12
529.718	511.12
529.933	490.12
530.148	471.12
530.363	481.12
530.577	501.12
530.792	502.12
531.007	494.12
531.221	483.12
531.436	505.12
531.651	503.12
531.865	506.12
532.08	485.12
532.295	514.12
532.509	502.12
532.724	505.12
532.938	489.12
533.153	508.12
533.367	500.12
533.582	482.12
533.796	502.12
534.011	495.12
534.225	492.12
534.44	511.12
534.654	489.12
534.868	475.12
535.083	476.12
535.297	481.12
535.511	498.12
535.726	488.12
535.94	499.12
536.154	492.12
536.369	473.12
536.583	480.12
536.797	470.12
537.011	462.12
537.225	452.12
537.44	466.12
537.654	450.12
537.868	473.12
538.082	463.12
538.296	461.12
538.51	467.12
538.724	469.12
538.938	472.12
539.153	492.12
539.367	466.12
539.581	471.12
539.795	448.12
540.009	471.12
540.222	465.12
540.436	452.12
540.65	458.12
540.864	465.12
541.078	449.12
541.292	439.12
541.506	447.12
541.72	447.12
541.934	445.12
542.147	480.12
542.361	472.12
542.575	443.12
542.789	461.12
543.002	453.12
543.216	444.12
543.43	460.12
543.644	439.12
543.857	427.12
544.071	449.12
544.285	460.12
544.498	433.12
544.712	447.12
544.925	469.12
545.139	469.12
545.352	452.12
545.566	452.12
545.779	445.12
545.993	451.12
546.206	477.12
546.42	475.12
546.633	453.12
546.847	448.12
547.06	457.12
547.274	457.12
547.487	451.12
547.7	460.12
547.914	466.12
548.127	454.12
548.34	468.12
548.554	466.12
548.767	471.12
548.98	472.12
549.193	458.12
549.407	448.12
549.62	462.12
549.833	470.12
550.046	478.12
550.259	471.12
550.473	463.12
550.686	462.12
550.899	468.12
551.112	439.12
551.325	447.12
551.538	448.12
551.751	464.12
551.964	468.12
552.177	474.12
552.39	477.12
552.603	483.12
552.816	489.12
553.029	495.12
553.242	469.12
553.455	507.12
553.667	501.12
553.88	486.12
554.093	467.12
554.306	455.12
554.519	468.12
554.732	475.12
554.944	458.12
555.157	447.12
555.37	433.12
555.583	426.12
555.795	449.12
556.008	444.12
556.221	409.12
556.433	422.12
556.646	433.12
556.859	406.12
557.071	410.12
557.284	411.12
557.496	415.12
557.709	387.12
557.921	409.12
558.134	411.12
558.346	413.12
558.559	407.12
558.771	396.12
558.984	409.12
559.196	391.12
559.409	404.12
559.621	395.12
559.833	405.12
560.046	373.12
560.258	397.12
560.47	386.12
560.683	383.12
560.895	396.12
561.107	377.12
561.32	383.12
561.532	396.12
561.744	392.12
561.956	382.12
562.168	385.12
562.381	377.12
562.593	375.12
562.805	387.12
563.017	377.12
563.229	397.12
563.441	401.12
563.653	419.12
563.865	397.12
564.077	409.12
564.289	423.12
564.501	431.12
564.713	427.12
564.925	423.12
565.137	444.12
565.349	455.12
565.561	456.12
565.773	464.12
565.985	488.12
566.197	501.12
566.408	519.12
566.62	556.12
566.832	587.12
567.044	589.12
567.255	611.12
567.467	591.12
567.679	614.12
567.891	671.12
568.102	641.12
568.314	607.12
568.526	570.12
568.737	527.12
568.949	511.12
569.161	500.12
569.372	473.12
569.584	431.12
569.795	427.12
570.007	420.12
570.218	387.12
570.43	395.12
570.641	389.12
570.853	400.12
571.064	404.12
571.276	416.12
571.487	388.12
571.698	383.12
571.91	371.12
572.121	375.12
572.333	350.12
572.544	367.12
572.755	339.12
572.966	339.12
573.178	330.12
573.389	328.12
573.6	350.12
573.811	331.12
574.023	342.12
574.234	331.12
574.445	323.12
574.656	325.12
574.867	338.12
575.078	323.12
575.289	315.12
575.501	336.12
575.712	308.12
575.923	300.12
576.134	311.12
576.345	307.12
576.556	315.12
576.767	329.12
576.978	315.12
577.188	306.12
577.399	314.12
577.61	308.12
577.821	298.12
578.032	307.12
578.243	295.12
578.454	300.12
578.665	289.12
578.875	298.12
579.086	295.12
579.297	300.12
579.508	293.12
579.718	291.12
579.929	268.12
580.14	283.12
580.35	291.12
580.561	291.12
580.772	287.12
580.982	289.12
581.193	281.12
581.403	282.12
581.614	285.12
581.825	286.12
582.035	281.12
582.246	302.12
582.456	274.12
582.667	277.12
582.877	285.12
583.087	271.12
583.298	283.12
583.508	268.12
583.719	276.12
583.929	265.12
584.139	269.12
584.35	276.12
584.56	287.12
584.77	285.12
584.981	260.12
585.191	277.12
585.401	262.12
585.611	278.12
585.821	268.12
586.032	273.12
586.242	256.12
586.452	259.12
586.662	268.12
586.872	266.12
587.082	260.12
587.292	263.12
587.502	273.12
587.713	269.12
587.923	266.12
588.133	270.12
588.343	249.12
588.553	262.12
588.762	266.12
588.972	269.12
589.182	276.12
589.392	293.12
589.602	266.12
589.812	268.12
590.022	290.12
590.232	265.12
590.441	259.12
590.651	265.12
590.861	271.12
591.071	295.12
591.281	291.12
591.49	264.12
591.7	277.12
591.91	289.12
592.119	288.12
592.329	295.12
592.539	296.12
592.748	304.12
592.958	307.12
593.167	324.12
593.377	328.12
593.587	333.12
593.796	322.12
594.006	313.12
594.215	329.12
594.424	317.12
594.634	329.12
594.843	303.12
595.053	290.12
595.262	289.12
595.472	294.12
595.681	273.12
595.89	269.12
596.1	272.12
596.309	258.12
596.518	254.12
596.727	256.12
596.937	240.12
597.146	240.12
597.355	259.12
597.564	257.12
597.774	242.12
597.983	239.12
598.192	249.12
598.401	245.12
598.61	240.12
598.819	234.12
599.028	232.12
599.237	246.12
599.446	234.12
599.655	227.12
599.864	237.12
600.073	233.12
600.282	232.12
600.491	226.12
600.7	230.12
600.909	236.12
601.118	228.12
601.327	239.12
601.536	231.12
601.745	233.12
601.953	221.12
602.162	226.12
602.371	216.12
602.58	224.12
602.789	212.12
602.997	231.12
603.206	239.12
603.415	225.12
603.623	214.12
603.832	218.12
604.041	215.12
604.249	218.12
604.458	223.12
604.666	223.12
604.875	227.12
605.084	223.12
605.292	228.12
605.501	219.12
605.709	206.12
605.918	224.12
606.126	218.12
606.334	222.12
606.543	218.12
606.751	240.12
606.96	234.12
607.168	211.12
607.376	211.12
607.585	218.12
607.793	230.12
608.001	204.12
608.21	213.12
608.418	203.12
608.626	212.12
608.834	221.12
609.043	218.12
609.251	224.12
609.459	201.12
609.667	205.12
609.875	208.12
610.083	206.12
610.291	211.12
610.499	221.12
610.707	225.12
610.916	195.12
611.124	196.12
611.332	201.12
611.54	225.12
611.748	209.12
611.955	203.12
612.163	199.12
612.371	208.12
612.579	215.12
612.787	208.12
612.995	205.12
613.203	215.12
613.411	219.12
613.618	208.12
613.826	198.12
614.034	197.12
614.242	205.12
614.449	198.12
614.657	204.12
614.865	191.12
615.072	205.12
615.28	190.12
615.488	200.12
615.695	199.12
615.903	202.12
616.111	201.12
616.318	231.12
616.526	198.12
616.733	200.12
616.941	204.12
617.148	199.12
617.356	209.12
617.563	200.12
617.771	196.12
617.978	196.12
618.185	200.12
618.393	203.12
618.6	207.12
618.807	199.12
619.015	188.12
619.222	200.12
619.429	200.12
619.637	200.12
619.844	211.12
620.051	201.12
620.258	193.12
620.466	180.12
620.673	199.12
620.88	187.12
621.087	181.12
621.294	194.12
621.501	216.12
621.708	174.12
621.915	183.12
622.122	201.12
622.329	208.12
622.536	191.12
622.743	193.12
622.95	198.12
623.157	180.12
623.364	192.12
623.571	186.12
623.778	201.12
623.985	193.12
624.192	187.12
624.399	189.12
624.606	186.12
624.812	184.12
625.019	185.12
625.226	173.12
625.433	204.12
625.639	176.12
625.846	165.12
626.053	180.12
626.259	176.12
626.466	197.12
626.673	178.12
626.879	179.12
627.086	181.12
627.293	189.12
627.499	172.12
627.706	199.12
627.912	172.12
628.119	181.12
628.325	177.12
628.532	180.12
628.738	168.12
628.945	187.12
629.151	159.12
629.357	156.12
629.564	181.12
629.77	175.12
629.976	161.12
630.183	177.12
630.389	169.12
630.595	189.12
630.802	157.12
631.008	183.12
631.214	176.12
631.42	177.12
631.627	172.12
631.833	141.12
632.039	161.12
632.245	160.12
632.451	171.12
632.657	169.12
632.863	169.12
633.069	172.12
633.275	163.12
633.481	161.12
633.688	165.12
633.893	178.12
634.099	175.12
634.305	148.12
634.511	153.12
634.717	147.12
634.923	168.12
635.129	167.12
635.335	163.12
635.541	145.12
635.747	168.12
635.952	154.12
636.158	167.12
636.364	178.12
636.57	162.12
636.775	163.12
636.981	176.12
637.187	177.12
637.392	160.12
637.598	156.12
637.804	141.12
638.009	150.12
638.215	146.12
638.421	164.12
638.626	159.12
638.832	167.12
639.037	161.12
639.243	154.12
639.448	159.12
639.654	161.12
639.859	165.12
640.065	158.12
640.27	154.12
640.475	159.12
640.681	156.12
640.886	162.12
641.091	145.12
641.297	152.12
641.502	154.12
641.707	134.12
641.913	149.12
642.118	150.12
642.323	162.12
642.528	154.12
642.733	155.12
642.939	149.12
643.144	149.12
643.349	139.12
643.554	130.12
643.759	143.12
643.964	148.12
644.169	155.12
644.374	134.12
644.579	167.12
644.784	158.12
644.989	137.12
645.194	132.12
645.399	161.12
645.604	149.12
645.809	157.12
646.014	165.12
646.219	148.12
646.423	149.12
646.628	159.12
646.833	152.12
647.038	146.12
647.243	140.12
647.447	152.12
647.652	153.12
647.857	158.12
648.062	156.12
648.266	141.12
648.471	154.12
648.676	140.12
648.88	140.12
649.085	155.12
649.289	156.12
649.494	163.12
649.698	159.12
649.903	151.12
650.107	151.12
650.312	154.12
650.516	146.12
650.721	147.12
650.925	156.12
651.13	155.12
651.334	156.12
651.539	150.12
651.743	135.12
651.947	144.12
652.152	134.12
652.356	140.12
652.56	131.12
652.764	145.12
652.969	136.12
653.173	136.12
653.377	134.12
653.581	145.12
653.785	127.12
653.99	125.12
654.194	121.12
654.398	124.12
654.602	117.12
654.806	135.12
655.01	131.12
655.214	124.12
655.418	116.12
655.622	125.12
655.826	130.12
656.03	121.12
656.234	120.12
656.438	120.12
656.642	133.12
656.846	136.12
657.049	109.12
657.253	121.12
657.457	127.12
657.661	108.12
657.865	102.12
658.068	104.12
658.272	103.12
658.476	124.12
658.68	97.12
658.883	101.12
659.087	92.12
659.291	117.12
659.494	93.12
659.698	105.12
659.901	101.12
660.105	106.12
660.309	99.12
660.512	84.12
660.716	89.12
660.919	99.12
661.123	104.12
661.326	88.12
661.53	93.12
661.733	97.12
661.936	95.12
662.14	80.12
662.343	88.12
662.546	74.12
662.75	83.12
662.953	106.12
663.156	94.12
663.36	75.12
663.563	88.12
663.766	71.12
663.969	75.12
664.173	83.12
664.376	84.12
664.579	79.12
664.782	97.12
664.985	83.12
665.188	80.12
665.391	75.12
665.594	80.12
665.797	76.12
666	82.12
666.203	82.12
666.406	73.12
666.609	91.12
666.812	80.12
667.015	81.12
667.218	79.12
667.421	84.12
667.624	80.12
667.827	81.12
668.03	97.12
668.232	86.12
668.435	89.12
668.638	89.12
668.841	84.12
669.043	92.12
669.246	87.12
669.449	97.12
669.651	82.12
669.854	71.12
670.057	86.12
670.259	94.12
670.462	78.12
670.665	84.12
670.867	90.12
671.07	77.12
671.272	82.12
671.475	87.12
671.677	87.12
671.88	91.12
672.082	90.12
672.284	83.12
672.487	83.12
672.689	81.12
672.892	74.12
