Data from Fe(NO3)3@0.0125M.TitratingCurve.Agarose3%dH2O.NegLispCup.LampEnergy10.LIBS07252019_HRD10591_17-01-46-337.txt Node
Date: Thu Jul 25 17:01:46 EDT 2019
User: cochatt
Spectrometer: HR+D1059
Trigger mode: 1
Integration Time (sec): 1.000000E-1
Scans to average: 1
Electric dark correction enabled: true
Nonlinearity correction enabled: false
Boxcar width: 0
XAxis mode: Wavelengths
Number of Pixels in Spectrum: 2048
>>>>>Begin Spectral Data<<<<<
223.165	-8.06
223.4	-8.06
223.635	-8.06
223.869	-16.06
224.104	-19.06
224.338	-22.06
224.573	-15.06
224.808	-15.06
225.042	-19.06
225.277	2.94
225.511	-1.06
225.746	6.94
225.98	8.94
226.215	5.94
226.449	15.94
226.683	25.94
226.918	25.94
227.152	22.94
227.387	36.94
227.621	55.94
227.856	38.94
228.09	56.94
228.324	47.94
228.559	56.94
228.793	58.94
229.027	72.94
229.262	67.94
229.496	85.94
229.73	92.94
229.964	92.94
230.199	88.94
230.433	70.94
230.667	90.94
230.901	93.94
231.136	100.94
231.37	93.94
231.604	105.94
231.838	112.94
232.072	98.94
232.306	105.94
232.541	97.94
232.775	101.94
233.009	97.94
233.243	107.94
233.477	106.94
233.711	104.94
233.945	102.94
234.179	114.94
234.413	105.94
234.647	109.94
234.881	117.94
235.115	108.94
235.349	105.94
235.583	95.94
235.817	103.94
236.051	108.94
236.285	124.94
236.519	113.94
236.753	113.94
236.987	108.94
237.221	106.94
237.455	113.94
237.689	99.94
237.922	112.94
238.156	120.94
238.39	117.94
238.624	120.94
238.858	117.94
239.091	106.94
239.325	112.94
239.559	109.94
239.793	113.94
240.027	120.94
240.26	128.94
240.494	113.94
240.728	102.94
240.961	123.94
241.195	123.94
241.429	116.94
241.662	118.94
241.896	123.94
242.13	108.94
242.363	110.94
242.597	137.94
242.83	131.94
243.064	128.94
243.298	108.94
243.531	113.94
243.765	124.94
243.998	143.94
244.232	119.94
244.465	126.94
244.699	118.94
244.932	128.94
245.166	128.94
245.399	123.94
245.633	129.94
245.866	126.94
246.099	124.94
246.333	126.94
246.566	130.94
246.8	128.94
247.033	136.94
247.266	143.94
247.5	128.94
247.733	122.94
247.966	141.94
248.2	142.94
248.433	150.94
248.666	136.94
248.899	130.94
249.133	131.94
249.366	133.94
249.599	136.94
249.832	132.94
250.066	149.94
250.299	146.94
250.532	128.94
250.765	150.94
250.998	138.94
251.231	144.94
251.465	148.94
251.698	136.94
251.931	142.94
252.164	128.94
252.397	146.94
252.63	145.94
252.863	133.94
253.096	148.94
253.329	152.94
253.562	139.94
253.795	137.94
254.028	150.94
254.261	154.94
254.494	141.94
254.727	144.94
254.96	149.94
255.193	140.94
255.426	138.94
255.659	158.94
255.892	163.94
256.124	154.94
256.357	165.94
256.59	162.94
256.823	164.94
257.056	150.94
257.289	169.94
257.521	145.94
257.754	153.94
257.987	167.94
258.22	162.94
258.452	163.94
258.685	153.94
258.918	171.94
259.151	166.94
259.383	148.94
259.616	157.94
259.849	176.94
260.081	166.94
260.314	174.94
260.547	162.94
260.779	165.94
261.012	169.94
261.244	169.94
261.477	180.94
261.71	180.94
261.942	164.94
262.175	169.94
262.407	165.94
262.64	163.94
262.872	186.94
263.105	172.94
263.337	172.94
263.57	177.94
263.802	185.94
264.035	188.94
264.267	191.94
264.499	168.94
264.732	190.94
264.964	190.94
265.197	178.94
265.429	178.94
265.661	180.94
265.894	188.94
266.126	188.94
266.358	193.94
266.591	176.94
266.823	187.94
267.055	201.94
267.287	194.94
267.52	193.94
267.752	195.94
267.984	188.94
268.216	204.94
268.448	181.94
268.681	188.94
268.913	183.94
269.145	183.94
269.377	188.94
269.609	190.94
269.841	199.94
270.073	200.94
270.306	179.94
270.538	196.94
270.77	200.94
271.002	194.94
271.234	194.94
271.466	189.94
271.698	195.94
271.93	189.94
272.162	198.94
272.394	199.94
272.626	198.94
272.858	200.94
273.09	207.94
273.322	202.94
273.553	200.94
273.785	202.94
274.017	207.94
274.249	202.94
274.481	218.94
274.713	207.94
274.945	223.94
275.176	205.94
275.408	216.94
275.64	232.94
275.872	204.94
276.104	218.94
276.335	192.94
276.567	209.94
276.799	227.94
277.031	227.94
277.262	229.94
277.494	226.94
277.726	215.94
277.957	206.94
278.189	217.94
278.421	217.94
278.652	201.94
278.884	219.94
279.115	230.94
279.347	211.94
279.579	212.94
279.81	209.94
280.042	228.94
280.273	222.94
280.505	220.94
280.736	218.94
280.968	234.94
281.199	223.94
281.431	228.94
281.662	215.94
281.894	226.94
282.125	234.94
282.356	221.94
282.588	240.94
282.819	234.94
283.051	233.94
283.282	229.94
283.513	249.94
283.745	240.94
283.976	229.94
284.207	241.94
284.439	240.94
284.67	229.94
284.901	230.94
285.132	237.94
285.364	229.94
285.595	254.94
285.826	236.94
286.057	228.94
286.288	232.94
286.52	246.94
286.751	231.94
286.982	256.94
287.213	248.94
287.444	240.94
287.675	248.94
287.906	249.94
288.138	253.94
288.369	254.94
288.6	277.94
288.831	259.94
289.062	257.94
289.293	254.94
289.524	242.94
289.755	248.94
289.986	250.94
290.217	242.94
290.448	259.94
290.679	240.94
290.91	259.94
291.141	256.94
291.371	260.94
291.602	248.94
291.833	263.94
292.064	247.94
292.295	254.94
292.526	234.94
292.757	254.94
292.987	261.94
293.218	244.94
293.449	268.94
293.68	250.94
293.91	274.94
294.141	255.94
294.372	254.94
294.603	265.94
294.833	250.94
295.064	271.94
295.295	256.94
295.525	264.94
295.756	265.94
295.987	251.94
296.217	260.94
296.448	269.94
296.679	261.94
296.909	273.94
297.14	284.94
297.37	296.94
297.601	275.94
297.831	277.94
298.062	272.94
298.292	271.94
298.523	278.94
298.753	287.94
298.984	285.94
299.214	288.94
299.445	278.94
299.675	265.94
299.905	254.94
300.136	260.94
300.366	286.94
300.597	277.94
300.827	278.94
301.057	299.94
301.288	303.94
301.518	298.94
301.748	310.94
301.979	288.94
302.209	293.94
302.439	314.94
302.669	292.94
302.9	289.94
303.13	294.94
303.36	285.94
303.59	300.94
303.82	286.94
304.051	307.94
304.281	325.94
304.511	285.94
304.741	299.94
304.971	286.94
305.201	311.94
305.431	300.94
305.661	284.94
305.891	308.94
306.121	284.94
306.352	306.94
306.582	286.94
306.812	281.94
307.042	290.94
307.272	282.94
307.502	289.94
307.731	290.94
307.961	299.94
308.191	295.94
308.421	281.94
308.651	294.94
308.881	291.94
309.111	289.94
309.341	295.94
309.571	294.94
309.8	288.94
310.03	298.94
310.26	285.94
310.49	294.94
310.72	308.94
310.949	322.94
311.179	295.94
311.409	301.94
311.639	305.94
311.868	308.94
312.098	317.94
312.328	296.94
312.557	324.94
312.787	323.94
313.017	304.94
313.246	298.94
313.476	309.94
313.706	328.94
313.935	324.94
314.165	325.94
314.394	323.94
314.624	323.94
314.853	323.94
315.083	313.94
315.312	332.94
315.542	324.94
315.771	323.94
316.001	324.94
316.23	324.94
316.46	325.94
316.689	310.94
316.919	327.94
317.148	337.94
317.377	325.94
317.607	330.94
317.836	313.94
318.065	302.94
318.295	322.94
318.524	323.94
318.753	295.94
318.983	324.94
319.212	317.94
319.441	306.94
319.67	327.94
319.9	319.94
320.129	320.94
320.358	329.94
320.587	307.94
320.816	329.94
321.046	320.94
321.275	337.94
321.504	326.94
321.733	325.94
321.962	330.94
322.191	330.94
322.42	321.94
322.649	330.94
322.878	334.94
323.108	324.94
323.337	309.94
323.566	320.94
323.795	321.94
324.024	352.94
324.253	340.94
324.482	330.94
324.71	340.94
324.939	357.94
325.168	347.94
325.397	334.94
325.626	337.94
325.855	357.94
326.084	350.94
326.313	330.94
326.542	340.94
326.77	371.94
326.999	348.94
327.228	335.94
327.457	359.94
327.686	358.94
327.914	349.94
328.143	358.94
328.372	361.94
328.6	338.94
328.829	346.94
329.058	341.94
329.287	354.94
329.515	390.94
329.744	360.94
329.972	344.94
330.201	356.94
330.43	346.94
330.658	352.94
330.887	358.94
331.115	358.94
331.344	355.94
331.572	374.94
331.801	372.94
332.03	370.94
332.258	393.94
332.486	404.94
332.715	393.94
332.943	404.94
333.172	408.94
333.4	416.94
333.629	425.94
333.857	432.94
334.085	422.94
334.314	406.94
334.542	441.94
334.771	437.94
334.999	434.94
335.227	412.94
335.455	433.94
335.684	432.94
335.912	424.94
336.14	404.94
336.369	413.94
336.597	407.94
336.825	419.94
337.053	408.94
337.281	401.94
337.51	393.94
337.738	410.94
337.966	404.94
338.194	377.94
338.422	384.94
338.65	393.94
338.878	393.94
339.106	386.94
339.334	387.94
339.562	388.94
339.79	380.94
340.018	377.94
340.246	348.94
340.474	372.94
340.702	359.94
340.93	374.94
341.158	364.94
341.386	355.94
341.614	398.94
341.842	365.94
342.07	364.94
342.298	366.94
342.526	386.94
342.754	375.94
342.981	374.94
343.209	378.94
343.437	406.94
343.665	396.94
343.893	420.94
344.12	425.94
344.348	418.94
344.576	406.94
344.804	396.94
345.031	382.94
345.259	406.94
345.487	364.94
345.714	364.94
345.942	369.94
346.17	374.94
346.397	377.94
346.625	372.94
346.853	354.94
347.08	358.94
347.308	355.94
347.535	355.94
347.763	357.94
347.99	372.94
348.218	374.94
348.445	364.94
348.673	360.94
348.9	374.94
349.128	347.94
349.355	348.94
349.583	356.94
349.81	354.94
350.037	363.94
350.265	344.94
350.492	349.94
350.72	354.94
350.947	362.94
351.174	352.94
351.402	352.94
351.629	355.94
351.856	356.94
352.083	349.94
352.311	347.94
352.538	333.94
352.765	374.94
352.992	348.94
353.22	352.94
353.447	358.94
353.674	355.94
353.901	338.94
354.128	346.94
354.355	363.94
354.583	362.94
354.81	353.94
355.037	354.94
355.264	339.94
355.491	381.94
355.718	359.94
355.945	380.94
356.172	343.94
356.399	355.94
356.626	373.94
356.853	348.94
357.08	346.94
357.307	355.94
357.534	370.94
357.761	351.94
357.988	369.94
358.215	361.94
358.441	375.94
358.668	368.94
358.895	353.94
359.122	346.94
359.349	348.94
359.576	352.94
359.802	371.94
360.029	340.94
360.256	358.94
360.483	361.94
360.709	371.94
360.936	365.94
361.163	365.94
361.39	353.94
361.616	363.94
361.843	351.94
362.07	347.94
362.296	370.94
362.523	364.94
362.749	374.94
362.976	370.94
363.203	386.94
363.429	376.94
363.656	373.94
363.882	369.94
364.109	386.94
364.335	365.94
364.562	370.94
364.788	353.94
365.015	352.94
365.241	355.94
365.468	373.94
365.694	359.94
365.92	368.94
366.147	362.94
366.373	376.94
366.599	386.94
366.826	381.94
367.052	373.94
367.278	377.94
367.505	361.94
367.731	354.94
367.957	376.94
368.184	346.94
368.41	378.94
368.636	353.94
368.862	376.94
369.089	389.94
369.315	355.94
369.541	375.94
369.767	392.94
369.993	380.94
370.219	388.94
370.445	372.94
370.672	379.94
370.898	378.94
371.124	401.94
371.35	405.94
371.576	385.94
371.802	381.94
372.028	379.94
372.254	398.94
372.48	403.94
372.706	390.94
372.932	398.94
373.158	386.94
373.384	401.94
373.61	406.94
373.835	376.94
374.061	392.94
374.287	396.94
374.513	422.94
374.739	412.94
374.965	414.94
375.191	412.94
375.416	380.94
375.642	397.94
375.868	417.94
376.094	386.94
376.319	412.94
376.545	405.94
376.771	378.94
376.997	395.94
377.222	378.94
377.448	380.94
377.674	373.94
377.899	392.94
378.125	371.94
378.35	375.94
378.576	399.94
378.802	378.94
379.027	391.94
379.253	386.94
379.478	380.94
379.704	392.94
379.929	401.94
380.155	378.94
380.38	384.94
380.606	389.94
380.831	384.94
381.057	388.94
381.282	393.94
381.507	396.94
381.733	410.94
381.958	392.94
382.184	390.94
382.409	388.94
382.634	403.94
382.86	396.94
383.085	423.94
383.31	414.94
383.535	407.94
383.761	427.94
383.986	422.94
384.211	404.94
384.436	433.94
384.662	422.94
384.887	424.94
385.112	441.94
385.337	438.94
385.562	460.94
385.787	436.94
386.013	454.94
386.238	462.94
386.463	450.94
386.688	450.94
386.913	422.94
387.138	440.94
387.363	458.94
387.588	456.94
387.813	453.94
388.038	463.94
388.263	446.94
388.488	454.94
388.713	442.94
388.938	453.94
389.163	434.94
389.387	472.94
389.612	433.94
389.837	444.94
390.062	438.94
390.287	448.94
390.512	438.94
390.736	478.94
390.961	468.94
391.186	456.94
391.411	456.94
391.636	475.94
391.86	495.94
392.085	490.94
392.31	485.94
392.534	502.94
392.759	490.94
392.984	473.94
393.208	500.94
393.433	492.94
393.658	475.94
393.882	479.94
394.107	495.94
394.331	488.94
394.556	484.94
394.78	492.94
395.005	466.94
395.229	473.94
395.454	487.94
395.678	496.94
395.903	498.94
396.127	497.94
396.352	489.94
396.576	470.94
396.801	484.94
397.025	501.94
397.249	516.94
397.474	503.94
397.698	509.94
397.922	529.94
398.147	516.94
398.371	535.94
398.595	546.94
398.82	563.94
399.044	593.94
399.268	609.94
399.492	669.94
399.717	672.94
399.941	712.94
400.165	682.94
400.389	652.94
400.613	608.94
400.837	581.94
401.062	570.94
401.286	555.94
401.51	580.94
401.734	548.94
401.958	553.94
402.182	565.94
402.406	566.94
402.63	565.94
402.854	600.94
403.078	554.94
403.302	576.94
403.526	596.94
403.75	577.94
403.974	603.94
404.198	580.94
404.422	600.94
404.645	597.94
404.869	581.94
405.093	585.94
405.317	570.94
405.541	580.94
405.765	592.94
405.988	568.94
406.212	605.94
406.436	627.94
406.66	618.94
406.883	613.94
407.107	624.94
407.331	636.94
407.555	676.94
407.778	667.94
408.002	655.94
408.226	665.94
408.449	629.94
408.673	635.94
408.896	614.94
409.12	617.94
409.344	633.94
409.567	605.94
409.791	600.94
410.014	617.94
410.238	563.94
410.461	589.94
410.685	591.94
410.908	601.94
411.132	593.94
411.355	588.94
411.578	560.94
411.802	570.94
412.025	586.94
412.249	551.94
412.472	574.94
412.695	556.94
412.919	556.94
413.142	563.94
413.365	568.94
413.589	540.94
413.812	545.94
414.035	557.94
414.258	542.94
414.482	546.94
414.705	549.94
414.928	545.94
415.151	583.94
415.374	556.94
415.597	536.94
415.821	539.94
416.044	564.94
416.267	538.94
416.49	539.94
416.713	534.94
416.936	530.94
417.159	532.94
417.382	531.94
417.605	526.94
417.828	544.94
418.051	526.94
418.274	546.94
418.497	540.94
418.72	550.94
418.943	560.94
419.166	566.94
419.389	596.94
419.611	585.94
419.834	563.94
420.057	570.94
420.28	541.94
420.503	523.94
420.726	531.94
420.948	522.94
421.171	547.94
421.394	536.94
421.617	520.94
421.839	524.94
422.062	534.94
422.285	508.94
422.507	534.94
422.73	560.94
422.953	518.94
423.175	533.94
423.398	522.94
423.621	534.94
423.843	552.94
424.066	548.94
424.288	525.94
424.511	544.94
424.733	538.94
424.956	536.94
425.178	552.94
425.401	522.94
425.623	542.94
425.846	523.94
426.068	506.94
426.291	525.94
426.513	514.94
426.735	536.94
426.958	500.94
427.18	493.94
427.402	504.94
427.625	492.94
427.847	498.94
428.069	509.94
428.292	493.94
428.514	504.94
428.736	493.94
428.958	500.94
429.181	498.94
429.403	483.94
429.625	510.94
429.847	502.94
430.069	492.94
430.292	482.94
430.514	491.94
430.736	483.94
430.958	491.94
431.18	510.94
431.402	506.94
431.624	495.94
431.846	502.94
432.068	501.94
432.29	482.94
432.512	485.94
432.734	491.94
432.956	493.94
433.178	521.94
433.4	501.94
433.622	496.94
433.844	500.94
434.066	490.94
434.287	510.94
434.509	504.94
434.731	532.94
434.953	524.94
435.175	532.94
435.397	540.94
435.618	518.94
435.84	532.94
436.062	493.94
436.284	496.94
436.505	488.94
436.727	501.94
436.949	496.94
437.17	496.94
437.392	463.94
437.614	476.94
437.835	480.94
438.057	462.94
438.278	458.94
438.5	466.94
438.721	475.94
438.943	467.94
439.165	482.94
439.386	477.94
439.608	498.94
439.829	493.94
440.05	507.94
440.272	506.94
440.493	477.94
440.715	493.94
440.936	500.94
441.158	501.94
441.379	503.94
441.6	521.94
441.822	535.94
442.043	530.94
442.264	530.94
442.486	524.94
442.707	520.94
442.928	517.94
443.149	530.94
443.371	517.94
443.592	536.94
443.813	546.94
444.034	553.94
444.255	563.94
444.476	554.94
444.698	556.94
444.919	574.94
445.14	653.94
445.361	600.94
445.582	546.94
445.803	525.94
446.024	516.94
446.245	511.94
446.466	506.94
446.687	515.94
446.908	494.94
447.129	512.94
447.35	485.94
447.571	482.94
447.792	467.94
448.013	462.94
448.234	455.94
448.455	452.94
448.675	470.94
448.896	442.94
449.117	428.94
449.338	449.94
449.559	461.94
449.779	458.94
450	460.94
450.221	451.94
450.442	457.94
450.662	475.94
450.883	452.94
451.104	469.94
451.324	468.94
451.545	452.94
451.766	452.94
451.986	443.94
452.207	460.94
452.428	447.94
452.648	453.94
452.869	431.94
453.089	436.94
453.31	444.94
453.53	443.94
453.751	432.94
453.971	427.94
454.192	456.94
454.412	433.94
454.633	446.94
454.853	426.94
455.073	439.94
455.294	429.94
455.514	436.94
455.734	434.94
455.955	417.94
456.175	438.94
456.395	440.94
456.616	432.94
456.836	425.94
457.056	412.94
457.276	418.94
457.497	437.94
457.717	444.94
457.937	423.94
458.157	433.94
458.377	474.94
458.598	459.94
458.818	475.94
459.038	462.94
459.258	494.94
459.478	494.94
459.698	491.94
459.918	487.94
460.138	537.94
460.358	541.94
460.578	540.94
460.798	556.94
461.018	560.94
461.238	542.94
461.458	570.94
461.678	547.94
461.898	560.94
462.118	586.94
462.338	593.94
462.558	595.94
462.777	621.94
462.997	629.94
463.217	648.94
463.437	661.94
463.657	626.94
463.876	634.94
464.096	632.94
464.316	611.94
464.536	603.94
464.755	594.94
464.975	577.94
465.195	576.94
465.414	545.94
465.634	504.94
465.854	524.94
466.073	513.94
466.293	483.94
466.512	483.94
466.732	466.94
466.951	479.94
467.171	461.94
467.391	490.94
467.61	486.94
467.829	463.94
468.049	498.94
468.268	479.94
468.488	468.94
468.707	461.94
468.927	465.94
469.146	462.94
469.365	460.94
469.585	480.94
469.804	488.94
470.023	498.94
470.243	489.94
470.462	480.94
470.681	492.94
470.901	506.94
471.12	484.94
471.339	489.94
471.558	484.94
471.777	480.94
471.997	473.94
472.216	471.94
472.435	485.94
472.654	469.94
472.873	455.94
473.092	469.94
473.311	499.94
473.53	500.94
473.749	469.94
473.968	452.94
474.187	461.94
474.406	480.94
474.625	468.94
474.844	476.94
475.063	463.94
475.282	469.94
475.501	481.94
475.72	491.94
475.939	487.94
476.158	481.94
476.377	501.94
476.596	482.94
476.814	471.94
477.033	478.94
477.252	493.94
477.471	512.94
477.69	520.94
477.908	523.94
478.127	546.94
478.346	513.94
478.564	552.94
478.783	532.94
479.002	549.94
479.22	529.94
479.439	569.94
479.658	546.94
479.876	557.94
480.095	583.94
480.313	567.94
480.532	537.94
480.751	578.94
480.969	581.94
481.188	555.94
481.406	541.94
481.624	525.94
481.843	550.94
482.061	557.94
482.28	543.94
482.498	538.94
482.717	540.94
482.935	516.94
483.153	506.94
483.372	532.94
483.59	548.94
483.808	522.94
484.027	524.94
484.245	550.94
484.463	536.94
484.681	551.94
484.9	562.94
485.118	534.94
485.336	566.94
485.554	561.94
485.772	532.94
485.99	550.94
486.209	545.94
486.427	557.94
486.645	552.94
486.863	549.94
487.081	556.94
487.299	542.94
487.517	536.94
487.735	562.94
487.953	577.94
488.171	553.94
488.389	535.94
488.607	534.94
488.825	569.94
489.043	560.94
489.261	566.94
489.479	551.94
489.696	566.94
489.914	540.94
490.132	535.94
490.35	562.94
490.568	550.94
490.786	579.94
491.003	568.94
491.221	578.94
491.439	566.94
491.657	569.94
491.874	547.94
492.092	555.94
492.31	548.94
492.527	564.94
492.745	590.94
492.963	562.94
493.18	586.94
493.398	576.94
493.615	586.94
493.833	588.94
494.05	580.94
494.268	571.94
494.485	590.94
494.703	568.94
494.92	613.94
495.138	587.94
495.355	566.94
495.573	590.94
495.79	588.94
496.008	589.94
496.225	600.94
496.442	619.94
496.66	620.94
496.877	633.94
497.094	628.94
497.312	637.94
497.529	646.94
497.746	666.94
497.963	697.94
498.181	712.94
498.398	729.94
498.615	743.94
498.832	792.94
499.049	859.94
499.267	876.94
499.484	936.94
499.701	1001.94
499.918	1067.94
500.135	1142.94
500.352	1241.94
500.569	1258.94
500.786	1224.94
501.003	1181.94
501.22	1108.94
501.437	1042.94
501.654	973.94
501.871	929.94
502.088	845.94
502.305	830.94
502.522	774.94
502.739	767.94
502.956	767.94
503.172	712.94
503.389	684.94
503.606	684.94
503.823	666.94
504.04	676.94
504.256	692.94
504.473	669.94
504.69	634.94
504.907	649.94
505.123	621.94
505.34	593.94
505.557	579.94
505.773	595.94
505.99	558.94
506.207	564.94
506.423	553.94
506.64	534.94
506.856	546.94
507.073	534.94
507.289	524.94
507.506	531.94
507.722	525.94
507.939	492.94
508.155	521.94
508.372	529.94
508.588	496.94
508.805	496.94
509.021	497.94
509.238	484.94
509.454	504.94
509.67	480.94
509.887	504.94
510.103	485.94
510.319	500.94
510.536	484.94
510.752	480.94
510.968	497.94
511.184	478.94
511.401	482.94
511.617	481.94
511.833	490.94
512.049	508.94
512.265	487.94
512.481	496.94
512.698	473.94
512.914	471.94
513.13	472.94
513.346	487.94
513.562	511.94
513.778	485.94
513.994	488.94
514.21	485.94
514.426	496.94
514.642	487.94
514.858	502.94
515.074	514.94
515.29	526.94
515.506	516.94
515.721	515.94
515.937	504.94
516.153	530.94
516.369	544.94
516.585	534.94
516.801	568.94
517.016	575.94
517.232	570.94
517.448	577.94
517.664	600.94
517.879	588.94
518.095	575.94
518.311	590.94
518.527	580.94
518.742	561.94
518.958	552.94
519.173	538.94
519.389	520.94
519.605	508.94
519.82	527.94
520.036	526.94
520.251	504.94
520.467	488.94
520.682	476.94
520.898	474.94
521.113	475.94
521.329	470.94
521.544	464.94
521.76	429.94
521.975	459.94
522.19	455.94
522.406	476.94
522.621	476.94
522.836	462.94
523.052	459.94
523.267	448.94
523.482	440.94
523.698	443.94
523.913	452.94
524.128	453.94
524.343	433.94
524.559	452.94
524.774	434.94
524.989	456.94
525.204	450.94
525.419	431.94
525.634	445.94
525.849	437.94
526.064	466.94
526.28	452.94
526.495	438.94
526.71	433.94
526.925	437.94
527.14	443.94
527.355	436.94
527.57	441.94
527.785	446.94
527.999	458.94
528.214	452.94
528.429	448.94
528.644	444.94
528.859	431.94
529.074	442.94
529.289	446.94
529.503	460.94
529.718	441.94
529.933	446.94
530.148	426.94
530.363	434.94
530.577	438.94
530.792	429.94
531.007	425.94
531.221	452.94
531.436	455.94
531.651	454.94
531.865	447.94
532.08	433.94
532.295	420.94
532.509	449.94
532.724	429.94
532.938	424.94
533.153	426.94
533.367	428.94
533.582	436.94
533.796	439.94
534.011	430.94
534.225	419.94
534.44	435.94
534.654	446.94
534.868	447.94
535.083	444.94
535.297	415.94
535.511	429.94
535.726	432.94
535.94	394.94
536.154	413.94
536.369	417.94
536.583	413.94
536.797	413.94
537.011	430.94
537.225	424.94
537.44	406.94
537.654	412.94
537.868	420.94
538.082	423.94
538.296	397.94
538.51	424.94
538.724	410.94
538.938	416.94
539.153	432.94
539.367	428.94
539.581	399.94
539.795	403.94
540.009	389.94
540.222	390.94
540.436	405.94
540.65	402.94
540.864	388.94
541.078	403.94
541.292	399.94
541.506	401.94
541.72	397.94
541.934	394.94
542.147	400.94
542.361	399.94
542.575	408.94
542.789	416.94
543.002	390.94
543.216	382.94
543.43	377.94
543.644	410.94
543.857	406.94
544.071	411.94
544.285	391.94
544.498	408.94
544.712	413.94
544.925	405.94
545.139	412.94
545.352	399.94
545.566	397.94
545.779	407.94
545.993	424.94
546.206	424.94
546.42	409.94
546.633	412.94
546.847	420.94
547.06	407.94
547.274	410.94
547.487	410.94
547.7	403.94
547.914	421.94
548.127	409.94
548.34	401.94
548.554	425.94
548.767	419.94
548.98	418.94
549.193	401.94
549.407	412.94
549.62	425.94
549.833	403.94
550.046	410.94
550.259	410.94
550.473	409.94
550.686	420.94
550.899	430.94
551.112	404.94
551.325	420.94
551.538	402.94
551.751	402.94
551.964	413.94
552.177	425.94
552.39	408.94
552.603	428.94
552.816	424.94
553.029	415.94
553.242	430.94
553.455	426.94
553.667	436.94
553.88	441.94
554.093	412.94
554.306	423.94
554.519	414.94
554.732	417.94
554.944	409.94
555.157	396.94
555.37	393.94
555.583	379.94
555.795	389.94
556.008	378.94
556.221	373.94
556.433	372.94
556.646	380.94
556.859	360.94
557.071	367.94
557.284	378.94
557.496	379.94
557.709	354.94
557.921	379.94
558.134	329.94
558.346	356.94
558.559	346.94
558.771	368.94
558.984	338.94
559.196	355.94
559.409	356.94
559.621	364.94
559.833	358.94
560.046	351.94
560.258	333.94
560.47	344.94
560.683	345.94
560.895	353.94
561.107	346.94
561.32	355.94
561.532	347.94
561.744	348.94
561.956	338.94
562.168	348.94
562.381	347.94
562.593	368.94
562.805	367.94
563.017	362.94
563.229	364.94
563.441	354.94
563.653	354.94
563.865	360.94
564.077	360.94
564.289	362.94
564.501	364.94
564.713	396.94
564.925	358.94
565.137	379.94
565.349	395.94
565.561	385.94
565.773	422.94
565.985	411.94
566.197	427.94
566.408	461.94
566.62	469.94
566.832	484.94
567.044	493.94
567.255	488.94
567.467	500.94
567.679	518.94
567.891	505.94
568.102	519.94
568.314	484.94
568.526	459.94
568.737	445.94
568.949	439.94
569.161	424.94
569.372	392.94
569.584	397.94
569.795	376.94
570.007	371.94
570.218	361.94
570.43	377.94
570.641	343.94
570.853	338.94
571.064	342.94
571.276	338.94
571.487	329.94
571.698	322.94
571.91	331.94
572.121	321.94
572.333	308.94
572.544	320.94
572.755	306.94
572.966	327.94
573.178	310.94
573.389	296.94
573.6	292.94
573.811	300.94
574.023	305.94
574.234	292.94
574.445	300.94
574.656	308.94
574.867	296.94
575.078	299.94
575.289	298.94
575.501	301.94
575.712	288.94
575.923	290.94
576.134	271.94
576.345	282.94
576.556	282.94
576.767	275.94
576.978	275.94
577.188	287.94
577.399	264.94
577.61	284.94
577.821	288.94
578.032	278.94
578.243	262.94
578.454	277.94
578.665	264.94
578.875	272.94
579.086	277.94
579.297	261.94
579.508	252.94
579.718	275.94
579.929	283.94
580.14	260.94
580.35	270.94
580.561	276.94
580.772	274.94
580.982	269.94
581.193	273.94
581.403	247.94
581.614	246.94
581.825	268.94
582.035	271.94
582.246	262.94
582.456	263.94
582.667	247.94
582.877	248.94
583.087	247.94
583.298	268.94
583.508	261.94
583.719	256.94
583.929	248.94
584.139	244.94
584.35	253.94
584.56	254.94
584.77	255.94
584.981	259.94
585.191	228.94
585.401	250.94
585.611	243.94
585.821	251.94
586.032	261.94
586.242	246.94
586.452	249.94
586.662	237.94
586.872	262.94
587.082	264.94
587.292	230.94
587.502	235.94
587.713	224.94
587.923	247.94
588.133	252.94
588.343	238.94
588.553	242.94
588.762	244.94
588.972	243.94
589.182	269.94
589.392	274.94
589.602	252.94
589.812	264.94
590.022	274.94
590.232	263.94
590.441	266.94
590.651	236.94
590.861	244.94
591.071	235.94
591.281	248.94
591.49	256.94
591.7	275.94
591.91	273.94
592.119	256.94
592.329	264.94
592.539	277.94
592.748	256.94
592.958	290.94
593.167	279.94
593.377	282.94
593.587	286.94
593.796	268.94
594.006	264.94
594.215	281.94
594.424	293.94
594.634	273.94
594.843	262.94
595.053	258.94
595.262	263.94
595.472	250.94
595.681	259.94
595.89	254.94
596.1	234.94
596.309	233.94
596.518	258.94
596.727	246.94
596.937	244.94
597.146	223.94
597.355	236.94
597.564	240.94
597.774	224.94
597.983	210.94
598.192	218.94
598.401	218.94
598.61	214.94
598.819	228.94
599.028	198.94
599.237	204.94
599.446	227.94
599.655	226.94
599.864	224.94
600.073	212.94
600.282	218.94
600.491	200.94
600.7	216.94
600.909	221.94
601.118	208.94
601.327	218.94
601.536	213.94
601.745	216.94
601.953	228.94
602.162	212.94
602.371	218.94
602.58	216.94
602.789	226.94
602.997	211.94
603.206	214.94
603.415	197.94
603.623	206.94
603.832	201.94
604.041	197.94
604.249	204.94
604.458	205.94
604.666	208.94
604.875	205.94
605.084	219.94
605.292	196.94
605.501	213.94
605.709	218.94
605.918	215.94
606.126	202.94
606.334	201.94
606.543	195.94
606.751	202.94
606.96	190.94
607.168	213.94
607.376	201.94
607.585	216.94
607.793	205.94
608.001	195.94
608.21	199.94
608.418	196.94
608.626	197.94
608.834	200.94
609.043	199.94
609.251	214.94
609.459	202.94
609.667	209.94
609.875	201.94
610.083	199.94
610.291	214.94
610.499	194.94
610.707	199.94
610.916	194.94
611.124	193.94
611.332	179.94
611.54	188.94
611.748	184.94
611.955	189.94
612.163	192.94
612.371	203.94
612.579	193.94
612.787	202.94
612.995	192.94
613.203	212.94
613.411	204.94
613.618	197.94
613.826	208.94
614.034	199.94
614.242	168.94
614.449	192.94
614.657	184.94
614.865	208.94
615.072	198.94
615.28	183.94
615.488	183.94
615.695	196.94
615.903	205.94
616.111	209.94
616.318	216.94
616.526	184.94
616.733	196.94
616.941	200.94
617.148	192.94
617.356	201.94
617.563	189.94
617.771	208.94
617.978	184.94
618.185	184.94
618.393	196.94
618.6	189.94
618.807	180.94
619.015	203.94
619.222	178.94
619.429	196.94
619.637	191.94
619.844	200.94
620.051	184.94
620.258	184.94
620.466	183.94
620.673	209.94
620.88	178.94
621.087	185.94
621.294	190.94
621.501	193.94
621.708	189.94
621.915	182.94
622.122	171.94
622.329	192.94
622.536	180.94
622.743	184.94
622.95	188.94
623.157	197.94
623.364	169.94
623.571	181.94
623.778	176.94
623.985	184.94
624.192	194.94
624.399	181.94
624.606	190.94
624.812	181.94
625.019	176.94
625.226	180.94
625.433	176.94
625.639	166.94
625.846	182.94
626.053	169.94
626.259	181.94
626.466	181.94
626.673	181.94
626.879	157.94
627.086	161.94
627.293	172.94
627.499	177.94
627.706	167.94
627.912	163.94
628.119	188.94
628.325	164.94
628.532	161.94
628.738	171.94
628.945	180.94
629.151	171.94
629.357	154.94
629.564	167.94
629.77	164.94
629.976	162.94
630.183	173.94
630.389	169.94
630.595	181.94
630.802	180.94
631.008	155.94
631.214	185.94
631.42	166.94
631.627	185.94
631.833	164.94
632.039	176.94
632.245	151.94
632.451	173.94
632.657	168.94
632.863	156.94
633.069	157.94
633.275	160.94
633.481	163.94
633.688	162.94
633.893	170.94
634.099	153.94
634.305	162.94
634.511	168.94
634.717	166.94
634.923	166.94
635.129	163.94
635.335	157.94
635.541	167.94
635.747	165.94
635.952	157.94
636.158	145.94
636.364	165.94
636.57	160.94
636.775	151.94
636.981	153.94
637.187	165.94
637.392	162.94
637.598	160.94
637.804	161.94
638.009	161.94
638.215	155.94
638.421	151.94
638.626	160.94
638.832	146.94
639.037	146.94
639.243	164.94
639.448	162.94
639.654	166.94
639.859	162.94
640.065	155.94
640.27	158.94
640.475	156.94
640.681	150.94
640.886	153.94
641.091	158.94
641.297	167.94
641.502	163.94
641.707	157.94
641.913	159.94
642.118	148.94
642.323	148.94
642.528	167.94
642.733	158.94
642.939	156.94
643.144	144.94
643.349	166.94
643.554	154.94
643.759	141.94
643.964	157.94
644.169	169.94
644.374	145.94
644.579	145.94
644.784	157.94
644.989	152.94
645.194	155.94
645.399	147.94
645.604	154.94
645.809	155.94
646.014	155.94
646.219	154.94
646.423	149.94
646.628	156.94
646.833	162.94
647.038	153.94
647.243	147.94
647.447	160.94
647.652	166.94
647.857	150.94
648.062	149.94
648.266	149.94
648.471	169.94
648.676	181.94
648.88	166.94
649.085	147.94
649.289	171.94
649.494	162.94
649.698	150.94
649.903	155.94
650.107	152.94
650.312	151.94
650.516	150.94
650.721	158.94
650.925	143.94
651.13	149.94
651.334	168.94
651.539	156.94
651.743	146.94
651.947	155.94
652.152	162.94
652.356	154.94
652.56	151.94
652.764	139.94
652.969	141.94
653.173	145.94
653.377	142.94
653.581	148.94
653.785	135.94
653.99	144.94
654.194	140.94
654.398	140.94
654.602	151.94
654.806	134.94
655.01	139.94
655.214	133.94
655.418	146.94
655.622	150.94
655.826	127.94
656.03	145.94
656.234	156.94
656.438	146.94
656.642	132.94
656.846	153.94
657.049	134.94
657.253	131.94
657.457	158.94
657.661	123.94
657.865	128.94
658.068	112.94
658.272	117.94
658.476	108.94
658.68	126.94
658.883	125.94
659.087	92.94
659.291	118.94
659.494	116.94
659.698	102.94
659.901	108.94
660.105	106.94
660.309	91.94
660.512	102.94
660.716	105.94
660.919	85.94
661.123	106.94
661.326	105.94
661.53	93.94
661.733	112.94
661.936	100.94
662.14	85.94
662.343	84.94
662.546	103.94
662.75	81.94
662.953	82.94
663.156	85.94
663.36	86.94
663.563	86.94
663.766	93.94
663.969	92.94
664.173	88.94
664.376	82.94
664.579	85.94
664.782	93.94
664.985	94.94
665.188	71.94
665.391	74.94
665.594	76.94
665.797	87.94
666	77.94
666.203	82.94
666.406	88.94
666.609	68.94
666.812	93.94
667.015	90.94
667.218	71.94
667.421	82.94
667.624	96.94
667.827	76.94
668.03	77.94
668.232	68.94
668.435	78.94
668.638	76.94
668.841	88.94
669.043	74.94
669.246	85.94
669.449	70.94
669.651	103.94
669.854	86.94
670.057	78.94
670.259	77.94
670.462	80.94
670.665	70.94
670.867	90.94
671.07	82.94
671.272	91.94
671.475	84.94
671.677	75.94
671.88	87.94
672.082	83.94
672.284	83.94
672.487	84.94
672.689	85.94
672.892	81.94
