Data from Fe(NO3)3@0.1M.TitratingCurve.Agarose3%dH2O.NegLispCup.LampEnergy10.LIBS07252019_HRD10591_16-39-51-332.txt Node
Date: Thu Jul 25 16:39:51 EDT 2019
User: cochatt
Spectrometer: HR+D1059
Trigger mode: 1
Integration Time (sec): 1.000000E-1
Scans to average: 1
Electric dark correction enabled: true
Nonlinearity correction enabled: false
Boxcar width: 0
XAxis mode: Wavelengths
Number of Pixels in Spectrum: 2048
>>>>>Begin Spectral Data<<<<<
223.165	-22.75
223.4	-22.75
223.635	-22.75
223.869	-21.75
224.104	-27.75
224.338	-12.75
224.573	-14.75
224.808	1.25
225.042	-8.75
225.277	-6.75
225.511	-1.75
225.746	-6.75
225.98	15.25
226.215	12.25
226.449	18.25
226.683	15.25
226.918	40.25
227.152	21.25
227.387	32.25
227.621	52.25
227.856	55.25
228.09	56.25
228.324	41.25
228.559	46.25
228.793	65.25
229.027	71.25
229.262	65.25
229.496	74.25
229.73	87.25
229.964	86.25
230.199	75.25
230.433	82.25
230.667	91.25
230.901	103.25
231.136	98.25
231.37	80.25
231.604	97.25
231.838	103.25
232.072	84.25
232.306	81.25
232.541	81.25
232.775	93.25
233.009	95.25
233.243	102.25
233.477	103.25
233.711	92.25
233.945	94.25
234.179	101.25
234.413	85.25
234.647	99.25
234.881	101.25
235.115	84.25
235.349	90.25
235.583	95.25
235.817	96.25
236.051	80.25
236.285	86.25
236.519	89.25
236.753	94.25
236.987	95.25
237.221	86.25
237.455	91.25
237.689	87.25
237.922	91.25
238.156	97.25
238.39	98.25
238.624	82.25
238.858	97.25
239.091	82.25
239.325	91.25
239.559	88.25
239.793	94.25
240.027	113.25
240.26	104.25
240.494	99.25
240.728	106.25
240.961	89.25
241.195	83.25
241.429	101.25
241.662	92.25
241.896	105.25
242.13	96.25
242.363	94.25
242.597	89.25
242.83	96.25
243.064	86.25
243.298	92.25
243.531	98.25
243.765	100.25
243.998	108.25
244.232	100.25
244.465	105.25
244.699	113.25
244.932	92.25
245.166	98.25
245.399	97.25
245.633	92.25
245.866	90.25
246.099	108.25
246.333	110.25
246.566	102.25
246.8	108.25
247.033	99.25
247.266	106.25
247.5	99.25
247.733	99.25
247.966	107.25
248.2	92.25
248.433	118.25
248.666	106.25
248.899	106.25
249.133	106.25
249.366	121.25
249.599	108.25
249.832	106.25
250.066	103.25
250.299	108.25
250.532	117.25
250.765	121.25
250.998	100.25
251.231	108.25
251.465	111.25
251.698	101.25
251.931	120.25
252.164	113.25
252.397	114.25
252.63	97.25
252.863	114.25
253.096	113.25
253.329	101.25
253.562	98.25
253.795	104.25
254.028	119.25
254.261	105.25
254.494	108.25
254.727	123.25
254.96	107.25
255.193	117.25
255.426	110.25
255.659	117.25
255.892	110.25
256.124	121.25
256.357	105.25
256.59	105.25
256.823	120.25
257.056	123.25
257.289	123.25
257.521	122.25
257.754	139.25
257.987	118.25
258.22	136.25
258.452	123.25
258.685	119.25
258.918	112.25
259.151	124.25
259.383	114.25
259.616	119.25
259.849	119.25
260.081	107.25
260.314	106.25
260.547	129.25
260.779	123.25
261.012	137.25
261.244	119.25
261.477	123.25
261.71	123.25
261.942	118.25
262.175	122.25
262.407	117.25
262.64	121.25
262.872	126.25
263.105	122.25
263.337	144.25
263.57	134.25
263.802	125.25
264.035	122.25
264.267	126.25
264.499	130.25
264.732	128.25
264.964	121.25
265.197	117.25
265.429	137.25
265.661	107.25
265.894	123.25
266.126	137.25
266.358	112.25
266.591	124.25
266.823	122.25
267.055	127.25
267.287	133.25
267.52	135.25
267.752	142.25
267.984	120.25
268.216	125.25
268.448	139.25
268.681	113.25
268.913	127.25
269.145	140.25
269.377	122.25
269.609	141.25
269.841	128.25
270.073	119.25
270.306	141.25
270.538	125.25
270.77	114.25
271.002	129.25
271.234	133.25
271.466	145.25
271.698	145.25
271.93	126.25
272.162	103.25
272.394	133.25
272.626	143.25
272.858	140.25
273.09	135.25
273.322	128.25
273.553	129.25
273.785	121.25
274.017	125.25
274.249	129.25
274.481	141.25
274.713	137.25
274.945	135.25
275.176	149.25
275.408	139.25
275.64	138.25
275.872	144.25
276.104	133.25
276.335	126.25
276.567	141.25
276.799	131.25
277.031	142.25
277.262	146.25
277.494	149.25
277.726	147.25
277.957	139.25
278.189	133.25
278.421	147.25
278.652	153.25
278.884	141.25
279.115	134.25
279.347	159.25
279.579	149.25
279.81	139.25
280.042	149.25
280.273	141.25
280.505	138.25
280.736	141.25
280.968	142.25
281.199	144.25
281.431	143.25
281.662	163.25
281.894	155.25
282.125	153.25
282.356	157.25
282.588	157.25
282.819	143.25
283.051	141.25
283.282	155.25
283.513	139.25
283.745	149.25
283.976	158.25
284.207	158.25
284.439	173.25
284.67	141.25
284.901	151.25
285.132	160.25
285.364	157.25
285.595	141.25
285.826	150.25
286.057	151.25
286.288	171.25
286.52	152.25
286.751	153.25
286.982	166.25
287.213	147.25
287.444	153.25
287.675	153.25
287.906	154.25
288.138	162.25
288.369	161.25
288.6	162.25
288.831	147.25
289.062	160.25
289.293	170.25
289.524	164.25
289.755	147.25
289.986	149.25
290.217	185.25
290.448	167.25
290.679	169.25
290.91	156.25
291.141	153.25
291.371	164.25
291.602	164.25
291.833	165.25
292.064	167.25
292.295	161.25
292.526	162.25
292.757	144.25
292.987	158.25
293.218	154.25
293.449	167.25
293.68	174.25
293.91	169.25
294.141	172.25
294.372	146.25
294.603	153.25
294.833	156.25
295.064	163.25
295.295	179.25
295.525	157.25
295.756	167.25
295.987	154.25
296.217	168.25
296.448	142.25
296.679	162.25
296.909	172.25
297.14	165.25
297.37	165.25
297.601	167.25
297.831	165.25
298.062	171.25
298.292	172.25
298.523	170.25
298.753	180.25
298.984	179.25
299.214	175.25
299.445	183.25
299.675	169.25
299.905	174.25
300.136	151.25
300.366	169.25
300.597	181.25
300.827	167.25
301.057	171.25
301.288	183.25
301.518	177.25
301.748	172.25
301.979	180.25
302.209	166.25
302.439	162.25
302.669	180.25
302.9	159.25
303.13	181.25
303.36	166.25
303.59	177.25
303.82	191.25
304.051	190.25
304.281	190.25
304.511	200.25
304.741	179.25
304.971	181.25
305.201	191.25
305.431	168.25
305.661	184.25
305.891	174.25
306.121	194.25
306.352	169.25
306.582	172.25
306.812	189.25
307.042	174.25
307.272	168.25
307.502	169.25
307.731	173.25
307.961	182.25
308.191	172.25
308.421	171.25
308.651	177.25
308.881	188.25
309.111	163.25
309.341	181.25
309.571	174.25
309.8	172.25
310.03	179.25
310.26	174.25
310.49	189.25
310.72	171.25
310.949	183.25
311.179	180.25
311.409	177.25
311.639	187.25
311.868	178.25
312.098	189.25
312.328	195.25
312.557	181.25
312.787	188.25
313.017	178.25
313.246	183.25
313.476	181.25
313.706	190.25
313.935	185.25
314.165	196.25
314.394	200.25
314.624	181.25
314.853	188.25
315.083	197.25
315.312	185.25
315.542	183.25
315.771	187.25
316.001	176.25
316.23	193.25
316.46	174.25
316.689	177.25
316.919	172.25
317.148	181.25
317.377	191.25
317.607	172.25
317.836	196.25
318.065	172.25
318.295	199.25
318.524	191.25
318.753	171.25
318.983	166.25
319.212	195.25
319.441	198.25
319.67	183.25
319.9	187.25
320.129	188.25
320.358	191.25
320.587	179.25
320.816	166.25
321.046	190.25
321.275	182.25
321.504	195.25
321.733	189.25
321.962	189.25
322.191	190.25
322.42	190.25
322.649	181.25
322.878	196.25
323.108	181.25
323.337	195.25
323.566	188.25
323.795	186.25
324.024	192.25
324.253	193.25
324.482	182.25
324.71	188.25
324.939	185.25
325.168	195.25
325.397	192.25
325.626	195.25
325.855	194.25
326.084	187.25
326.313	197.25
326.542	215.25
326.77	209.25
326.999	211.25
327.228	196.25
327.457	201.25
327.686	194.25
327.914	196.25
328.143	204.25
328.372	204.25
328.6	199.25
328.829	212.25
329.058	186.25
329.287	197.25
329.515	196.25
329.744	195.25
329.972	212.25
330.201	204.25
330.43	217.25
330.658	206.25
330.887	192.25
331.115	199.25
331.344	205.25
331.572	215.25
331.801	206.25
332.03	222.25
332.258	213.25
332.486	222.25
332.715	236.25
332.943	222.25
333.172	226.25
333.4	231.25
333.629	239.25
333.857	245.25
334.085	231.25
334.314	253.25
334.542	237.25
334.771	245.25
334.999	237.25
335.227	251.25
335.455	244.25
335.684	230.25
335.912	225.25
336.14	232.25
336.369	246.25
336.597	229.25
336.825	214.25
337.053	245.25
337.281	234.25
337.51	223.25
337.738	223.25
337.966	218.25
338.194	215.25
338.422	220.25
338.65	207.25
338.878	207.25
339.106	207.25
339.334	211.25
339.562	201.25
339.79	215.25
340.018	215.25
340.246	195.25
340.474	201.25
340.702	210.25
340.93	218.25
341.158	206.25
341.386	216.25
341.614	200.25
341.842	219.25
342.07	231.25
342.298	200.25
342.526	204.25
342.754	202.25
342.981	205.25
343.209	204.25
343.437	221.25
343.665	223.25
343.893	235.25
344.12	255.25
344.348	250.25
344.576	232.25
344.804	221.25
345.031	213.25
345.259	219.25
345.487	215.25
345.714	203.25
345.942	209.25
346.17	224.25
346.397	217.25
346.625	199.25
346.853	202.25
347.08	201.25
347.308	187.25
347.535	214.25
347.763	209.25
347.99	217.25
348.218	217.25
348.445	205.25
348.673	189.25
348.9	205.25
349.128	210.25
349.355	201.25
349.583	199.25
349.81	208.25
350.037	205.25
350.265	207.25
350.492	195.25
350.72	209.25
350.947	202.25
351.174	191.25
351.402	167.25
351.629	187.25
351.856	187.25
352.083	196.25
352.311	194.25
352.538	190.25
352.765	193.25
352.992	198.25
353.22	197.25
353.447	204.25
353.674	213.25
353.901	208.25
354.128	208.25
354.355	201.25
354.583	206.25
354.81	201.25
355.037	200.25
355.264	211.25
355.491	202.25
355.718	216.25
355.945	191.25
356.172	210.25
356.399	216.25
356.626	184.25
356.853	212.25
357.08	205.25
357.307	197.25
357.534	210.25
357.761	223.25
357.988	208.25
358.215	188.25
358.441	206.25
358.668	198.25
358.895	198.25
359.122	215.25
359.349	206.25
359.576	185.25
359.802	200.25
360.029	206.25
360.256	202.25
360.483	200.25
360.709	195.25
360.936	206.25
361.163	210.25
361.39	191.25
361.616	193.25
361.843	211.25
362.07	215.25
362.296	210.25
362.523	194.25
362.749	213.25
362.976	204.25
363.203	190.25
363.429	210.25
363.656	197.25
363.882	216.25
364.109	200.25
364.335	209.25
364.562	195.25
364.788	195.25
365.015	211.25
365.241	209.25
365.468	215.25
365.694	206.25
365.92	203.25
366.147	205.25
366.373	214.25
366.599	197.25
366.826	201.25
367.052	211.25
367.278	214.25
367.505	211.25
367.731	195.25
367.957	203.25
368.184	217.25
368.41	208.25
368.636	207.25
368.862	218.25
369.089	214.25
369.315	213.25
369.541	211.25
369.767	207.25
369.993	194.25
370.219	209.25
370.445	216.25
370.672	209.25
370.898	227.25
371.124	235.25
371.35	219.25
371.576	205.25
371.802	204.25
372.028	219.25
372.254	236.25
372.48	226.25
372.706	219.25
372.932	246.25
373.158	222.25
373.384	218.25
373.61	217.25
373.835	203.25
374.061	232.25
374.287	214.25
374.513	238.25
374.739	213.25
374.965	231.25
375.191	235.25
375.416	240.25
375.642	235.25
375.868	239.25
376.094	236.25
376.319	225.25
376.545	219.25
376.771	227.25
376.997	212.25
377.222	220.25
377.448	212.25
377.674	211.25
377.899	235.25
378.125	237.25
378.35	229.25
378.576	223.25
378.802	218.25
379.027	224.25
379.253	228.25
379.478	210.25
379.704	233.25
379.929	220.25
380.155	210.25
380.38	210.25
380.606	225.25
380.831	237.25
381.057	223.25
381.282	226.25
381.507	230.25
381.733	212.25
381.958	210.25
382.184	222.25
382.409	228.25
382.634	241.25
382.86	242.25
383.085	226.25
383.31	241.25
383.535	229.25
383.761	243.25
383.986	258.25
384.211	239.25
384.436	246.25
384.662	273.25
384.887	271.25
385.112	251.25
385.337	252.25
385.562	244.25
385.787	263.25
386.013	263.25
386.238	260.25
386.463	272.25
386.688	241.25
386.913	259.25
387.138	261.25
387.363	266.25
387.588	247.25
387.813	271.25
388.038	266.25
388.263	261.25
388.488	261.25
388.713	259.25
388.938	251.25
389.163	270.25
389.387	259.25
389.612	249.25
389.837	244.25
390.062	246.25
390.287	278.25
390.512	250.25
390.736	252.25
390.961	266.25
391.186	282.25
391.411	280.25
391.636	279.25
391.86	284.25
392.085	289.25
392.31	281.25
392.534	256.25
392.759	283.25
392.984	257.25
393.208	265.25
393.433	270.25
393.658	260.25
393.882	263.25
394.107	267.25
394.331	266.25
394.556	275.25
394.78	277.25
395.005	278.25
395.229	263.25
395.454	275.25
395.678	297.25
395.903	274.25
396.127	294.25
396.352	265.25
396.576	268.25
396.801	274.25
397.025	289.25
397.249	289.25
397.474	310.25
397.698	287.25
397.922	303.25
398.147	289.25
398.371	327.25
398.595	291.25
398.82	310.25
399.044	323.25
399.268	353.25
399.492	403.25
399.717	424.25
399.941	415.25
400.165	363.25
400.389	343.25
400.613	319.25
400.837	305.25
401.062	315.25
401.286	306.25
401.51	309.25
401.734	299.25
401.958	298.25
402.182	308.25
402.406	307.25
402.63	335.25
402.854	338.25
403.078	331.25
403.302	341.25
403.526	334.25
403.75	326.25
403.974	342.25
404.198	355.25
404.422	350.25
404.645	348.25
404.869	311.25
405.093	344.25
405.317	334.25
405.541	340.25
405.765	339.25
405.988	329.25
406.212	317.25
406.436	334.25
406.66	340.25
406.883	348.25
407.107	384.25
407.331	360.25
407.555	391.25
407.778	380.25
408.002	382.25
408.226	387.25
408.449	369.25
408.673	336.25
408.896	345.25
409.12	357.25
409.344	350.25
409.567	333.25
409.791	354.25
410.014	341.25
410.238	339.25
410.461	333.25
410.685	333.25
410.908	350.25
411.132	335.25
411.355	332.25
411.578	356.25
411.802	334.25
412.025	350.25
412.249	334.25
412.472	330.25
412.695	330.25
412.919	325.25
413.142	324.25
413.365	312.25
413.589	341.25
413.812	315.25
414.035	302.25
414.258	322.25
414.482	312.25
414.705	326.25
414.928	323.25
415.151	320.25
415.374	326.25
415.597	314.25
415.821	303.25
416.044	317.25
416.267	312.25
416.49	326.25
416.713	300.25
416.936	314.25
417.159	310.25
417.382	321.25
417.605	314.25
417.828	315.25
418.051	334.25
418.274	326.25
418.497	313.25
418.72	309.25
418.943	335.25
419.166	362.25
419.389	341.25
419.611	354.25
419.834	340.25
420.057	333.25
420.28	322.25
420.503	321.25
420.726	327.25
420.948	327.25
421.171	310.25
421.394	316.25
421.617	329.25
421.839	326.25
422.062	335.25
422.285	328.25
422.507	322.25
422.73	306.25
422.953	321.25
423.175	334.25
423.398	326.25
423.621	345.25
423.843	350.25
424.066	349.25
424.288	335.25
424.511	332.25
424.733	346.25
424.956	335.25
425.178	334.25
425.401	324.25
425.623	309.25
425.846	303.25
426.068	312.25
426.291	310.25
426.513	313.25
426.735	317.25
426.958	316.25
427.18	309.25
427.402	308.25
427.625	293.25
427.847	299.25
428.069	290.25
428.292	306.25
428.514	296.25
428.736	296.25
428.958	284.25
429.181	278.25
429.403	296.25
429.625	302.25
429.847	289.25
430.069	297.25
430.292	294.25
430.514	309.25
430.736	289.25
430.958	308.25
431.18	307.25
431.402	301.25
431.624	289.25
431.846	309.25
432.068	299.25
432.29	300.25
432.512	299.25
432.734	311.25
432.956	294.25
433.178	311.25
433.4	297.25
433.622	321.25
433.844	285.25
434.066	298.25
434.287	279.25
434.509	302.25
434.731	314.25
434.953	314.25
435.175	324.25
435.397	331.25
435.618	299.25
435.84	301.25
436.062	302.25
436.284	300.25
436.505	312.25
436.727	307.25
436.949	300.25
437.17	298.25
437.392	287.25
437.614	320.25
437.835	295.25
438.057	288.25
438.278	295.25
438.5	296.25
438.721	302.25
438.943	307.25
439.165	301.25
439.386	286.25
439.608	297.25
439.829	309.25
440.05	322.25
440.272	298.25
440.493	313.25
440.715	313.25
440.936	326.25
441.158	297.25
441.379	329.25
441.6	364.25
441.822	350.25
442.043	338.25
442.264	340.25
442.486	332.25
442.707	337.25
442.928	312.25
443.149	333.25
443.371	337.25
443.592	338.25
443.813	326.25
444.034	329.25
444.255	344.25
444.476	362.25
444.698	374.25
444.919	396.25
445.14	462.25
445.361	402.25
445.582	352.25
445.803	369.25
446.024	333.25
446.245	334.25
446.466	334.25
446.687	329.25
446.908	335.25
447.129	316.25
447.35	319.25
447.571	311.25
447.792	300.25
448.013	309.25
448.234	293.25
448.455	299.25
448.675	290.25
448.896	292.25
449.117	307.25
449.338	283.25
449.559	312.25
449.779	292.25
450	278.25
450.221	302.25
450.442	296.25
450.662	276.25
450.883	297.25
451.104	308.25
451.324	312.25
451.545	288.25
451.766	276.25
451.986	290.25
452.207	285.25
452.428	289.25
452.648	285.25
452.869	281.25
453.089	277.25
453.31	287.25
453.53	275.25
453.751	277.25
453.971	292.25
454.192	278.25
454.412	265.25
454.633	285.25
454.853	281.25
455.073	275.25
455.294	267.25
455.514	278.25
455.734	249.25
455.955	245.25
456.175	289.25
456.395	274.25
456.616	272.25
456.836	275.25
457.056	275.25
457.276	261.25
457.497	253.25
457.717	281.25
457.937	288.25
458.157	298.25
458.377	271.25
458.598	285.25
458.818	298.25
459.038	275.25
459.258	300.25
459.478	295.25
459.698	310.25
459.918	309.25
460.138	347.25
460.358	339.25
460.578	351.25
460.798	350.25
461.018	350.25
461.238	347.25
461.458	351.25
461.678	349.25
461.898	350.25
462.118	353.25
462.338	373.25
462.558	381.25
462.777	389.25
462.997	415.25
463.217	429.25
463.437	434.25
463.657	409.25
463.876	392.25
464.096	373.25
464.316	377.25
464.536	369.25
464.755	379.25
464.975	371.25
465.195	321.25
465.414	329.25
465.634	310.25
465.854	309.25
466.073	311.25
466.293	318.25
466.512	306.25
466.732	307.25
466.951	303.25
467.171	301.25
467.391	299.25
467.61	322.25
467.829	300.25
468.049	291.25
468.268	286.25
468.488	296.25
468.707	286.25
468.927	310.25
469.146	307.25
469.365	293.25
469.585	283.25
469.804	306.25
470.023	309.25
470.243	315.25
470.462	306.25
470.681	309.25
470.901	325.25
471.12	297.25
471.339	303.25
471.558	294.25
471.777	275.25
471.997	275.25
472.216	301.25
472.435	271.25
472.654	275.25
472.873	269.25
473.092	280.25
473.311	278.25
473.53	295.25
473.749	289.25
473.968	285.25
474.187	278.25
474.406	286.25
474.625	270.25
474.844	296.25
475.063	299.25
475.282	284.25
475.501	278.25
475.72	286.25
475.939	275.25
476.158	298.25
476.377	294.25
476.596	300.25
476.814	294.25
477.033	287.25
477.252	292.25
477.471	309.25
477.69	307.25
477.908	321.25
478.127	321.25
478.346	331.25
478.564	321.25
478.783	312.25
479.002	335.25
479.22	334.25
479.439	318.25
479.658	310.25
479.876	325.25
480.095	341.25
480.313	350.25
480.532	353.25
480.751	358.25
480.969	338.25
481.188	310.25
481.406	313.25
481.624	317.25
481.843	305.25
482.061	301.25
482.28	287.25
482.498	291.25
482.717	320.25
482.935	303.25
483.153	309.25
483.372	329.25
483.59	309.25
483.808	309.25
484.027	309.25
484.245	307.25
484.463	327.25
484.681	326.25
484.9	322.25
485.118	329.25
485.336	323.25
485.554	331.25
485.772	299.25
485.99	314.25
486.209	321.25
486.427	313.25
486.645	325.25
486.863	332.25
487.081	325.25
487.299	314.25
487.517	322.25
487.735	330.25
487.953	336.25
488.171	339.25
488.389	332.25
488.607	330.25
488.825	313.25
489.043	310.25
489.261	325.25
489.479	331.25
489.696	307.25
489.914	322.25
490.132	329.25
490.35	325.25
490.568	314.25
490.786	322.25
491.003	322.25
491.221	314.25
491.439	317.25
491.657	325.25
491.874	332.25
492.092	341.25
492.31	359.25
492.527	345.25
492.745	344.25
492.963	366.25
493.18	331.25
493.398	319.25
493.615	312.25
493.833	329.25
494.05	341.25
494.268	323.25
494.485	350.25
494.703	355.25
494.92	351.25
495.138	339.25
495.355	332.25
495.573	333.25
495.79	347.25
496.008	332.25
496.225	334.25
496.442	348.25
496.66	363.25
496.877	361.25
497.094	362.25
497.312	342.25
497.529	363.25
497.746	349.25
497.963	375.25
498.181	384.25
498.398	405.25
498.615	417.25
498.832	436.25
499.049	466.25
499.267	522.25
499.484	542.25
499.701	575.25
499.918	638.25
500.135	701.25
500.352	773.25
500.569	808.25
500.786	777.25
501.003	722.25
501.22	664.25
501.437	599.25
501.654	561.25
501.871	491.25
502.088	460.25
502.305	444.25
502.522	428.25
502.739	425.25
502.956	411.25
503.172	382.25
503.389	373.25
503.606	353.25
503.823	365.25
504.04	372.25
504.256	381.25
504.473	380.25
504.69	372.25
504.907	365.25
505.123	331.25
505.34	318.25
505.557	315.25
505.773	333.25
505.99	314.25
506.207	298.25
506.423	297.25
506.64	299.25
506.856	321.25
507.073	292.25
507.289	298.25
507.506	295.25
507.722	289.25
507.939	293.25
508.155	276.25
508.372	279.25
508.588	284.25
508.805	310.25
509.021	278.25
509.238	287.25
509.454	278.25
509.67	286.25
509.887	277.25
510.103	275.25
510.319	259.25
510.536	265.25
510.752	264.25
510.968	274.25
511.184	279.25
511.401	282.25
511.617	266.25
511.833	271.25
512.049	287.25
512.265	277.25
512.481	282.25
512.698	290.25
512.914	257.25
513.13	268.25
513.346	277.25
513.562	281.25
513.778	257.25
513.994	277.25
514.21	256.25
514.426	271.25
514.642	285.25
514.858	275.25
515.074	287.25
515.29	294.25
515.506	282.25
515.721	299.25
515.937	303.25
516.153	300.25
516.369	296.25
516.585	300.25
516.801	309.25
517.016	328.25
517.232	339.25
517.448	341.25
517.664	341.25
517.879	329.25
518.095	346.25
518.311	341.25
518.527	320.25
518.742	310.25
518.958	298.25
519.173	313.25
519.389	277.25
519.605	308.25
519.82	276.25
520.036	282.25
520.251	285.25
520.467	279.25
520.682	274.25
520.898	295.25
521.113	269.25
521.329	287.25
521.544	282.25
521.76	256.25
521.975	259.25
522.19	241.25
522.406	279.25
522.621	282.25
522.836	268.25
523.052	273.25
523.267	267.25
523.482	244.25
523.698	255.25
523.913	252.25
524.128	249.25
524.343	264.25
524.559	262.25
524.774	263.25
524.989	262.25
525.204	267.25
525.419	253.25
525.634	253.25
525.849	237.25
526.064	245.25
526.28	242.25
526.495	246.25
526.71	251.25
526.925	261.25
527.14	249.25
527.355	246.25
527.57	241.25
527.785	266.25
527.999	249.25
528.214	259.25
528.429	262.25
528.644	254.25
528.859	283.25
529.074	255.25
529.289	250.25
529.503	250.25
529.718	261.25
529.933	260.25
530.148	232.25
530.363	234.25
530.577	255.25
530.792	255.25
531.007	256.25
531.221	255.25
531.436	244.25
531.651	237.25
531.865	235.25
532.08	242.25
532.295	259.25
532.509	252.25
532.724	279.25
532.938	265.25
533.153	241.25
533.367	244.25
533.582	236.25
533.796	250.25
534.011	249.25
534.225	258.25
534.44	257.25
534.654	245.25
534.868	239.25
535.083	270.25
535.297	238.25
535.511	275.25
535.726	241.25
535.94	249.25
536.154	259.25
536.369	250.25
536.583	236.25
536.797	231.25
537.011	225.25
537.225	232.25
537.44	231.25
537.654	239.25
537.868	237.25
538.082	224.25
538.296	235.25
538.51	222.25
538.724	213.25
538.938	235.25
539.153	244.25
539.367	238.25
539.581	226.25
539.795	227.25
540.009	240.25
540.222	216.25
540.436	228.25
540.65	230.25
540.864	240.25
541.078	245.25
541.292	236.25
541.506	241.25
541.72	247.25
541.934	234.25
542.147	238.25
542.361	240.25
542.575	209.25
542.789	222.25
543.002	209.25
543.216	231.25
543.43	233.25
543.644	229.25
543.857	230.25
544.071	229.25
544.285	237.25
544.498	221.25
544.712	234.25
544.925	221.25
545.139	247.25
545.352	242.25
545.566	225.25
545.779	230.25
545.993	236.25
546.206	238.25
546.42	233.25
546.633	233.25
546.847	228.25
547.06	238.25
547.274	247.25
547.487	245.25
547.7	230.25
547.914	246.25
548.127	244.25
548.34	223.25
548.554	234.25
548.767	242.25
548.98	236.25
549.193	222.25
549.407	232.25
549.62	244.25
549.833	241.25
550.046	236.25
550.259	242.25
550.473	234.25
550.686	243.25
550.899	247.25
551.112	223.25
551.325	244.25
551.538	245.25
551.751	229.25
551.964	243.25
552.177	232.25
552.39	247.25
552.603	251.25
552.816	244.25
553.029	256.25
553.242	244.25
553.455	242.25
553.667	261.25
553.88	255.25
554.093	237.25
554.306	249.25
554.519	229.25
554.732	255.25
554.944	230.25
555.157	236.25
555.37	234.25
555.583	218.25
555.795	215.25
556.008	215.25
556.221	225.25
556.433	221.25
556.646	212.25
556.859	227.25
557.071	222.25
557.284	218.25
557.496	223.25
557.709	237.25
557.921	216.25
558.134	200.25
558.346	192.25
558.559	208.25
558.771	204.25
558.984	213.25
559.196	218.25
559.409	216.25
559.621	207.25
559.833	208.25
560.046	204.25
560.258	196.25
560.47	215.25
560.683	202.25
560.895	201.25
561.107	211.25
561.32	206.25
561.532	198.25
561.744	217.25
561.956	214.25
562.168	230.25
562.381	220.25
562.593	223.25
562.805	217.25
563.017	229.25
563.229	209.25
563.441	207.25
563.653	215.25
563.865	217.25
564.077	220.25
564.289	220.25
564.501	222.25
564.713	219.25
564.925	230.25
565.137	224.25
565.349	228.25
565.561	237.25
565.773	243.25
565.985	257.25
566.197	247.25
566.408	261.25
566.62	259.25
566.832	303.25
567.044	293.25
567.255	296.25
567.467	292.25
567.679	302.25
567.891	337.25
568.102	317.25
568.314	312.25
568.526	275.25
568.737	281.25
568.949	276.25
569.161	234.25
569.372	228.25
569.584	238.25
569.795	200.25
570.007	212.25
570.218	213.25
570.43	221.25
570.641	208.25
570.853	207.25
571.064	203.25
571.276	202.25
571.487	204.25
571.698	192.25
571.91	213.25
572.121	191.25
572.333	188.25
572.544	186.25
572.755	190.25
572.966	182.25
573.178	190.25
573.389	179.25
573.6	184.25
573.811	182.25
574.023	190.25
574.234	168.25
574.445	192.25
574.656	173.25
574.867	175.25
575.078	186.25
575.289	190.25
575.501	184.25
575.712	175.25
575.923	182.25
576.134	159.25
576.345	169.25
576.556	176.25
576.767	173.25
576.978	170.25
577.188	162.25
577.399	164.25
577.61	172.25
577.821	161.25
578.032	164.25
578.243	171.25
578.454	172.25
578.665	179.25
578.875	173.25
579.086	164.25
579.297	190.25
579.508	162.25
579.718	181.25
579.929	168.25
580.14	161.25
580.35	184.25
580.561	174.25
580.772	163.25
580.982	148.25
581.193	156.25
581.403	172.25
581.614	169.25
581.825	171.25
582.035	172.25
582.246	175.25
582.456	179.25
582.667	185.25
582.877	160.25
583.087	157.25
583.298	169.25
583.508	152.25
583.719	143.25
583.929	165.25
584.139	158.25
584.35	150.25
584.56	171.25
584.77	149.25
584.981	168.25
585.191	156.25
585.401	156.25
585.611	156.25
585.821	159.25
586.032	161.25
586.242	141.25
586.452	140.25
586.662	157.25
586.872	160.25
587.082	156.25
587.292	154.25
587.502	154.25
587.713	164.25
587.923	163.25
588.133	168.25
588.343	162.25
588.553	167.25
588.762	167.25
588.972	159.25
589.182	139.25
589.392	153.25
589.602	157.25
589.812	154.25
590.022	149.25
590.232	177.25
590.441	168.25
590.651	152.25
590.861	155.25
591.071	161.25
591.281	152.25
591.49	149.25
591.7	167.25
591.91	177.25
592.119	167.25
592.329	162.25
592.539	180.25
592.748	167.25
592.958	179.25
593.167	168.25
593.377	175.25
593.587	197.25
593.796	179.25
594.006	170.25
594.215	193.25
594.424	193.25
594.634	190.25
594.843	195.25
595.053	163.25
595.262	166.25
595.472	161.25
595.681	167.25
595.89	166.25
596.1	159.25
596.309	163.25
596.518	156.25
596.727	163.25
596.937	150.25
597.146	150.25
597.355	158.25
597.564	149.25
597.774	150.25
597.983	162.25
598.192	153.25
598.401	156.25
598.61	154.25
598.819	146.25
599.028	154.25
599.237	139.25
599.446	152.25
599.655	137.25
599.864	141.25
600.073	130.25
600.282	152.25
600.491	144.25
600.7	130.25
600.909	151.25
601.118	148.25
601.327	144.25
601.536	153.25
601.745	143.25
601.953	161.25
602.162	133.25
602.371	133.25
602.58	130.25
602.789	131.25
602.997	140.25
603.206	160.25
603.415	134.25
603.623	140.25
603.832	133.25
604.041	138.25
604.249	133.25
604.458	134.25
604.666	139.25
604.875	134.25
605.084	154.25
605.292	132.25
605.501	145.25
605.709	143.25
605.918	139.25
606.126	146.25
606.334	143.25
606.543	136.25
606.751	151.25
606.96	133.25
607.168	137.25
607.376	149.25
607.585	132.25
607.793	137.25
608.001	144.25
608.21	130.25
608.418	128.25
608.626	134.25
608.834	125.25
609.043	142.25
609.251	133.25
609.459	150.25
609.667	132.25
609.875	140.25
610.083	139.25
610.291	141.25
610.499	138.25
610.707	136.25
610.916	136.25
611.124	137.25
611.332	140.25
611.54	130.25
611.748	137.25
611.955	119.25
612.163	131.25
612.371	140.25
612.579	136.25
612.787	128.25
612.995	138.25
613.203	127.25
613.411	121.25
613.618	119.25
613.826	138.25
614.034	128.25
614.242	150.25
614.449	122.25
614.657	148.25
614.865	133.25
615.072	121.25
615.28	141.25
615.488	131.25
615.695	126.25
615.903	143.25
616.111	121.25
616.318	128.25
616.526	127.25
616.733	143.25
616.941	137.25
617.148	130.25
617.356	142.25
617.563	138.25
617.771	147.25
617.978	144.25
618.185	133.25
618.393	127.25
618.6	128.25
618.807	131.25
619.015	131.25
619.222	133.25
619.429	143.25
619.637	130.25
619.844	137.25
620.051	137.25
620.258	132.25
620.466	131.25
620.673	130.25
620.88	132.25
621.087	130.25
621.294	142.25
621.501	133.25
621.708	118.25
621.915	125.25
622.122	116.25
622.329	127.25
622.536	127.25
622.743	108.25
622.95	134.25
623.157	117.25
623.364	131.25
623.571	139.25
623.778	128.25
623.985	133.25
624.192	124.25
624.399	129.25
624.606	114.25
624.812	137.25
625.019	137.25
625.226	129.25
625.433	131.25
625.639	131.25
625.846	116.25
626.053	119.25
626.259	125.25
626.466	109.25
626.673	119.25
626.879	117.25
627.086	147.25
627.293	145.25
627.499	123.25
627.706	134.25
627.912	133.25
628.119	116.25
628.325	125.25
628.532	134.25
628.738	141.25
628.945	124.25
629.151	124.25
629.357	117.25
629.564	111.25
629.77	125.25
629.976	114.25
630.183	124.25
630.389	117.25
630.595	125.25
630.802	120.25
631.008	107.25
631.214	111.25
631.42	131.25
631.627	102.25
631.833	113.25
632.039	131.25
632.245	106.25
632.451	127.25
632.657	123.25
632.863	108.25
633.069	110.25
633.275	118.25
633.481	127.25
633.688	120.25
633.893	127.25
634.099	120.25
634.305	129.25
634.511	126.25
634.717	108.25
634.923	104.25
635.129	105.25
635.335	105.25
635.541	110.25
635.747	121.25
635.952	122.25
636.158	112.25
636.364	126.25
636.57	118.25
636.775	130.25
636.981	117.25
637.187	115.25
637.392	115.25
637.598	125.25
637.804	129.25
638.009	104.25
638.215	121.25
638.421	109.25
638.626	125.25
638.832	117.25
639.037	114.25
639.243	106.25
639.448	114.25
639.654	118.25
639.859	115.25
640.065	118.25
640.27	113.25
640.475	111.25
640.681	105.25
640.886	105.25
641.091	111.25
641.297	122.25
641.502	115.25
641.707	120.25
641.913	128.25
642.118	121.25
642.323	122.25
642.528	117.25
642.733	119.25
642.939	113.25
643.144	108.25
643.349	109.25
643.554	119.25
643.759	123.25
643.964	128.25
644.169	110.25
644.374	117.25
644.579	117.25
644.784	117.25
644.989	126.25
645.194	114.25
645.399	102.25
645.604	110.25
645.809	116.25
646.014	117.25
646.219	106.25
646.423	113.25
646.628	104.25
646.833	126.25
647.038	118.25
647.243	120.25
647.447	122.25
647.652	113.25
647.857	129.25
648.062	114.25
648.266	118.25
648.471	116.25
648.676	114.25
648.88	135.25
649.085	101.25
649.289	110.25
649.494	114.25
649.698	120.25
649.903	105.25
650.107	117.25
650.312	110.25
650.516	125.25
650.721	117.25
650.925	110.25
651.13	124.25
651.334	106.25
651.539	99.25
651.743	111.25
651.947	115.25
652.152	124.25
652.356	114.25
652.56	103.25
652.764	109.25
652.969	118.25
653.173	106.25
653.377	137.25
653.581	105.25
653.785	101.25
653.99	106.25
654.194	110.25
654.398	112.25
654.602	100.25
654.806	101.25
655.01	111.25
655.214	104.25
655.418	101.25
655.622	107.25
655.826	109.25
656.03	112.25
656.234	109.25
656.438	112.25
656.642	117.25
656.846	94.25
657.049	106.25
657.253	107.25
657.457	115.25
657.661	102.25
657.865	110.25
658.068	116.25
658.272	103.25
658.476	104.25
658.68	114.25
658.883	113.25
659.087	103.25
659.291	97.25
659.494	95.25
659.698	92.25
659.901	100.25
660.105	83.25
660.309	78.25
660.512	88.25
660.716	87.25
660.919	89.25
661.123	97.25
661.326	88.25
661.53	90.25
661.733	87.25
661.936	91.25
662.14	90.25
662.343	81.25
662.546	85.25
662.75	88.25
662.953	93.25
663.156	101.25
663.36	77.25
663.563	89.25
663.766	84.25
663.969	78.25
664.173	75.25
664.376	98.25
664.579	99.25
664.782	79.25
664.985	82.25
665.188	79.25
665.391	91.25
665.594	81.25
665.797	87.25
666	89.25
666.203	85.25
666.406	86.25
666.609	101.25
666.812	72.25
667.015	94.25
667.218	87.25
667.421	89.25
667.624	91.25
667.827	98.25
668.03	75.25
668.232	93.25
668.435	84.25
668.638	93.25
668.841	89.25
669.043	79.25
669.246	83.25
669.449	83.25
669.651	85.25
669.854	76.25
670.057	83.25
670.259	92.25
670.462	93.25
670.665	85.25
670.867	83.25
671.07	99.25
671.272	87.25
671.475	89.25
671.677	92.25
671.88	89.25
672.082	93.25
672.284	87.25
672.487	87.25
672.689	78.25
672.892	85.25
