Data from Fe(NO3)3@0.1M.TitratingCurve.Agarose3%dH2O.NegLispCup.LampEnergy10.LIBS07252019_HRD10591_16-39-28-332.txt Node
Date: Thu Jul 25 16:39:28 EDT 2019
User: cochatt
Spectrometer: HR+D1059
Trigger mode: 1
Integration Time (sec): 1.000000E-1
Scans to average: 1
Electric dark correction enabled: true
Nonlinearity correction enabled: false
Boxcar width: 0
XAxis mode: Wavelengths
Number of Pixels in Spectrum: 2048
>>>>>Begin Spectral Data<<<<<
223.165	-11.5
223.4	-11.5
223.635	-11.5
223.869	-13.5
224.104	-15.5
224.338	-29.5
224.573	-8.5
224.808	-23.5
225.042	5.5
225.277	-5.5
225.511	-6.5
225.746	-6.5
225.98	17.5
226.215	17.5
226.449	9.5
226.683	25.5
226.918	25.5
227.152	19.5
227.387	36.5
227.621	41.5
227.856	44.5
228.09	45.5
228.324	48.5
228.559	51.5
228.793	65.5
229.027	80.5
229.262	74.5
229.496	75.5
229.73	71.5
229.964	88.5
230.199	102.5
230.433	86.5
230.667	88.5
230.901	93.5
231.136	100.5
231.37	90.5
231.604	105.5
231.838	119.5
232.072	94.5
232.306	87.5
232.541	95.5
232.775	83.5
233.009	101.5
233.243	85.5
233.477	91.5
233.711	90.5
233.945	102.5
234.179	102.5
234.413	99.5
234.647	115.5
234.881	92.5
235.115	90.5
235.349	88.5
235.583	91.5
235.817	88.5
236.051	91.5
236.285	95.5
236.519	100.5
236.753	101.5
236.987	83.5
237.221	92.5
237.455	100.5
237.689	95.5
237.922	110.5
238.156	101.5
238.39	89.5
238.624	89.5
238.858	93.5
239.091	94.5
239.325	96.5
239.559	105.5
239.793	116.5
240.027	118.5
240.26	105.5
240.494	105.5
240.728	100.5
240.961	104.5
241.195	103.5
241.429	111.5
241.662	111.5
241.896	110.5
242.13	90.5
242.363	107.5
242.597	107.5
242.83	106.5
243.064	108.5
243.298	102.5
243.531	116.5
243.765	109.5
243.998	115.5
244.232	94.5
244.465	112.5
244.699	117.5
244.932	104.5
245.166	123.5
245.399	121.5
245.633	115.5
245.866	113.5
246.099	104.5
246.333	119.5
246.566	115.5
246.8	116.5
247.033	124.5
247.266	103.5
247.5	105.5
247.733	110.5
247.966	116.5
248.2	125.5
248.433	148.5
248.666	135.5
248.899	106.5
249.133	126.5
249.366	137.5
249.599	118.5
249.832	130.5
250.066	115.5
250.299	122.5
250.532	115.5
250.765	122.5
250.998	145.5
251.231	139.5
251.465	117.5
251.698	127.5
251.931	147.5
252.164	121.5
252.397	122.5
252.63	136.5
252.863	122.5
253.096	139.5
253.329	138.5
253.562	116.5
253.795	127.5
254.028	131.5
254.261	147.5
254.494	123.5
254.727	123.5
254.96	139.5
255.193	135.5
255.426	127.5
255.659	136.5
255.892	142.5
256.124	141.5
256.357	141.5
256.59	115.5
256.823	129.5
257.056	144.5
257.289	149.5
257.521	140.5
257.754	143.5
257.987	141.5
258.22	147.5
258.452	149.5
258.685	134.5
258.918	125.5
259.151	145.5
259.383	142.5
259.616	151.5
259.849	157.5
260.081	142.5
260.314	153.5
260.547	150.5
260.779	135.5
261.012	152.5
261.244	162.5
261.477	145.5
261.71	146.5
261.942	148.5
262.175	155.5
262.407	154.5
262.64	144.5
262.872	148.5
263.105	147.5
263.337	148.5
263.57	141.5
263.802	145.5
264.035	155.5
264.267	146.5
264.499	158.5
264.732	145.5
264.964	160.5
265.197	149.5
265.429	159.5
265.661	162.5
265.894	143.5
266.126	173.5
266.358	162.5
266.591	161.5
266.823	153.5
267.055	152.5
267.287	169.5
267.52	150.5
267.752	153.5
267.984	151.5
268.216	157.5
268.448	171.5
268.681	154.5
268.913	170.5
269.145	161.5
269.377	155.5
269.609	162.5
269.841	162.5
270.073	144.5
270.306	170.5
270.538	158.5
270.77	166.5
271.002	148.5
271.234	152.5
271.466	162.5
271.698	167.5
271.93	176.5
272.162	175.5
272.394	150.5
272.626	160.5
272.858	163.5
273.09	181.5
273.322	171.5
273.553	168.5
273.785	167.5
274.017	177.5
274.249	157.5
274.481	180.5
274.713	168.5
274.945	172.5
275.176	177.5
275.408	170.5
275.64	174.5
275.872	181.5
276.104	171.5
276.335	168.5
276.567	184.5
276.799	153.5
277.031	197.5
277.262	172.5
277.494	192.5
277.726	169.5
277.957	175.5
278.189	173.5
278.421	172.5
278.652	176.5
278.884	176.5
279.115	195.5
279.347	192.5
279.579	181.5
279.81	195.5
280.042	189.5
280.273	179.5
280.505	167.5
280.736	189.5
280.968	178.5
281.199	165.5
281.431	202.5
281.662	197.5
281.894	198.5
282.125	175.5
282.356	192.5
282.588	208.5
282.819	194.5
283.051	201.5
283.282	182.5
283.513	195.5
283.745	188.5
283.976	205.5
284.207	192.5
284.439	204.5
284.67	205.5
284.901	192.5
285.132	207.5
285.364	175.5
285.595	201.5
285.826	180.5
286.057	181.5
286.288	185.5
286.52	212.5
286.751	215.5
286.982	196.5
287.213	197.5
287.444	192.5
287.675	198.5
287.906	224.5
288.138	210.5
288.369	199.5
288.6	203.5
288.831	195.5
289.062	197.5
289.293	205.5
289.524	197.5
289.755	202.5
289.986	200.5
290.217	189.5
290.448	197.5
290.679	189.5
290.91	211.5
291.141	225.5
291.371	209.5
291.602	217.5
291.833	201.5
292.064	196.5
292.295	207.5
292.526	199.5
292.757	215.5
292.987	203.5
293.218	197.5
293.449	222.5
293.68	215.5
293.91	205.5
294.141	214.5
294.372	205.5
294.603	191.5
294.833	199.5
295.064	218.5
295.295	199.5
295.525	195.5
295.756	228.5
295.987	229.5
296.217	211.5
296.448	219.5
296.679	208.5
296.909	221.5
297.14	223.5
297.37	227.5
297.601	231.5
297.831	227.5
298.062	219.5
298.292	221.5
298.523	221.5
298.753	219.5
298.984	218.5
299.214	233.5
299.445	239.5
299.675	226.5
299.905	237.5
300.136	230.5
300.366	212.5
300.597	230.5
300.827	225.5
301.057	244.5
301.288	259.5
301.518	235.5
301.748	229.5
301.979	239.5
302.209	241.5
302.439	231.5
302.669	244.5
302.9	237.5
303.13	230.5
303.36	240.5
303.59	225.5
303.82	231.5
304.051	239.5
304.281	239.5
304.511	232.5
304.741	231.5
304.971	219.5
305.201	227.5
305.431	221.5
305.661	241.5
305.891	230.5
306.121	219.5
306.352	228.5
306.582	240.5
306.812	227.5
307.042	247.5
307.272	226.5
307.502	223.5
307.731	239.5
307.961	238.5
308.191	229.5
308.421	245.5
308.651	215.5
308.881	227.5
309.111	220.5
309.341	236.5
309.571	232.5
309.8	243.5
310.03	227.5
310.26	243.5
310.49	216.5
310.72	234.5
310.949	239.5
311.179	249.5
311.409	221.5
311.639	233.5
311.868	241.5
312.098	245.5
312.328	237.5
312.557	225.5
312.787	236.5
313.017	241.5
313.246	249.5
313.476	232.5
313.706	236.5
313.935	243.5
314.165	241.5
314.394	250.5
314.624	250.5
314.853	247.5
315.083	236.5
315.312	246.5
315.542	259.5
315.771	257.5
316.001	248.5
316.23	233.5
316.46	242.5
316.689	248.5
316.919	231.5
317.148	230.5
317.377	251.5
317.607	254.5
317.836	257.5
318.065	231.5
318.295	233.5
318.524	234.5
318.753	240.5
318.983	228.5
319.212	248.5
319.441	252.5
319.67	252.5
319.9	257.5
320.129	241.5
320.358	237.5
320.587	234.5
320.816	242.5
321.046	257.5
321.275	253.5
321.504	228.5
321.733	251.5
321.962	241.5
322.191	243.5
322.42	239.5
322.649	233.5
322.878	245.5
323.108	241.5
323.337	252.5
323.566	249.5
323.795	261.5
324.024	259.5
324.253	261.5
324.482	282.5
324.71	257.5
324.939	265.5
325.168	255.5
325.397	260.5
325.626	253.5
325.855	243.5
326.084	287.5
326.313	268.5
326.542	259.5
326.77	254.5
326.999	267.5
327.228	257.5
327.457	276.5
327.686	281.5
327.914	260.5
328.143	275.5
328.372	280.5
328.6	248.5
328.829	275.5
329.058	262.5
329.287	273.5
329.515	248.5
329.744	265.5
329.972	257.5
330.201	292.5
330.43	283.5
330.658	291.5
330.887	286.5
331.115	279.5
331.344	270.5
331.572	278.5
331.801	292.5
332.03	292.5
332.258	294.5
332.486	298.5
332.715	313.5
332.943	300.5
333.172	333.5
333.4	338.5
333.629	338.5
333.857	343.5
334.085	342.5
334.314	343.5
334.542	334.5
334.771	336.5
334.999	319.5
335.227	327.5
335.455	321.5
335.684	325.5
335.912	346.5
336.14	311.5
336.369	314.5
336.597	342.5
336.825	324.5
337.053	311.5
337.281	301.5
337.51	329.5
337.738	302.5
337.966	309.5
338.194	292.5
338.422	287.5
338.65	283.5
338.878	307.5
339.106	294.5
339.334	297.5
339.562	288.5
339.79	282.5
340.018	286.5
340.246	281.5
340.474	265.5
340.702	280.5
340.93	276.5
341.158	286.5
341.386	274.5
341.614	282.5
341.842	269.5
342.07	256.5
342.298	272.5
342.526	299.5
342.754	279.5
342.981	296.5
343.209	275.5
343.437	307.5
343.665	307.5
343.893	316.5
344.12	321.5
344.348	322.5
344.576	306.5
344.804	290.5
345.031	280.5
345.259	313.5
345.487	295.5
345.714	277.5
345.942	279.5
346.17	294.5
346.397	289.5
346.625	281.5
346.853	278.5
347.08	279.5
347.308	267.5
347.535	275.5
347.763	269.5
347.99	276.5
348.218	264.5
348.445	277.5
348.673	269.5
348.9	277.5
349.128	281.5
349.355	265.5
349.583	270.5
349.81	269.5
350.037	261.5
350.265	270.5
350.492	265.5
350.72	271.5
350.947	272.5
351.174	272.5
351.402	271.5
351.629	248.5
351.856	263.5
352.083	263.5
352.311	267.5
352.538	269.5
352.765	255.5
352.992	272.5
353.22	268.5
353.447	268.5
353.674	265.5
353.901	269.5
354.128	255.5
354.355	255.5
354.583	265.5
354.81	263.5
355.037	272.5
355.264	267.5
355.491	273.5
355.718	259.5
355.945	288.5
356.172	287.5
356.399	269.5
356.626	259.5
356.853	278.5
357.08	288.5
357.307	279.5
357.534	276.5
357.761	274.5
357.988	291.5
358.215	268.5
358.441	270.5
358.668	281.5
358.895	259.5
359.122	272.5
359.349	265.5
359.576	267.5
359.802	263.5
360.029	267.5
360.256	280.5
360.483	270.5
360.709	257.5
360.936	265.5
361.163	247.5
361.39	276.5
361.616	284.5
361.843	266.5
362.07	275.5
362.296	282.5
362.523	276.5
362.749	260.5
362.976	251.5
363.203	263.5
363.429	274.5
363.656	290.5
363.882	267.5
364.109	256.5
364.335	292.5
364.562	252.5
364.788	255.5
365.015	274.5
365.241	270.5
365.468	275.5
365.694	268.5
365.92	286.5
366.147	256.5
366.373	273.5
366.599	282.5
366.826	263.5
367.052	281.5
367.278	277.5
367.505	263.5
367.731	270.5
367.957	270.5
368.184	261.5
368.41	287.5
368.636	294.5
368.862	283.5
369.089	282.5
369.315	288.5
369.541	259.5
369.767	284.5
369.993	299.5
370.219	296.5
370.445	272.5
370.672	309.5
370.898	305.5
371.124	268.5
371.35	291.5
371.576	298.5
371.802	298.5
372.028	295.5
372.254	294.5
372.48	293.5
372.706	300.5
372.932	303.5
373.158	325.5
373.384	310.5
373.61	300.5
373.835	296.5
374.061	310.5
374.287	313.5
374.513	323.5
374.739	323.5
374.965	319.5
375.191	319.5
375.416	346.5
375.642	316.5
375.868	317.5
376.094	305.5
376.319	311.5
376.545	288.5
376.771	294.5
376.997	305.5
377.222	289.5
377.448	319.5
377.674	313.5
377.899	303.5
378.125	293.5
378.35	297.5
378.576	312.5
378.802	307.5
379.027	289.5
379.253	300.5
379.478	297.5
379.704	292.5
379.929	297.5
380.155	292.5
380.38	309.5
380.606	279.5
380.831	291.5
381.057	321.5
381.282	289.5
381.507	309.5
381.733	319.5
381.958	317.5
382.184	309.5
382.409	303.5
382.634	329.5
382.86	341.5
383.085	321.5
383.31	333.5
383.535	315.5
383.761	320.5
383.986	334.5
384.211	339.5
384.436	336.5
384.662	344.5
384.887	354.5
385.112	339.5
385.337	340.5
385.562	332.5
385.787	349.5
386.013	364.5
386.238	364.5
386.463	346.5
386.688	343.5
386.913	345.5
387.138	348.5
387.363	341.5
387.588	339.5
387.813	362.5
388.038	345.5
388.263	331.5
388.488	334.5
388.713	345.5
388.938	341.5
389.163	337.5
389.387	350.5
389.612	355.5
389.837	355.5
390.062	345.5
390.287	351.5
390.512	358.5
390.736	372.5
390.961	378.5
391.186	375.5
391.411	366.5
391.636	360.5
391.86	403.5
392.085	407.5
392.31	394.5
392.534	387.5
392.759	385.5
392.984	385.5
393.208	369.5
393.433	375.5
393.658	367.5
393.882	359.5
394.107	358.5
394.331	364.5
394.556	394.5
394.78	393.5
395.005	387.5
395.229	370.5
395.454	395.5
395.678	362.5
395.903	409.5
396.127	384.5
396.352	401.5
396.576	384.5
396.801	384.5
397.025	390.5
397.249	396.5
397.474	402.5
397.698	388.5
397.922	385.5
398.147	405.5
398.371	394.5
398.595	401.5
398.82	413.5
399.044	455.5
399.268	493.5
399.492	532.5
399.717	575.5
399.941	572.5
400.165	544.5
400.389	501.5
400.613	492.5
400.837	448.5
401.062	426.5
401.286	458.5
401.51	435.5
401.734	425.5
401.958	448.5
402.182	439.5
402.406	440.5
402.63	451.5
402.854	453.5
403.078	452.5
403.302	473.5
403.526	469.5
403.75	493.5
403.974	473.5
404.198	499.5
404.422	477.5
404.645	480.5
404.869	472.5
405.093	475.5
405.317	461.5
405.541	485.5
405.765	440.5
405.988	457.5
406.212	456.5
406.436	458.5
406.66	487.5
406.883	484.5
407.107	503.5
407.331	539.5
407.555	525.5
407.778	539.5
408.002	520.5
408.226	524.5
408.449	520.5
408.673	520.5
408.896	519.5
409.12	518.5
409.344	477.5
409.567	488.5
409.791	487.5
410.014	467.5
410.238	484.5
410.461	499.5
410.685	489.5
410.908	499.5
411.132	465.5
411.355	457.5
411.578	451.5
411.802	452.5
412.025	468.5
412.249	483.5
412.472	468.5
412.695	469.5
412.919	446.5
413.142	476.5
413.365	451.5
413.589	444.5
413.812	468.5
414.035	457.5
414.258	439.5
414.482	457.5
414.705	460.5
414.928	465.5
415.151	441.5
415.374	453.5
415.597	421.5
415.821	447.5
416.044	452.5
416.267	459.5
416.49	433.5
416.713	428.5
416.936	443.5
417.159	433.5
417.382	421.5
417.605	443.5
417.828	435.5
418.051	446.5
418.274	428.5
418.497	425.5
418.72	464.5
418.943	444.5
419.166	456.5
419.389	483.5
419.611	478.5
419.834	472.5
420.057	444.5
420.28	440.5
420.503	427.5
420.726	441.5
420.948	434.5
421.171	435.5
421.394	451.5
421.617	448.5
421.839	446.5
422.062	445.5
422.285	444.5
422.507	443.5
422.73	441.5
422.953	441.5
423.175	471.5
423.398	444.5
423.621	441.5
423.843	451.5
424.066	456.5
424.288	460.5
424.511	438.5
424.733	441.5
424.956	447.5
425.178	432.5
425.401	459.5
425.623	423.5
425.846	423.5
426.068	414.5
426.291	404.5
426.513	405.5
426.735	432.5
426.958	428.5
427.18	401.5
427.402	411.5
427.625	389.5
427.847	399.5
428.069	399.5
428.292	414.5
428.514	405.5
428.736	407.5
428.958	398.5
429.181	403.5
429.403	397.5
429.625	397.5
429.847	407.5
430.069	399.5
430.292	401.5
430.514	377.5
430.736	403.5
430.958	379.5
431.18	400.5
431.402	399.5
431.624	393.5
431.846	401.5
432.068	400.5
432.29	414.5
432.512	393.5
432.734	406.5
432.956	409.5
433.178	405.5
433.4	400.5
433.622	411.5
433.844	419.5
434.066	416.5
434.287	406.5
434.509	436.5
434.731	449.5
434.953	421.5
435.175	434.5
435.397	454.5
435.618	423.5
435.84	418.5
436.062	420.5
436.284	397.5
436.505	404.5
436.727	395.5
436.949	408.5
437.17	413.5
437.392	392.5
437.614	415.5
437.835	389.5
438.057	405.5
438.278	351.5
438.5	375.5
438.721	393.5
438.943	394.5
439.165	418.5
439.386	411.5
439.608	431.5
439.829	422.5
440.05	409.5
440.272	419.5
440.493	403.5
440.715	402.5
440.936	423.5
441.158	441.5
441.379	441.5
441.6	448.5
441.822	458.5
442.043	449.5
442.264	454.5
442.486	463.5
442.707	456.5
442.928	441.5
443.149	449.5
443.371	449.5
443.592	436.5
443.813	450.5
444.034	463.5
444.255	471.5
444.476	480.5
444.698	524.5
444.919	519.5
445.14	596.5
445.361	516.5
445.582	461.5
445.803	453.5
446.024	413.5
446.245	436.5
446.466	406.5
446.687	411.5
446.908	443.5
447.129	420.5
447.35	413.5
447.571	407.5
447.792	412.5
448.013	407.5
448.234	380.5
448.455	403.5
448.675	383.5
448.896	373.5
449.117	384.5
449.338	381.5
449.559	413.5
449.779	386.5
450	379.5
450.221	390.5
450.442	380.5
450.662	387.5
450.883	392.5
451.104	397.5
451.324	394.5
451.545	383.5
451.766	391.5
451.986	408.5
452.207	383.5
452.428	393.5
452.648	369.5
452.869	377.5
453.089	357.5
453.31	381.5
453.53	362.5
453.751	357.5
453.971	357.5
454.192	357.5
454.412	363.5
454.633	368.5
454.853	379.5
455.073	368.5
455.294	368.5
455.514	362.5
455.734	356.5
455.955	343.5
456.175	351.5
456.395	335.5
456.616	372.5
456.836	367.5
457.056	352.5
457.276	345.5
457.497	368.5
457.717	369.5
457.937	374.5
458.157	361.5
458.377	370.5
458.598	392.5
458.818	375.5
459.038	392.5
459.258	388.5
459.478	394.5
459.698	394.5
459.918	407.5
460.138	423.5
460.358	468.5
460.578	439.5
460.798	443.5
461.018	445.5
461.238	444.5
461.458	450.5
461.678	441.5
461.898	471.5
462.118	483.5
462.338	495.5
462.558	516.5
462.777	527.5
462.997	558.5
463.217	556.5
463.437	599.5
463.657	523.5
463.876	522.5
464.096	513.5
464.316	516.5
464.536	535.5
464.755	496.5
464.975	479.5
465.195	483.5
465.414	441.5
465.634	447.5
465.854	443.5
466.073	407.5
466.293	419.5
466.512	418.5
466.732	398.5
466.951	409.5
467.171	397.5
467.391	388.5
467.61	395.5
467.829	378.5
468.049	384.5
468.268	377.5
468.488	387.5
468.707	379.5
468.927	400.5
469.146	387.5
469.365	400.5
469.585	396.5
469.804	419.5
470.023	406.5
470.243	409.5
470.462	403.5
470.681	401.5
470.901	410.5
471.12	414.5
471.339	388.5
471.558	395.5
471.777	386.5
471.997	388.5
472.216	390.5
472.435	379.5
472.654	372.5
472.873	360.5
473.092	387.5
473.311	369.5
473.53	372.5
473.749	351.5
473.968	381.5
474.187	367.5
474.406	358.5
474.625	367.5
474.844	373.5
475.063	369.5
475.282	373.5
475.501	371.5
475.72	364.5
475.939	373.5
476.158	417.5
476.377	397.5
476.596	381.5
476.814	398.5
477.033	383.5
477.252	384.5
477.471	399.5
477.69	421.5
477.908	409.5
478.127	420.5
478.346	426.5
478.564	427.5
478.783	426.5
479.002	438.5
479.22	421.5
479.439	441.5
479.658	439.5
479.876	431.5
480.095	443.5
480.313	461.5
480.532	450.5
480.751	455.5
480.969	460.5
481.188	442.5
481.406	419.5
481.624	419.5
481.843	421.5
482.061	422.5
482.28	419.5
482.498	412.5
482.717	411.5
482.935	394.5
483.153	391.5
483.372	412.5
483.59	399.5
483.808	417.5
484.027	427.5
484.245	417.5
484.463	419.5
484.681	418.5
484.9	428.5
485.118	433.5
485.336	454.5
485.554	407.5
485.772	409.5
485.99	432.5
486.209	405.5
486.427	405.5
486.645	443.5
486.863	435.5
487.081	430.5
487.299	443.5
487.517	435.5
487.735	440.5
487.953	423.5
488.171	438.5
488.389	423.5
488.607	435.5
488.825	445.5
489.043	432.5
489.261	429.5
489.479	425.5
489.696	425.5
489.914	422.5
490.132	422.5
490.35	417.5
490.568	425.5
490.786	426.5
491.003	431.5
491.221	431.5
491.439	427.5
491.657	434.5
491.874	455.5
492.092	447.5
492.31	457.5
492.527	435.5
492.745	436.5
492.963	438.5
493.18	453.5
493.398	450.5
493.615	457.5
493.833	459.5
494.05	438.5
494.268	448.5
494.485	467.5
494.703	454.5
494.92	426.5
495.138	449.5
495.355	450.5
495.573	461.5
495.79	459.5
496.008	460.5
496.225	490.5
496.442	489.5
496.66	469.5
496.877	476.5
497.094	460.5
497.312	487.5
497.529	491.5
497.746	501.5
497.963	529.5
498.181	532.5
498.398	559.5
498.615	588.5
498.832	615.5
499.049	648.5
499.267	684.5
499.484	730.5
499.701	808.5
499.918	886.5
500.135	973.5
500.352	1059.5
500.569	1095.5
500.786	1090.5
501.003	981.5
501.22	943.5
501.437	827.5
501.654	756.5
501.871	723.5
502.088	672.5
502.305	634.5
502.522	594.5
502.739	575.5
502.956	565.5
503.172	537.5
503.389	530.5
503.606	515.5
503.823	520.5
504.04	503.5
504.256	500.5
504.473	513.5
504.69	517.5
504.907	510.5
505.123	462.5
505.34	466.5
505.557	446.5
505.773	438.5
505.99	427.5
506.207	433.5
506.423	433.5
506.64	426.5
506.856	415.5
507.073	398.5
507.289	416.5
507.506	405.5
507.722	399.5
507.939	396.5
508.155	391.5
508.372	393.5
508.588	403.5
508.805	380.5
509.021	375.5
509.238	387.5
509.454	404.5
509.67	372.5
509.887	376.5
510.103	396.5
510.319	379.5
510.536	368.5
510.752	360.5
510.968	363.5
511.184	387.5
511.401	374.5
511.617	369.5
511.833	354.5
512.049	362.5
512.265	373.5
512.481	369.5
512.698	365.5
512.914	377.5
513.13	364.5
513.346	375.5
513.562	379.5
513.778	376.5
513.994	373.5
514.21	379.5
514.426	370.5
514.642	371.5
514.858	401.5
515.074	382.5
515.29	367.5
515.506	380.5
515.721	387.5
515.937	394.5
516.153	417.5
516.369	408.5
516.585	423.5
516.801	417.5
517.016	432.5
517.232	446.5
517.448	473.5
517.664	481.5
517.879	474.5
518.095	499.5
518.311	474.5
518.527	467.5
518.742	464.5
518.958	452.5
519.173	401.5
519.389	387.5
519.605	409.5
519.82	393.5
520.036	391.5
520.251	357.5
520.467	359.5
520.682	373.5
520.898	374.5
521.113	365.5
521.329	352.5
521.544	356.5
521.76	376.5
521.975	367.5
522.19	344.5
522.406	358.5
522.621	353.5
522.836	348.5
523.052	359.5
523.267	327.5
523.482	353.5
523.698	361.5
523.913	336.5
524.128	341.5
524.343	339.5
524.559	334.5
524.774	339.5
524.989	348.5
525.204	336.5
525.419	340.5
525.634	329.5
525.849	337.5
526.064	332.5
526.28	347.5
526.495	339.5
526.71	335.5
526.925	326.5
527.14	331.5
527.355	336.5
527.57	345.5
527.785	326.5
527.999	333.5
528.214	321.5
528.429	324.5
528.644	340.5
528.859	340.5
529.074	340.5
529.289	324.5
529.503	344.5
529.718	335.5
529.933	348.5
530.148	337.5
530.363	333.5
530.577	327.5
530.792	348.5
531.007	325.5
531.221	357.5
531.436	337.5
531.651	339.5
531.865	344.5
532.08	335.5
532.295	345.5
532.509	306.5
532.724	348.5
532.938	325.5
533.153	332.5
533.367	334.5
533.582	351.5
533.796	336.5
534.011	342.5
534.225	342.5
534.44	309.5
534.654	328.5
534.868	332.5
535.083	328.5
535.297	312.5
535.511	328.5
535.726	354.5
535.94	345.5
536.154	346.5
536.369	331.5
536.583	309.5
536.797	309.5
537.011	324.5
537.225	330.5
537.44	336.5
537.654	343.5
537.868	315.5
538.082	315.5
538.296	304.5
538.51	320.5
538.724	305.5
538.938	318.5
539.153	299.5
539.367	315.5
539.581	315.5
539.795	297.5
540.009	296.5
540.222	316.5
540.436	312.5
540.65	315.5
540.864	305.5
541.078	310.5
541.292	313.5
541.506	305.5
541.72	316.5
541.934	306.5
542.147	303.5
542.361	324.5
542.575	311.5
542.789	299.5
543.002	313.5
543.216	312.5
543.43	306.5
543.644	303.5
543.857	312.5
544.071	298.5
544.285	290.5
544.498	297.5
544.712	299.5
544.925	321.5
545.139	326.5
545.352	322.5
545.566	300.5
545.779	304.5
545.993	319.5
546.206	316.5
546.42	308.5
546.633	305.5
546.847	308.5
547.06	313.5
547.274	309.5
547.487	305.5
547.7	332.5
547.914	307.5
548.127	307.5
548.34	328.5
548.554	325.5
548.767	313.5
548.98	313.5
549.193	314.5
549.407	325.5
549.62	327.5
549.833	321.5
550.046	333.5
550.259	307.5
550.473	315.5
550.686	322.5
550.899	303.5
551.112	322.5
551.325	297.5
551.538	297.5
551.751	316.5
551.964	302.5
552.177	319.5
552.39	319.5
552.603	328.5
552.816	326.5
553.029	327.5
553.242	337.5
553.455	332.5
553.667	338.5
553.88	336.5
554.093	333.5
554.306	316.5
554.519	322.5
554.732	300.5
554.944	300.5
555.157	291.5
555.37	301.5
555.583	291.5
555.795	300.5
556.008	313.5
556.221	271.5
556.433	281.5
556.646	297.5
556.859	291.5
557.071	277.5
557.284	287.5
557.496	279.5
557.709	264.5
557.921	300.5
558.134	297.5
558.346	255.5
558.559	279.5
558.771	283.5
558.984	280.5
559.196	287.5
559.409	271.5
559.621	264.5
559.833	280.5
560.046	285.5
560.258	288.5
560.47	274.5
560.683	261.5
560.895	263.5
561.107	255.5
561.32	260.5
561.532	272.5
561.744	252.5
561.956	283.5
562.168	272.5
562.381	271.5
562.593	272.5
562.805	277.5
563.017	282.5
563.229	294.5
563.441	279.5
563.653	264.5
563.865	266.5
564.077	279.5
564.289	273.5
564.501	278.5
564.713	284.5
564.925	278.5
565.137	279.5
565.349	291.5
565.561	301.5
565.773	314.5
565.985	312.5
566.197	338.5
566.408	340.5
566.62	363.5
566.832	375.5
567.044	389.5
567.255	395.5
567.467	409.5
567.679	421.5
567.891	418.5
568.102	426.5
568.314	418.5
568.526	369.5
568.737	357.5
568.949	344.5
569.161	322.5
569.372	304.5
569.584	296.5
569.795	296.5
570.007	257.5
570.218	274.5
570.43	262.5
570.641	264.5
570.853	271.5
571.064	265.5
571.276	270.5
571.487	297.5
571.698	262.5
571.91	263.5
572.121	236.5
572.333	231.5
572.544	240.5
572.755	255.5
572.966	249.5
573.178	237.5
573.389	248.5
573.6	225.5
573.811	217.5
574.023	239.5
574.234	226.5
574.445	231.5
574.656	224.5
574.867	231.5
575.078	226.5
575.289	229.5
575.501	231.5
575.712	223.5
575.923	214.5
576.134	216.5
576.345	219.5
576.556	223.5
576.767	221.5
576.978	223.5
577.188	214.5
577.399	200.5
577.61	222.5
577.821	220.5
578.032	216.5
578.243	206.5
578.454	197.5
578.665	204.5
578.875	217.5
579.086	215.5
579.297	217.5
579.508	204.5
579.718	206.5
579.929	206.5
580.14	193.5
580.35	209.5
580.561	212.5
580.772	204.5
580.982	193.5
581.193	202.5
581.403	202.5
581.614	196.5
581.825	191.5
582.035	199.5
582.246	218.5
582.456	190.5
582.667	202.5
582.877	205.5
583.087	212.5
583.298	218.5
583.508	198.5
583.719	211.5
583.929	205.5
584.139	187.5
584.35	196.5
584.56	190.5
584.77	204.5
584.981	191.5
585.191	199.5
585.401	191.5
585.611	181.5
585.821	212.5
586.032	213.5
586.242	203.5
586.452	218.5
586.662	202.5
586.872	197.5
587.082	188.5
587.292	201.5
587.502	184.5
587.713	189.5
587.923	189.5
588.133	189.5
588.343	191.5
588.553	184.5
588.762	199.5
588.972	183.5
589.182	181.5
589.392	192.5
589.602	191.5
589.812	199.5
590.022	188.5
590.232	201.5
590.441	191.5
590.651	193.5
590.861	195.5
591.071	176.5
591.281	204.5
591.49	207.5
591.7	197.5
591.91	209.5
592.119	218.5
592.329	220.5
592.539	224.5
592.748	201.5
592.958	216.5
593.167	213.5
593.377	216.5
593.587	239.5
593.796	224.5
594.006	219.5
594.215	226.5
594.424	223.5
594.634	216.5
594.843	226.5
595.053	220.5
595.262	195.5
595.472	210.5
595.681	210.5
595.89	197.5
596.1	199.5
596.309	187.5
596.518	194.5
596.727	193.5
596.937	185.5
597.146	195.5
597.355	181.5
597.564	161.5
597.774	187.5
597.983	171.5
598.192	176.5
598.401	183.5
598.61	177.5
598.819	185.5
599.028	183.5
599.237	165.5
599.446	181.5
599.655	175.5
599.864	187.5
600.073	167.5
600.282	164.5
600.491	173.5
600.7	184.5
600.909	169.5
601.118	181.5
601.327	180.5
601.536	169.5
601.745	175.5
601.953	167.5
602.162	175.5
602.371	173.5
602.58	165.5
602.789	163.5
602.997	160.5
603.206	178.5
603.415	179.5
603.623	165.5
603.832	161.5
604.041	156.5
604.249	167.5
604.458	175.5
604.666	167.5
604.875	163.5
605.084	165.5
605.292	161.5
605.501	168.5
605.709	156.5
605.918	165.5
606.126	163.5
606.334	159.5
606.543	181.5
606.751	162.5
606.96	169.5
607.168	164.5
607.376	144.5
607.585	164.5
607.793	151.5
608.001	179.5
608.21	165.5
608.418	162.5
608.626	152.5
608.834	157.5
609.043	158.5
609.251	153.5
609.459	168.5
609.667	176.5
609.875	162.5
610.083	171.5
610.291	165.5
610.499	150.5
610.707	177.5
610.916	152.5
611.124	155.5
611.332	151.5
611.54	154.5
611.748	148.5
611.955	161.5
612.163	157.5
612.371	154.5
612.579	144.5
612.787	145.5
612.995	157.5
613.203	154.5
613.411	162.5
613.618	157.5
613.826	154.5
614.034	172.5
614.242	141.5
614.449	168.5
614.657	159.5
614.865	173.5
615.072	152.5
615.28	157.5
615.488	155.5
615.695	145.5
615.903	163.5
616.111	161.5
616.318	145.5
616.526	146.5
616.733	147.5
616.941	154.5
617.148	165.5
617.356	169.5
617.563	145.5
617.771	168.5
617.978	171.5
618.185	156.5
618.393	143.5
618.6	147.5
618.807	157.5
619.015	153.5
619.222	141.5
619.429	151.5
619.637	160.5
619.844	159.5
620.051	136.5
620.258	150.5
620.466	154.5
620.673	136.5
620.88	158.5
621.087	143.5
621.294	151.5
621.501	138.5
621.708	143.5
621.915	147.5
622.122	144.5
622.329	135.5
622.536	145.5
622.743	157.5
622.95	133.5
623.157	156.5
623.364	157.5
623.571	150.5
623.778	151.5
623.985	146.5
624.192	137.5
624.399	137.5
624.606	127.5
624.812	149.5
625.019	145.5
625.226	141.5
625.433	135.5
625.639	137.5
625.846	150.5
626.053	157.5
626.259	143.5
626.466	128.5
626.673	129.5
626.879	132.5
627.086	147.5
627.293	138.5
627.499	145.5
627.706	133.5
627.912	144.5
628.119	135.5
628.325	142.5
628.532	142.5
628.738	133.5
628.945	147.5
629.151	139.5
629.357	141.5
629.564	133.5
629.77	133.5
629.976	124.5
630.183	143.5
630.389	128.5
630.595	141.5
630.802	138.5
631.008	123.5
631.214	134.5
631.42	136.5
631.627	141.5
631.833	124.5
632.039	129.5
632.245	126.5
632.451	129.5
632.657	133.5
632.863	134.5
633.069	127.5
633.275	138.5
633.481	142.5
633.688	149.5
633.893	132.5
634.099	134.5
634.305	139.5
634.511	139.5
634.717	131.5
634.923	127.5
635.129	127.5
635.335	131.5
635.541	134.5
635.747	128.5
635.952	137.5
636.158	137.5
636.364	134.5
636.57	111.5
636.775	120.5
636.981	136.5
637.187	124.5
637.392	133.5
637.598	134.5
637.804	119.5
638.009	115.5
638.215	141.5
638.421	121.5
638.626	130.5
638.832	135.5
639.037	133.5
639.243	136.5
639.448	118.5
639.654	127.5
639.859	127.5
640.065	127.5
640.27	141.5
640.475	132.5
640.681	119.5
640.886	119.5
641.091	133.5
641.297	117.5
641.502	125.5
641.707	132.5
641.913	141.5
642.118	108.5
642.323	127.5
642.528	117.5
642.733	115.5
642.939	129.5
643.144	122.5
643.349	117.5
643.554	120.5
643.759	132.5
643.964	117.5
644.169	112.5
644.374	118.5
644.579	118.5
644.784	121.5
644.989	124.5
645.194	117.5
645.399	123.5
645.604	119.5
645.809	122.5
646.014	135.5
646.219	123.5
646.423	117.5
646.628	120.5
646.833	122.5
647.038	131.5
647.243	129.5
647.447	119.5
647.652	116.5
647.857	130.5
648.062	133.5
648.266	122.5
648.471	116.5
648.676	122.5
648.88	121.5
649.085	114.5
649.289	127.5
649.494	123.5
649.698	126.5
649.903	124.5
650.107	115.5
650.312	115.5
650.516	109.5
650.721	135.5
650.925	121.5
651.13	121.5
651.334	127.5
651.539	111.5
651.743	112.5
651.947	133.5
652.152	113.5
652.356	109.5
652.56	116.5
652.764	121.5
652.969	111.5
653.173	102.5
653.377	115.5
653.581	119.5
653.785	121.5
653.99	115.5
654.194	105.5
654.398	108.5
654.602	120.5
654.806	100.5
655.01	114.5
655.214	101.5
655.418	113.5
655.622	105.5
655.826	115.5
656.03	106.5
656.234	101.5
656.438	101.5
656.642	95.5
656.846	89.5
657.049	114.5
657.253	95.5
657.457	107.5
657.661	94.5
657.865	95.5
658.068	97.5
658.272	107.5
658.476	115.5
658.68	103.5
658.883	101.5
659.087	102.5
659.291	99.5
659.494	101.5
659.698	86.5
659.901	97.5
660.105	94.5
660.309	74.5
660.512	96.5
660.716	83.5
660.919	90.5
661.123	96.5
661.326	100.5
661.53	101.5
661.733	82.5
661.936	92.5
662.14	81.5
662.343	87.5
662.546	78.5
662.75	93.5
662.953	91.5
663.156	81.5
663.36	88.5
663.563	75.5
663.766	83.5
663.969	94.5
664.173	71.5
664.376	83.5
664.579	68.5
664.782	74.5
664.985	77.5
665.188	83.5
665.391	72.5
665.594	74.5
665.797	81.5
666	83.5
666.203	81.5
666.406	88.5
666.609	93.5
666.812	95.5
667.015	83.5
667.218	82.5
667.421	80.5
667.624	84.5
667.827	88.5
668.03	95.5
668.232	87.5
668.435	92.5
668.638	71.5
668.841	94.5
669.043	88.5
669.246	85.5
669.449	92.5
669.651	66.5
669.854	87.5
670.057	90.5
670.259	85.5
670.462	87.5
670.665	87.5
670.867	73.5
671.07	93.5
671.272	83.5
671.475	95.5
671.677	81.5
671.88	67.5
672.082	76.5
672.284	96.5
672.487	92.5
672.689	95.5
672.892	77.5
