Data from Fe(NO3)3@0.05M.TitratingCurve.Agarose3%dH2O.NegLispCup.LampEnergy10.LIBS07252019_HRD10591_16-47-42-334.txt Node
Date: Thu Jul 25 16:47:42 EDT 2019
User: cochatt
Spectrometer: HR+D1059
Trigger mode: 1
Integration Time (sec): 1.000000E-1
Scans to average: 1
Electric dark correction enabled: true
Nonlinearity correction enabled: false
Boxcar width: 0
XAxis mode: Wavelengths
Number of Pixels in Spectrum: 2048
>>>>>Begin Spectral Data<<<<<
223.165	-31.19
223.4	-31.19
223.635	-31.19
223.869	-21.19
224.104	-2.19
224.338	-16.19
224.573	-22.19
224.808	-18.19
225.042	-15.19
225.277	-2.19
225.511	-2.19
225.746	21.81
225.98	5.81
226.215	9.81
226.449	6.81
226.683	24.81
226.918	37.81
227.152	23.81
227.387	42.81
227.621	32.81
227.856	32.81
228.09	36.81
228.324	45.81
228.559	59.81
228.793	67.81
229.027	86.81
229.262	61.81
229.496	75.81
229.73	81.81
229.964	80.81
230.199	86.81
230.433	92.81
230.667	83.81
230.901	97.81
231.136	98.81
231.37	94.81
231.604	94.81
231.838	85.81
232.072	102.81
232.306	103.81
232.541	104.81
232.775	110.81
233.009	86.81
233.243	94.81
233.477	109.81
233.711	100.81
233.945	103.81
234.179	104.81
234.413	94.81
234.647	89.81
234.881	91.81
235.115	99.81
235.349	101.81
235.583	105.81
235.817	89.81
236.051	95.81
236.285	109.81
236.519	92.81
236.753	102.81
236.987	110.81
237.221	95.81
237.455	89.81
237.689	117.81
237.922	104.81
238.156	99.81
238.39	93.81
238.624	105.81
238.858	110.81
239.091	102.81
239.325	99.81
239.559	104.81
239.793	98.81
240.027	115.81
240.26	102.81
240.494	101.81
240.728	102.81
240.961	123.81
241.195	121.81
241.429	113.81
241.662	111.81
241.896	111.81
242.13	95.81
242.363	104.81
242.597	105.81
242.83	121.81
243.064	106.81
243.298	113.81
243.531	123.81
243.765	119.81
243.998	104.81
244.232	105.81
244.465	115.81
244.699	113.81
244.932	117.81
245.166	122.81
245.399	127.81
245.633	123.81
245.866	117.81
246.099	117.81
246.333	117.81
246.566	130.81
246.8	133.81
247.033	115.81
247.266	124.81
247.5	114.81
247.733	133.81
247.966	134.81
248.2	138.81
248.433	128.81
248.666	126.81
248.899	133.81
249.133	130.81
249.366	131.81
249.599	124.81
249.832	122.81
250.066	129.81
250.299	121.81
250.532	128.81
250.765	131.81
250.998	119.81
251.231	114.81
251.465	133.81
251.698	128.81
251.931	121.81
252.164	133.81
252.397	137.81
252.63	157.81
252.863	121.81
253.096	143.81
253.329	137.81
253.562	155.81
253.795	121.81
254.028	139.81
254.261	153.81
254.494	133.81
254.727	135.81
254.96	136.81
255.193	138.81
255.426	129.81
255.659	135.81
255.892	130.81
256.124	131.81
256.357	139.81
256.59	147.81
256.823	147.81
257.056	136.81
257.289	149.81
257.521	145.81
257.754	142.81
257.987	130.81
258.22	154.81
258.452	149.81
258.685	135.81
258.918	133.81
259.151	137.81
259.383	152.81
259.616	148.81
259.849	158.81
260.081	163.81
260.314	171.81
260.547	163.81
260.779	150.81
261.012	155.81
261.244	146.81
261.477	177.81
261.71	141.81
261.942	144.81
262.175	155.81
262.407	161.81
262.64	159.81
262.872	149.81
263.105	166.81
263.337	177.81
263.57	147.81
263.802	154.81
264.035	161.81
264.267	155.81
264.499	146.81
264.732	148.81
264.964	150.81
265.197	147.81
265.429	146.81
265.661	158.81
265.894	163.81
266.126	173.81
266.358	160.81
266.591	151.81
266.823	163.81
267.055	150.81
267.287	165.81
267.52	157.81
267.752	159.81
267.984	168.81
268.216	149.81
268.448	173.81
268.681	165.81
268.913	161.81
269.145	164.81
269.377	165.81
269.609	153.81
269.841	160.81
270.073	172.81
270.306	149.81
270.538	177.81
270.77	157.81
271.002	175.81
271.234	152.81
271.466	178.81
271.698	165.81
271.93	167.81
272.162	180.81
272.394	167.81
272.626	170.81
272.858	171.81
273.09	167.81
273.322	196.81
273.553	177.81
273.785	190.81
274.017	197.81
274.249	200.81
274.481	197.81
274.713	205.81
274.945	198.81
275.176	212.81
275.408	214.81
275.64	202.81
275.872	217.81
276.104	211.81
276.335	192.81
276.567	186.81
276.799	177.81
277.031	182.81
277.262	180.81
277.494	186.81
277.726	181.81
277.957	181.81
278.189	187.81
278.421	185.81
278.652	198.81
278.884	195.81
279.115	181.81
279.347	178.81
279.579	176.81
279.81	184.81
280.042	191.81
280.273	190.81
280.505	185.81
280.736	203.81
280.968	185.81
281.199	192.81
281.431	185.81
281.662	202.81
281.894	186.81
282.125	195.81
282.356	199.81
282.588	199.81
282.819	203.81
283.051	190.81
283.282	197.81
283.513	218.81
283.745	186.81
283.976	208.81
284.207	219.81
284.439	204.81
284.67	213.81
284.901	208.81
285.132	209.81
285.364	197.81
285.595	197.81
285.826	205.81
286.057	227.81
286.288	206.81
286.52	211.81
286.751	212.81
286.982	216.81
287.213	210.81
287.444	217.81
287.675	195.81
287.906	210.81
288.138	192.81
288.369	202.81
288.6	228.81
288.831	201.81
289.062	199.81
289.293	229.81
289.524	208.81
289.755	213.81
289.986	211.81
290.217	204.81
290.448	200.81
290.679	198.81
290.91	201.81
291.141	197.81
291.371	210.81
291.602	211.81
291.833	206.81
292.064	212.81
292.295	226.81
292.526	206.81
292.757	203.81
292.987	197.81
293.218	215.81
293.449	210.81
293.68	229.81
293.91	218.81
294.141	209.81
294.372	227.81
294.603	198.81
294.833	228.81
295.064	223.81
295.295	226.81
295.525	216.81
295.756	223.81
295.987	214.81
296.217	213.81
296.448	214.81
296.679	222.81
296.909	233.81
297.14	220.81
297.37	233.81
297.601	230.81
297.831	226.81
298.062	225.81
298.292	224.81
298.523	225.81
298.753	231.81
298.984	222.81
299.214	227.81
299.445	226.81
299.675	227.81
299.905	211.81
300.136	212.81
300.366	215.81
300.597	227.81
300.827	226.81
301.057	232.81
301.288	221.81
301.518	215.81
301.748	251.81
301.979	246.81
302.209	242.81
302.439	231.81
302.669	228.81
302.9	247.81
303.13	221.81
303.36	234.81
303.59	225.81
303.82	244.81
304.051	218.81
304.281	243.81
304.511	229.81
304.741	235.81
304.971	216.81
305.201	229.81
305.431	244.81
305.661	247.81
305.891	234.81
306.121	230.81
306.352	230.81
306.582	249.81
306.812	229.81
307.042	237.81
307.272	228.81
307.502	228.81
307.731	250.81
307.961	251.81
308.191	243.81
308.421	246.81
308.651	215.81
308.881	230.81
309.111	225.81
309.341	215.81
309.571	224.81
309.8	238.81
310.03	244.81
310.26	232.81
310.49	243.81
310.72	246.81
310.949	232.81
311.179	261.81
311.409	235.81
311.639	230.81
311.868	242.81
312.098	250.81
312.328	225.81
312.557	242.81
312.787	243.81
313.017	250.81
313.246	250.81
313.476	243.81
313.706	247.81
313.935	271.81
314.165	244.81
314.394	235.81
314.624	247.81
314.853	242.81
315.083	253.81
315.312	230.81
315.542	241.81
315.771	262.81
316.001	231.81
316.23	261.81
316.46	257.81
316.689	250.81
316.919	257.81
317.148	259.81
317.377	259.81
317.607	241.81
317.836	232.81
318.065	255.81
318.295	229.81
318.524	258.81
318.753	257.81
318.983	249.81
319.212	273.81
319.441	248.81
319.67	254.81
319.9	257.81
320.129	249.81
320.358	253.81
320.587	242.81
320.816	230.81
321.046	257.81
321.275	235.81
321.504	255.81
321.733	256.81
321.962	253.81
322.191	266.81
322.42	285.81
322.649	253.81
322.878	250.81
323.108	263.81
323.337	244.81
323.566	270.81
323.795	267.81
324.024	276.81
324.253	280.81
324.482	259.81
324.71	261.81
324.939	279.81
325.168	269.81
325.397	257.81
325.626	275.81
325.855	270.81
326.084	258.81
326.313	277.81
326.542	281.81
326.77	273.81
326.999	274.81
327.228	265.81
327.457	273.81
327.686	272.81
327.914	261.81
328.143	281.81
328.372	274.81
328.6	277.81
328.829	291.81
329.058	265.81
329.287	270.81
329.515	273.81
329.744	276.81
329.972	277.81
330.201	284.81
330.43	272.81
330.658	290.81
330.887	277.81
331.115	257.81
331.344	288.81
331.572	287.81
331.801	294.81
332.03	288.81
332.258	295.81
332.486	297.81
332.715	308.81
332.943	299.81
333.172	329.81
333.4	331.81
333.629	322.81
333.857	345.81
334.085	317.81
334.314	317.81
334.542	315.81
334.771	320.81
334.999	315.81
335.227	330.81
335.455	301.81
335.684	301.81
335.912	322.81
336.14	318.81
336.369	307.81
336.597	308.81
336.825	298.81
337.053	291.81
337.281	295.81
337.51	315.81
337.738	318.81
337.966	288.81
338.194	290.81
338.422	298.81
338.65	302.81
338.878	281.81
339.106	306.81
339.334	305.81
339.562	303.81
339.79	302.81
340.018	275.81
340.246	269.81
340.474	284.81
340.702	290.81
340.93	293.81
341.158	281.81
341.386	294.81
341.614	273.81
341.842	270.81
342.07	292.81
342.298	291.81
342.526	283.81
342.754	273.81
342.981	293.81
343.209	303.81
343.437	305.81
343.665	316.81
343.893	338.81
344.12	345.81
344.348	333.81
344.576	311.81
344.804	299.81
345.031	290.81
345.259	285.81
345.487	303.81
345.714	265.81
345.942	289.81
346.17	273.81
346.397	299.81
346.625	281.81
346.853	264.81
347.08	273.81
347.308	254.81
347.535	281.81
347.763	279.81
347.99	290.81
348.218	293.81
348.445	269.81
348.673	273.81
348.9	266.81
349.128	278.81
349.355	289.81
349.583	283.81
349.81	279.81
350.037	289.81
350.265	262.81
350.492	289.81
350.72	283.81
350.947	283.81
351.174	274.81
351.402	256.81
351.629	283.81
351.856	266.81
352.083	283.81
352.311	276.81
352.538	261.81
352.765	275.81
352.992	290.81
353.22	298.81
353.447	280.81
353.674	297.81
353.901	277.81
354.128	263.81
354.355	274.81
354.583	269.81
354.81	279.81
355.037	291.81
355.264	289.81
355.491	281.81
355.718	281.81
355.945	288.81
356.172	291.81
356.399	287.81
356.626	289.81
356.853	297.81
357.08	270.81
357.307	287.81
357.534	294.81
357.761	295.81
357.988	307.81
358.215	279.81
358.441	285.81
358.668	294.81
358.895	293.81
359.122	275.81
359.349	288.81
359.576	276.81
359.802	277.81
360.029	274.81
360.256	283.81
360.483	297.81
360.709	281.81
360.936	299.81
361.163	277.81
361.39	302.81
361.616	285.81
361.843	273.81
362.07	287.81
362.296	279.81
362.523	280.81
362.749	287.81
362.976	281.81
363.203	295.81
363.429	288.81
363.656	287.81
363.882	286.81
364.109	278.81
364.335	312.81
364.562	281.81
364.788	302.81
365.015	288.81
365.241	281.81
365.468	289.81
365.694	285.81
365.92	273.81
366.147	289.81
366.373	290.81
366.599	298.81
366.826	287.81
367.052	276.81
367.278	270.81
367.505	296.81
367.731	301.81
367.957	278.81
368.184	288.81
368.41	287.81
368.636	314.81
368.862	319.81
369.089	309.81
369.315	307.81
369.541	292.81
369.767	301.81
369.993	292.81
370.219	275.81
370.445	290.81
370.672	307.81
370.898	329.81
371.124	303.81
371.35	315.81
371.576	309.81
371.802	309.81
372.028	324.81
372.254	328.81
372.48	318.81
372.706	317.81
372.932	331.81
373.158	326.81
373.384	327.81
373.61	338.81
373.835	326.81
374.061	331.81
374.287	314.81
374.513	323.81
374.739	338.81
374.965	351.81
375.191	349.81
375.416	327.81
375.642	335.81
375.868	343.81
376.094	322.81
376.319	317.81
376.545	326.81
376.771	307.81
376.997	305.81
377.222	326.81
377.448	314.81
377.674	303.81
377.899	295.81
378.125	331.81
378.35	318.81
378.576	337.81
378.802	301.81
379.027	295.81
379.253	324.81
379.478	309.81
379.704	315.81
379.929	317.81
380.155	335.81
380.38	312.81
380.606	333.81
380.831	323.81
381.057	331.81
381.282	326.81
381.507	330.81
381.733	325.81
381.958	335.81
382.184	335.81
382.409	332.81
382.634	338.81
382.86	338.81
383.085	344.81
383.31	335.81
383.535	356.81
383.761	371.81
383.986	356.81
384.211	375.81
384.436	367.81
384.662	375.81
384.887	368.81
385.112	373.81
385.337	393.81
385.562	363.81
385.787	367.81
386.013	367.81
386.238	374.81
386.463	379.81
386.688	382.81
386.913	375.81
387.138	376.81
387.363	391.81
387.588	377.81
387.813	379.81
388.038	387.81
388.263	390.81
388.488	387.81
388.713	376.81
388.938	357.81
389.163	374.81
389.387	378.81
389.612	379.81
389.837	350.81
390.062	367.81
390.287	388.81
390.512	383.81
390.736	384.81
390.961	391.81
391.186	383.81
391.411	392.81
391.636	410.81
391.86	422.81
392.085	415.81
392.31	422.81
392.534	397.81
392.759	415.81
392.984	415.81
393.208	400.81
393.433	402.81
393.658	405.81
393.882	378.81
394.107	414.81
394.331	398.81
394.556	409.81
394.78	409.81
395.005	406.81
395.229	403.81
395.454	410.81
395.678	410.81
395.903	418.81
396.127	415.81
396.352	410.81
396.576	421.81
396.801	395.81
397.025	419.81
397.249	421.81
397.474	427.81
397.698	415.81
397.922	445.81
398.147	429.81
398.371	445.81
398.595	458.81
398.82	466.81
399.044	486.81
399.268	529.81
399.492	587.81
399.717	617.81
399.941	617.81
400.165	583.81
400.389	544.81
400.613	506.81
400.837	483.81
401.062	507.81
401.286	467.81
401.51	484.81
401.734	479.81
401.958	457.81
402.182	459.81
402.406	492.81
402.63	477.81
402.854	447.81
403.078	457.81
403.302	488.81
403.526	507.81
403.75	503.81
403.974	528.81
404.198	513.81
404.422	529.81
404.645	506.81
404.869	520.81
405.093	509.81
405.317	481.81
405.541	512.81
405.765	497.81
405.988	512.81
406.212	522.81
406.436	497.81
406.66	526.81
406.883	522.81
407.107	551.81
407.331	538.81
407.555	581.81
407.778	555.81
408.002	554.81
408.226	522.81
408.449	539.81
408.673	522.81
408.896	549.81
409.12	511.81
409.344	495.81
409.567	497.81
409.791	506.81
410.014	517.81
410.238	502.81
410.461	488.81
410.685	519.81
410.908	499.81
411.132	494.81
411.355	490.81
411.578	493.81
411.802	497.81
412.025	482.81
412.249	482.81
412.472	484.81
412.695	469.81
412.919	489.81
413.142	475.81
413.365	493.81
413.589	469.81
413.812	489.81
414.035	480.81
414.258	484.81
414.482	483.81
414.705	501.81
414.928	500.81
415.151	486.81
415.374	462.81
415.597	474.81
415.821	484.81
416.044	494.81
416.267	493.81
416.49	466.81
416.713	481.81
416.936	468.81
417.159	467.81
417.382	481.81
417.605	475.81
417.828	473.81
418.051	477.81
418.274	483.81
418.497	477.81
418.72	464.81
418.943	478.81
419.166	494.81
419.389	526.81
419.611	519.81
419.834	489.81
420.057	497.81
420.28	491.81
420.503	464.81
420.726	473.81
420.948	460.81
421.171	485.81
421.394	480.81
421.617	463.81
421.839	467.81
422.062	495.81
422.285	466.81
422.507	502.81
422.73	470.81
422.953	493.81
423.175	475.81
423.398	503.81
423.621	490.81
423.843	514.81
424.066	471.81
424.288	480.81
424.511	476.81
424.733	481.81
424.956	487.81
425.178	495.81
425.401	489.81
425.623	491.81
425.846	491.81
426.068	497.81
426.291	477.81
426.513	462.81
426.735	475.81
426.958	480.81
427.18	453.81
427.402	467.81
427.625	445.81
427.847	473.81
428.069	457.81
428.292	443.81
428.514	456.81
428.736	463.81
428.958	445.81
429.181	423.81
429.403	463.81
429.625	453.81
429.847	442.81
430.069	443.81
430.292	462.81
430.514	447.81
430.736	457.81
430.958	421.81
431.18	456.81
431.402	446.81
431.624	433.81
431.846	459.81
432.068	440.81
432.29	455.81
432.512	460.81
432.734	456.81
432.956	438.81
433.178	459.81
433.4	440.81
433.622	454.81
433.844	473.81
434.066	447.81
434.287	475.81
434.509	478.81
434.731	508.81
434.953	495.81
435.175	491.81
435.397	488.81
435.618	466.81
435.84	462.81
436.062	459.81
436.284	442.81
436.505	456.81
436.727	464.81
436.949	440.81
437.17	443.81
437.392	452.81
437.614	437.81
437.835	455.81
438.057	453.81
438.278	442.81
438.5	458.81
438.721	462.81
438.943	437.81
439.165	434.81
439.386	455.81
439.608	452.81
439.829	456.81
440.05	473.81
440.272	453.81
440.493	476.81
440.715	491.81
440.936	471.81
441.158	481.81
441.379	469.81
441.6	519.81
441.822	483.81
442.043	498.81
442.264	467.81
442.486	485.81
442.707	494.81
442.928	514.81
443.149	504.81
443.371	487.81
443.592	485.81
443.813	494.81
444.034	507.81
444.255	530.81
444.476	527.81
444.698	564.81
444.919	569.81
445.14	658.81
445.361	564.81
445.582	508.81
445.803	505.81
446.024	490.81
446.245	486.81
446.466	462.81
446.687	463.81
446.908	482.81
447.129	477.81
447.35	458.81
447.571	456.81
447.792	447.81
448.013	470.81
448.234	441.81
448.455	435.81
448.675	437.81
448.896	440.81
449.117	429.81
449.338	430.81
449.559	413.81
449.779	433.81
450	449.81
450.221	416.81
450.442	435.81
450.662	440.81
450.883	423.81
451.104	435.81
451.324	424.81
451.545	445.81
451.766	439.81
451.986	445.81
452.207	445.81
452.428	431.81
452.648	439.81
452.869	412.81
453.089	428.81
453.31	421.81
453.53	418.81
453.751	422.81
453.971	440.81
454.192	425.81
454.412	401.81
454.633	438.81
454.853	426.81
455.073	430.81
455.294	413.81
455.514	410.81
455.734	403.81
455.955	394.81
456.175	417.81
456.395	397.81
456.616	415.81
456.836	403.81
457.056	413.81
457.276	405.81
457.497	400.81
457.717	416.81
457.937	431.81
458.157	443.81
458.377	409.81
458.598	433.81
458.818	421.81
459.038	418.81
459.258	451.81
459.478	460.81
459.698	480.81
459.918	486.81
460.138	483.81
460.358	520.81
460.578	523.81
460.798	515.81
461.018	539.81
461.238	511.81
461.458	551.81
461.678	525.81
461.898	528.81
462.118	520.81
462.338	527.81
462.558	560.81
462.777	566.81
462.997	625.81
463.217	626.81
463.437	637.81
463.657	613.81
463.876	587.81
464.096	584.81
464.316	562.81
464.536	571.81
464.755	543.81
464.975	543.81
465.195	523.81
465.414	523.81
465.634	496.81
465.854	497.81
466.073	505.81
466.293	455.81
466.512	453.81
466.732	454.81
466.951	480.81
467.171	460.81
467.391	471.81
467.61	459.81
467.829	460.81
468.049	463.81
468.268	450.81
468.488	434.81
468.707	465.81
468.927	459.81
469.146	458.81
469.365	474.81
469.585	461.81
469.804	454.81
470.023	469.81
470.243	474.81
470.462	488.81
470.681	470.81
470.901	450.81
471.12	475.81
471.339	463.81
471.558	441.81
471.777	455.81
471.997	469.81
472.216	450.81
472.435	460.81
472.654	442.81
472.873	460.81
473.092	433.81
473.311	469.81
473.53	459.81
473.749	442.81
473.968	455.81
474.187	447.81
474.406	436.81
474.625	450.81
474.844	457.81
475.063	451.81
475.282	463.81
475.501	454.81
475.72	457.81
475.939	453.81
476.158	481.81
476.377	469.81
476.596	474.81
476.814	469.81
477.033	484.81
477.252	482.81
477.471	476.81
477.69	500.81
477.908	489.81
478.127	506.81
478.346	512.81
478.564	531.81
478.783	546.81
479.002	525.81
479.22	568.81
479.439	548.81
479.658	541.81
479.876	537.81
480.095	538.81
480.313	552.81
480.532	546.81
480.751	551.81
480.969	546.81
481.188	513.81
481.406	538.81
481.624	518.81
481.843	509.81
482.061	502.81
482.28	522.81
482.498	526.81
482.717	499.81
482.935	529.81
483.153	527.81
483.372	525.81
483.59	524.81
483.808	510.81
484.027	514.81
484.245	512.81
484.463	518.81
484.681	539.81
484.9	521.81
485.118	515.81
485.336	522.81
485.554	542.81
485.772	522.81
485.99	523.81
486.209	513.81
486.427	530.81
486.645	525.81
486.863	557.81
487.081	543.81
487.299	544.81
487.517	537.81
487.735	526.81
487.953	519.81
488.171	525.81
488.389	551.81
488.607	531.81
488.825	510.81
489.043	527.81
489.261	535.81
489.479	550.81
489.696	535.81
489.914	542.81
490.132	514.81
490.35	536.81
490.568	550.81
490.786	537.81
491.003	547.81
491.221	547.81
491.439	554.81
491.657	561.81
491.874	565.81
492.092	574.81
492.31	563.81
492.527	569.81
492.745	573.81
492.963	563.81
493.18	561.81
493.398	544.81
493.615	570.81
493.833	570.81
494.05	566.81
494.268	583.81
494.485	563.81
494.703	546.81
494.92	576.81
495.138	567.81
495.355	574.81
495.573	570.81
495.79	571.81
496.008	577.81
496.225	578.81
496.442	581.81
496.66	599.81
496.877	592.81
497.094	592.81
497.312	614.81
497.529	583.81
497.746	613.81
497.963	624.81
498.181	665.81
498.398	673.81
498.615	698.81
498.832	717.81
499.049	799.81
499.267	797.81
499.484	843.81
499.701	913.81
499.918	1000.81
500.135	1072.81
500.352	1180.81
500.569	1224.81
500.786	1207.81
501.003	1163.81
501.22	1066.81
501.437	986.81
501.654	890.81
501.871	819.81
502.088	773.81
502.305	749.81
502.522	723.81
502.739	689.81
502.956	639.81
503.172	631.81
503.389	622.81
503.606	621.81
503.823	593.81
504.04	598.81
504.256	608.81
504.473	623.81
504.69	629.81
504.907	629.81
505.123	582.81
505.34	585.81
505.557	547.81
505.773	531.81
505.99	551.81
506.207	523.81
506.423	527.81
506.64	505.81
506.856	483.81
507.073	487.81
507.289	486.81
507.506	504.81
507.722	491.81
507.939	486.81
508.155	485.81
508.372	496.81
508.588	481.81
508.805	489.81
509.021	462.81
509.238	463.81
509.454	469.81
509.67	478.81
509.887	457.81
510.103	479.81
510.319	455.81
510.536	471.81
510.752	424.81
510.968	451.81
511.184	439.81
511.401	451.81
511.617	453.81
511.833	447.81
512.049	453.81
512.265	454.81
512.481	452.81
512.698	438.81
512.914	447.81
513.13	441.81
513.346	465.81
513.562	457.81
513.778	453.81
513.994	451.81
514.21	453.81
514.426	461.81
514.642	449.81
514.858	462.81
515.074	481.81
515.29	472.81
515.506	462.81
515.721	473.81
515.937	473.81
516.153	476.81
516.369	488.81
516.585	509.81
516.801	489.81
517.016	503.81
517.232	538.81
517.448	517.81
517.664	541.81
517.879	554.81
518.095	537.81
518.311	546.81
518.527	519.81
518.742	520.81
518.958	484.81
519.173	498.81
519.389	478.81
519.605	489.81
519.82	489.81
520.036	471.81
520.251	485.81
520.467	489.81
520.682	448.81
520.898	440.81
521.113	453.81
521.329	445.81
521.544	442.81
521.76	437.81
521.975	409.81
522.19	434.81
522.406	454.81
522.621	441.81
522.836	423.81
523.052	431.81
523.267	426.81
523.482	421.81
523.698	429.81
523.913	420.81
524.128	425.81
524.343	419.81
524.559	411.81
524.774	435.81
524.989	439.81
525.204	413.81
525.419	425.81
525.634	421.81
525.849	437.81
526.064	407.81
526.28	408.81
526.495	427.81
526.71	429.81
526.925	417.81
527.14	408.81
527.355	403.81
527.57	426.81
527.785	418.81
527.999	406.81
528.214	429.81
528.429	413.81
528.644	403.81
528.859	430.81
529.074	411.81
529.289	423.81
529.503	441.81
529.718	429.81
529.933	413.81
530.148	408.81
530.363	398.81
530.577	410.81
530.792	408.81
531.007	400.81
531.221	406.81
531.436	405.81
531.651	416.81
531.865	384.81
532.08	393.81
532.295	405.81
532.509	399.81
532.724	412.81
532.938	407.81
533.153	416.81
533.367	401.81
533.582	429.81
533.796	421.81
534.011	397.81
534.225	391.81
534.44	385.81
534.654	390.81
534.868	393.81
535.083	421.81
535.297	410.81
535.511	388.81
535.726	398.81
535.94	383.81
536.154	405.81
536.369	385.81
536.583	368.81
536.797	385.81
537.011	391.81
537.225	383.81
537.44	398.81
537.654	410.81
537.868	375.81
538.082	404.81
538.296	385.81
538.51	387.81
538.724	380.81
538.938	393.81
539.153	381.81
539.367	379.81
539.581	383.81
539.795	371.81
540.009	387.81
540.222	382.81
540.436	377.81
540.65	358.81
540.864	375.81
541.078	381.81
541.292	373.81
541.506	371.81
541.72	376.81
541.934	391.81
542.147	396.81
542.361	376.81
542.575	387.81
542.789	375.81
543.002	379.81
543.216	384.81
543.43	367.81
543.644	348.81
543.857	346.81
544.071	380.81
544.285	381.81
544.498	380.81
544.712	380.81
544.925	391.81
545.139	373.81
545.352	387.81
545.566	372.81
545.779	396.81
545.993	384.81
546.206	391.81
546.42	385.81
546.633	375.81
546.847	399.81
547.06	411.81
547.274	397.81
547.487	393.81
547.7	395.81
547.914	390.81
548.127	407.81
548.34	395.81
548.554	389.81
548.767	381.81
548.98	377.81
549.193	358.81
549.407	370.81
549.62	400.81
549.833	405.81
550.046	379.81
550.259	381.81
550.473	398.81
550.686	377.81
550.899	387.81
551.112	380.81
551.325	378.81
551.538	387.81
551.751	377.81
551.964	390.81
552.177	377.81
552.39	377.81
552.603	395.81
552.816	385.81
553.029	414.81
553.242	389.81
553.455	402.81
553.667	393.81
553.88	415.81
554.093	417.81
554.306	384.81
554.519	356.81
554.732	358.81
554.944	359.81
555.157	361.81
555.37	358.81
555.583	358.81
555.795	360.81
556.008	380.81
556.221	345.81
556.433	349.81
556.646	369.81
556.859	323.81
557.071	353.81
557.284	332.81
557.496	318.81
557.709	341.81
557.921	339.81
558.134	340.81
558.346	344.81
558.559	333.81
558.771	335.81
558.984	334.81
559.196	326.81
559.409	316.81
559.621	321.81
559.833	339.81
560.046	339.81
560.258	318.81
560.47	333.81
560.683	336.81
560.895	328.81
561.107	322.81
561.32	332.81
561.532	324.81
561.744	313.81
561.956	334.81
562.168	329.81
562.381	339.81
562.593	335.81
562.805	334.81
563.017	332.81
563.229	328.81
563.441	329.81
563.653	351.81
563.865	339.81
564.077	326.81
564.289	326.81
564.501	330.81
564.713	344.81
564.925	343.81
565.137	350.81
565.349	348.81
565.561	362.81
565.773	375.81
565.985	397.81
566.197	406.81
566.408	405.81
566.62	419.81
566.832	433.81
567.044	451.81
567.255	445.81
567.467	456.81
567.679	479.81
567.891	486.81
568.102	481.81
568.314	463.81
568.526	454.81
568.737	410.81
568.949	408.81
569.161	370.81
569.372	352.81
569.584	354.81
569.795	336.81
570.007	330.81
570.218	314.81
570.43	312.81
570.641	313.81
570.853	330.81
571.064	321.81
571.276	337.81
571.487	330.81
571.698	288.81
571.91	315.81
572.121	297.81
572.333	297.81
572.544	301.81
572.755	289.81
572.966	294.81
573.178	286.81
573.389	306.81
573.6	263.81
573.811	289.81
574.023	293.81
574.234	282.81
574.445	274.81
574.656	279.81
574.867	261.81
575.078	275.81
575.289	281.81
575.501	281.81
575.712	262.81
575.923	269.81
576.134	267.81
576.345	270.81
576.556	280.81
576.767	271.81
576.978	291.81
577.188	262.81
577.399	271.81
577.61	269.81
577.821	261.81
578.032	265.81
578.243	255.81
578.454	257.81
578.665	262.81
578.875	245.81
579.086	253.81
579.297	244.81
579.508	235.81
579.718	237.81
579.929	241.81
580.14	257.81
580.35	259.81
580.561	238.81
580.772	244.81
580.982	260.81
581.193	265.81
581.403	234.81
581.614	245.81
581.825	241.81
582.035	239.81
582.246	241.81
582.456	226.81
582.667	223.81
582.877	241.81
583.087	240.81
583.298	232.81
583.508	250.81
583.719	242.81
583.929	246.81
584.139	238.81
584.35	226.81
584.56	219.81
584.77	247.81
584.981	237.81
585.191	240.81
585.401	249.81
585.611	239.81
585.821	225.81
586.032	233.81
586.242	237.81
586.452	248.81
586.662	236.81
586.872	222.81
587.082	216.81
587.292	231.81
587.502	232.81
587.713	253.81
587.923	229.81
588.133	253.81
588.343	236.81
588.553	249.81
588.762	233.81
588.972	232.81
589.182	252.81
589.392	227.81
589.602	222.81
589.812	228.81
590.022	221.81
590.232	258.81
590.441	241.81
590.651	237.81
590.861	221.81
591.071	234.81
591.281	241.81
591.49	234.81
591.7	240.81
591.91	253.81
592.119	238.81
592.329	242.81
592.539	262.81
592.748	267.81
592.958	270.81
593.167	249.81
593.377	259.81
593.587	270.81
593.796	265.81
594.006	271.81
594.215	255.81
594.424	274.81
594.634	272.81
594.843	272.81
595.053	240.81
595.262	239.81
595.472	249.81
595.681	233.81
595.89	249.81
596.1	237.81
596.309	209.81
596.518	221.81
596.727	217.81
596.937	216.81
597.146	215.81
597.355	230.81
597.564	232.81
597.774	219.81
597.983	219.81
598.192	209.81
598.401	203.81
598.61	204.81
598.819	205.81
599.028	211.81
599.237	202.81
599.446	191.81
599.655	183.81
599.864	199.81
600.073	203.81
600.282	217.81
600.491	218.81
600.7	209.81
600.909	206.81
601.118	201.81
601.327	202.81
601.536	206.81
601.745	204.81
601.953	195.81
602.162	210.81
602.371	204.81
602.58	221.81
602.789	201.81
602.997	197.81
603.206	190.81
603.415	194.81
603.623	196.81
603.832	188.81
604.041	199.81
604.249	209.81
604.458	197.81
604.666	190.81
604.875	192.81
605.084	194.81
605.292	193.81
605.501	178.81
605.709	183.81
605.918	197.81
606.126	194.81
606.334	193.81
606.543	198.81
606.751	193.81
606.96	207.81
607.168	196.81
607.376	207.81
607.585	203.81
607.793	198.81
608.001	193.81
608.21	203.81
608.418	190.81
608.626	178.81
608.834	191.81
609.043	212.81
609.251	184.81
609.459	208.81
609.667	216.81
609.875	179.81
610.083	209.81
610.291	179.81
610.499	183.81
610.707	196.81
610.916	187.81
611.124	181.81
611.332	189.81
611.54	193.81
611.748	197.81
611.955	206.81
612.163	193.81
612.371	185.81
612.579	189.81
612.787	191.81
612.995	184.81
613.203	181.81
613.411	199.81
613.618	181.81
613.826	188.81
614.034	200.81
614.242	187.81
614.449	189.81
614.657	177.81
614.865	169.81
615.072	173.81
615.28	190.81
615.488	181.81
615.695	187.81
615.903	185.81
616.111	185.81
616.318	187.81
616.526	178.81
616.733	167.81
616.941	195.81
617.148	181.81
617.356	179.81
617.563	195.81
617.771	192.81
617.978	182.81
618.185	186.81
618.393	176.81
618.6	164.81
618.807	179.81
619.015	179.81
619.222	198.81
619.429	182.81
619.637	171.81
619.844	190.81
620.051	179.81
620.258	180.81
620.466	166.81
620.673	168.81
620.88	175.81
621.087	169.81
621.294	179.81
621.501	166.81
621.708	175.81
621.915	162.81
622.122	163.81
622.329	160.81
622.536	180.81
622.743	155.81
622.95	166.81
623.157	172.81
623.364	160.81
623.571	182.81
623.778	161.81
623.985	184.81
624.192	164.81
624.399	197.81
624.606	187.81
624.812	162.81
625.019	173.81
625.226	159.81
625.433	153.81
625.639	166.81
625.846	161.81
626.053	162.81
626.259	160.81
626.466	163.81
626.673	153.81
626.879	153.81
627.086	170.81
627.293	152.81
627.499	160.81
627.706	166.81
627.912	155.81
628.119	177.81
628.325	167.81
628.532	146.81
628.738	149.81
628.945	153.81
629.151	157.81
629.357	163.81
629.564	180.81
629.77	153.81
629.976	154.81
630.183	159.81
630.389	167.81
630.595	175.81
630.802	163.81
631.008	145.81
631.214	163.81
631.42	164.81
631.627	156.81
631.833	165.81
632.039	174.81
632.245	153.81
632.451	153.81
632.657	162.81
632.863	161.81
633.069	168.81
633.275	157.81
633.481	184.81
633.688	162.81
633.893	156.81
634.099	157.81
634.305	165.81
634.511	136.81
634.717	139.81
634.923	153.81
635.129	153.81
635.335	157.81
635.541	161.81
635.747	151.81
635.952	158.81
636.158	151.81
636.364	170.81
636.57	150.81
636.775	138.81
636.981	138.81
637.187	158.81
637.392	139.81
637.598	147.81
637.804	140.81
638.009	145.81
638.215	137.81
638.421	163.81
638.626	138.81
638.832	147.81
639.037	145.81
639.243	157.81
639.448	150.81
639.654	137.81
639.859	159.81
640.065	154.81
640.27	162.81
640.475	125.81
640.681	138.81
640.886	155.81
641.091	134.81
641.297	152.81
641.502	146.81
641.707	165.81
641.913	143.81
642.118	139.81
642.323	153.81
642.528	151.81
642.733	158.81
642.939	152.81
643.144	143.81
643.349	135.81
643.554	141.81
643.759	136.81
643.964	129.81
644.169	137.81
644.374	151.81
644.579	133.81
644.784	149.81
644.989	133.81
645.194	149.81
645.399	154.81
645.604	143.81
645.809	142.81
646.014	146.81
646.219	139.81
646.423	145.81
646.628	158.81
646.833	147.81
647.038	145.81
647.243	157.81
647.447	149.81
647.652	141.81
647.857	146.81
648.062	154.81
648.266	154.81
648.471	161.81
648.676	161.81
648.88	142.81
649.085	140.81
649.289	152.81
649.494	137.81
649.698	151.81
649.903	127.81
650.107	138.81
650.312	150.81
650.516	129.81
650.721	148.81
650.925	129.81
651.13	145.81
651.334	134.81
651.539	134.81
651.743	141.81
651.947	141.81
652.152	135.81
652.356	136.81
652.56	137.81
652.764	129.81
652.969	140.81
653.173	140.81
653.377	138.81
653.581	135.81
653.785	143.81
653.99	144.81
654.194	136.81
654.398	141.81
654.602	129.81
654.806	139.81
655.01	125.81
655.214	131.81
655.418	135.81
655.622	126.81
655.826	137.81
656.03	127.81
656.234	136.81
656.438	133.81
656.642	125.81
656.846	133.81
657.049	121.81
657.253	106.81
657.457	117.81
657.661	117.81
657.865	117.81
658.068	127.81
658.272	114.81
658.476	123.81
658.68	109.81
658.883	126.81
659.087	106.81
659.291	109.81
659.494	88.81
659.698	90.81
659.901	94.81
660.105	101.81
660.309	93.81
660.512	92.81
660.716	84.81
660.919	82.81
661.123	100.81
661.326	96.81
661.53	79.81
661.733	91.81
661.936	90.81
662.14	97.81
662.343	78.81
662.546	73.81
662.75	94.81
662.953	76.81
663.156	79.81
663.36	87.81
663.563	94.81
663.766	68.81
663.969	75.81
664.173	81.81
664.376	69.81
664.579	74.81
664.782	89.81
664.985	81.81
665.188	72.81
665.391	84.81
665.594	65.81
665.797	81.81
666	70.81
666.203	68.81
666.406	79.81
666.609	79.81
666.812	78.81
667.015	84.81
667.218	83.81
667.421	90.81
667.624	94.81
667.827	79.81
668.03	83.81
668.232	70.81
668.435	79.81
668.638	88.81
668.841	81.81
669.043	79.81
669.246	90.81
669.449	71.81
669.651	73.81
669.854	73.81
670.057	74.81
670.259	84.81
670.462	81.81
670.665	70.81
670.867	85.81
671.07	82.81
671.272	70.81
671.475	81.81
671.677	72.81
671.88	87.81
672.082	92.81
672.284	87.81
672.487	70.81
672.689	74.81
672.892	79.81
