Data from Fe(NO3)3@0.05M.TitratingCurve.Agarose3%dH2O.NegLispCup.LampEnergy10.LIBS07252019_HRD10591_16-46-14-334.txt Node
Date: Thu Jul 25 16:46:14 EDT 2019
User: cochatt
Spectrometer: HR+D1059
Trigger mode: 1
Integration Time (sec): 1.000000E-1
Scans to average: 1
Electric dark correction enabled: true
Nonlinearity correction enabled: false
Boxcar width: 0
XAxis mode: Wavelengths
Number of Pixels in Spectrum: 2048
>>>>>Begin Spectral Data<<<<<
223.165	-5.69
223.4	-5.69
223.635	-5.69
223.869	-20.69
224.104	-16.69
224.338	-4.69
224.573	-20.69
224.808	-11.69
225.042	-16.69
225.277	-21.69
225.511	-1.69
225.746	-7.69
225.98	8.31
226.215	22.31
226.449	18.31
226.683	19.31
226.918	32.31
227.152	27.31
227.387	42.31
227.621	37.31
227.856	45.31
228.09	51.31
228.324	57.31
228.559	72.31
228.793	67.31
229.027	117.31
229.262	151.31
229.496	141.31
229.73	153.31
229.964	149.31
230.199	167.31
230.433	152.31
230.667	169.31
230.901	170.31
231.136	156.31
231.37	161.31
231.604	176.31
231.838	167.31
232.072	163.31
232.306	168.31
232.541	177.31
232.775	176.31
233.009	185.31
233.243	177.31
233.477	197.31
233.711	197.31
233.945	193.31
234.179	205.31
234.413	195.31
234.647	196.31
234.881	234.31
235.115	191.31
235.349	212.31
235.583	196.31
235.817	195.31
236.051	197.31
236.285	204.31
236.519	230.31
236.753	226.31
236.987	213.31
237.221	207.31
237.455	197.31
237.689	228.31
237.922	247.31
238.156	216.31
238.39	257.31
238.624	287.31
238.858	273.31
239.091	253.31
239.325	241.31
239.559	243.31
239.793	234.31
240.027	281.31
240.26	275.31
240.494	272.31
240.728	260.31
240.961	276.31
241.195	278.31
241.429	280.31
241.662	284.31
241.896	255.31
242.13	263.31
242.363	282.31
242.597	287.31
242.83	252.31
243.064	297.31
243.298	280.31
243.531	280.31
243.765	279.31
243.998	285.31
244.232	278.31
244.465	296.31
244.699	299.31
244.932	299.31
245.166	301.31
245.399	292.31
245.633	294.31
245.866	292.31
246.099	307.31
246.333	307.31
246.566	325.31
246.8	322.31
247.033	331.31
247.266	317.31
247.5	337.31
247.733	323.31
247.966	328.31
248.2	310.31
248.433	344.31
248.666	334.31
248.899	345.31
249.133	370.31
249.366	377.31
249.599	405.31
249.832	373.31
250.066	372.31
250.299	353.31
250.532	380.31
250.765	361.31
250.998	351.31
251.231	363.31
251.465	356.31
251.698	377.31
251.931	369.31
252.164	354.31
252.397	397.31
252.63	383.31
252.863	428.31
253.096	425.31
253.329	405.31
253.562	412.31
253.795	413.31
254.028	436.31
254.261	463.31
254.494	423.31
254.727	419.31
254.96	411.31
255.193	448.31
255.426	417.31
255.659	408.31
255.892	394.31
256.124	391.31
256.357	432.31
256.59	455.31
256.823	427.31
257.056	400.31
257.289	423.31
257.521	447.31
257.754	429.31
257.987	426.31
258.22	409.31
258.452	444.31
258.685	432.31
258.918	472.31
259.151	462.31
259.383	470.31
259.616	450.31
259.849	484.31
260.081	564.31
260.314	606.31
260.547	507.31
260.779	490.31
261.012	521.31
261.244	519.31
261.477	527.31
261.71	529.31
261.942	486.31
262.175	490.31
262.407	492.31
262.64	498.31
262.872	534.31
263.105	546.31
263.337	546.31
263.57	539.31
263.802	499.31
264.035	455.31
264.267	478.31
264.499	461.31
264.732	500.31
264.964	485.31
265.197	476.31
265.429	479.31
265.661	484.31
265.894	500.31
266.126	499.31
266.358	489.31
266.591	495.31
266.823	519.31
267.055	513.31
267.287	500.31
267.52	496.31
267.752	501.31
267.984	525.31
268.216	503.31
268.448	533.31
268.681	512.31
268.913	534.31
269.145	523.31
269.377	543.31
269.609	539.31
269.841	543.31
270.073	534.31
270.306	552.31
270.538	568.31
270.77	536.31
271.002	553.31
271.234	552.31
271.466	568.31
271.698	582.31
271.93	575.31
272.162	585.31
272.394	564.31
272.626	559.31
272.858	575.31
273.09	583.31
273.322	582.31
273.553	609.31
273.785	606.31
274.017	671.31
274.249	703.31
274.481	685.31
274.713	717.31
274.945	740.31
275.176	767.31
275.408	732.31
275.64	715.31
275.872	738.31
276.104	645.31
276.335	625.31
276.567	612.31
276.799	627.31
277.031	646.31
277.262	620.31
277.494	623.31
277.726	602.31
277.957	633.31
278.189	624.31
278.421	627.31
278.652	611.31
278.884	614.31
279.115	631.31
279.347	620.31
279.579	623.31
279.81	633.31
280.042	645.31
280.273	666.31
280.505	641.31
280.736	635.31
280.968	657.31
281.199	654.31
281.431	652.31
281.662	672.31
281.894	627.31
282.125	643.31
282.356	653.31
282.588	654.31
282.819	637.31
283.051	663.31
283.282	657.31
283.513	697.31
283.745	696.31
283.976	674.31
284.207	663.31
284.439	698.31
284.67	687.31
284.901	696.31
285.132	668.31
285.364	698.31
285.595	681.31
285.826	682.31
286.057	703.31
286.288	700.31
286.52	705.31
286.751	695.31
286.982	715.31
287.213	696.31
287.444	697.31
287.675	697.31
287.906	707.31
288.138	711.31
288.369	744.31
288.6	727.31
288.831	710.31
289.062	701.31
289.293	697.31
289.524	709.31
289.755	734.31
289.986	711.31
290.217	721.31
290.448	708.31
290.679	735.31
290.91	722.31
291.141	692.31
291.371	710.31
291.602	711.31
291.833	711.31
292.064	714.31
292.295	711.31
292.526	715.31
292.757	732.31
292.987	718.31
293.218	698.31
293.449	741.31
293.68	738.31
293.91	741.31
294.141	756.31
294.372	708.31
294.603	741.31
294.833	747.31
295.064	736.31
295.295	735.31
295.525	698.31
295.756	742.31
295.987	739.31
296.217	771.31
296.448	757.31
296.679	775.31
296.909	780.31
297.14	779.31
297.37	773.31
297.601	781.31
297.831	765.31
298.062	744.31
298.292	788.31
298.523	818.31
298.753	785.31
298.984	780.31
299.214	764.31
299.445	774.31
299.675	808.31
299.905	799.31
300.136	797.31
300.366	797.31
300.597	780.31
300.827	801.31
301.057	838.31
301.288	796.31
301.518	810.31
301.748	803.31
301.979	836.31
302.209	825.31
302.439	829.31
302.669	836.31
302.9	844.31
303.13	811.31
303.36	851.31
303.59	825.31
303.82	819.31
304.051	846.31
304.281	840.31
304.511	823.31
304.741	838.31
304.971	841.31
305.201	830.31
305.431	852.31
305.661	824.31
305.891	805.31
306.121	799.31
306.352	843.31
306.582	854.31
306.812	811.31
307.042	827.31
307.272	844.31
307.502	827.31
307.731	860.31
307.961	848.31
308.191	826.31
308.421	803.31
308.651	847.31
308.881	813.31
309.111	823.31
309.341	820.31
309.571	849.31
309.8	848.31
310.03	863.31
310.26	865.31
310.49	852.31
310.72	860.31
310.949	853.31
311.179	851.31
311.409	839.31
311.639	869.31
311.868	867.31
312.098	849.31
312.328	875.31
312.557	868.31
312.787	875.31
313.017	892.31
313.246	867.31
313.476	874.31
313.706	900.31
313.935	874.31
314.165	889.31
314.394	876.31
314.624	922.31
314.853	904.31
315.083	901.31
315.312	902.31
315.542	911.31
315.771	910.31
316.001	925.31
316.23	910.31
316.46	900.31
316.689	918.31
316.919	903.31
317.148	944.31
317.377	924.31
317.607	897.31
317.836	893.31
318.065	902.31
318.295	928.31
318.524	945.31
318.753	931.31
318.983	897.31
319.212	897.31
319.441	923.31
319.67	948.31
319.9	933.31
320.129	930.31
320.358	924.31
320.587	920.31
320.816	930.31
321.046	925.31
321.275	938.31
321.504	969.31
321.733	955.31
321.962	941.31
322.191	967.31
322.42	957.31
322.649	952.31
322.878	962.31
323.108	943.31
323.337	972.31
323.566	947.31
323.795	943.31
324.024	963.31
324.253	955.31
324.482	984.31
324.71	980.31
324.939	983.31
325.168	989.31
325.397	980.31
325.626	969.31
325.855	993.31
326.084	987.31
326.313	1003.31
326.542	1003.31
326.77	1034.31
326.999	986.31
327.228	1015.31
327.457	978.31
327.686	1001.31
327.914	1001.31
328.143	1020.31
328.372	1004.31
328.6	996.31
328.829	1026.31
329.058	1019.31
329.287	988.31
329.515	1010.31
329.744	1007.31
329.972	1009.31
330.201	1036.31
330.43	1030.31
330.658	1043.31
330.887	1034.31
331.115	1013.31
331.344	1043.31
331.572	1030.31
331.801	1050.31
332.03	1031.31
332.258	1042.31
332.486	1051.31
332.715	1074.31
332.943	1079.31
333.172	1125.31
333.4	1136.31
333.629	1131.31
333.857	1142.31
334.085	1125.31
334.314	1175.31
334.542	1183.31
334.771	1147.31
334.999	1136.31
335.227	1151.31
335.455	1145.31
335.684	1172.31
335.912	1178.31
336.14	1179.31
336.369	1164.31
336.597	1120.31
336.825	1131.31
337.053	1152.31
337.281	1138.31
337.51	1120.31
337.738	1129.31
337.966	1100.31
338.194	1111.31
338.422	1119.31
338.65	1119.31
338.878	1110.31
339.106	1091.31
339.334	1099.31
339.562	1078.31
339.79	1075.31
340.018	1077.31
340.246	1072.31
340.474	1098.31
340.702	1067.31
340.93	1063.31
341.158	1074.31
341.386	1056.31
341.614	1098.31
341.842	1108.31
342.07	1055.31
342.298	1072.31
342.526	1075.31
342.754	1052.31
342.981	1085.31
343.209	1080.31
343.437	1084.31
343.665	1115.31
343.893	1096.31
344.12	1175.31
344.348	1141.31
344.576	1143.31
344.804	1123.31
345.031	1123.31
345.259	1085.31
345.487	1095.31
345.714	1072.31
345.942	1059.31
346.17	1075.31
346.397	1043.31
346.625	1057.31
346.853	1060.31
347.08	1063.31
347.308	1025.31
347.535	1043.31
347.763	1038.31
347.99	1037.31
348.218	1045.31
348.445	1027.31
348.673	1025.31
348.9	992.31
349.128	1031.31
349.355	1016.31
349.583	1022.31
349.81	1017.31
350.037	1044.31
350.265	1003.31
350.492	1033.31
350.72	1033.31
350.947	1018.31
351.174	1032.31
351.402	1030.31
351.629	1008.31
351.856	1045.31
352.083	1041.31
352.311	1022.31
352.538	1023.31
352.765	1002.31
352.992	1009.31
353.22	1001.31
353.447	1009.31
353.674	993.31
353.901	998.31
354.128	986.31
354.355	1000.31
354.583	979.31
354.81	1033.31
355.037	1031.31
355.264	1005.31
355.491	1029.31
355.718	1031.31
355.945	1054.31
356.172	1019.31
356.399	1027.31
356.626	1025.31
356.853	1051.31
357.08	1041.31
357.307	1051.31
357.534	1009.31
357.761	1029.31
357.988	1049.31
358.215	1038.31
358.441	1063.31
358.668	1024.31
358.895	1023.31
359.122	1016.31
359.349	991.31
359.576	1032.31
359.802	1053.31
360.029	1043.31
360.256	1024.31
360.483	1041.31
360.709	1062.31
360.936	1067.31
361.163	1088.31
361.39	1029.31
361.616	1050.31
361.843	1047.31
362.07	1061.31
362.296	1061.31
362.523	1036.31
362.749	1055.31
362.976	1037.31
363.203	1053.31
363.429	1067.31
363.656	1068.31
363.882	1052.31
364.109	1072.31
364.335	1005.31
364.562	1027.31
364.788	1033.31
365.015	1067.31
365.241	1063.31
365.468	1046.31
365.694	1048.31
365.92	1054.31
366.147	1053.31
366.373	1055.31
366.599	1064.31
366.826	1036.31
367.052	1064.31
367.278	1088.31
367.505	1082.31
367.731	1064.31
367.957	1068.31
368.184	1091.31
368.41	1061.31
368.636	1071.31
368.862	1100.31
369.089	1120.31
369.315	1105.31
369.541	1087.31
369.767	1128.31
369.993	1116.31
370.219	1083.31
370.445	1123.31
370.672	1135.31
370.898	1132.31
371.124	1147.31
371.35	1109.31
371.576	1126.31
371.802	1143.31
372.028	1132.31
372.254	1161.31
372.48	1135.31
372.706	1177.31
372.932	1177.31
373.158	1159.31
373.384	1175.31
373.61	1183.31
373.835	1174.31
374.061	1156.31
374.287	1165.31
374.513	1173.31
374.739	1199.31
374.965	1245.31
375.191	1223.31
375.416	1204.31
375.642	1194.31
375.868	1203.31
376.094	1209.31
376.319	1165.31
376.545	1185.31
376.771	1151.31
376.997	1153.31
377.222	1142.31
377.448	1132.31
377.674	1143.31
377.899	1128.31
378.125	1157.31
378.35	1147.31
378.576	1140.31
378.802	1091.31
379.027	1142.31
379.253	1139.31
379.478	1167.31
379.704	1165.31
379.929	1147.31
380.155	1148.31
380.38	1137.31
380.606	1140.31
380.831	1110.31
381.057	1155.31
381.282	1141.31
381.507	1174.31
381.733	1193.31
381.958	1201.31
382.184	1232.31
382.409	1237.31
382.634	1246.31
382.86	1213.31
383.085	1234.31
383.31	1215.31
383.535	1217.31
383.761	1244.31
383.986	1204.31
384.211	1218.31
384.436	1284.31
384.662	1270.31
384.887	1260.31
385.112	1236.31
385.337	1255.31
385.562	1284.31
385.787	1307.31
386.013	1319.31
386.238	1333.31
386.463	1293.31
386.688	1296.31
386.913	1318.31
387.138	1345.31
387.363	1306.31
387.588	1348.31
387.813	1339.31
388.038	1279.31
388.263	1310.31
388.488	1335.31
388.713	1334.31
388.938	1343.31
389.163	1310.31
389.387	1360.31
389.612	1318.31
389.837	1366.31
390.062	1331.31
390.287	1356.31
390.512	1347.31
390.736	1341.31
390.961	1331.31
391.186	1387.31
391.411	1403.31
391.636	1388.31
391.86	1440.31
392.085	1427.31
392.31	1419.31
392.534	1409.31
392.759	1395.31
392.984	1395.31
393.208	1386.31
393.433	1414.31
393.658	1411.31
393.882	1389.31
394.107	1414.31
394.331	1399.31
394.556	1379.31
394.78	1385.31
395.005	1439.31
395.229	1389.31
395.454	1434.31
395.678	1462.31
395.903	1408.31
396.127	1471.31
396.352	1427.31
396.576	1451.31
396.801	1463.31
397.025	1457.31
397.249	1445.31
397.474	1498.31
397.698	1473.31
397.922	1512.31
398.147	1538.31
398.371	1551.31
398.595	1547.31
398.82	1572.31
399.044	1647.31
399.268	1654.31
399.492	1699.31
399.717	1749.31
399.941	1825.31
400.165	1772.31
400.389	1723.31
400.613	1711.31
400.837	1690.31
401.062	1639.31
401.286	1595.31
401.51	1604.31
401.734	1569.31
401.958	1604.31
402.182	1599.31
402.406	1575.31
402.63	1603.31
402.854	1623.31
403.078	1614.31
403.302	1611.31
403.526	1600.31
403.75	1584.31
403.974	1613.31
404.198	1624.31
404.422	1625.31
404.645	1641.31
404.869	1671.31
405.093	1653.31
405.317	1643.31
405.541	1655.31
405.765	1674.31
405.988	1676.31
406.212	1665.31
406.436	1676.31
406.66	1735.31
406.883	1681.31
407.107	1751.31
407.331	1798.31
407.555	1815.31
407.778	1798.31
408.002	1794.31
408.226	1835.31
408.449	1827.31
408.673	1768.31
408.896	1770.31
409.12	1741.31
409.344	1757.31
409.567	1707.31
409.791	1694.31
410.014	1703.31
410.238	1671.31
410.461	1688.31
410.685	1684.31
410.908	1681.31
411.132	1652.31
411.355	1651.31
411.578	1670.31
411.802	1669.31
412.025	1645.31
412.249	1681.31
412.472	1651.31
412.695	1608.31
412.919	1641.31
413.142	1600.31
413.365	1597.31
413.589	1591.31
413.812	1600.31
414.035	1627.31
414.258	1599.31
414.482	1599.31
414.705	1614.31
414.928	1634.31
415.151	1595.31
415.374	1599.31
415.597	1617.31
415.821	1564.31
416.044	1563.31
416.267	1541.31
416.49	1561.31
416.713	1575.31
416.936	1561.31
417.159	1530.31
417.382	1519.31
417.605	1550.31
417.828	1557.31
418.051	1540.31
418.274	1513.31
418.497	1535.31
418.72	1546.31
418.943	1539.31
419.166	1629.31
419.389	1700.31
419.611	1703.31
419.834	1660.31
420.057	1586.31
420.28	1545.31
420.503	1499.31
420.726	1465.31
420.948	1497.31
421.171	1496.31
421.394	1525.31
421.617	1512.31
421.839	1485.31
422.062	1483.31
422.285	1503.31
422.507	1547.31
422.73	1479.31
422.953	1539.31
423.175	1495.31
423.398	1516.31
423.621	1470.31
423.843	1526.31
424.066	1489.31
424.288	1508.31
424.511	1506.31
424.733	1524.31
424.956	1541.31
425.178	1512.31
425.401	1554.31
425.623	1576.31
425.846	1503.31
426.068	1524.31
426.291	1508.31
426.513	1491.31
426.735	1515.31
426.958	1519.31
427.18	1486.31
427.402	1487.31
427.625	1462.31
427.847	1487.31
428.069	1481.31
428.292	1503.31
428.514	1468.31
428.736	1475.31
428.958	1487.31
429.181	1441.31
429.403	1442.31
429.625	1448.31
429.847	1450.31
430.069	1436.31
430.292	1465.31
430.514	1430.31
430.736	1497.31
430.958	1475.31
431.18	1463.31
431.402	1478.31
431.624	1429.31
431.846	1455.31
432.068	1466.31
432.29	1503.31
432.512	1491.31
432.734	1504.31
432.956	1486.31
433.178	1492.31
433.4	1460.31
433.622	1497.31
433.844	1489.31
434.066	1496.31
434.287	1506.31
434.509	1506.31
434.731	1509.31
434.953	1533.31
435.175	1496.31
435.397	1531.31
435.618	1507.31
435.84	1503.31
436.062	1457.31
436.284	1463.31
436.505	1480.31
436.727	1481.31
436.949	1445.31
437.17	1423.31
437.392	1413.31
437.614	1444.31
437.835	1428.31
438.057	1425.31
438.278	1409.31
438.5	1397.31
438.721	1445.31
438.943	1420.31
439.165	1448.31
439.386	1438.31
439.608	1436.31
439.829	1416.31
440.05	1438.31
440.272	1443.31
440.493	1436.31
440.715	1450.31
440.936	1485.31
441.158	1482.31
441.379	1505.31
441.6	1535.31
441.822	1526.31
442.043	1480.31
442.264	1479.31
442.486	1439.31
442.707	1527.31
442.928	1516.31
443.149	1519.31
443.371	1515.31
443.592	1511.31
443.813	1501.31
444.034	1499.31
444.255	1527.31
444.476	1535.31
444.698	1577.31
444.919	1580.31
445.14	1687.31
445.361	1605.31
445.582	1527.31
445.803	1523.31
446.024	1494.31
446.245	1511.31
446.466	1469.31
446.687	1430.31
446.908	1490.31
447.129	1440.31
447.35	1411.31
447.571	1410.31
447.792	1380.31
448.013	1377.31
448.234	1404.31
448.455	1355.31
448.675	1341.31
448.896	1358.31
449.117	1344.31
449.338	1370.31
449.559	1348.31
449.779	1321.31
450	1332.31
450.221	1344.31
450.442	1359.31
450.662	1317.31
450.883	1340.31
451.104	1331.31
451.324	1312.31
451.545	1368.31
451.766	1348.31
451.986	1305.31
452.207	1317.31
452.428	1329.31
452.648	1300.31
452.869	1289.31
453.089	1281.31
453.31	1314.31
453.53	1269.31
453.751	1297.31
453.971	1300.31
454.192	1315.31
454.412	1267.31
454.633	1296.31
454.853	1271.31
455.073	1244.31
455.294	1268.31
455.514	1271.31
455.734	1275.31
455.955	1268.31
456.175	1271.31
456.395	1288.31
456.616	1297.31
456.836	1298.31
457.056	1305.31
457.276	1264.31
457.497	1290.31
457.717	1299.31
457.937	1323.31
458.157	1307.31
458.377	1338.31
458.598	1375.31
458.818	1350.31
459.038	1383.31
459.258	1351.31
459.478	1425.31
459.698	1449.31
459.918	1471.31
460.138	1452.31
460.358	1514.31
460.578	1484.31
460.798	1523.31
461.018	1549.31
461.238	1560.31
461.458	1579.31
461.678	1567.31
461.898	1599.31
462.118	1595.31
462.338	1627.31
462.558	1621.31
462.777	1648.31
462.997	1705.31
463.217	1736.31
463.437	1724.31
463.657	1685.31
463.876	1704.31
464.096	1715.31
464.316	1677.31
464.536	1693.31
464.755	1647.31
464.975	1601.31
465.195	1609.31
465.414	1591.31
465.634	1542.31
465.854	1521.31
466.073	1503.31
466.293	1480.31
466.512	1445.31
466.732	1418.31
466.951	1474.31
467.171	1425.31
467.391	1411.31
467.61	1404.31
467.829	1416.31
468.049	1409.31
468.268	1393.31
468.488	1409.31
468.707	1406.31
468.927	1444.31
469.146	1456.31
469.365	1436.31
469.585	1416.31
469.804	1413.31
470.023	1424.31
470.243	1414.31
470.462	1447.31
470.681	1458.31
470.901	1420.31
471.12	1439.31
471.339	1418.31
471.558	1392.31
471.777	1422.31
471.997	1427.31
472.216	1417.31
472.435	1437.31
472.654	1441.31
472.873	1407.31
473.092	1403.31
473.311	1445.31
473.53	1407.31
473.749	1406.31
473.968	1424.31
474.187	1415.31
474.406	1415.31
474.625	1444.31
474.844	1423.31
475.063	1448.31
475.282	1471.31
475.501	1448.31
475.72	1482.31
475.939	1464.31
476.158	1490.31
476.377	1497.31
476.596	1515.31
476.814	1567.31
477.033	1511.31
477.252	1524.31
477.471	1553.31
477.69	1595.31
477.908	1620.31
478.127	1649.31
478.346	1583.31
478.564	1676.31
478.783	1636.31
479.002	1633.31
479.22	1707.31
479.439	1729.31
479.658	1702.31
479.876	1681.31
480.095	1700.31
480.313	1721.31
480.532	1695.31
480.751	1717.31
480.969	1664.31
481.188	1737.31
481.406	1747.31
481.624	1693.31
481.843	1694.31
482.061	1671.31
482.28	1720.31
482.498	1739.31
482.717	1683.31
482.935	1713.31
483.153	1706.31
483.372	1699.31
483.59	1691.31
483.808	1721.31
484.027	1693.31
484.245	1689.31
484.463	1718.31
484.681	1719.31
484.9	1728.31
485.118	1751.31
485.336	1738.31
485.554	1699.31
485.772	1733.31
485.99	1708.31
486.209	1741.31
486.427	1735.31
486.645	1728.31
486.863	1750.31
487.081	1737.31
487.299	1754.31
487.517	1749.31
487.735	1755.31
487.953	1760.31
488.171	1758.31
488.389	1740.31
488.607	1751.31
488.825	1729.31
489.043	1694.31
489.261	1747.31
489.479	1756.31
489.696	1747.31
489.914	1733.31
490.132	1756.31
490.35	1741.31
490.568	1733.31
490.786	1803.31
491.003	1755.31
491.221	1802.31
491.439	1792.31
491.657	1767.31
491.874	1796.31
492.092	1817.31
492.31	1820.31
492.527	1785.31
492.745	1810.31
492.963	1805.31
493.18	1823.31
493.398	1797.31
493.615	1823.31
493.833	1842.31
494.05	1790.31
494.268	1814.31
494.485	1795.31
494.703	1821.31
494.92	1853.31
495.138	1839.31
495.355	1861.31
495.573	1873.31
495.79	1857.31
496.008	1873.31
496.225	1877.31
496.442	1906.31
496.66	1884.31
496.877	1939.31
497.094	1931.31
497.312	1950.31
497.529	1981.31
497.746	2025.31
497.963	2016.31
498.181	2129.31
498.398	2168.31
498.615	2239.31
498.832	2291.31
499.049	2358.31
499.267	2413.31
499.484	2506.31
499.701	2638.31
499.918	2736.31
500.135	2867.31
500.352	2905.31
500.569	2936.31
500.786	2885.31
501.003	2952.31
501.22	2842.31
501.437	2735.31
501.654	2569.31
501.871	2502.31
502.088	2412.31
502.305	2337.31
502.522	2225.31
502.739	2205.31
502.956	2129.31
503.172	2049.31
503.389	2055.31
503.606	2019.31
503.823	1978.31
504.04	1976.31
504.256	1928.31
504.473	1912.31
504.69	1906.31
504.907	1896.31
505.123	1867.31
505.34	1862.31
505.557	1778.31
505.773	1775.31
505.99	1699.31
506.207	1656.31
506.423	1682.31
506.64	1652.31
506.856	1606.31
507.073	1638.31
507.289	1635.31
507.506	1599.31
507.722	1621.31
507.939	1634.31
508.155	1581.31
508.372	1603.31
508.588	1578.31
508.805	1557.31
509.021	1520.31
509.238	1523.31
509.454	1462.31
509.67	1481.31
509.887	1468.31
510.103	1504.31
510.319	1474.31
510.536	1485.31
510.752	1479.31
510.968	1452.31
511.184	1439.31
511.401	1447.31
511.617	1457.31
511.833	1447.31
512.049	1427.31
512.265	1423.31
512.481	1443.31
512.698	1446.31
512.914	1473.31
513.13	1445.31
513.346	1409.31
513.562	1434.31
513.778	1436.31
513.994	1447.31
514.21	1414.31
514.426	1413.31
514.642	1432.31
514.858	1444.31
515.074	1471.31
515.29	1506.31
515.506	1472.31
515.721	1497.31
515.937	1477.31
516.153	1492.31
516.369	1491.31
516.585	1533.31
516.801	1535.31
517.016	1564.31
517.232	1580.31
517.448	1622.31
517.664	1608.31
517.879	1584.31
518.095	1586.31
518.311	1604.31
518.527	1569.31
518.742	1550.31
518.958	1540.31
519.173	1510.31
519.389	1493.31
519.605	1498.31
519.82	1505.31
520.036	1550.31
520.251	1501.31
520.467	1461.31
520.682	1411.31
520.898	1404.31
521.113	1387.31
521.329	1370.31
521.544	1415.31
521.76	1395.31
521.975	1380.31
522.19	1351.31
522.406	1378.31
522.621	1387.31
522.836	1378.31
523.052	1350.31
523.267	1328.31
523.482	1331.31
523.698	1333.31
523.913	1327.31
524.128	1317.31
524.343	1324.31
524.559	1282.31
524.774	1273.31
524.989	1289.31
525.204	1302.31
525.419	1314.31
525.634	1288.31
525.849	1327.31
526.064	1313.31
526.28	1288.31
526.495	1267.31
526.71	1269.31
526.925	1252.31
527.14	1253.31
527.355	1268.31
527.57	1255.31
527.785	1256.31
527.999	1239.31
528.214	1292.31
528.429	1243.31
528.644	1224.31
528.859	1249.31
529.074	1243.31
529.289	1221.31
529.503	1245.31
529.718	1251.31
529.933	1207.31
530.148	1260.31
530.363	1246.31
530.577	1225.31
530.792	1225.31
531.007	1190.31
531.221	1227.31
531.436	1256.31
531.651	1237.31
531.865	1208.31
532.08	1217.31
532.295	1223.31
532.509	1200.31
532.724	1215.31
532.938	1223.31
533.153	1217.31
533.367	1212.31
533.582	1208.31
533.796	1199.31
534.011	1196.31
534.225	1178.31
534.44	1197.31
534.654	1196.31
534.868	1189.31
535.083	1190.31
535.297	1170.31
535.511	1139.31
535.726	1153.31
535.94	1180.31
536.154	1147.31
536.369	1179.31
536.583	1164.31
536.797	1144.31
537.011	1133.31
537.225	1132.31
537.44	1152.31
537.654	1136.31
537.868	1132.31
538.082	1127.31
538.296	1108.31
538.51	1083.31
538.724	1135.31
538.938	1115.31
539.153	1116.31
539.367	1124.31
539.581	1128.31
539.795	1136.31
540.009	1099.31
540.222	1129.31
540.436	1097.31
540.65	1104.31
540.864	1112.31
541.078	1105.31
541.292	1101.31
541.506	1110.31
541.72	1091.31
541.934	1135.31
542.147	1133.31
542.361	1100.31
542.575	1107.31
542.789	1123.31
543.002	1107.31
543.216	1061.31
543.43	1098.31
543.644	1055.31
543.857	1084.31
544.071	1084.31
544.285	1080.31
544.498	1105.31
544.712	1097.31
544.925	1083.31
545.139	1095.31
545.352	1097.31
545.566	1087.31
545.779	1083.31
545.993	1108.31
546.206	1111.31
546.42	1067.31
546.633	1091.31
546.847	1115.31
547.06	1117.31
547.274	1110.31
547.487	1092.31
547.7	1077.31
547.914	1100.31
548.127	1099.31
548.34	1116.31
548.554	1083.31
548.767	1107.31
548.98	1097.31
549.193	1084.31
549.407	1109.31
549.62	1139.31
549.833	1091.31
550.046	1094.31
550.259	1082.31
550.473	1084.31
550.686	1096.31
550.899	1097.31
551.112	1093.31
551.325	1100.31
551.538	1112.31
551.751	1066.31
551.964	1092.31
552.177	1088.31
552.39	1061.31
552.603	1088.31
552.816	1091.31
553.029	1084.31
553.242	1113.31
553.455	1116.31
553.667	1067.31
553.88	1073.31
554.093	1069.31
554.306	1064.31
554.519	1047.31
554.732	1035.31
554.944	1037.31
555.157	1027.31
555.37	1043.31
555.583	1031.31
555.795	987.31
556.008	985.31
556.221	977.31
556.433	959.31
556.646	993.31
556.859	956.31
557.071	972.31
557.284	964.31
557.496	962.31
557.709	947.31
557.921	959.31
558.134	947.31
558.346	941.31
558.559	962.31
558.771	921.31
558.984	917.31
559.196	960.31
559.409	928.31
559.621	938.31
559.833	953.31
560.046	923.31
560.258	900.31
560.47	924.31
560.683	926.31
560.895	933.31
561.107	936.31
561.32	895.31
561.532	899.31
561.744	945.31
561.956	924.31
562.168	887.31
562.381	927.31
562.593	938.31
562.805	915.31
563.017	931.31
563.229	928.31
563.441	931.31
563.653	945.31
563.865	934.31
564.077	952.31
564.289	936.31
564.501	951.31
564.713	957.31
564.925	968.31
565.137	981.31
565.349	971.31
565.561	1023.31
565.773	1027.31
565.985	1026.31
566.197	1075.31
566.408	1063.31
566.62	1092.31
566.832	1145.31
567.044	1095.31
567.255	1128.31
567.467	1127.31
567.679	1133.31
567.891	1146.31
568.102	1156.31
568.314	1135.31
568.526	1062.31
568.737	1097.31
568.949	1012.31
569.161	984.31
569.372	952.31
569.584	968.31
569.795	950.31
570.007	924.31
570.218	890.31
570.43	871.31
570.641	853.31
570.853	891.31
571.064	865.31
571.276	849.31
571.487	848.31
571.698	827.31
571.91	836.31
572.121	813.31
572.333	808.31
572.544	783.31
572.755	775.31
572.966	779.31
573.178	771.31
573.389	767.31
573.6	755.31
573.811	751.31
574.023	739.31
574.234	727.31
574.445	713.31
574.656	736.31
574.867	713.31
575.078	701.31
575.289	713.31
575.501	734.31
575.712	690.31
575.923	698.31
576.134	698.31
576.345	690.31
576.556	707.31
576.767	664.31
576.978	695.31
577.188	666.31
577.399	688.31
577.61	708.31
577.821	672.31
578.032	676.31
578.243	677.31
578.454	667.31
578.665	667.31
578.875	653.31
579.086	655.31
579.297	670.31
579.508	637.31
579.718	643.31
579.929	657.31
580.14	657.31
580.35	668.31
580.561	656.31
580.772	639.31
580.982	647.31
581.193	620.31
581.403	657.31
581.614	608.31
581.825	627.31
582.035	631.31
582.246	643.31
582.456	629.31
582.667	632.31
582.877	625.31
583.087	631.31
583.298	609.31
583.508	610.31
583.719	616.31
583.929	617.31
584.139	611.31
584.35	622.31
584.56	605.31
584.77	623.31
584.981	620.31
585.191	614.31
585.401	588.31
585.611	595.31
585.821	603.31
586.032	596.31
586.242	607.31
586.452	599.31
586.662	605.31
586.872	597.31
587.082	594.31
587.292	587.31
587.502	602.31
587.713	592.31
587.923	588.31
588.133	602.31
588.343	603.31
588.553	568.31
588.762	581.31
588.972	604.31
589.182	611.31
589.392	617.31
589.602	584.31
589.812	594.31
590.022	593.31
590.232	583.31
590.441	594.31
590.651	587.31
590.861	598.31
591.071	596.31
591.281	580.31
591.49	583.31
591.7	603.31
591.91	589.31
592.119	599.31
592.329	578.31
592.539	592.31
592.748	603.31
592.958	632.31
593.167	591.31
593.377	593.31
593.587	621.31
593.796	633.31
594.006	610.31
594.215	601.31
594.424	593.31
594.634	583.31
594.843	593.31
595.053	550.31
595.262	585.31
595.472	567.31
595.681	575.31
595.89	559.31
596.1	561.31
596.309	537.31
596.518	531.31
596.727	534.31
596.937	550.31
597.146	534.31
597.355	531.31
597.564	542.31
597.774	505.31
597.983	519.31
598.192	511.31
598.401	524.31
598.61	544.31
598.819	502.31
599.028	499.31
599.237	487.31
599.446	471.31
599.655	509.31
599.864	489.31
600.073	468.31
600.282	487.31
600.491	479.31
600.7	487.31
600.909	472.31
601.118	481.31
601.327	473.31
601.536	483.31
601.745	471.31
601.953	471.31
602.162	464.31
602.371	451.31
602.58	455.31
602.789	470.31
602.997	449.31
603.206	459.31
603.415	460.31
603.623	482.31
603.832	452.31
604.041	469.31
604.249	473.31
604.458	453.31
604.666	465.31
604.875	455.31
605.084	436.31
605.292	456.31
605.501	452.31
605.709	462.31
605.918	447.31
606.126	455.31
606.334	437.31
606.543	433.31
606.751	443.31
606.96	452.31
607.168	436.31
607.376	448.31
607.585	457.31
607.793	432.31
608.001	439.31
608.21	452.31
608.418	427.31
608.626	419.31
608.834	438.31
609.043	431.31
609.251	428.31
609.459	418.31
609.667	405.31
609.875	434.31
610.083	400.31
610.291	428.31
610.499	424.31
610.707	397.31
610.916	424.31
611.124	429.31
611.332	422.31
611.54	431.31
611.748	430.31
611.955	432.31
612.163	414.31
612.371	404.31
612.579	429.31
612.787	418.31
612.995	408.31
613.203	416.31
613.411	422.31
613.618	403.31
613.826	400.31
614.034	412.31
614.242	417.31
614.449	392.31
614.657	396.31
614.865	408.31
615.072	409.31
615.28	416.31
615.488	397.31
615.695	404.31
615.903	404.31
616.111	420.31
616.318	419.31
616.526	423.31
616.733	405.31
616.941	411.31
617.148	386.31
617.356	399.31
617.563	404.31
617.771	418.31
617.978	409.31
618.185	397.31
618.393	394.31
618.6	386.31
618.807	379.31
619.015	391.31
619.222	383.31
619.429	393.31
619.637	390.31
619.844	391.31
620.051	387.31
620.258	397.31
620.466	380.31
620.673	395.31
620.88	353.31
621.087	370.31
621.294	379.31
621.501	386.31
621.708	380.31
621.915	363.31
622.122	361.31
622.329	381.31
622.536	379.31
622.743	392.31
622.95	375.31
623.157	375.31
623.364	377.31
623.571	349.31
623.778	361.31
623.985	358.31
624.192	362.31
624.399	380.31
624.606	345.31
624.812	349.31
625.019	352.31
625.226	364.31
625.433	340.31
625.639	352.31
625.846	351.31
626.053	347.31
626.259	347.31
626.466	345.31
626.673	339.31
626.879	343.31
627.086	337.31
627.293	348.31
627.499	346.31
627.706	341.31
627.912	351.31
628.119	328.31
628.325	341.31
628.532	313.31
628.738	349.31
628.945	315.31
629.151	326.31
629.357	346.31
629.564	337.31
629.77	330.31
629.976	325.31
630.183	324.31
630.389	336.31
630.595	336.31
630.802	322.31
631.008	308.31
631.214	326.31
631.42	305.31
631.627	313.31
631.833	323.31
632.039	319.31
632.245	299.31
632.451	311.31
632.657	315.31
632.863	310.31
633.069	303.31
633.275	296.31
633.481	309.31
633.688	320.31
633.893	297.31
634.099	295.31
634.305	313.31
634.511	330.31
634.717	305.31
634.923	321.31
635.129	304.31
635.335	291.31
635.541	319.31
635.747	296.31
635.952	312.31
636.158	307.31
636.364	311.31
636.57	301.31
636.775	301.31
636.981	323.31
637.187	285.31
637.392	285.31
637.598	290.31
637.804	314.31
638.009	320.31
638.215	298.31
638.421	288.31
638.626	300.31
638.832	289.31
639.037	294.31
639.243	319.31
639.448	290.31
639.654	279.31
639.859	292.31
640.065	267.31
640.27	285.31
640.475	286.31
640.681	291.31
640.886	290.31
641.091	292.31
641.297	288.31
641.502	298.31
641.707	292.31
641.913	282.31
642.118	290.31
642.323	306.31
642.528	287.31
642.733	289.31
642.939	282.31
643.144	272.31
643.349	293.31
643.554	303.31
643.759	295.31
643.964	275.31
644.169	281.31
644.374	293.31
644.579	292.31
644.784	273.31
644.989	268.31
645.194	299.31
645.399	271.31
645.604	275.31
645.809	267.31
646.014	287.31
646.219	281.31
646.423	279.31
646.628	289.31
646.833	282.31
647.038	299.31
647.243	292.31
647.447	299.31
647.652	309.31
647.857	301.31
648.062	301.31
648.266	306.31
648.471	299.31
648.676	293.31
648.88	288.31
649.085	291.31
649.289	287.31
649.494	290.31
649.698	285.31
649.903	288.31
650.107	276.31
650.312	297.31
650.516	294.31
650.721	287.31
650.925	290.31
651.13	292.31
651.334	295.31
651.539	263.31
651.743	283.31
651.947	266.31
652.152	278.31
652.356	264.31
652.56	267.31
652.764	293.31
652.969	287.31
653.173	276.31
653.377	277.31
653.581	256.31
653.785	269.31
653.99	271.31
654.194	260.31
654.398	257.31
654.602	267.31
654.806	258.31
655.01	262.31
655.214	243.31
655.418	245.31
655.622	256.31
655.826	261.31
656.03	272.31
656.234	265.31
656.438	262.31
656.642	258.31
656.846	261.31
657.049	253.31
657.253	239.31
657.457	216.31
657.661	208.31
657.865	196.31
658.068	199.31
658.272	183.31
658.476	189.31
658.68	176.31
658.883	165.31
659.087	162.31
659.291	144.31
659.494	123.31
659.698	127.31
659.901	136.31
660.105	128.31
660.309	122.31
660.512	117.31
660.716	125.31
660.919	119.31
661.123	117.31
661.326	104.31
661.53	119.31
661.733	108.31
661.936	105.31
662.14	105.31
662.343	100.31
662.546	96.31
662.75	100.31
662.953	92.31
663.156	104.31
663.36	88.31
663.563	92.31
663.766	82.31
663.969	89.31
664.173	89.31
664.376	88.31
664.579	90.31
664.782	85.31
664.985	72.31
665.188	85.31
665.391	69.31
665.594	80.31
665.797	81.31
666	89.31
666.203	72.31
666.406	79.31
666.609	86.31
666.812	81.31
667.015	84.31
667.218	88.31
667.421	87.31
667.624	102.31
667.827	90.31
668.03	83.31
668.232	76.31
668.435	76.31
668.638	67.31
668.841	72.31
669.043	93.31
669.246	88.31
669.449	74.31
669.651	87.31
669.854	73.31
670.057	93.31
670.259	77.31
670.462	80.31
670.665	74.31
670.867	88.31
671.07	83.31
671.272	88.31
671.475	79.31
671.677	81.31
671.88	77.31
672.082	76.31
672.284	88.31
672.487	73.31
672.689	80.31
672.892	65.31
