Data from Fe(NO3)3@0.0125M.TitratingCurve.Agarose3%dH2O.NegLispCup.LampEnergy10.LIBS07252019_HRD10591_17-01-44-337.txt Node
Date: Thu Jul 25 17:01:44 EDT 2019
User: cochatt
Spectrometer: HR+D1059
Trigger mode: 1
Integration Time (sec): 1.000000E-1
Scans to average: 1
Electric dark correction enabled: true
Nonlinearity correction enabled: false
Boxcar width: 0
XAxis mode: Wavelengths
Number of Pixels in Spectrum: 2048
>>>>>Begin Spectral Data<<<<<
223.165	-27.38
223.4	-27.38
223.635	-27.38
223.869	-12.38
224.104	-7.38
224.338	-9.38
224.573	-19.38
224.808	-23.38
225.042	-4.38
225.277	-12.38
225.511	-6.38
225.746	3.62
225.98	12.62
226.215	11.62
226.449	13.62
226.683	26.62
226.918	15.62
227.152	38.62
227.387	34.62
227.621	35.62
227.856	37.62
228.09	49.62
228.324	50.62
228.559	60.62
228.793	57.62
229.027	67.62
229.262	62.62
229.496	68.62
229.73	79.62
229.964	85.62
230.199	81.62
230.433	88.62
230.667	75.62
230.901	97.62
231.136	95.62
231.37	98.62
231.604	99.62
231.838	103.62
232.072	91.62
232.306	89.62
232.541	91.62
232.775	100.62
233.009	90.62
233.243	93.62
233.477	98.62
233.711	93.62
233.945	112.62
234.179	89.62
234.413	92.62
234.647	91.62
234.881	107.62
235.115	98.62
235.349	82.62
235.583	103.62
235.817	91.62
236.051	96.62
236.285	87.62
236.519	87.62
236.753	88.62
236.987	106.62
237.221	92.62
237.455	84.62
237.689	91.62
237.922	90.62
238.156	99.62
238.39	102.62
238.624	101.62
238.858	104.62
239.091	86.62
239.325	98.62
239.559	90.62
239.793	106.62
240.027	99.62
240.26	98.62
240.494	97.62
240.728	111.62
240.961	110.62
241.195	80.62
241.429	84.62
241.662	118.62
241.896	104.62
242.13	106.62
242.363	95.62
242.597	101.62
242.83	106.62
243.064	100.62
243.298	108.62
243.531	116.62
243.765	96.62
243.998	94.62
244.232	103.62
244.465	116.62
244.699	99.62
244.932	117.62
245.166	116.62
245.399	109.62
245.633	124.62
245.866	119.62
246.099	112.62
246.333	110.62
246.566	128.62
246.8	106.62
247.033	123.62
247.266	124.62
247.5	112.62
247.733	116.62
247.966	110.62
248.2	116.62
248.433	120.62
248.666	121.62
248.899	106.62
249.133	127.62
249.366	112.62
249.599	111.62
249.832	110.62
250.066	128.62
250.299	117.62
250.532	123.62
250.765	113.62
250.998	124.62
251.231	132.62
251.465	130.62
251.698	115.62
251.931	115.62
252.164	118.62
252.397	126.62
252.63	119.62
252.863	114.62
253.096	126.62
253.329	125.62
253.562	134.62
253.795	130.62
254.028	135.62
254.261	135.62
254.494	131.62
254.727	126.62
254.96	128.62
255.193	127.62
255.426	127.62
255.659	129.62
255.892	144.62
256.124	126.62
256.357	144.62
256.59	135.62
256.823	117.62
257.056	130.62
257.289	143.62
257.521	140.62
257.754	137.62
257.987	130.62
258.22	136.62
258.452	129.62
258.685	151.62
258.918	130.62
259.151	131.62
259.383	137.62
259.616	134.62
259.849	145.62
260.081	156.62
260.314	164.62
260.547	151.62
260.779	150.62
261.012	136.62
261.244	140.62
261.477	156.62
261.71	151.62
261.942	142.62
262.175	132.62
262.407	138.62
262.64	136.62
262.872	144.62
263.105	146.62
263.337	142.62
263.57	151.62
263.802	143.62
264.035	155.62
264.267	137.62
264.499	142.62
264.732	144.62
264.964	159.62
265.197	140.62
265.429	150.62
265.661	150.62
265.894	164.62
266.126	151.62
266.358	154.62
266.591	170.62
266.823	157.62
267.055	164.62
267.287	150.62
267.52	162.62
267.752	145.62
267.984	163.62
268.216	154.62
268.448	150.62
268.681	164.62
268.913	159.62
269.145	181.62
269.377	154.62
269.609	157.62
269.841	173.62
270.073	156.62
270.306	159.62
270.538	166.62
270.77	164.62
271.002	182.62
271.234	174.62
271.466	162.62
271.698	156.62
271.93	171.62
272.162	165.62
272.394	181.62
272.626	160.62
272.858	170.62
273.09	175.62
273.322	164.62
273.553	164.62
273.785	173.62
274.017	182.62
274.249	161.62
274.481	186.62
274.713	178.62
274.945	173.62
275.176	164.62
275.408	175.62
275.64	176.62
275.872	180.62
276.104	187.62
276.335	172.62
276.567	176.62
276.799	197.62
277.031	176.62
277.262	191.62
277.494	183.62
277.726	173.62
277.957	167.62
278.189	174.62
278.421	190.62
278.652	183.62
278.884	164.62
279.115	171.62
279.347	179.62
279.579	173.62
279.81	197.62
280.042	172.62
280.273	176.62
280.505	175.62
280.736	194.62
280.968	190.62
281.199	190.62
281.431	207.62
281.662	198.62
281.894	191.62
282.125	197.62
282.356	195.62
282.588	200.62
282.819	200.62
283.051	195.62
283.282	206.62
283.513	219.62
283.745	182.62
283.976	197.62
284.207	199.62
284.439	211.62
284.67	205.62
284.901	196.62
285.132	199.62
285.364	202.62
285.595	195.62
285.826	207.62
286.057	215.62
286.288	195.62
286.52	208.62
286.751	214.62
286.982	201.62
287.213	196.62
287.444	215.62
287.675	199.62
287.906	211.62
288.138	208.62
288.369	199.62
288.6	201.62
288.831	206.62
289.062	215.62
289.293	206.62
289.524	194.62
289.755	200.62
289.986	201.62
290.217	189.62
290.448	203.62
290.679	218.62
290.91	211.62
291.141	208.62
291.371	215.62
291.602	204.62
291.833	229.62
292.064	228.62
292.295	212.62
292.526	203.62
292.757	200.62
292.987	214.62
293.218	200.62
293.449	228.62
293.68	221.62
293.91	214.62
294.141	212.62
294.372	205.62
294.603	223.62
294.833	235.62
295.064	239.62
295.295	211.62
295.525	222.62
295.756	218.62
295.987	230.62
296.217	227.62
296.448	223.62
296.679	219.62
296.909	223.62
297.14	231.62
297.37	243.62
297.601	212.62
297.831	229.62
298.062	238.62
298.292	227.62
298.523	224.62
298.753	247.62
298.984	236.62
299.214	237.62
299.445	245.62
299.675	244.62
299.905	232.62
300.136	229.62
300.366	236.62
300.597	246.62
300.827	256.62
301.057	236.62
301.288	248.62
301.518	245.62
301.748	237.62
301.979	239.62
302.209	250.62
302.439	238.62
302.669	253.62
302.9	257.62
303.13	260.62
303.36	243.62
303.59	269.62
303.82	256.62
304.051	234.62
304.281	260.62
304.511	252.62
304.741	252.62
304.971	243.62
305.201	243.62
305.431	254.62
305.661	266.62
305.891	243.62
306.121	263.62
306.352	254.62
306.582	260.62
306.812	241.62
307.042	247.62
307.272	252.62
307.502	264.62
307.731	261.62
307.961	254.62
308.191	256.62
308.421	276.62
308.651	264.62
308.881	269.62
309.111	255.62
309.341	239.62
309.571	263.62
309.8	261.62
310.03	270.62
310.26	265.62
310.49	276.62
310.72	265.62
310.949	267.62
311.179	255.62
311.409	251.62
311.639	251.62
311.868	285.62
312.098	249.62
312.328	269.62
312.557	257.62
312.787	267.62
313.017	261.62
313.246	265.62
313.476	288.62
313.706	287.62
313.935	284.62
314.165	276.62
314.394	278.62
314.624	281.62
314.853	296.62
315.083	282.62
315.312	274.62
315.542	266.62
315.771	288.62
316.001	279.62
316.23	292.62
316.46	285.62
316.689	290.62
316.919	298.62
317.148	273.62
317.377	279.62
317.607	287.62
317.836	292.62
318.065	297.62
318.295	288.62
318.524	307.62
318.753	277.62
318.983	276.62
319.212	295.62
319.441	302.62
319.67	288.62
319.9	285.62
320.129	299.62
320.358	282.62
320.587	292.62
320.816	291.62
321.046	302.62
321.275	294.62
321.504	295.62
321.733	292.62
321.962	285.62
322.191	294.62
322.42	288.62
322.649	295.62
322.878	309.62
323.108	287.62
323.337	291.62
323.566	300.62
323.795	299.62
324.024	309.62
324.253	301.62
324.482	315.62
324.71	295.62
324.939	286.62
325.168	302.62
325.397	309.62
325.626	293.62
325.855	306.62
326.084	320.62
326.313	318.62
326.542	303.62
326.77	331.62
326.999	321.62
327.228	325.62
327.457	322.62
327.686	300.62
327.914	294.62
328.143	317.62
328.372	312.62
328.6	327.62
328.829	299.62
329.058	307.62
329.287	311.62
329.515	309.62
329.744	322.62
329.972	315.62
330.201	318.62
330.43	301.62
330.658	298.62
330.887	319.62
331.115	312.62
331.344	323.62
331.572	336.62
331.801	339.62
332.03	349.62
332.258	336.62
332.486	329.62
332.715	330.62
332.943	358.62
333.172	338.62
333.4	352.62
333.629	346.62
333.857	366.62
334.085	356.62
334.314	368.62
334.542	366.62
334.771	357.62
334.999	362.62
335.227	359.62
335.455	342.62
335.684	379.62
335.912	374.62
336.14	351.62
336.369	376.62
336.597	366.62
336.825	340.62
337.053	350.62
337.281	363.62
337.51	358.62
337.738	351.62
337.966	349.62
338.194	342.62
338.422	350.62
338.65	345.62
338.878	353.62
339.106	325.62
339.334	347.62
339.562	347.62
339.79	349.62
340.018	348.62
340.246	345.62
340.474	348.62
340.702	338.62
340.93	327.62
341.158	335.62
341.386	338.62
341.614	346.62
341.842	342.62
342.07	344.62
342.298	346.62
342.526	348.62
342.754	350.62
342.981	337.62
343.209	335.62
343.437	354.62
343.665	350.62
343.893	370.62
344.12	356.62
344.348	352.62
344.576	348.62
344.804	355.62
345.031	348.62
345.259	352.62
345.487	342.62
345.714	332.62
345.942	352.62
346.17	339.62
346.397	338.62
346.625	343.62
346.853	348.62
347.08	330.62
347.308	326.62
347.535	339.62
347.763	322.62
347.99	330.62
348.218	333.62
348.445	327.62
348.673	314.62
348.9	315.62
349.128	336.62
349.355	322.62
349.583	341.62
349.81	323.62
350.037	324.62
350.265	340.62
350.492	347.62
350.72	317.62
350.947	327.62
351.174	319.62
351.402	338.62
351.629	322.62
351.856	344.62
352.083	338.62
352.311	335.62
352.538	314.62
352.765	328.62
352.992	326.62
353.22	316.62
353.447	338.62
353.674	319.62
353.901	326.62
354.128	341.62
354.355	320.62
354.583	309.62
354.81	351.62
355.037	347.62
355.264	335.62
355.491	341.62
355.718	329.62
355.945	329.62
356.172	320.62
356.399	337.62
356.626	333.62
356.853	346.62
357.08	343.62
357.307	354.62
357.534	324.62
357.761	330.62
357.988	329.62
358.215	341.62
358.441	342.62
358.668	316.62
358.895	340.62
359.122	331.62
359.349	336.62
359.576	323.62
359.802	322.62
360.029	320.62
360.256	323.62
360.483	327.62
360.709	321.62
360.936	335.62
361.163	323.62
361.39	322.62
361.616	345.62
361.843	336.62
362.07	322.62
362.296	338.62
362.523	342.62
362.749	352.62
362.976	336.62
363.203	337.62
363.429	325.62
363.656	328.62
363.882	352.62
364.109	340.62
364.335	339.62
364.562	338.62
364.788	335.62
365.015	348.62
365.241	355.62
365.468	349.62
365.694	334.62
365.92	356.62
366.147	341.62
366.373	341.62
366.599	352.62
366.826	324.62
367.052	335.62
367.278	326.62
367.505	352.62
367.731	357.62
367.957	344.62
368.184	348.62
368.41	343.62
368.636	344.62
368.862	359.62
369.089	354.62
369.315	373.62
369.541	348.62
369.767	359.62
369.993	365.62
370.219	332.62
370.445	360.62
370.672	343.62
370.898	354.62
371.124	366.62
371.35	364.62
371.576	355.62
371.802	358.62
372.028	372.62
372.254	374.62
372.48	364.62
372.706	382.62
372.932	374.62
373.158	376.62
373.384	376.62
373.61	375.62
373.835	382.62
374.061	372.62
374.287	382.62
374.513	373.62
374.739	381.62
374.965	378.62
375.191	382.62
375.416	374.62
375.642	374.62
375.868	381.62
376.094	373.62
376.319	368.62
376.545	371.62
376.771	380.62
376.997	364.62
377.222	347.62
377.448	360.62
377.674	345.62
377.899	368.62
378.125	372.62
378.35	348.62
378.576	346.62
378.802	357.62
379.027	375.62
379.253	368.62
379.478	358.62
379.704	364.62
379.929	370.62
380.155	369.62
380.38	367.62
380.606	368.62
380.831	376.62
381.057	382.62
381.282	366.62
381.507	381.62
381.733	376.62
381.958	382.62
382.184	371.62
382.409	380.62
382.634	386.62
382.86	384.62
383.085	378.62
383.31	368.62
383.535	378.62
383.761	387.62
383.986	389.62
384.211	382.62
384.436	390.62
384.662	374.62
384.887	402.62
385.112	402.62
385.337	386.62
385.562	407.62
385.787	405.62
386.013	414.62
386.238	420.62
386.463	418.62
386.688	414.62
386.913	408.62
387.138	411.62
387.363	431.62
387.588	414.62
387.813	430.62
388.038	408.62
388.263	398.62
388.488	415.62
388.713	412.62
388.938	418.62
389.163	420.62
389.387	398.62
389.612	418.62
389.837	407.62
390.062	411.62
390.287	400.62
390.512	420.62
390.736	412.62
390.961	409.62
391.186	430.62
391.411	438.62
391.636	443.62
391.86	448.62
392.085	442.62
392.31	446.62
392.534	439.62
392.759	434.62
392.984	429.62
393.208	448.62
393.433	447.62
393.658	432.62
393.882	430.62
394.107	433.62
394.331	434.62
394.556	433.62
394.78	426.62
395.005	429.62
395.229	426.62
395.454	451.62
395.678	451.62
395.903	443.62
396.127	445.62
396.352	446.62
396.576	461.62
396.801	454.62
397.025	452.62
397.249	448.62
397.474	438.62
397.698	454.62
397.922	480.62
398.147	479.62
398.371	481.62
398.595	494.62
398.82	506.62
399.044	521.62
399.268	519.62
399.492	533.62
399.717	552.62
399.941	551.62
400.165	552.62
400.389	545.62
400.613	521.62
400.837	513.62
401.062	497.62
401.286	512.62
401.51	526.62
401.734	476.62
401.958	494.62
402.182	497.62
402.406	498.62
402.63	492.62
402.854	468.62
403.078	492.62
403.302	496.62
403.526	477.62
403.75	491.62
403.974	504.62
404.198	490.62
404.422	485.62
404.645	495.62
404.869	497.62
405.093	524.62
405.317	498.62
405.541	491.62
405.765	508.62
405.988	517.62
406.212	524.62
406.436	512.62
406.66	525.62
406.883	514.62
407.107	531.62
407.331	548.62
407.555	542.62
407.778	539.62
408.002	554.62
408.226	548.62
408.449	532.62
408.673	528.62
408.896	531.62
409.12	544.62
409.344	531.62
409.567	516.62
409.791	521.62
410.014	526.62
410.238	518.62
410.461	501.62
410.685	527.62
410.908	525.62
411.132	533.62
411.355	476.62
411.578	498.62
411.802	496.62
412.025	494.62
412.249	486.62
412.472	494.62
412.695	511.62
412.919	502.62
413.142	526.62
413.365	503.62
413.589	515.62
413.812	504.62
414.035	492.62
414.258	493.62
414.482	499.62
414.705	492.62
414.928	491.62
415.151	467.62
415.374	502.62
415.597	508.62
415.821	471.62
416.044	479.62
416.267	475.62
416.49	483.62
416.713	473.62
416.936	474.62
417.159	501.62
417.382	464.62
417.605	441.62
417.828	475.62
418.051	463.62
418.274	465.62
418.497	474.62
418.72	503.62
418.943	483.62
419.166	485.62
419.389	494.62
419.611	518.62
419.834	487.62
420.057	507.62
420.28	480.62
420.503	467.62
420.726	454.62
420.948	460.62
421.171	448.62
421.394	460.62
421.617	466.62
421.839	436.62
422.062	491.62
422.285	466.62
422.507	471.62
422.73	455.62
422.953	468.62
423.175	460.62
423.398	470.62
423.621	456.62
423.843	472.62
424.066	487.62
424.288	461.62
424.511	462.62
424.733	479.62
424.956	436.62
425.178	467.62
425.401	456.62
425.623	466.62
425.846	459.62
426.068	471.62
426.291	464.62
426.513	436.62
426.735	480.62
426.958	464.62
427.18	442.62
427.402	447.62
427.625	454.62
427.847	438.62
428.069	432.62
428.292	446.62
428.514	447.62
428.736	435.62
428.958	446.62
429.181	444.62
429.403	440.62
429.625	467.62
429.847	436.62
430.069	456.62
430.292	446.62
430.514	448.62
430.736	451.62
430.958	435.62
431.18	441.62
431.402	463.62
431.624	447.62
431.846	438.62
432.068	444.62
432.29	442.62
432.512	454.62
432.734	445.62
432.956	468.62
433.178	440.62
433.4	452.62
433.622	437.62
433.844	474.62
434.066	451.62
434.287	450.62
434.509	433.62
434.731	451.62
434.953	467.62
435.175	456.62
435.397	478.62
435.618	436.62
435.84	459.62
436.062	455.62
436.284	463.62
436.505	436.62
436.727	454.62
436.949	440.62
437.17	440.62
437.392	421.62
437.614	447.62
437.835	447.62
438.057	451.62
438.278	432.62
438.5	443.62
438.721	433.62
438.943	452.62
439.165	435.62
439.386	410.62
439.608	432.62
439.829	439.62
440.05	437.62
440.272	431.62
440.493	438.62
440.715	459.62
440.936	455.62
441.158	458.62
441.379	451.62
441.6	453.62
441.822	460.62
442.043	468.62
442.264	468.62
442.486	455.62
442.707	452.62
442.928	452.62
443.149	461.62
443.371	457.62
443.592	450.62
443.813	471.62
444.034	455.62
444.255	457.62
444.476	471.62
444.698	491.62
444.919	479.62
445.14	579.62
445.361	507.62
445.582	456.62
445.803	464.62
446.024	438.62
446.245	450.62
446.466	443.62
446.687	445.62
446.908	450.62
447.129	448.62
447.35	424.62
447.571	441.62
447.792	443.62
448.013	428.62
448.234	416.62
448.455	415.62
448.675	419.62
448.896	441.62
449.117	388.62
449.338	416.62
449.559	419.62
449.779	443.62
450	412.62
450.221	416.62
450.442	423.62
450.662	397.62
450.883	425.62
451.104	414.62
451.324	414.62
451.545	410.62
451.766	390.62
451.986	413.62
452.207	422.62
452.428	398.62
452.648	393.62
452.869	402.62
453.089	385.62
453.31	404.62
453.53	406.62
453.751	419.62
453.971	402.62
454.192	417.62
454.412	391.62
454.633	415.62
454.853	409.62
455.073	397.62
455.294	411.62
455.514	392.62
455.734	389.62
455.955	382.62
456.175	394.62
456.395	399.62
456.616	398.62
456.836	401.62
457.056	407.62
457.276	399.62
457.497	391.62
457.717	408.62
457.937	415.62
458.157	420.62
458.377	412.62
458.598	433.62
458.818	443.62
459.038	433.62
459.258	431.62
459.478	479.62
459.698	458.62
459.918	459.62
460.138	459.62
460.358	456.62
460.578	472.62
460.798	505.62
461.018	475.62
461.238	479.62
461.458	481.62
461.678	494.62
461.898	492.62
462.118	506.62
462.338	507.62
462.558	514.62
462.777	542.62
462.997	532.62
463.217	542.62
463.437	551.62
463.657	557.62
463.876	524.62
464.096	528.62
464.316	533.62
464.536	508.62
464.755	519.62
464.975	507.62
465.195	483.62
465.414	509.62
465.634	471.62
465.854	481.62
466.073	428.62
466.293	460.62
466.512	449.62
466.732	447.62
466.951	450.62
467.171	419.62
467.391	444.62
467.61	441.62
467.829	422.62
468.049	456.62
468.268	438.62
468.488	429.62
468.707	427.62
468.927	426.62
469.146	431.62
469.365	442.62
469.585	413.62
469.804	448.62
470.023	444.62
470.243	447.62
470.462	436.62
470.681	445.62
470.901	427.62
471.12	420.62
471.339	427.62
471.558	452.62
471.777	450.62
471.997	450.62
472.216	447.62
472.435	418.62
472.654	445.62
472.873	443.62
473.092	431.62
473.311	456.62
473.53	452.62
473.749	428.62
473.968	439.62
474.187	444.62
474.406	444.62
474.625	454.62
474.844	460.62
475.063	448.62
475.282	455.62
475.501	438.62
475.72	448.62
475.939	447.62
476.158	456.62
476.377	471.62
476.596	464.62
476.814	464.62
477.033	452.62
477.252	467.62
477.471	483.62
477.69	500.62
477.908	492.62
478.127	506.62
478.346	488.62
478.564	530.62
478.783	506.62
479.002	518.62
479.22	523.62
479.439	515.62
479.658	537.62
479.876	508.62
480.095	500.62
480.313	510.62
480.532	534.62
480.751	534.62
480.969	534.62
481.188	516.62
481.406	511.62
481.624	511.62
481.843	512.62
482.061	531.62
482.28	510.62
482.498	514.62
482.717	512.62
482.935	519.62
483.153	526.62
483.372	508.62
483.59	494.62
483.808	484.62
484.027	516.62
484.245	535.62
484.463	542.62
484.681	512.62
484.9	520.62
485.118	533.62
485.336	521.62
485.554	520.62
485.772	526.62
485.99	498.62
486.209	520.62
486.427	513.62
486.645	519.62
486.863	525.62
487.081	534.62
487.299	533.62
487.517	501.62
487.735	517.62
487.953	530.62
488.171	524.62
488.389	530.62
488.607	503.62
488.825	539.62
489.043	502.62
489.261	540.62
489.479	538.62
489.696	550.62
489.914	543.62
490.132	548.62
490.35	552.62
490.568	543.62
490.786	536.62
491.003	551.62
491.221	539.62
491.439	554.62
491.657	540.62
491.874	551.62
492.092	558.62
492.31	552.62
492.527	542.62
492.745	560.62
492.963	559.62
493.18	561.62
493.398	560.62
493.615	554.62
493.833	577.62
494.05	558.62
494.268	558.62
494.485	551.62
494.703	560.62
494.92	569.62
495.138	589.62
495.355	566.62
495.573	549.62
495.79	561.62
496.008	586.62
496.225	589.62
496.442	590.62
496.66	598.62
496.877	583.62
497.094	620.62
497.312	626.62
497.529	637.62
497.746	619.62
497.963	653.62
498.181	634.62
498.398	674.62
498.615	692.62
498.832	707.62
499.049	734.62
499.267	750.62
499.484	776.62
499.701	821.62
499.918	850.62
500.135	916.62
500.352	920.62
500.569	925.62
500.786	918.62
501.003	880.62
501.22	862.62
501.437	830.62
501.654	797.62
501.871	773.62
502.088	780.62
502.305	747.62
502.522	732.62
502.739	690.62
502.956	684.62
503.172	668.62
503.389	641.62
503.606	620.62
503.823	644.62
504.04	621.62
504.256	620.62
504.473	629.62
504.69	588.62
504.907	582.62
505.123	603.62
505.34	561.62
505.557	570.62
505.773	539.62
505.99	543.62
506.207	538.62
506.423	530.62
506.64	523.62
506.856	538.62
507.073	536.62
507.289	524.62
507.506	524.62
507.722	519.62
507.939	498.62
508.155	516.62
508.372	497.62
508.588	500.62
508.805	497.62
509.021	466.62
509.238	496.62
509.454	477.62
509.67	510.62
509.887	473.62
510.103	470.62
510.319	475.62
510.536	492.62
510.752	474.62
510.968	486.62
511.184	480.62
511.401	464.62
511.617	472.62
511.833	463.62
512.049	453.62
512.265	476.62
512.481	486.62
512.698	467.62
512.914	469.62
513.13	463.62
513.346	476.62
513.562	464.62
513.778	471.62
513.994	471.62
514.21	476.62
514.426	479.62
514.642	481.62
514.858	465.62
515.074	492.62
515.29	502.62
515.506	492.62
515.721	487.62
515.937	514.62
516.153	496.62
516.369	498.62
516.585	526.62
516.801	499.62
517.016	505.62
517.232	528.62
517.448	529.62
517.664	546.62
517.879	526.62
518.095	521.62
518.311	525.62
518.527	541.62
518.742	540.62
518.958	502.62
519.173	486.62
519.389	487.62
519.605	479.62
519.82	505.62
520.036	488.62
520.251	485.62
520.467	487.62
520.682	490.62
520.898	449.62
521.113	499.62
521.329	466.62
521.544	470.62
521.76	493.62
521.975	454.62
522.19	452.62
522.406	446.62
522.621	435.62
522.836	468.62
523.052	466.62
523.267	449.62
523.482	436.62
523.698	447.62
523.913	450.62
524.128	435.62
524.343	433.62
524.559	439.62
524.774	446.62
524.989	442.62
525.204	461.62
525.419	443.62
525.634	453.62
525.849	410.62
526.064	418.62
526.28	456.62
526.495	450.62
526.71	441.62
526.925	419.62
527.14	417.62
527.355	433.62
527.57	435.62
527.785	433.62
527.999	431.62
528.214	419.62
528.429	438.62
528.644	451.62
528.859	419.62
529.074	433.62
529.289	450.62
529.503	434.62
529.718	422.62
529.933	408.62
530.148	410.62
530.363	404.62
530.577	422.62
530.792	433.62
531.007	420.62
531.221	419.62
531.436	439.62
531.651	416.62
531.865	418.62
532.08	428.62
532.295	424.62
532.509	401.62
532.724	433.62
532.938	430.62
533.153	411.62
533.367	422.62
533.582	405.62
533.796	419.62
534.011	431.62
534.225	435.62
534.44	395.62
534.654	422.62
534.868	410.62
535.083	434.62
535.297	422.62
535.511	439.62
535.726	394.62
535.94	407.62
536.154	397.62
536.369	411.62
536.583	404.62
536.797	403.62
537.011	383.62
537.225	411.62
537.44	420.62
537.654	401.62
537.868	388.62
538.082	404.62
538.296	404.62
538.51	387.62
538.724	421.62
538.938	409.62
539.153	407.62
539.367	386.62
539.581	387.62
539.795	393.62
540.009	405.62
540.222	411.62
540.436	370.62
540.65	402.62
540.864	399.62
541.078	398.62
541.292	390.62
541.506	399.62
541.72	406.62
541.934	397.62
542.147	422.62
542.361	412.62
542.575	402.62
542.789	377.62
543.002	403.62
543.216	383.62
543.43	383.62
543.644	404.62
543.857	394.62
544.071	371.62
544.285	398.62
544.498	406.62
544.712	390.62
544.925	415.62
545.139	398.62
545.352	383.62
545.566	401.62
545.779	406.62
545.993	403.62
546.206	400.62
546.42	395.62
546.633	398.62
546.847	387.62
547.06	388.62
547.274	407.62
547.487	415.62
547.7	401.62
547.914	404.62
548.127	386.62
548.34	406.62
548.554	387.62
548.767	411.62
548.98	409.62
549.193	403.62
549.407	402.62
549.62	392.62
549.833	403.62
550.046	396.62
550.259	403.62
550.473	386.62
550.686	398.62
550.899	379.62
551.112	394.62
551.325	400.62
551.538	412.62
551.751	395.62
551.964	404.62
552.177	416.62
552.39	393.62
552.603	398.62
552.816	397.62
553.029	393.62
553.242	389.62
553.455	407.62
553.667	418.62
553.88	405.62
554.093	382.62
554.306	372.62
554.519	396.62
554.732	392.62
554.944	404.62
555.157	392.62
555.37	399.62
555.583	378.62
555.795	376.62
556.008	362.62
556.221	357.62
556.433	355.62
556.646	371.62
556.859	358.62
557.071	361.62
557.284	347.62
557.496	380.62
557.709	355.62
557.921	365.62
558.134	348.62
558.346	345.62
558.559	362.62
558.771	362.62
558.984	354.62
559.196	348.62
559.409	338.62
559.621	356.62
559.833	349.62
560.046	362.62
560.258	351.62
560.47	350.62
560.683	340.62
560.895	352.62
561.107	345.62
561.32	351.62
561.532	351.62
561.744	365.62
561.956	361.62
562.168	356.62
562.381	330.62
562.593	359.62
562.805	354.62
563.017	354.62
563.229	354.62
563.441	353.62
563.653	349.62
563.865	360.62
564.077	360.62
564.289	380.62
564.501	366.62
564.713	356.62
564.925	373.62
565.137	370.62
565.349	378.62
565.561	376.62
565.773	384.62
565.985	382.62
566.197	400.62
566.408	404.62
566.62	428.62
566.832	408.62
567.044	422.62
567.255	413.62
567.467	437.62
567.679	434.62
567.891	434.62
568.102	444.62
568.314	405.62
568.526	418.62
568.737	414.62
568.949	384.62
569.161	367.62
569.372	375.62
569.584	353.62
569.795	351.62
570.007	352.62
570.218	328.62
570.43	354.62
570.641	337.62
570.853	341.62
571.064	328.62
571.276	340.62
571.487	343.62
571.698	329.62
571.91	318.62
572.121	346.62
572.333	311.62
572.544	307.62
572.755	317.62
572.966	290.62
573.178	305.62
573.389	265.62
573.6	310.62
573.811	306.62
574.023	279.62
574.234	292.62
574.445	304.62
574.656	303.62
574.867	288.62
575.078	310.62
575.289	289.62
575.501	300.62
575.712	291.62
575.923	260.62
576.134	279.62
576.345	295.62
576.556	259.62
576.767	284.62
576.978	281.62
577.188	259.62
577.399	282.62
577.61	276.62
577.821	255.62
578.032	278.62
578.243	275.62
578.454	259.62
578.665	268.62
578.875	275.62
579.086	267.62
579.297	261.62
579.508	252.62
579.718	264.62
579.929	270.62
580.14	254.62
580.35	259.62
580.561	271.62
580.772	257.62
580.982	270.62
581.193	256.62
581.403	274.62
581.614	264.62
581.825	268.62
582.035	260.62
582.246	258.62
582.456	252.62
582.667	248.62
582.877	246.62
583.087	246.62
583.298	253.62
583.508	253.62
583.719	246.62
583.929	247.62
584.139	263.62
584.35	266.62
584.56	246.62
584.77	250.62
584.981	265.62
585.191	262.62
585.401	259.62
585.611	252.62
585.821	238.62
586.032	253.62
586.242	268.62
586.452	272.62
586.662	264.62
586.872	260.62
587.082	243.62
587.292	256.62
587.502	242.62
587.713	253.62
587.923	249.62
588.133	225.62
588.343	241.62
588.553	253.62
588.762	254.62
588.972	245.62
589.182	272.62
589.392	288.62
589.602	275.62
589.812	269.62
590.022	267.62
590.232	234.62
590.441	248.62
590.651	237.62
590.861	255.62
591.071	241.62
591.281	248.62
591.49	231.62
591.7	270.62
591.91	271.62
592.119	267.62
592.329	264.62
592.539	267.62
592.748	257.62
592.958	256.62
593.167	274.62
593.377	250.62
593.587	253.62
593.796	263.62
594.006	255.62
594.215	252.62
594.424	249.62
594.634	247.62
594.843	251.62
595.053	240.62
595.262	258.62
595.472	251.62
595.681	258.62
595.89	231.62
596.1	243.62
596.309	230.62
596.518	239.62
596.727	231.62
596.937	225.62
597.146	237.62
597.355	227.62
597.564	236.62
597.774	238.62
597.983	224.62
598.192	235.62
598.401	216.62
598.61	219.62
598.819	240.62
599.028	231.62
599.237	232.62
599.446	220.62
599.655	220.62
599.864	223.62
600.073	235.62
600.282	224.62
600.491	220.62
600.7	220.62
600.909	215.62
601.118	211.62
601.327	209.62
601.536	193.62
601.745	210.62
601.953	213.62
602.162	218.62
602.371	200.62
602.58	214.62
602.789	232.62
602.997	212.62
603.206	226.62
603.415	218.62
603.623	206.62
603.832	217.62
604.041	223.62
604.249	208.62
604.458	203.62
604.666	210.62
604.875	207.62
605.084	190.62
605.292	215.62
605.501	199.62
605.709	205.62
605.918	190.62
606.126	200.62
606.334	191.62
606.543	220.62
606.751	220.62
606.96	203.62
607.168	189.62
607.376	194.62
607.585	188.62
607.793	203.62
608.001	184.62
608.21	208.62
608.418	198.62
608.626	196.62
608.834	200.62
609.043	215.62
609.251	195.62
609.459	200.62
609.667	186.62
609.875	196.62
610.083	208.62
610.291	202.62
610.499	196.62
610.707	191.62
610.916	205.62
611.124	200.62
611.332	196.62
611.54	212.62
611.748	190.62
611.955	212.62
612.163	194.62
612.371	190.62
612.579	186.62
612.787	204.62
612.995	198.62
613.203	190.62
613.411	189.62
613.618	196.62
613.826	199.62
614.034	204.62
614.242	188.62
614.449	179.62
614.657	191.62
614.865	194.62
615.072	192.62
615.28	195.62
615.488	198.62
615.695	203.62
615.903	196.62
616.111	197.62
616.318	182.62
616.526	208.62
616.733	188.62
616.941	178.62
617.148	171.62
617.356	199.62
617.563	188.62
617.771	180.62
617.978	194.62
618.185	194.62
618.393	184.62
618.6	206.62
618.807	195.62
619.015	189.62
619.222	174.62
619.429	189.62
619.637	184.62
619.844	175.62
620.051	188.62
620.258	162.62
620.466	175.62
620.673	186.62
620.88	180.62
621.087	183.62
621.294	183.62
621.501	183.62
621.708	172.62
621.915	185.62
622.122	184.62
622.329	195.62
622.536	185.62
622.743	162.62
622.95	179.62
623.157	161.62
623.364	189.62
623.571	164.62
623.778	183.62
623.985	182.62
624.192	179.62
624.399	172.62
624.606	168.62
624.812	174.62
625.019	175.62
625.226	156.62
625.433	192.62
625.639	177.62
625.846	158.62
626.053	178.62
626.259	175.62
626.466	180.62
626.673	174.62
626.879	174.62
627.086	174.62
627.293	184.62
627.499	181.62
627.706	178.62
627.912	155.62
628.119	144.62
628.325	171.62
628.532	163.62
628.738	172.62
628.945	164.62
629.151	163.62
629.357	177.62
629.564	183.62
629.77	181.62
629.976	182.62
630.183	162.62
630.389	182.62
630.595	160.62
630.802	166.62
631.008	156.62
631.214	145.62
631.42	166.62
631.627	166.62
631.833	162.62
632.039	159.62
632.245	143.62
632.451	150.62
632.657	168.62
632.863	158.62
633.069	154.62
633.275	163.62
633.481	166.62
633.688	157.62
633.893	160.62
634.099	184.62
634.305	159.62
634.511	150.62
634.717	172.62
634.923	153.62
635.129	151.62
635.335	168.62
635.541	162.62
635.747	158.62
635.952	159.62
636.158	173.62
636.364	151.62
636.57	166.62
636.775	156.62
636.981	162.62
637.187	139.62
637.392	154.62
637.598	164.62
637.804	153.62
638.009	146.62
638.215	148.62
638.421	168.62
638.626	155.62
638.832	165.62
639.037	166.62
639.243	164.62
639.448	159.62
639.654	156.62
639.859	160.62
640.065	143.62
640.27	159.62
640.475	170.62
640.681	146.62
640.886	171.62
641.091	146.62
641.297	160.62
641.502	158.62
641.707	140.62
641.913	164.62
642.118	148.62
642.323	151.62
642.528	152.62
642.733	167.62
642.939	161.62
643.144	158.62
643.349	147.62
643.554	167.62
643.759	143.62
643.964	155.62
644.169	153.62
644.374	159.62
644.579	163.62
644.784	143.62
644.989	157.62
645.194	164.62
645.399	162.62
645.604	155.62
645.809	154.62
646.014	152.62
646.219	148.62
646.423	149.62
646.628	158.62
646.833	156.62
647.038	159.62
647.243	154.62
647.447	153.62
647.652	159.62
647.857	150.62
648.062	170.62
648.266	154.62
648.471	156.62
648.676	157.62
648.88	168.62
649.085	153.62
649.289	173.62
649.494	144.62
649.698	157.62
649.903	147.62
650.107	156.62
650.312	156.62
650.516	164.62
650.721	153.62
650.925	145.62
651.13	155.62
651.334	141.62
651.539	143.62
651.743	154.62
651.947	150.62
652.152	143.62
652.356	148.62
652.56	151.62
652.764	156.62
652.969	153.62
653.173	151.62
653.377	145.62
653.581	148.62
653.785	141.62
653.99	148.62
654.194	143.62
654.398	151.62
654.602	163.62
654.806	136.62
655.01	138.62
655.214	149.62
655.418	152.62
655.622	165.62
655.826	158.62
656.03	142.62
656.234	157.62
656.438	143.62
656.642	153.62
656.846	137.62
657.049	135.62
657.253	136.62
657.457	126.62
657.661	121.62
657.865	123.62
658.068	143.62
658.272	116.62
658.476	123.62
658.68	119.62
658.883	116.62
659.087	114.62
659.291	139.62
659.494	102.62
659.698	112.62
659.901	98.62
660.105	95.62
660.309	97.62
660.512	95.62
660.716	105.62
660.919	96.62
661.123	94.62
661.326	96.62
661.53	106.62
661.733	97.62
661.936	74.62
662.14	82.62
662.343	76.62
662.546	74.62
662.75	87.62
662.953	78.62
663.156	90.62
663.36	96.62
663.563	82.62
663.766	95.62
663.969	69.62
664.173	79.62
664.376	68.62
664.579	69.62
664.782	77.62
664.985	70.62
665.188	77.62
665.391	73.62
665.594	70.62
665.797	82.62
666	75.62
666.203	71.62
666.406	82.62
666.609	78.62
666.812	78.62
667.015	88.62
667.218	79.62
667.421	80.62
667.624	86.62
667.827	76.62
668.03	67.62
668.232	77.62
668.435	86.62
668.638	86.62
668.841	71.62
669.043	81.62
669.246	69.62
669.449	71.62
669.651	83.62
669.854	85.62
670.057	80.62
670.259	74.62
670.462	70.62
670.665	72.62
670.867	86.62
671.07	87.62
671.272	74.62
671.475	82.62
671.677	93.62
671.88	69.62
672.082	72.62
672.284	89.62
672.487	92.62
672.689	78.62
672.892	84.62
