Data from Fe(NO3)3@0.025M.TitratingCurve.Agarose3%dH2O.NegLispCup.LampEnergy10.LIBS07252019_HRD10591_16-55-34-335.txt Node
Date: Thu Jul 25 16:55:34 EDT 2019
User: cochatt
Spectrometer: HR+D1059
Trigger mode: 1
Integration Time (sec): 1.000000E-1
Scans to average: 1
Electric dark correction enabled: true
Nonlinearity correction enabled: false
Boxcar width: 0
XAxis mode: Wavelengths
Number of Pixels in Spectrum: 2048
>>>>>Begin Spectral Data<<<<<
223.165	-6.19
223.4	-6.19
223.635	-6.19
223.869	-12.19
224.104	-13.19
224.338	-15.19
224.573	-8.19
224.808	-22.19
225.042	-3.19
225.277	-16.19
225.511	-7.19
225.746	-13.19
225.98	20.81
226.215	16.81
226.449	15.81
226.683	13.81
226.918	19.81
227.152	29.81
227.387	25.81
227.621	49.81
227.856	55.81
228.09	58.81
228.324	41.81
228.559	60.81
228.793	63.81
229.027	77.81
229.262	70.81
229.496	80.81
229.73	68.81
229.964	83.81
230.199	76.81
230.433	82.81
230.667	76.81
230.901	87.81
231.136	82.81
231.37	89.81
231.604	90.81
231.838	99.81
232.072	87.81
232.306	96.81
232.541	93.81
232.775	99.81
233.009	96.81
233.243	80.81
233.477	103.81
233.711	98.81
233.945	86.81
234.179	92.81
234.413	100.81
234.647	102.81
234.881	86.81
235.115	98.81
235.349	84.81
235.583	85.81
235.817	98.81
236.051	100.81
236.285	87.81
236.519	90.81
236.753	100.81
236.987	88.81
237.221	86.81
237.455	72.81
237.689	88.81
237.922	101.81
238.156	97.81
238.39	83.81
238.624	89.81
238.858	88.81
239.091	80.81
239.325	90.81
239.559	97.81
239.793	88.81
240.027	92.81
240.26	96.81
240.494	77.81
240.728	110.81
240.961	115.81
241.195	85.81
241.429	98.81
241.662	97.81
241.896	90.81
242.13	106.81
242.363	91.81
242.597	90.81
242.83	93.81
243.064	96.81
243.298	92.81
243.531	99.81
243.765	91.81
243.998	104.81
244.232	113.81
244.465	104.81
244.699	104.81
244.932	96.81
245.166	101.81
245.399	104.81
245.633	92.81
245.866	100.81
246.099	112.81
246.333	103.81
246.566	103.81
246.8	96.81
247.033	101.81
247.266	108.81
247.5	90.81
247.733	92.81
247.966	104.81
248.2	98.81
248.433	96.81
248.666	105.81
248.899	98.81
249.133	106.81
249.366	107.81
249.599	104.81
249.832	93.81
250.066	101.81
250.299	91.81
250.532	104.81
250.765	117.81
250.998	110.81
251.231	98.81
251.465	109.81
251.698	105.81
251.931	102.81
252.164	108.81
252.397	93.81
252.63	98.81
252.863	104.81
253.096	118.81
253.329	122.81
253.562	120.81
253.795	109.81
254.028	105.81
254.261	113.81
254.494	118.81
254.727	111.81
254.96	114.81
255.193	115.81
255.426	108.81
255.659	111.81
255.892	103.81
256.124	107.81
256.357	109.81
256.59	110.81
256.823	122.81
257.056	122.81
257.289	118.81
257.521	105.81
257.754	102.81
257.987	98.81
258.22	119.81
258.452	126.81
258.685	123.81
258.918	113.81
259.151	101.81
259.383	113.81
259.616	112.81
259.849	119.81
260.081	123.81
260.314	118.81
260.547	120.81
260.779	113.81
261.012	113.81
261.244	130.81
261.477	123.81
261.71	122.81
261.942	108.81
262.175	111.81
262.407	116.81
262.64	106.81
262.872	106.81
263.105	121.81
263.337	115.81
263.57	122.81
263.802	116.81
264.035	111.81
264.267	116.81
264.499	125.81
264.732	121.81
264.964	125.81
265.197	121.81
265.429	118.81
265.661	113.81
265.894	119.81
266.126	120.81
266.358	121.81
266.591	110.81
266.823	124.81
267.055	140.81
267.287	129.81
267.52	134.81
267.752	134.81
267.984	117.81
268.216	120.81
268.448	131.81
268.681	117.81
268.913	119.81
269.145	127.81
269.377	121.81
269.609	119.81
269.841	129.81
270.073	121.81
270.306	119.81
270.538	124.81
270.77	125.81
271.002	121.81
271.234	136.81
271.466	124.81
271.698	132.81
271.93	129.81
272.162	142.81
272.394	134.81
272.626	125.81
272.858	145.81
273.09	126.81
273.322	122.81
273.553	133.81
273.785	139.81
274.017	133.81
274.249	123.81
274.481	134.81
274.713	139.81
274.945	134.81
275.176	132.81
275.408	124.81
275.64	143.81
275.872	142.81
276.104	131.81
276.335	136.81
276.567	120.81
276.799	133.81
277.031	139.81
277.262	129.81
277.494	144.81
277.726	154.81
277.957	118.81
278.189	140.81
278.421	139.81
278.652	153.81
278.884	144.81
279.115	144.81
279.347	153.81
279.579	137.81
279.81	146.81
280.042	136.81
280.273	141.81
280.505	144.81
280.736	140.81
280.968	138.81
281.199	140.81
281.431	146.81
281.662	154.81
281.894	140.81
282.125	154.81
282.356	153.81
282.588	142.81
282.819	137.81
283.051	142.81
283.282	159.81
283.513	156.81
283.745	155.81
283.976	153.81
284.207	161.81
284.439	160.81
284.67	142.81
284.901	165.81
285.132	158.81
285.364	156.81
285.595	148.81
285.826	157.81
286.057	150.81
286.288	162.81
286.52	160.81
286.751	161.81
286.982	162.81
287.213	177.81
287.444	175.81
287.675	162.81
287.906	146.81
288.138	145.81
288.369	167.81
288.6	157.81
288.831	164.81
289.062	150.81
289.293	156.81
289.524	153.81
289.755	161.81
289.986	157.81
290.217	149.81
290.448	161.81
290.679	178.81
290.91	165.81
291.141	149.81
291.371	159.81
291.602	158.81
291.833	141.81
292.064	147.81
292.295	157.81
292.526	166.81
292.757	160.81
292.987	176.81
293.218	160.81
293.449	164.81
293.68	146.81
293.91	150.81
294.141	156.81
294.372	148.81
294.603	160.81
294.833	159.81
295.064	171.81
295.295	163.81
295.525	168.81
295.756	157.81
295.987	170.81
296.217	152.81
296.448	161.81
296.679	154.81
296.909	149.81
297.14	170.81
297.37	176.81
297.601	180.81
297.831	166.81
298.062	179.81
298.292	156.81
298.523	166.81
298.753	173.81
298.984	176.81
299.214	183.81
299.445	188.81
299.675	165.81
299.905	172.81
300.136	167.81
300.366	188.81
300.597	188.81
300.827	187.81
301.057	188.81
301.288	178.81
301.518	186.81
301.748	186.81
301.979	196.81
302.209	180.81
302.439	182.81
302.669	171.81
302.9	186.81
303.13	194.81
303.36	178.81
303.59	179.81
303.82	182.81
304.051	184.81
304.281	186.81
304.511	188.81
304.741	189.81
304.971	186.81
305.201	195.81
305.431	176.81
305.661	180.81
305.891	184.81
306.121	164.81
306.352	186.81
306.582	184.81
306.812	180.81
307.042	195.81
307.272	180.81
307.502	162.81
307.731	194.81
307.961	180.81
308.191	193.81
308.421	197.81
308.651	164.81
308.881	180.81
309.111	180.81
309.341	186.81
309.571	181.81
309.8	180.81
310.03	172.81
310.26	186.81
310.49	182.81
310.72	179.81
310.949	177.81
311.179	208.81
311.409	189.81
311.639	194.81
311.868	188.81
312.098	172.81
312.328	197.81
312.557	181.81
312.787	190.81
313.017	185.81
313.246	210.81
313.476	201.81
313.706	199.81
313.935	182.81
314.165	200.81
314.394	180.81
314.624	198.81
314.853	190.81
315.083	188.81
315.312	189.81
315.542	204.81
315.771	201.81
316.001	192.81
316.23	214.81
316.46	194.81
316.689	197.81
316.919	208.81
317.148	198.81
317.377	201.81
317.607	208.81
317.836	195.81
318.065	202.81
318.295	184.81
318.524	194.81
318.753	192.81
318.983	213.81
319.212	199.81
319.441	193.81
319.67	200.81
319.9	200.81
320.129	215.81
320.358	199.81
320.587	195.81
320.816	197.81
321.046	206.81
321.275	196.81
321.504	189.81
321.733	204.81
321.962	213.81
322.191	200.81
322.42	209.81
322.649	190.81
322.878	202.81
323.108	215.81
323.337	211.81
323.566	206.81
323.795	210.81
324.024	203.81
324.253	211.81
324.482	199.81
324.71	206.81
324.939	202.81
325.168	215.81
325.397	204.81
325.626	207.81
325.855	218.81
326.084	216.81
326.313	222.81
326.542	213.81
326.77	223.81
326.999	216.81
327.228	208.81
327.457	219.81
327.686	218.81
327.914	232.81
328.143	233.81
328.372	218.81
328.6	230.81
328.829	207.81
329.058	212.81
329.287	233.81
329.515	224.81
329.744	221.81
329.972	212.81
330.201	213.81
330.43	209.81
330.658	228.81
330.887	206.81
331.115	237.81
331.344	231.81
331.572	233.81
331.801	236.81
332.03	245.81
332.258	225.81
332.486	222.81
332.715	256.81
332.943	228.81
333.172	242.81
333.4	261.81
333.629	245.81
333.857	231.81
334.085	241.81
334.314	248.81
334.542	237.81
334.771	249.81
334.999	255.81
335.227	262.81
335.455	266.81
335.684	257.81
335.912	252.81
336.14	250.81
336.369	266.81
336.597	248.81
336.825	249.81
337.053	233.81
337.281	248.81
337.51	254.81
337.738	240.81
337.966	250.81
338.194	226.81
338.422	249.81
338.65	242.81
338.878	236.81
339.106	240.81
339.334	228.81
339.562	240.81
339.79	228.81
340.018	231.81
340.246	235.81
340.474	240.81
340.702	238.81
340.93	235.81
341.158	240.81
341.386	237.81
341.614	226.81
341.842	244.81
342.07	221.81
342.298	237.81
342.526	243.81
342.754	214.81
342.981	219.81
343.209	220.81
343.437	245.81
343.665	238.81
343.893	250.81
344.12	245.81
344.348	259.81
344.576	237.81
344.804	260.81
345.031	233.81
345.259	245.81
345.487	220.81
345.714	234.81
345.942	243.81
346.17	251.81
346.397	227.81
346.625	236.81
346.853	224.81
347.08	238.81
347.308	236.81
347.535	224.81
347.763	242.81
347.99	233.81
348.218	210.81
348.445	220.81
348.673	239.81
348.9	229.81
349.128	222.81
349.355	210.81
349.583	221.81
349.81	222.81
350.037	219.81
350.265	217.81
350.492	194.81
350.72	215.81
350.947	215.81
351.174	236.81
351.402	217.81
351.629	229.81
351.856	216.81
352.083	227.81
352.311	221.81
352.538	220.81
352.765	230.81
352.992	210.81
353.22	216.81
353.447	229.81
353.674	226.81
353.901	227.81
354.128	230.81
354.355	233.81
354.583	226.81
354.81	230.81
355.037	226.81
355.264	226.81
355.491	216.81
355.718	229.81
355.945	228.81
356.172	223.81
356.399	240.81
356.626	229.81
356.853	236.81
357.08	237.81
357.307	236.81
357.534	230.81
357.761	235.81
357.988	218.81
358.215	233.81
358.441	233.81
358.668	229.81
358.895	226.81
359.122	242.81
359.349	236.81
359.576	244.81
359.802	217.81
360.029	212.81
360.256	209.81
360.483	199.81
360.709	242.81
360.936	245.81
361.163	232.81
361.39	220.81
361.616	238.81
361.843	226.81
362.07	226.81
362.296	235.81
362.523	258.81
362.749	247.81
362.976	221.81
363.203	216.81
363.429	257.81
363.656	222.81
363.882	232.81
364.109	232.81
364.335	235.81
364.562	224.81
364.788	227.81
365.015	227.81
365.241	240.81
365.468	226.81
365.694	241.81
365.92	238.81
366.147	219.81
366.373	243.81
366.599	237.81
366.826	237.81
367.052	223.81
367.278	233.81
367.505	242.81
367.731	237.81
367.957	229.81
368.184	232.81
368.41	228.81
368.636	225.81
368.862	227.81
369.089	245.81
369.315	260.81
369.541	235.81
369.767	206.81
369.993	229.81
370.219	234.81
370.445	237.81
370.672	252.81
370.898	262.81
371.124	235.81
371.35	244.81
371.576	249.81
371.802	248.81
372.028	266.81
372.254	241.81
372.48	250.81
372.706	229.81
372.932	264.81
373.158	249.81
373.384	258.81
373.61	249.81
373.835	242.81
374.061	257.81
374.287	269.81
374.513	262.81
374.739	257.81
374.965	249.81
375.191	261.81
375.416	255.81
375.642	251.81
375.868	269.81
376.094	258.81
376.319	243.81
376.545	246.81
376.771	259.81
376.997	255.81
377.222	253.81
377.448	261.81
377.674	257.81
377.899	244.81
378.125	260.81
378.35	243.81
378.576	242.81
378.802	233.81
379.027	242.81
379.253	237.81
379.478	256.81
379.704	263.81
379.929	252.81
380.155	249.81
380.38	257.81
380.606	264.81
380.831	268.81
381.057	248.81
381.282	260.81
381.507	278.81
381.733	259.81
381.958	249.81
382.184	262.81
382.409	264.81
382.634	259.81
382.86	237.81
383.085	264.81
383.31	256.81
383.535	257.81
383.761	288.81
383.986	263.81
384.211	271.81
384.436	270.81
384.662	271.81
384.887	296.81
385.112	291.81
385.337	274.81
385.562	292.81
385.787	280.81
386.013	292.81
386.238	252.81
386.463	278.81
386.688	290.81
386.913	289.81
387.138	300.81
387.363	306.81
387.588	283.81
387.813	299.81
388.038	301.81
388.263	282.81
388.488	294.81
388.713	283.81
388.938	304.81
389.163	283.81
389.387	304.81
389.612	291.81
389.837	282.81
390.062	272.81
390.287	294.81
390.512	294.81
390.736	281.81
390.961	297.81
391.186	305.81
391.411	304.81
391.636	309.81
391.86	320.81
392.085	318.81
392.31	315.81
392.534	292.81
392.759	297.81
392.984	304.81
393.208	299.81
393.433	309.81
393.658	315.81
393.882	314.81
394.107	312.81
394.331	288.81
394.556	320.81
394.78	301.81
395.005	308.81
395.229	313.81
395.454	321.81
395.678	310.81
395.903	323.81
396.127	300.81
396.352	307.81
396.576	322.81
396.801	330.81
397.025	323.81
397.249	328.81
397.474	325.81
397.698	328.81
397.922	332.81
398.147	357.81
398.371	333.81
398.595	346.81
398.82	360.81
399.044	358.81
399.268	382.81
399.492	396.81
399.717	402.81
399.941	412.81
400.165	406.81
400.389	379.81
400.613	380.81
400.837	361.81
401.062	377.81
401.286	353.81
401.51	360.81
401.734	354.81
401.958	329.81
402.182	353.81
402.406	337.81
402.63	347.81
402.854	364.81
403.078	354.81
403.302	362.81
403.526	355.81
403.75	396.81
403.974	356.81
404.198	349.81
404.422	361.81
404.645	359.81
404.869	365.81
405.093	377.81
405.317	364.81
405.541	352.81
405.765	359.81
405.988	344.81
406.212	357.81
406.436	349.81
406.66	384.81
406.883	397.81
407.107	392.81
407.331	390.81
407.555	407.81
407.778	413.81
408.002	393.81
408.226	390.81
408.449	379.81
408.673	394.81
408.896	372.81
409.12	373.81
409.344	362.81
409.567	344.81
409.791	347.81
410.014	372.81
410.238	378.81
410.461	378.81
410.685	378.81
410.908	366.81
411.132	381.81
411.355	354.81
411.578	358.81
411.802	356.81
412.025	348.81
412.249	354.81
412.472	365.81
412.695	346.81
412.919	366.81
413.142	347.81
413.365	361.81
413.589	344.81
413.812	335.81
414.035	354.81
414.258	333.81
414.482	341.81
414.705	362.81
414.928	325.81
415.151	342.81
415.374	357.81
415.597	330.81
415.821	344.81
416.044	320.81
416.267	331.81
416.49	340.81
416.713	317.81
416.936	335.81
417.159	348.81
417.382	353.81
417.605	336.81
417.828	337.81
418.051	333.81
418.274	343.81
418.497	341.81
418.72	337.81
418.943	338.81
419.166	354.81
419.389	358.81
419.611	338.81
419.834	349.81
420.057	323.81
420.28	334.81
420.503	342.81
420.726	329.81
420.948	351.81
421.171	331.81
421.394	320.81
421.617	333.81
421.839	328.81
422.062	331.81
422.285	328.81
422.507	345.81
422.73	344.81
422.953	318.81
423.175	329.81
423.398	339.81
423.621	325.81
423.843	333.81
424.066	340.81
424.288	336.81
424.511	343.81
424.733	353.81
424.956	317.81
425.178	331.81
425.401	330.81
425.623	316.81
425.846	330.81
426.068	309.81
426.291	334.81
426.513	324.81
426.735	308.81
426.958	313.81
427.18	326.81
427.402	302.81
427.625	298.81
427.847	309.81
428.069	304.81
428.292	310.81
428.514	313.81
428.736	314.81
428.958	302.81
429.181	290.81
429.403	314.81
429.625	308.81
429.847	318.81
430.069	322.81
430.292	310.81
430.514	294.81
430.736	313.81
430.958	311.81
431.18	303.81
431.402	312.81
431.624	308.81
431.846	316.81
432.068	302.81
432.29	312.81
432.512	305.81
432.734	322.81
432.956	314.81
433.178	316.81
433.4	325.81
433.622	317.81
433.844	323.81
434.066	319.81
434.287	320.81
434.509	324.81
434.731	313.81
434.953	315.81
435.175	330.81
435.397	310.81
435.618	326.81
435.84	331.81
436.062	292.81
436.284	304.81
436.505	315.81
436.727	300.81
436.949	316.81
437.17	304.81
437.392	307.81
437.614	307.81
437.835	302.81
438.057	284.81
438.278	294.81
438.5	299.81
438.721	301.81
438.943	321.81
439.165	305.81
439.386	304.81
439.608	298.81
439.829	279.81
440.05	301.81
440.272	313.81
440.493	309.81
440.715	333.81
440.936	316.81
441.158	332.81
441.379	321.81
441.6	330.81
441.822	315.81
442.043	332.81
442.264	326.81
442.486	316.81
442.707	324.81
442.928	301.81
443.149	308.81
443.371	319.81
443.592	323.81
443.813	323.81
444.034	316.81
444.255	344.81
444.476	330.81
444.698	335.81
444.919	341.81
445.14	444.81
445.361	385.81
445.582	339.81
445.803	336.81
446.024	331.81
446.245	316.81
446.466	329.81
446.687	317.81
446.908	295.81
447.129	306.81
447.35	318.81
447.571	308.81
447.792	299.81
448.013	314.81
448.234	293.81
448.455	308.81
448.675	284.81
448.896	292.81
449.117	296.81
449.338	296.81
449.559	294.81
449.779	284.81
450	294.81
450.221	290.81
450.442	283.81
450.662	288.81
450.883	297.81
451.104	283.81
451.324	266.81
451.545	295.81
451.766	284.81
451.986	295.81
452.207	292.81
452.428	264.81
452.648	287.81
452.869	278.81
453.089	268.81
453.31	266.81
453.53	274.81
453.751	273.81
453.971	289.81
454.192	280.81
454.412	276.81
454.633	293.81
454.853	296.81
455.073	272.81
455.294	267.81
455.514	281.81
455.734	276.81
455.955	274.81
456.175	278.81
456.395	280.81
456.616	279.81
456.836	287.81
457.056	281.81
457.276	286.81
457.497	283.81
457.717	284.81
457.937	270.81
458.157	293.81
458.377	300.81
458.598	296.81
458.818	292.81
459.038	318.81
459.258	306.81
459.478	307.81
459.698	333.81
459.918	353.81
460.138	336.81
460.358	330.81
460.578	327.81
460.798	330.81
461.018	338.81
461.238	345.81
461.458	362.81
461.678	331.81
461.898	331.81
462.118	353.81
462.338	343.81
462.558	355.81
462.777	369.81
462.997	395.81
463.217	407.81
463.437	391.81
463.657	395.81
463.876	376.81
464.096	374.81
464.316	377.81
464.536	394.81
464.755	364.81
464.975	370.81
465.195	337.81
465.414	327.81
465.634	330.81
465.854	320.81
466.073	312.81
466.293	301.81
466.512	325.81
466.732	297.81
466.951	321.81
467.171	317.81
467.391	300.81
467.61	296.81
467.829	321.81
468.049	308.81
468.268	298.81
468.488	300.81
468.707	308.81
468.927	296.81
469.146	291.81
469.365	280.81
469.585	294.81
469.804	322.81
470.023	302.81
470.243	320.81
470.462	302.81
470.681	299.81
470.901	307.81
471.12	298.81
471.339	293.81
471.558	294.81
471.777	316.81
471.997	315.81
472.216	304.81
472.435	300.81
472.654	293.81
472.873	285.81
473.092	302.81
473.311	299.81
473.53	293.81
473.749	283.81
473.968	314.81
474.187	298.81
474.406	288.81
474.625	308.81
474.844	287.81
475.063	305.81
475.282	303.81
475.501	315.81
475.72	309.81
475.939	301.81
476.158	319.81
476.377	329.81
476.596	311.81
476.814	311.81
477.033	307.81
477.252	330.81
477.471	325.81
477.69	340.81
477.908	329.81
478.127	322.81
478.346	343.81
478.564	360.81
478.783	362.81
479.002	348.81
479.22	358.81
479.439	374.81
479.658	354.81
479.876	376.81
480.095	322.81
480.313	362.81
480.532	384.81
480.751	357.81
480.969	341.81
481.188	348.81
481.406	370.81
481.624	356.81
481.843	352.81
482.061	346.81
482.28	349.81
482.498	368.81
482.717	329.81
482.935	346.81
483.153	346.81
483.372	353.81
483.59	351.81
483.808	341.81
484.027	342.81
484.245	348.81
484.463	347.81
484.681	345.81
484.9	327.81
485.118	341.81
485.336	337.81
485.554	346.81
485.772	349.81
485.99	335.81
486.209	355.81
486.427	367.81
486.645	357.81
486.863	352.81
487.081	362.81
487.299	349.81
487.517	347.81
487.735	346.81
487.953	354.81
488.171	376.81
488.389	374.81
488.607	348.81
488.825	353.81
489.043	361.81
489.261	359.81
489.479	347.81
489.696	345.81
489.914	345.81
490.132	363.81
490.35	349.81
490.568	365.81
490.786	356.81
491.003	344.81
491.221	372.81
491.439	357.81
491.657	363.81
491.874	361.81
492.092	352.81
492.31	331.81
492.527	371.81
492.745	370.81
492.963	387.81
493.18	365.81
493.398	376.81
493.615	372.81
493.833	376.81
494.05	376.81
494.268	368.81
494.485	379.81
494.703	375.81
494.92	384.81
495.138	381.81
495.355	388.81
495.573	389.81
495.79	392.81
496.008	388.81
496.225	377.81
496.442	393.81
496.66	407.81
496.877	413.81
497.094	416.81
497.312	415.81
497.529	429.81
497.746	424.81
497.963	441.81
498.181	465.81
498.398	489.81
498.615	477.81
498.832	502.81
499.049	522.81
499.267	564.81
499.484	578.81
499.701	616.81
499.918	634.81
500.135	662.81
500.352	685.81
500.569	704.81
500.786	719.81
501.003	668.81
501.22	660.81
501.437	638.81
501.654	593.81
501.871	563.81
502.088	574.81
502.305	513.81
502.522	487.81
502.739	496.81
502.956	462.81
503.172	454.81
503.389	432.81
503.606	443.81
503.823	435.81
504.04	420.81
504.256	411.81
504.473	423.81
504.69	422.81
504.907	437.81
505.123	399.81
505.34	401.81
505.557	365.81
505.773	380.81
505.99	368.81
506.207	364.81
506.423	359.81
506.64	366.81
506.856	353.81
507.073	336.81
507.289	345.81
507.506	357.81
507.722	328.81
507.939	319.81
508.155	314.81
508.372	333.81
508.588	317.81
508.805	330.81
509.021	332.81
509.238	335.81
509.454	328.81
509.67	338.81
509.887	336.81
510.103	323.81
510.319	307.81
510.536	333.81
510.752	327.81
510.968	322.81
511.184	334.81
511.401	313.81
511.617	324.81
511.833	316.81
512.049	328.81
512.265	322.81
512.481	330.81
512.698	315.81
512.914	327.81
513.13	327.81
513.346	310.81
513.562	331.81
513.778	324.81
513.994	314.81
514.21	325.81
514.426	304.81
514.642	311.81
514.858	320.81
515.074	325.81
515.29	341.81
515.506	329.81
515.721	341.81
515.937	341.81
516.153	338.81
516.369	351.81
516.585	363.81
516.801	348.81
517.016	376.81
517.232	399.81
517.448	378.81
517.664	385.81
517.879	396.81
518.095	390.81
518.311	389.81
518.527	379.81
518.742	384.81
518.958	360.81
519.173	361.81
519.389	337.81
519.605	329.81
519.82	366.81
520.036	335.81
520.251	324.81
520.467	321.81
520.682	313.81
520.898	338.81
521.113	318.81
521.329	319.81
521.544	311.81
521.76	312.81
521.975	315.81
522.19	309.81
522.406	298.81
522.621	321.81
522.836	304.81
523.052	313.81
523.267	299.81
523.482	307.81
523.698	314.81
523.913	311.81
524.128	306.81
524.343	314.81
524.559	295.81
524.774	296.81
524.989	299.81
525.204	298.81
525.419	282.81
525.634	299.81
525.849	303.81
526.064	302.81
526.28	296.81
526.495	297.81
526.71	297.81
526.925	292.81
527.14	286.81
527.355	296.81
527.57	294.81
527.785	298.81
527.999	290.81
528.214	305.81
528.429	297.81
528.644	298.81
528.859	296.81
529.074	282.81
529.289	287.81
529.503	289.81
529.718	280.81
529.933	296.81
530.148	275.81
530.363	297.81
530.577	290.81
530.792	292.81
531.007	291.81
531.221	314.81
531.436	320.81
531.651	280.81
531.865	289.81
532.08	298.81
532.295	299.81
532.509	305.81
532.724	290.81
532.938	285.81
533.153	293.81
533.367	290.81
533.582	293.81
533.796	294.81
534.011	282.81
534.225	296.81
534.44	292.81
534.654	278.81
534.868	288.81
535.083	288.81
535.297	277.81
535.511	298.81
535.726	294.81
535.94	300.81
536.154	288.81
536.369	293.81
536.583	275.81
536.797	286.81
537.011	266.81
537.225	273.81
537.44	267.81
537.654	280.81
537.868	282.81
538.082	278.81
538.296	277.81
538.51	275.81
538.724	281.81
538.938	275.81
539.153	276.81
539.367	283.81
539.581	271.81
539.795	277.81
540.009	279.81
540.222	278.81
540.436	281.81
540.65	269.81
540.864	264.81
541.078	284.81
541.292	288.81
541.506	274.81
541.72	286.81
541.934	272.81
542.147	285.81
542.361	264.81
542.575	278.81
542.789	261.81
543.002	283.81
543.216	279.81
543.43	274.81
543.644	261.81
543.857	277.81
544.071	274.81
544.285	285.81
544.498	249.81
544.712	280.81
544.925	284.81
545.139	285.81
545.352	290.81
545.566	270.81
545.779	285.81
545.993	269.81
546.206	290.81
546.42	284.81
546.633	272.81
546.847	301.81
547.06	273.81
547.274	288.81
547.487	298.81
547.7	280.81
547.914	289.81
548.127	282.81
548.34	290.81
548.554	273.81
548.767	280.81
548.98	294.81
549.193	284.81
549.407	286.81
549.62	295.81
549.833	276.81
550.046	283.81
550.259	285.81
550.473	271.81
550.686	294.81
550.899	261.81
551.112	295.81
551.325	283.81
551.538	294.81
551.751	289.81
551.964	276.81
552.177	293.81
552.39	290.81
552.603	302.81
552.816	295.81
553.029	281.81
553.242	297.81
553.455	306.81
553.667	308.81
553.88	284.81
554.093	287.81
554.306	276.81
554.519	297.81
554.732	284.81
554.944	283.81
555.157	276.81
555.37	284.81
555.583	258.81
555.795	276.81
556.008	255.81
556.221	270.81
556.433	267.81
556.646	239.81
556.859	264.81
557.071	251.81
557.284	277.81
557.496	270.81
557.709	240.81
557.921	259.81
558.134	266.81
558.346	254.81
558.559	259.81
558.771	250.81
558.984	252.81
559.196	260.81
559.409	253.81
559.621	241.81
559.833	256.81
560.046	257.81
560.258	276.81
560.47	271.81
560.683	254.81
560.895	264.81
561.107	244.81
561.32	255.81
561.532	248.81
561.744	260.81
561.956	254.81
562.168	254.81
562.381	252.81
562.593	268.81
562.805	256.81
563.017	258.81
563.229	261.81
563.441	256.81
563.653	251.81
563.865	252.81
564.077	277.81
564.289	242.81
564.501	260.81
564.713	265.81
564.925	265.81
565.137	275.81
565.349	282.81
565.561	277.81
565.773	288.81
565.985	301.81
566.197	292.81
566.408	299.81
566.62	317.81
566.832	322.81
567.044	340.81
567.255	345.81
567.467	338.81
567.679	348.81
567.891	345.81
568.102	316.81
568.314	326.81
568.526	333.81
568.737	321.81
568.949	283.81
569.161	284.81
569.372	273.81
569.584	274.81
569.795	282.81
570.007	261.81
570.218	262.81
570.43	253.81
570.641	245.81
570.853	243.81
571.064	247.81
571.276	259.81
571.487	261.81
571.698	244.81
571.91	223.81
572.121	232.81
572.333	246.81
572.544	234.81
572.755	240.81
572.966	242.81
573.178	217.81
573.389	235.81
573.6	217.81
573.811	224.81
574.023	219.81
574.234	213.81
574.445	220.81
574.656	234.81
574.867	213.81
575.078	222.81
575.289	200.81
575.501	221.81
575.712	226.81
575.923	182.81
576.134	220.81
576.345	211.81
576.556	226.81
576.767	218.81
576.978	218.81
577.188	198.81
577.399	204.81
577.61	213.81
577.821	212.81
578.032	202.81
578.243	210.81
578.454	212.81
578.665	197.81
578.875	208.81
579.086	192.81
579.297	205.81
579.508	198.81
579.718	191.81
579.929	207.81
580.14	197.81
580.35	205.81
580.561	213.81
580.772	205.81
580.982	190.81
581.193	186.81
581.403	199.81
581.614	194.81
581.825	199.81
582.035	199.81
582.246	184.81
582.456	206.81
582.667	191.81
582.877	194.81
583.087	207.81
583.298	202.81
583.508	196.81
583.719	189.81
583.929	182.81
584.139	174.81
584.35	194.81
584.56	197.81
584.77	180.81
584.981	178.81
585.191	194.81
585.401	205.81
585.611	184.81
585.821	203.81
586.032	182.81
586.242	194.81
586.452	192.81
586.662	203.81
586.872	193.81
587.082	187.81
587.292	198.81
587.502	182.81
587.713	180.81
587.923	190.81
588.133	192.81
588.343	190.81
588.553	181.81
588.762	185.81
588.972	192.81
589.182	203.81
589.392	203.81
589.602	190.81
589.812	194.81
590.022	190.81
590.232	189.81
590.441	197.81
590.651	200.81
590.861	188.81
591.071	190.81
591.281	197.81
591.49	196.81
591.7	216.81
591.91	196.81
592.119	213.81
592.329	188.81
592.539	187.81
592.748	205.81
592.958	200.81
593.167	192.81
593.377	196.81
593.587	209.81
593.796	215.81
594.006	204.81
594.215	198.81
594.424	206.81
594.634	204.81
594.843	190.81
595.053	202.81
595.262	203.81
595.472	205.81
595.681	193.81
595.89	193.81
596.1	211.81
596.309	177.81
596.518	190.81
596.727	181.81
596.937	180.81
597.146	196.81
597.355	189.81
597.564	178.81
597.774	173.81
597.983	178.81
598.192	159.81
598.401	183.81
598.61	181.81
598.819	170.81
599.028	173.81
599.237	180.81
599.446	196.81
599.655	191.81
599.864	180.81
600.073	147.81
600.282	164.81
600.491	165.81
600.7	166.81
600.909	166.81
601.118	158.81
601.327	158.81
601.536	171.81
601.745	160.81
601.953	166.81
602.162	171.81
602.371	165.81
602.58	155.81
602.789	174.81
602.997	176.81
603.206	164.81
603.415	160.81
603.623	152.81
603.832	161.81
604.041	161.81
604.249	162.81
604.458	161.81
604.666	159.81
604.875	174.81
605.084	174.81
605.292	158.81
605.501	157.81
605.709	170.81
605.918	152.81
606.126	166.81
606.334	170.81
606.543	170.81
606.751	170.81
606.96	178.81
607.168	159.81
607.376	177.81
607.585	170.81
607.793	156.81
608.001	155.81
608.21	175.81
608.418	174.81
608.626	168.81
608.834	169.81
609.043	147.81
609.251	175.81
609.459	161.81
609.667	170.81
609.875	160.81
610.083	170.81
610.291	177.81
610.499	160.81
610.707	164.81
610.916	157.81
611.124	169.81
611.332	144.81
611.54	154.81
611.748	166.81
611.955	160.81
612.163	163.81
612.371	160.81
612.579	156.81
612.787	171.81
612.995	168.81
613.203	166.81
613.411	160.81
613.618	162.81
613.826	158.81
614.034	157.81
614.242	171.81
614.449	158.81
614.657	165.81
614.865	153.81
615.072	161.81
615.28	163.81
615.488	177.81
615.695	170.81
615.903	158.81
616.111	152.81
616.318	158.81
616.526	147.81
616.733	163.81
616.941	153.81
617.148	173.81
617.356	139.81
617.563	157.81
617.771	142.81
617.978	153.81
618.185	160.81
618.393	146.81
618.6	164.81
618.807	153.81
619.015	162.81
619.222	158.81
619.429	160.81
619.637	164.81
619.844	163.81
620.051	168.81
620.258	161.81
620.466	153.81
620.673	145.81
620.88	158.81
621.087	145.81
621.294	156.81
621.501	148.81
621.708	147.81
621.915	166.81
622.122	147.81
622.329	157.81
622.536	158.81
622.743	150.81
622.95	155.81
623.157	143.81
623.364	152.81
623.571	164.81
623.778	163.81
623.985	156.81
624.192	159.81
624.399	161.81
624.606	156.81
624.812	148.81
625.019	157.81
625.226	148.81
625.433	140.81
625.639	138.81
625.846	151.81
626.053	156.81
626.259	150.81
626.466	146.81
626.673	132.81
626.879	142.81
627.086	156.81
627.293	146.81
627.499	155.81
627.706	138.81
627.912	150.81
628.119	162.81
628.325	160.81
628.532	145.81
628.738	144.81
628.945	154.81
629.151	153.81
629.357	129.81
629.564	146.81
629.77	156.81
629.976	148.81
630.183	162.81
630.389	143.81
630.595	147.81
630.802	143.81
631.008	146.81
631.214	147.81
631.42	138.81
631.627	148.81
631.833	151.81
632.039	148.81
632.245	133.81
632.451	148.81
632.657	147.81
632.863	130.81
633.069	135.81
633.275	150.81
633.481	148.81
633.688	143.81
633.893	128.81
634.099	136.81
634.305	136.81
634.511	140.81
634.717	133.81
634.923	120.81
635.129	122.81
635.335	136.81
635.541	133.81
635.747	140.81
635.952	139.81
636.158	131.81
636.364	145.81
636.57	133.81
636.775	130.81
636.981	142.81
637.187	136.81
637.392	124.81
637.598	129.81
637.804	137.81
638.009	139.81
638.215	148.81
638.421	139.81
638.626	140.81
638.832	151.81
639.037	136.81
639.243	129.81
639.448	142.81
639.654	127.81
639.859	132.81
640.065	129.81
640.27	136.81
640.475	124.81
640.681	135.81
640.886	125.81
641.091	147.81
641.297	152.81
641.502	145.81
641.707	126.81
641.913	146.81
642.118	130.81
642.323	133.81
642.528	136.81
642.733	157.81
642.939	141.81
643.144	134.81
643.349	125.81
643.554	135.81
643.759	129.81
643.964	133.81
644.169	150.81
644.374	125.81
644.579	143.81
644.784	141.81
644.989	141.81
645.194	138.81
645.399	130.81
645.604	138.81
645.809	137.81
646.014	123.81
646.219	146.81
646.423	131.81
646.628	135.81
646.833	140.81
647.038	139.81
647.243	142.81
647.447	138.81
647.652	133.81
647.857	133.81
648.062	138.81
648.266	144.81
648.471	135.81
648.676	144.81
648.88	140.81
649.085	131.81
649.289	145.81
649.494	133.81
649.698	135.81
649.903	141.81
650.107	150.81
650.312	149.81
650.516	137.81
650.721	143.81
650.925	134.81
651.13	141.81
651.334	146.81
651.539	124.81
651.743	131.81
651.947	125.81
652.152	138.81
652.356	150.81
652.56	131.81
652.764	136.81
652.969	133.81
653.173	119.81
653.377	125.81
653.581	128.81
653.785	142.81
653.99	117.81
654.194	131.81
654.398	149.81
654.602	134.81
654.806	141.81
655.01	131.81
655.214	133.81
655.418	133.81
655.622	121.81
655.826	125.81
656.03	132.81
656.234	138.81
656.438	124.81
656.642	137.81
656.846	127.81
657.049	120.81
657.253	130.81
657.457	123.81
657.661	121.81
657.865	112.81
658.068	121.81
658.272	107.81
658.476	107.81
658.68	116.81
658.883	105.81
659.087	107.81
659.291	113.81
659.494	118.81
659.698	116.81
659.901	102.81
660.105	92.81
660.309	92.81
660.512	95.81
660.716	104.81
660.919	100.81
661.123	104.81
661.326	101.81
661.53	94.81
661.733	99.81
661.936	104.81
662.14	93.81
662.343	99.81
662.546	100.81
662.75	82.81
662.953	75.81
663.156	77.81
663.36	75.81
663.563	97.81
663.766	85.81
663.969	77.81
664.173	85.81
664.376	85.81
664.579	82.81
664.782	98.81
664.985	86.81
665.188	72.81
665.391	69.81
665.594	72.81
665.797	77.81
666	84.81
666.203	83.81
666.406	77.81
666.609	72.81
666.812	86.81
667.015	76.81
667.218	76.81
667.421	100.81
667.624	83.81
667.827	83.81
668.03	74.81
668.232	80.81
668.435	80.81
668.638	92.81
668.841	82.81
669.043	83.81
669.246	90.81
669.449	78.81
669.651	85.81
669.854	101.81
670.057	85.81
670.259	92.81
670.462	74.81
670.665	77.81
670.867	85.81
671.07	78.81
671.272	89.81
671.475	82.81
671.677	73.81
671.88	78.81
672.082	75.81
672.284	83.81
672.487	82.81
672.689	81.81
672.892	83.81
