Data from Fe(NO3)3@0.05M.TitratingCurve.Agarose3%dH2O.NegLispCup.LampEnergy10.LIBS07252019_HRD10591_16-47-58-335.txt Node
Date: Thu Jul 25 16:47:58 EDT 2019
User: cochatt
Spectrometer: HR+D1059
Trigger mode: 1
Integration Time (sec): 1.000000E-1
Scans to average: 1
Electric dark correction enabled: true
Nonlinearity correction enabled: false
Boxcar width: 0
XAxis mode: Wavelengths
Number of Pixels in Spectrum: 2048
>>>>>Begin Spectral Data<<<<<
223.165	-10.69
223.4	-10.69
223.635	-10.69
223.869	-27.69
224.104	-18.69
224.338	-19.69
224.573	-16.69
224.808	-10.69
225.042	-12.69
225.277	1.31
225.511	-0.69
225.746	-1.69
225.98	11.31
226.215	-0.69
226.449	22.31
226.683	15.31
226.918	28.31
227.152	41.31
227.387	52.31
227.621	34.31
227.856	35.31
228.09	54.31
228.324	61.31
228.559	51.31
228.793	78.31
229.027	81.31
229.262	82.31
229.496	88.31
229.73	94.31
229.964	108.31
230.199	86.31
230.433	85.31
230.667	94.31
230.901	96.31
231.136	86.31
231.37	97.31
231.604	107.31
231.838	85.31
232.072	106.31
232.306	105.31
232.541	100.31
232.775	96.31
233.009	113.31
233.243	94.31
233.477	114.31
233.711	107.31
233.945	102.31
234.179	120.31
234.413	107.31
234.647	109.31
234.881	102.31
235.115	114.31
235.349	107.31
235.583	106.31
235.817	97.31
236.051	105.31
236.285	101.31
236.519	97.31
236.753	90.31
236.987	101.31
237.221	94.31
237.455	105.31
237.689	105.31
237.922	104.31
238.156	92.31
238.39	113.31
238.624	119.31
238.858	112.31
239.091	99.31
239.325	103.31
239.559	91.31
239.793	121.31
240.027	105.31
240.26	118.31
240.494	107.31
240.728	119.31
240.961	114.31
241.195	110.31
241.429	124.31
241.662	100.31
241.896	118.31
242.13	127.31
242.363	128.31
242.597	106.31
242.83	110.31
243.064	116.31
243.298	118.31
243.531	126.31
243.765	112.31
243.998	122.31
244.232	122.31
244.465	121.31
244.699	128.31
244.932	123.31
245.166	128.31
245.399	128.31
245.633	126.31
245.866	123.31
246.099	127.31
246.333	128.31
246.566	128.31
246.8	140.31
247.033	109.31
247.266	120.31
247.5	125.31
247.733	126.31
247.966	131.31
248.2	134.31
248.433	132.31
248.666	143.31
248.899	131.31
249.133	125.31
249.366	122.31
249.599	133.31
249.832	132.31
250.066	153.31
250.299	122.31
250.532	129.31
250.765	149.31
250.998	140.31
251.231	137.31
251.465	150.31
251.698	140.31
251.931	154.31
252.164	147.31
252.397	132.31
252.63	128.31
252.863	143.31
253.096	148.31
253.329	133.31
253.562	133.31
253.795	145.31
254.028	133.31
254.261	161.31
254.494	147.31
254.727	139.31
254.96	142.31
255.193	162.31
255.426	144.31
255.659	142.31
255.892	143.31
256.124	148.31
256.357	156.31
256.59	148.31
256.823	150.31
257.056	156.31
257.289	142.31
257.521	154.31
257.754	149.31
257.987	139.31
258.22	162.31
258.452	165.31
258.685	161.31
258.918	139.31
259.151	157.31
259.383	155.31
259.616	149.31
259.849	157.31
260.081	151.31
260.314	152.31
260.547	165.31
260.779	160.31
261.012	180.31
261.244	167.31
261.477	176.31
261.71	154.31
261.942	164.31
262.175	163.31
262.407	158.31
262.64	171.31
262.872	178.31
263.105	153.31
263.337	159.31
263.57	160.31
263.802	169.31
264.035	164.31
264.267	177.31
264.499	166.31
264.732	163.31
264.964	168.31
265.197	172.31
265.429	170.31
265.661	172.31
265.894	161.31
266.126	180.31
266.358	173.31
266.591	177.31
266.823	160.31
267.055	170.31
267.287	163.31
267.52	173.31
267.752	191.31
267.984	165.31
268.216	179.31
268.448	197.31
268.681	179.31
268.913	185.31
269.145	193.31
269.377	183.31
269.609	179.31
269.841	174.31
270.073	187.31
270.306	173.31
270.538	184.31
270.77	192.31
271.002	181.31
271.234	184.31
271.466	177.31
271.698	186.31
271.93	183.31
272.162	183.31
272.394	186.31
272.626	193.31
272.858	191.31
273.09	208.31
273.322	190.31
273.553	192.31
273.785	183.31
274.017	200.31
274.249	207.31
274.481	197.31
274.713	205.31
274.945	207.31
275.176	214.31
275.408	213.31
275.64	196.31
275.872	220.31
276.104	199.31
276.335	203.31
276.567	193.31
276.799	207.31
277.031	227.31
277.262	200.31
277.494	189.31
277.726	195.31
277.957	203.31
278.189	205.31
278.421	198.31
278.652	197.31
278.884	210.31
279.115	213.31
279.347	212.31
279.579	202.31
279.81	201.31
280.042	199.31
280.273	212.31
280.505	219.31
280.736	216.31
280.968	203.31
281.199	214.31
281.431	214.31
281.662	208.31
281.894	206.31
282.125	217.31
282.356	219.31
282.588	218.31
282.819	215.31
283.051	221.31
283.282	218.31
283.513	236.31
283.745	238.31
283.976	198.31
284.207	213.31
284.439	217.31
284.67	218.31
284.901	220.31
285.132	218.31
285.364	227.31
285.595	230.31
285.826	214.31
286.057	232.31
286.288	214.31
286.52	223.31
286.751	221.31
286.982	222.31
287.213	242.31
287.444	227.31
287.675	224.31
287.906	218.31
288.138	215.31
288.369	219.31
288.6	234.31
288.831	197.31
289.062	228.31
289.293	216.31
289.524	233.31
289.755	255.31
289.986	232.31
290.217	234.31
290.448	228.31
290.679	239.31
290.91	226.31
291.141	208.31
291.371	234.31
291.602	251.31
291.833	225.31
292.064	255.31
292.295	230.31
292.526	224.31
292.757	225.31
292.987	219.31
293.218	242.31
293.449	240.31
293.68	243.31
293.91	242.31
294.141	238.31
294.372	233.31
294.603	237.31
294.833	226.31
295.064	232.31
295.295	237.31
295.525	257.31
295.756	245.31
295.987	242.31
296.217	241.31
296.448	250.31
296.679	230.31
296.909	237.31
297.14	254.31
297.37	248.31
297.601	235.31
297.831	253.31
298.062	251.31
298.292	223.31
298.523	252.31
298.753	232.31
298.984	244.31
299.214	250.31
299.445	237.31
299.675	247.31
299.905	250.31
300.136	243.31
300.366	224.31
300.597	236.31
300.827	262.31
301.057	246.31
301.288	254.31
301.518	241.31
301.748	260.31
301.979	250.31
302.209	263.31
302.439	255.31
302.669	269.31
302.9	254.31
303.13	241.31
303.36	262.31
303.59	261.31
303.82	259.31
304.051	260.31
304.281	267.31
304.511	258.31
304.741	266.31
304.971	262.31
305.201	253.31
305.431	264.31
305.661	268.31
305.891	265.31
306.121	278.31
306.352	264.31
306.582	273.31
306.812	265.31
307.042	278.31
307.272	249.31
307.502	257.31
307.731	265.31
307.961	257.31
308.191	267.31
308.421	272.31
308.651	258.31
308.881	277.31
309.111	273.31
309.341	256.31
309.571	268.31
309.8	261.31
310.03	268.31
310.26	267.31
310.49	259.31
310.72	264.31
310.949	262.31
311.179	269.31
311.409	278.31
311.639	266.31
311.868	266.31
312.098	258.31
312.328	289.31
312.557	267.31
312.787	264.31
313.017	293.31
313.246	281.31
313.476	275.31
313.706	262.31
313.935	276.31
314.165	286.31
314.394	290.31
314.624	267.31
314.853	292.31
315.083	289.31
315.312	264.31
315.542	279.31
315.771	279.31
316.001	267.31
316.23	277.31
316.46	268.31
316.689	280.31
316.919	288.31
317.148	302.31
317.377	294.31
317.607	289.31
317.836	272.31
318.065	278.31
318.295	278.31
318.524	281.31
318.753	273.31
318.983	286.31
319.212	280.31
319.441	274.31
319.67	283.31
319.9	278.31
320.129	284.31
320.358	282.31
320.587	273.31
320.816	288.31
321.046	277.31
321.275	287.31
321.504	277.31
321.733	281.31
321.962	285.31
322.191	291.31
322.42	290.31
322.649	272.31
322.878	293.31
323.108	265.31
323.337	297.31
323.566	298.31
323.795	295.31
324.024	282.31
324.253	298.31
324.482	298.31
324.71	291.31
324.939	277.31
325.168	302.31
325.397	309.31
325.626	288.31
325.855	293.31
326.084	313.31
326.313	306.31
326.542	303.31
326.77	315.31
326.999	292.31
327.228	278.31
327.457	308.31
327.686	302.31
327.914	295.31
328.143	315.31
328.372	314.31
328.6	302.31
328.829	290.31
329.058	288.31
329.287	304.31
329.515	338.31
329.744	317.31
329.972	301.31
330.201	323.31
330.43	329.31
330.658	317.31
330.887	317.31
331.115	302.31
331.344	312.31
331.572	308.31
331.801	325.31
332.03	329.31
332.258	332.31
332.486	337.31
332.715	330.31
332.943	351.31
333.172	355.31
333.4	360.31
333.629	373.31
333.857	380.31
334.085	369.31
334.314	375.31
334.542	360.31
334.771	363.31
334.999	349.31
335.227	365.31
335.455	367.31
335.684	364.31
335.912	352.31
336.14	349.31
336.369	349.31
336.597	387.31
336.825	331.31
337.053	338.31
337.281	345.31
337.51	348.31
337.738	331.31
337.966	320.31
338.194	328.31
338.422	330.31
338.65	322.31
338.878	333.31
339.106	328.31
339.334	334.31
339.562	300.31
339.79	333.31
340.018	321.31
340.246	327.31
340.474	322.31
340.702	311.31
340.93	322.31
341.158	324.31
341.386	318.31
341.614	311.31
341.842	336.31
342.07	321.31
342.298	296.31
342.526	313.31
342.754	318.31
342.981	304.31
343.209	325.31
343.437	350.31
343.665	353.31
343.893	378.31
344.12	386.31
344.348	335.31
344.576	356.31
344.804	356.31
345.031	328.31
345.259	322.31
345.487	345.31
345.714	329.31
345.942	321.31
346.17	327.31
346.397	323.31
346.625	329.31
346.853	319.31
347.08	322.31
347.308	317.31
347.535	310.31
347.763	328.31
347.99	334.31
348.218	325.31
348.445	311.31
348.673	321.31
348.9	305.31
349.128	326.31
349.355	300.31
349.583	308.31
349.81	301.31
350.037	302.31
350.265	333.31
350.492	299.31
350.72	313.31
350.947	306.31
351.174	299.31
351.402	306.31
351.629	306.31
351.856	312.31
352.083	291.31
352.311	284.31
352.538	294.31
352.765	296.31
352.992	299.31
353.22	305.31
353.447	296.31
353.674	308.31
353.901	299.31
354.128	284.31
354.355	303.31
354.583	332.31
354.81	318.31
355.037	304.31
355.264	311.31
355.491	296.31
355.718	300.31
355.945	317.31
356.172	307.31
356.399	319.31
356.626	320.31
356.853	321.31
357.08	334.31
357.307	317.31
357.534	306.31
357.761	322.31
357.988	314.31
358.215	333.31
358.441	322.31
358.668	314.31
358.895	299.31
359.122	321.31
359.349	325.31
359.576	329.31
359.802	329.31
360.029	316.31
360.256	308.31
360.483	326.31
360.709	297.31
360.936	318.31
361.163	315.31
361.39	317.31
361.616	308.31
361.843	310.31
362.07	322.31
362.296	329.31
362.523	321.31
362.749	324.31
362.976	315.31
363.203	313.31
363.429	298.31
363.656	306.31
363.882	315.31
364.109	335.31
364.335	310.31
364.562	315.31
364.788	319.31
365.015	326.31
365.241	300.31
365.468	305.31
365.694	312.31
365.92	290.31
366.147	316.31
366.373	324.31
366.599	322.31
366.826	336.31
367.052	329.31
367.278	307.31
367.505	317.31
367.731	328.31
367.957	322.31
368.184	314.31
368.41	315.31
368.636	303.31
368.862	323.31
369.089	317.31
369.315	334.31
369.541	329.31
369.767	330.31
369.993	354.31
370.219	328.31
370.445	356.31
370.672	351.31
370.898	353.31
371.124	343.31
371.35	347.31
371.576	348.31
371.802	356.31
372.028	350.31
372.254	338.31
372.48	331.31
372.706	344.31
372.932	331.31
373.158	349.31
373.384	354.31
373.61	355.31
373.835	352.31
374.061	364.31
374.287	371.31
374.513	341.31
374.739	348.31
374.965	369.31
375.191	380.31
375.416	383.31
375.642	374.31
375.868	360.31
376.094	360.31
376.319	346.31
376.545	356.31
376.771	348.31
376.997	330.31
377.222	348.31
377.448	343.31
377.674	333.31
377.899	348.31
378.125	369.31
378.35	336.31
378.576	346.31
378.802	340.31
379.027	335.31
379.253	358.31
379.478	332.31
379.704	349.31
379.929	348.31
380.155	338.31
380.38	357.31
380.606	356.31
380.831	339.31
381.057	352.31
381.282	353.31
381.507	358.31
381.733	363.31
381.958	358.31
382.184	365.31
382.409	364.31
382.634	391.31
382.86	374.31
383.085	382.31
383.31	365.31
383.535	373.31
383.761	374.31
383.986	386.31
384.211	408.31
384.436	405.31
384.662	397.31
384.887	398.31
385.112	423.31
385.337	392.31
385.562	392.31
385.787	389.31
386.013	402.31
386.238	408.31
386.463	389.31
386.688	407.31
386.913	418.31
387.138	390.31
387.363	412.31
387.588	413.31
387.813	410.31
388.038	390.31
388.263	398.31
388.488	401.31
388.713	403.31
388.938	417.31
389.163	407.31
389.387	422.31
389.612	376.31
389.837	397.31
390.062	400.31
390.287	392.31
390.512	418.31
390.736	386.31
390.961	400.31
391.186	419.31
391.411	446.31
391.636	438.31
391.86	436.31
392.085	438.31
392.31	457.31
392.534	424.31
392.759	419.31
392.984	416.31
393.208	445.31
393.433	419.31
393.658	409.31
393.882	428.31
394.107	421.31
394.331	446.31
394.556	422.31
394.78	414.31
395.005	438.31
395.229	413.31
395.454	455.31
395.678	453.31
395.903	441.31
396.127	457.31
396.352	443.31
396.576	427.31
396.801	444.31
397.025	444.31
397.249	438.31
397.474	449.31
397.698	451.31
397.922	457.31
398.147	469.31
398.371	470.31
398.595	495.31
398.82	507.31
399.044	509.31
399.268	557.31
399.492	611.31
399.717	653.31
399.941	635.31
400.165	608.31
400.389	566.31
400.613	537.31
400.837	539.31
401.062	529.31
401.286	502.31
401.51	502.31
401.734	490.31
401.958	512.31
402.182	496.31
402.406	506.31
402.63	529.31
402.854	530.31
403.078	521.31
403.302	548.31
403.526	524.31
403.75	551.31
403.974	549.31
404.198	532.31
404.422	522.31
404.645	525.31
404.869	546.31
405.093	525.31
405.317	534.31
405.541	522.31
405.765	531.31
405.988	541.31
406.212	545.31
406.436	530.31
406.66	539.31
406.883	549.31
407.107	565.31
407.331	604.31
407.555	585.31
407.778	600.31
408.002	592.31
408.226	581.31
408.449	557.31
408.673	568.31
408.896	557.31
409.12	565.31
409.344	538.31
409.567	535.31
409.791	548.31
410.014	533.31
410.238	543.31
410.461	531.31
410.685	514.31
410.908	529.31
411.132	529.31
411.355	509.31
411.578	518.31
411.802	525.31
412.025	518.31
412.249	534.31
412.472	523.31
412.695	532.31
412.919	510.31
413.142	503.31
413.365	484.31
413.589	519.31
413.812	492.31
414.035	484.31
414.258	504.31
414.482	505.31
414.705	524.31
414.928	508.31
415.151	520.31
415.374	514.31
415.597	489.31
415.821	508.31
416.044	496.31
416.267	470.31
416.49	527.31
416.713	512.31
416.936	487.31
417.159	485.31
417.382	487.31
417.605	496.31
417.828	482.31
418.051	476.31
418.274	498.31
418.497	497.31
418.72	504.31
418.943	499.31
419.166	541.31
419.389	551.31
419.611	545.31
419.834	535.31
420.057	504.31
420.28	512.31
420.503	494.31
420.726	508.31
420.948	489.31
421.171	474.31
421.394	503.31
421.617	502.31
421.839	489.31
422.062	496.31
422.285	479.31
422.507	501.31
422.73	503.31
422.953	504.31
423.175	513.31
423.398	492.31
423.621	504.31
423.843	511.31
424.066	538.31
424.288	520.31
424.511	493.31
424.733	508.31
424.956	498.31
425.178	496.31
425.401	489.31
425.623	482.31
425.846	486.31
426.068	503.31
426.291	478.31
426.513	484.31
426.735	469.31
426.958	479.31
427.18	479.31
427.402	482.31
427.625	475.31
427.847	468.31
428.069	453.31
428.292	455.31
428.514	480.31
428.736	468.31
428.958	475.31
429.181	458.31
429.403	441.31
429.625	453.31
429.847	464.31
430.069	448.31
430.292	449.31
430.514	440.31
430.736	469.31
430.958	470.31
431.18	461.31
431.402	461.31
431.624	449.31
431.846	469.31
432.068	449.31
432.29	455.31
432.512	456.31
432.734	493.31
432.956	481.31
433.178	473.31
433.4	466.31
433.622	480.31
433.844	484.31
434.066	467.31
434.287	461.31
434.509	478.31
434.731	476.31
434.953	489.31
435.175	501.31
435.397	500.31
435.618	483.31
435.84	494.31
436.062	476.31
436.284	472.31
436.505	463.31
436.727	473.31
436.949	484.31
437.17	467.31
437.392	446.31
437.614	468.31
437.835	444.31
438.057	445.31
438.278	452.31
438.5	472.31
438.721	462.31
438.943	471.31
439.165	482.31
439.386	472.31
439.608	459.31
439.829	460.31
440.05	478.31
440.272	480.31
440.493	476.31
440.715	484.31
440.936	480.31
441.158	512.31
441.379	485.31
441.6	506.31
441.822	532.31
442.043	526.31
442.264	528.31
442.486	496.31
442.707	506.31
442.928	499.31
443.149	522.31
443.371	504.31
443.592	522.31
443.813	517.31
444.034	528.31
444.255	550.31
444.476	546.31
444.698	577.31
444.919	573.31
445.14	685.31
445.361	599.31
445.582	537.31
445.803	508.31
446.024	506.31
446.245	496.31
446.466	499.31
446.687	500.31
446.908	491.31
447.129	476.31
447.35	471.31
447.571	505.31
447.792	473.31
448.013	454.31
448.234	437.31
448.455	445.31
448.675	435.31
448.896	450.31
449.117	439.31
449.338	456.31
449.559	449.31
449.779	451.31
450	468.31
450.221	440.31
450.442	457.31
450.662	455.31
450.883	439.31
451.104	468.31
451.324	438.31
451.545	458.31
451.766	442.31
451.986	427.31
452.207	456.31
452.428	426.31
452.648	428.31
452.869	415.31
453.089	440.31
453.31	433.31
453.53	418.31
453.751	420.31
453.971	433.31
454.192	432.31
454.412	409.31
454.633	407.31
454.853	408.31
455.073	412.31
455.294	433.31
455.514	422.31
455.734	405.31
455.955	416.31
456.175	394.31
456.395	427.31
456.616	413.31
456.836	422.31
457.056	405.31
457.276	417.31
457.497	425.31
457.717	426.31
457.937	429.31
458.157	426.31
458.377	434.31
458.598	432.31
458.818	441.31
459.038	443.31
459.258	445.31
459.478	456.31
459.698	469.31
459.918	505.31
460.138	498.31
460.358	520.31
460.578	513.31
460.798	529.31
461.018	520.31
461.238	530.31
461.458	524.31
461.678	514.31
461.898	552.31
462.118	565.31
462.338	568.31
462.558	582.31
462.777	584.31
462.997	594.31
463.217	646.31
463.437	640.31
463.657	614.31
463.876	596.31
464.096	580.31
464.316	593.31
464.536	567.31
464.755	567.31
464.975	574.31
465.195	552.31
465.414	530.31
465.634	509.31
465.854	523.31
466.073	489.31
466.293	486.31
466.512	477.31
466.732	448.31
466.951	500.31
467.171	457.31
467.391	479.31
467.61	457.31
467.829	457.31
468.049	440.31
468.268	466.31
468.488	439.31
468.707	459.31
468.927	439.31
469.146	439.31
469.365	442.31
469.585	480.31
469.804	494.31
470.023	468.31
470.243	463.31
470.462	462.31
470.681	477.31
470.901	470.31
471.12	468.31
471.339	471.31
471.558	462.31
471.777	473.31
471.997	460.31
472.216	436.31
472.435	428.31
472.654	431.31
472.873	423.31
473.092	438.31
473.311	454.31
473.53	444.31
473.749	437.31
473.968	461.31
474.187	447.31
474.406	458.31
474.625	446.31
474.844	428.31
475.063	450.31
475.282	445.31
475.501	457.31
475.72	453.31
475.939	452.31
476.158	461.31
476.377	460.31
476.596	488.31
476.814	464.31
477.033	468.31
477.252	480.31
477.471	476.31
477.69	489.31
477.908	514.31
478.127	520.31
478.346	497.31
478.564	502.31
478.783	531.31
479.002	504.31
479.22	542.31
479.439	544.31
479.658	536.31
479.876	541.31
480.095	517.31
480.313	549.31
480.532	537.31
480.751	547.31
480.969	523.31
481.188	502.31
481.406	533.31
481.624	509.31
481.843	510.31
482.061	489.31
482.28	489.31
482.498	517.31
482.717	486.31
482.935	503.31
483.153	500.31
483.372	477.31
483.59	523.31
483.808	485.31
484.027	491.31
484.245	487.31
484.463	502.31
484.681	512.31
484.9	517.31
485.118	542.31
485.336	516.31
485.554	496.31
485.772	505.31
485.99	489.31
486.209	514.31
486.427	517.31
486.645	520.31
486.863	538.31
487.081	532.31
487.299	531.31
487.517	525.31
487.735	506.31
487.953	509.31
488.171	514.31
488.389	499.31
488.607	503.31
488.825	519.31
489.043	508.31
489.261	519.31
489.479	544.31
489.696	517.31
489.914	544.31
490.132	543.31
490.35	538.31
490.568	518.31
490.786	531.31
491.003	536.31
491.221	512.31
491.439	517.31
491.657	532.31
491.874	535.31
492.092	550.31
492.31	557.31
492.527	569.31
492.745	538.31
492.963	551.31
493.18	552.31
493.398	581.31
493.615	539.31
493.833	550.31
494.05	552.31
494.268	548.31
494.485	551.31
494.703	562.31
494.92	540.31
495.138	549.31
495.355	554.31
495.573	550.31
495.79	558.31
496.008	577.31
496.225	580.31
496.442	576.31
496.66	593.31
496.877	573.31
497.094	611.31
497.312	605.31
497.529	589.31
497.746	632.31
497.963	622.31
498.181	643.31
498.398	658.31
498.615	692.31
498.832	691.31
499.049	754.31
499.267	790.31
499.484	824.31
499.701	916.31
499.918	966.31
500.135	1072.31
500.352	1133.31
500.569	1196.31
500.786	1162.31
501.003	1108.31
501.22	1052.31
501.437	962.31
501.654	881.31
501.871	812.31
502.088	759.31
502.305	739.31
502.522	716.31
502.739	675.31
502.956	655.31
503.172	652.31
503.389	650.31
503.606	621.31
503.823	595.31
504.04	596.31
504.256	595.31
504.473	606.31
504.69	615.31
504.907	610.31
505.123	586.31
505.34	581.31
505.557	560.31
505.773	542.31
505.99	526.31
506.207	519.31
506.423	528.31
506.64	525.31
506.856	509.31
507.073	501.31
507.289	509.31
507.506	497.31
507.722	489.31
507.939	489.31
508.155	472.31
508.372	470.31
508.588	504.31
508.805	477.31
509.021	476.31
509.238	488.31
509.454	476.31
509.67	492.31
509.887	459.31
510.103	468.31
510.319	462.31
510.536	466.31
510.752	475.31
510.968	452.31
511.184	432.31
511.401	441.31
511.617	440.31
511.833	453.31
512.049	429.31
512.265	465.31
512.481	451.31
512.698	460.31
512.914	457.31
513.13	440.31
513.346	474.31
513.562	451.31
513.778	472.31
513.994	458.31
514.21	452.31
514.426	472.31
514.642	481.31
514.858	475.31
515.074	470.31
515.29	472.31
515.506	468.31
515.721	466.31
515.937	498.31
516.153	488.31
516.369	477.31
516.585	515.31
516.801	501.31
517.016	513.31
517.232	546.31
517.448	546.31
517.664	527.31
517.879	552.31
518.095	542.31
518.311	563.31
518.527	536.31
518.742	519.31
518.958	493.31
519.173	475.31
519.389	476.31
519.605	483.31
519.82	474.31
520.036	490.31
520.251	478.31
520.467	457.31
520.682	442.31
520.898	442.31
521.113	452.31
521.329	450.31
521.544	460.31
521.76	441.31
521.975	446.31
522.19	434.31
522.406	452.31
522.621	429.31
522.836	419.31
523.052	445.31
523.267	428.31
523.482	433.31
523.698	434.31
523.913	414.31
524.128	426.31
524.343	405.31
524.559	432.31
524.774	429.31
524.989	446.31
525.204	427.31
525.419	408.31
525.634	410.31
525.849	424.31
526.064	426.31
526.28	424.31
526.495	421.31
526.71	422.31
526.925	406.31
527.14	422.31
527.355	436.31
527.57	420.31
527.785	411.31
527.999	424.31
528.214	426.31
528.429	438.31
528.644	457.31
528.859	411.31
529.074	443.31
529.289	442.31
529.503	446.31
529.718	411.31
529.933	410.31
530.148	392.31
530.363	412.31
530.577	408.31
530.792	402.31
531.007	408.31
531.221	410.31
531.436	402.31
531.651	421.31
531.865	397.31
532.08	402.31
532.295	412.31
532.509	427.31
532.724	395.31
532.938	443.31
533.153	415.31
533.367	410.31
533.582	419.31
533.796	436.31
534.011	403.31
534.225	408.31
534.44	398.31
534.654	410.31
534.868	399.31
535.083	402.31
535.297	410.31
535.511	395.31
535.726	415.31
535.94	393.31
536.154	408.31
536.369	374.31
536.583	402.31
536.797	391.31
537.011	391.31
537.225	406.31
537.44	374.31
537.654	393.31
537.868	404.31
538.082	392.31
538.296	393.31
538.51	395.31
538.724	385.31
538.938	392.31
539.153	372.31
539.367	402.31
539.581	395.31
539.795	384.31
540.009	384.31
540.222	381.31
540.436	386.31
540.65	385.31
540.864	386.31
541.078	379.31
541.292	375.31
541.506	386.31
541.72	372.31
541.934	378.31
542.147	382.31
542.361	389.31
542.575	389.31
542.789	377.31
543.002	388.31
543.216	373.31
543.43	376.31
543.644	390.31
543.857	380.31
544.071	407.31
544.285	396.31
544.498	386.31
544.712	370.31
544.925	407.31
545.139	372.31
545.352	390.31
545.566	402.31
545.779	395.31
545.993	392.31
546.206	400.31
546.42	394.31
546.633	378.31
546.847	388.31
547.06	401.31
547.274	384.31
547.487	392.31
547.7	408.31
547.914	377.31
548.127	375.31
548.34	401.31
548.554	378.31
548.767	389.31
548.98	392.31
549.193	388.31
549.407	389.31
549.62	396.31
549.833	403.31
550.046	384.31
550.259	394.31
550.473	407.31
550.686	376.31
550.899	380.31
551.112	394.31
551.325	386.31
551.538	384.31
551.751	385.31
551.964	380.31
552.177	384.31
552.39	396.31
552.603	389.31
552.816	395.31
553.029	405.31
553.242	382.31
553.455	385.31
553.667	405.31
553.88	380.31
554.093	384.31
554.306	402.31
554.519	379.31
554.732	370.31
554.944	372.31
555.157	392.31
555.37	373.31
555.583	363.31
555.795	374.31
556.008	345.31
556.221	353.31
556.433	355.31
556.646	362.31
556.859	350.31
557.071	343.31
557.284	338.31
557.496	355.31
557.709	346.31
557.921	352.31
558.134	349.31
558.346	345.31
558.559	325.31
558.771	332.31
558.984	339.31
559.196	360.31
559.409	326.31
559.621	320.31
559.833	329.31
560.046	347.31
560.258	335.31
560.47	335.31
560.683	360.31
560.895	338.31
561.107	336.31
561.32	339.31
561.532	332.31
561.744	320.31
561.956	327.31
562.168	347.31
562.381	329.31
562.593	345.31
562.805	358.31
563.017	344.31
563.229	346.31
563.441	346.31
563.653	350.31
563.865	329.31
564.077	329.31
564.289	362.31
564.501	329.31
564.713	358.31
564.925	363.31
565.137	355.31
565.349	363.31
565.561	360.31
565.773	353.31
565.985	364.31
566.197	395.31
566.408	418.31
566.62	419.31
566.832	431.31
567.044	474.31
567.255	466.31
567.467	474.31
567.679	487.31
567.891	508.31
568.102	508.31
568.314	485.31
568.526	461.31
568.737	414.31
568.949	396.31
569.161	378.31
569.372	355.31
569.584	359.31
569.795	333.31
570.007	338.31
570.218	341.31
570.43	327.31
570.641	329.31
570.853	327.31
571.064	312.31
571.276	314.31
571.487	321.31
571.698	310.31
571.91	312.31
572.121	309.31
572.333	307.31
572.544	303.31
572.755	289.31
572.966	297.31
573.178	292.31
573.389	295.31
573.6	286.31
573.811	298.31
574.023	269.31
574.234	265.31
574.445	283.31
574.656	265.31
574.867	281.31
575.078	284.31
575.289	286.31
575.501	290.31
575.712	278.31
575.923	284.31
576.134	281.31
576.345	280.31
576.556	274.31
576.767	271.31
576.978	288.31
577.188	277.31
577.399	262.31
577.61	261.31
577.821	249.31
578.032	270.31
578.243	272.31
578.454	258.31
578.665	257.31
578.875	272.31
579.086	240.31
579.297	259.31
579.508	250.31
579.718	270.31
579.929	260.31
580.14	237.31
580.35	264.31
580.561	253.31
580.772	249.31
580.982	266.31
581.193	262.31
581.403	267.31
581.614	230.31
581.825	245.31
582.035	245.31
582.246	237.31
582.456	232.31
582.667	240.31
582.877	247.31
583.087	250.31
583.298	251.31
583.508	235.31
583.719	235.31
583.929	253.31
584.139	231.31
584.35	224.31
584.56	237.31
584.77	243.31
584.981	229.31
585.191	253.31
585.401	258.31
585.611	244.31
585.821	230.31
586.032	236.31
586.242	233.31
586.452	240.31
586.662	226.31
586.872	232.31
587.082	227.31
587.292	242.31
587.502	227.31
587.713	226.31
587.923	244.31
588.133	236.31
588.343	242.31
588.553	244.31
588.762	234.31
588.972	240.31
589.182	244.31
589.392	259.31
589.602	232.31
589.812	241.31
590.022	242.31
590.232	220.31
590.441	238.31
590.651	217.31
590.861	244.31
591.071	239.31
591.281	257.31
591.49	242.31
591.7	243.31
591.91	236.31
592.119	252.31
592.329	247.31
592.539	223.31
592.748	266.31
592.958	251.31
593.167	264.31
593.377	251.31
593.587	251.31
593.796	252.31
594.006	282.31
594.215	277.31
594.424	262.31
594.634	241.31
594.843	240.31
595.053	244.31
595.262	248.31
595.472	249.31
595.681	221.31
595.89	235.31
596.1	238.31
596.309	217.31
596.518	226.31
596.727	222.31
596.937	225.31
597.146	209.31
597.355	211.31
597.564	208.31
597.774	209.31
597.983	216.31
598.192	210.31
598.401	210.31
598.61	210.31
598.819	210.31
599.028	214.31
599.237	203.31
599.446	208.31
599.655	218.31
599.864	191.31
600.073	200.31
600.282	206.31
600.491	209.31
600.7	210.31
600.909	222.31
601.118	213.31
601.327	188.31
601.536	196.31
601.745	204.31
601.953	204.31
602.162	192.31
602.371	184.31
602.58	216.31
602.789	200.31
602.997	204.31
603.206	183.31
603.415	201.31
603.623	202.31
603.832	193.31
604.041	198.31
604.249	202.31
604.458	188.31
604.666	196.31
604.875	185.31
605.084	173.31
605.292	184.31
605.501	209.31
605.709	179.31
605.918	191.31
606.126	196.31
606.334	203.31
606.543	204.31
606.751	191.31
606.96	187.31
607.168	202.31
607.376	209.31
607.585	188.31
607.793	188.31
608.001	195.31
608.21	193.31
608.418	192.31
608.626	196.31
608.834	189.31
609.043	196.31
609.251	173.31
609.459	193.31
609.667	175.31
609.875	201.31
610.083	190.31
610.291	209.31
610.499	201.31
610.707	184.31
610.916	190.31
611.124	185.31
611.332	200.31
611.54	193.31
611.748	188.31
611.955	195.31
612.163	189.31
612.371	188.31
612.579	197.31
612.787	185.31
612.995	185.31
613.203	194.31
613.411	203.31
613.618	200.31
613.826	192.31
614.034	185.31
614.242	187.31
614.449	185.31
614.657	202.31
614.865	177.31
615.072	193.31
615.28	187.31
615.488	188.31
615.695	181.31
615.903	180.31
616.111	180.31
616.318	189.31
616.526	169.31
616.733	194.31
616.941	192.31
617.148	171.31
617.356	170.31
617.563	189.31
617.771	195.31
617.978	170.31
618.185	171.31
618.393	178.31
618.6	197.31
618.807	186.31
619.015	180.31
619.222	185.31
619.429	179.31
619.637	174.31
619.844	183.31
620.051	193.31
620.258	152.31
620.466	182.31
620.673	182.31
620.88	177.31
621.087	178.31
621.294	179.31
621.501	182.31
621.708	181.31
621.915	178.31
622.122	166.31
622.329	170.31
622.536	166.31
622.743	162.31
622.95	181.31
623.157	174.31
623.364	166.31
623.571	164.31
623.778	179.31
623.985	154.31
624.192	170.31
624.399	156.31
624.606	171.31
624.812	178.31
625.019	175.31
625.226	151.31
625.433	155.31
625.639	166.31
625.846	184.31
626.053	164.31
626.259	168.31
626.466	152.31
626.673	155.31
626.879	169.31
627.086	173.31
627.293	161.31
627.499	146.31
627.706	165.31
627.912	164.31
628.119	170.31
628.325	169.31
628.532	172.31
628.738	157.31
628.945	164.31
629.151	166.31
629.357	159.31
629.564	157.31
629.77	160.31
629.976	157.31
630.183	144.31
630.389	144.31
630.595	168.31
630.802	158.31
631.008	153.31
631.214	168.31
631.42	161.31
631.627	160.31
631.833	147.31
632.039	153.31
632.245	153.31
632.451	154.31
632.657	159.31
632.863	159.31
633.069	156.31
633.275	166.31
633.481	168.31
633.688	154.31
633.893	149.31
634.099	140.31
634.305	152.31
634.511	140.31
634.717	158.31
634.923	152.31
635.129	150.31
635.335	145.31
635.541	146.31
635.747	146.31
635.952	149.31
636.158	146.31
636.364	137.31
636.57	155.31
636.775	148.31
636.981	130.31
637.187	154.31
637.392	152.31
637.598	140.31
637.804	159.31
638.009	142.31
638.215	166.31
638.421	161.31
638.626	145.31
638.832	149.31
639.037	129.31
639.243	143.31
639.448	157.31
639.654	149.31
639.859	139.31
640.065	141.31
640.27	158.31
640.475	148.31
640.681	139.31
640.886	139.31
641.091	141.31
641.297	146.31
641.502	134.31
641.707	145.31
641.913	142.31
642.118	151.31
642.323	146.31
642.528	147.31
642.733	132.31
642.939	146.31
643.144	142.31
643.349	138.31
643.554	165.31
643.759	138.31
643.964	137.31
644.169	146.31
644.374	132.31
644.579	137.31
644.784	135.31
644.989	136.31
645.194	132.31
645.399	148.31
645.604	148.31
645.809	147.31
646.014	131.31
646.219	144.31
646.423	132.31
646.628	148.31
646.833	153.31
647.038	148.31
647.243	138.31
647.447	144.31
647.652	133.31
647.857	141.31
648.062	150.31
648.266	137.31
648.471	151.31
648.676	147.31
648.88	133.31
649.085	141.31
649.289	143.31
649.494	140.31
649.698	138.31
649.903	132.31
650.107	141.31
650.312	161.31
650.516	131.31
650.721	136.31
650.925	144.31
651.13	128.31
651.334	132.31
651.539	128.31
651.743	129.31
651.947	131.31
652.152	129.31
652.356	133.31
652.56	126.31
652.764	120.31
652.969	120.31
653.173	135.31
653.377	104.31
653.581	132.31
653.785	122.31
653.99	127.31
654.194	124.31
654.398	118.31
654.602	117.31
654.806	134.31
655.01	106.31
655.214	123.31
655.418	128.31
655.622	101.31
655.826	120.31
656.03	110.31
656.234	109.31
656.438	121.31
656.642	107.31
656.846	108.31
657.049	109.31
657.253	117.31
657.457	98.31
657.661	109.31
657.865	94.31
658.068	102.31
658.272	106.31
658.476	105.31
658.68	101.31
658.883	106.31
659.087	104.31
659.291	98.31
659.494	108.31
659.698	88.31
659.901	105.31
660.105	84.31
660.309	90.31
660.512	89.31
660.716	91.31
660.919	103.31
661.123	92.31
661.326	94.31
661.53	94.31
661.733	91.31
661.936	76.31
662.14	76.31
662.343	89.31
662.546	84.31
662.75	85.31
662.953	89.31
663.156	87.31
663.36	90.31
663.563	81.31
663.766	84.31
663.969	77.31
664.173	76.31
664.376	71.31
664.579	82.31
664.782	91.31
664.985	82.31
665.188	90.31
665.391	69.31
665.594	72.31
665.797	87.31
666	79.31
666.203	89.31
666.406	92.31
666.609	86.31
666.812	83.31
667.015	99.31
667.218	87.31
667.421	69.31
667.624	84.31
667.827	72.31
668.03	90.31
668.232	78.31
668.435	83.31
668.638	87.31
668.841	86.31
669.043	82.31
669.246	92.31
669.449	85.31
669.651	72.31
669.854	74.31
670.057	77.31
670.259	82.31
670.462	80.31
670.665	90.31
670.867	86.31
671.07	73.31
671.272	85.31
671.475	88.31
671.677	95.31
671.88	97.31
672.082	87.31
672.284	88.31
672.487	78.31
672.689	76.31
672.892	82.31
