Data from Fe(NO3)3@0.1M.TitratingCurve.Agarose3%dH2O.NegLispCup.LampEnergy10.LIBS07252019_HRD10591_16-40-45-334.txt Node
Date: Thu Jul 25 16:40:45 EDT 2019
User: cochatt
Spectrometer: HR+D1059
Trigger mode: 1
Integration Time (sec): 1.000000E-1
Scans to average: 1
Electric dark correction enabled: true
Nonlinearity correction enabled: false
Boxcar width: 0
XAxis mode: Wavelengths
Number of Pixels in Spectrum: 2048
>>>>>Begin Spectral Data<<<<<
223.165	-26.19
223.4	-26.19
223.635	-26.19
223.869	-15.19
224.104	-28.19
224.338	-8.19
224.573	-21.19
224.808	-16.19
225.042	-11.19
225.277	-9.19
225.511	5.81
225.746	5.81
225.98	18.81
226.215	8.81
226.449	19.81
226.683	29.81
226.918	19.81
227.152	26.81
227.387	38.81
227.621	48.81
227.856	45.81
228.09	46.81
228.324	48.81
228.559	50.81
228.793	56.81
229.027	50.81
229.262	63.81
229.496	67.81
229.73	76.81
229.964	61.81
230.199	71.81
230.433	80.81
230.667	75.81
230.901	73.81
231.136	71.81
231.37	71.81
231.604	102.81
231.838	75.81
232.072	89.81
232.306	74.81
232.541	75.81
232.775	95.81
233.009	90.81
233.243	92.81
233.477	85.81
233.711	90.81
233.945	88.81
234.179	84.81
234.413	93.81
234.647	75.81
234.881	90.81
235.115	81.81
235.349	96.81
235.583	93.81
235.817	86.81
236.051	84.81
236.285	78.81
236.519	89.81
236.753	87.81
236.987	87.81
237.221	79.81
237.455	88.81
237.689	86.81
237.922	86.81
238.156	78.81
238.39	75.81
238.624	95.81
238.858	90.81
239.091	80.81
239.325	89.81
239.559	79.81
239.793	89.81
240.027	96.81
240.26	95.81
240.494	80.81
240.728	83.81
240.961	71.81
241.195	86.81
241.429	88.81
241.662	90.81
241.896	98.81
242.13	88.81
242.363	88.81
242.597	80.81
242.83	114.81
243.064	96.81
243.298	86.81
243.531	81.81
243.765	100.81
243.998	91.81
244.232	89.81
244.465	105.81
244.699	86.81
244.932	96.81
245.166	84.81
245.399	87.81
245.633	88.81
245.866	89.81
246.099	83.81
246.333	89.81
246.566	84.81
246.8	86.81
247.033	93.81
247.266	113.81
247.5	93.81
247.733	92.81
247.966	94.81
248.2	90.81
248.433	96.81
248.666	97.81
248.899	94.81
249.133	111.81
249.366	114.81
249.599	94.81
249.832	96.81
250.066	105.81
250.299	98.81
250.532	101.81
250.765	105.81
250.998	82.81
251.231	93.81
251.465	91.81
251.698	97.81
251.931	112.81
252.164	97.81
252.397	95.81
252.63	104.81
252.863	90.81
253.096	87.81
253.329	104.81
253.562	96.81
253.795	100.81
254.028	85.81
254.261	79.81
254.494	93.81
254.727	93.81
254.96	113.81
255.193	94.81
255.426	93.81
255.659	87.81
255.892	105.81
256.124	100.81
256.357	99.81
256.59	102.81
256.823	99.81
257.056	105.81
257.289	97.81
257.521	95.81
257.754	102.81
257.987	115.81
258.22	104.81
258.452	109.81
258.685	102.81
258.918	102.81
259.151	97.81
259.383	122.81
259.616	98.81
259.849	110.81
260.081	120.81
260.314	98.81
260.547	102.81
260.779	117.81
261.012	110.81
261.244	102.81
261.477	117.81
261.71	120.81
261.942	115.81
262.175	109.81
262.407	108.81
262.64	116.81
262.872	117.81
263.105	103.81
263.337	114.81
263.57	109.81
263.802	113.81
264.035	95.81
264.267	105.81
264.499	102.81
264.732	115.81
264.964	115.81
265.197	121.81
265.429	110.81
265.661	122.81
265.894	113.81
266.126	127.81
266.358	111.81
266.591	113.81
266.823	115.81
267.055	105.81
267.287	107.81
267.52	113.81
267.752	111.81
267.984	123.81
268.216	116.81
268.448	110.81
268.681	107.81
268.913	121.81
269.145	111.81
269.377	125.81
269.609	115.81
269.841	112.81
270.073	125.81
270.306	107.81
270.538	113.81
270.77	105.81
271.002	113.81
271.234	123.81
271.466	136.81
271.698	112.81
271.93	134.81
272.162	129.81
272.394	116.81
272.626	121.81
272.858	115.81
273.09	119.81
273.322	128.81
273.553	122.81
273.785	117.81
274.017	114.81
274.249	122.81
274.481	123.81
274.713	120.81
274.945	111.81
275.176	122.81
275.408	129.81
275.64	122.81
275.872	121.81
276.104	127.81
276.335	123.81
276.567	111.81
276.799	116.81
277.031	122.81
277.262	121.81
277.494	143.81
277.726	127.81
277.957	118.81
278.189	122.81
278.421	128.81
278.652	131.81
278.884	123.81
279.115	119.81
279.347	122.81
279.579	134.81
279.81	119.81
280.042	130.81
280.273	117.81
280.505	115.81
280.736	133.81
280.968	133.81
281.199	126.81
281.431	129.81
281.662	116.81
281.894	124.81
282.125	132.81
282.356	131.81
282.588	141.81
282.819	148.81
283.051	129.81
283.282	132.81
283.513	131.81
283.745	129.81
283.976	136.81
284.207	129.81
284.439	135.81
284.67	136.81
284.901	130.81
285.132	123.81
285.364	137.81
285.595	147.81
285.826	143.81
286.057	128.81
286.288	139.81
286.52	138.81
286.751	142.81
286.982	135.81
287.213	139.81
287.444	131.81
287.675	135.81
287.906	130.81
288.138	145.81
288.369	140.81
288.6	125.81
288.831	124.81
289.062	137.81
289.293	140.81
289.524	129.81
289.755	129.81
289.986	146.81
290.217	138.81
290.448	126.81
290.679	132.81
290.91	145.81
291.141	137.81
291.371	137.81
291.602	127.81
291.833	131.81
292.064	135.81
292.295	126.81
292.526	146.81
292.757	124.81
292.987	135.81
293.218	129.81
293.449	148.81
293.68	159.81
293.91	132.81
294.141	148.81
294.372	144.81
294.603	132.81
294.833	144.81
295.064	143.81
295.295	141.81
295.525	165.81
295.756	141.81
295.987	149.81
296.217	123.81
296.448	130.81
296.679	137.81
296.909	138.81
297.14	146.81
297.37	149.81
297.601	139.81
297.831	149.81
298.062	148.81
298.292	153.81
298.523	153.81
298.753	144.81
298.984	146.81
299.214	131.81
299.445	155.81
299.675	152.81
299.905	157.81
300.136	131.81
300.366	154.81
300.597	159.81
300.827	154.81
301.057	143.81
301.288	163.81
301.518	131.81
301.748	151.81
301.979	144.81
302.209	146.81
302.439	142.81
302.669	154.81
302.9	150.81
303.13	155.81
303.36	131.81
303.59	133.81
303.82	149.81
304.051	136.81
304.281	156.81
304.511	146.81
304.741	141.81
304.971	150.81
305.201	154.81
305.431	150.81
305.661	150.81
305.891	177.81
306.121	143.81
306.352	141.81
306.582	146.81
306.812	163.81
307.042	152.81
307.272	165.81
307.502	139.81
307.731	152.81
307.961	142.81
308.191	155.81
308.421	146.81
308.651	153.81
308.881	149.81
309.111	140.81
309.341	157.81
309.571	154.81
309.8	143.81
310.03	163.81
310.26	152.81
310.49	142.81
310.72	161.81
310.949	153.81
311.179	145.81
311.409	131.81
311.639	154.81
311.868	165.81
312.098	149.81
312.328	153.81
312.557	146.81
312.787	159.81
313.017	163.81
313.246	168.81
313.476	149.81
313.706	153.81
313.935	166.81
314.165	157.81
314.394	143.81
314.624	145.81
314.853	165.81
315.083	149.81
315.312	178.81
315.542	167.81
315.771	158.81
316.001	173.81
316.23	150.81
316.46	152.81
316.689	164.81
316.919	158.81
317.148	162.81
317.377	143.81
317.607	177.81
317.836	159.81
318.065	155.81
318.295	152.81
318.524	156.81
318.753	150.81
318.983	150.81
319.212	156.81
319.441	139.81
319.67	165.81
319.9	160.81
320.129	168.81
320.358	149.81
320.587	153.81
320.816	159.81
321.046	174.81
321.275	159.81
321.504	137.81
321.733	158.81
321.962	144.81
322.191	150.81
322.42	177.81
322.649	161.81
322.878	168.81
323.108	166.81
323.337	152.81
323.566	154.81
323.795	157.81
324.024	160.81
324.253	158.81
324.482	170.81
324.71	176.81
324.939	185.81
325.168	161.81
325.397	178.81
325.626	157.81
325.855	160.81
326.084	153.81
326.313	168.81
326.542	164.81
326.77	170.81
326.999	168.81
327.228	153.81
327.457	170.81
327.686	159.81
327.914	163.81
328.143	173.81
328.372	176.81
328.6	187.81
328.829	156.81
329.058	159.81
329.287	162.81
329.515	177.81
329.744	177.81
329.972	187.81
330.201	162.81
330.43	182.81
330.658	167.81
330.887	175.81
331.115	169.81
331.344	176.81
331.572	165.81
331.801	183.81
332.03	169.81
332.258	202.81
332.486	181.81
332.715	193.81
332.943	202.81
333.172	198.81
333.4	208.81
333.629	201.81
333.857	191.81
334.085	205.81
334.314	216.81
334.542	198.81
334.771	204.81
334.999	202.81
335.227	191.81
335.455	185.81
335.684	194.81
335.912	188.81
336.14	174.81
336.369	203.81
336.597	202.81
336.825	195.81
337.053	195.81
337.281	174.81
337.51	180.81
337.738	174.81
337.966	180.81
338.194	190.81
338.422	173.81
338.65	183.81
338.878	179.81
339.106	182.81
339.334	177.81
339.562	166.81
339.79	175.81
340.018	160.81
340.246	163.81
340.474	186.81
340.702	158.81
340.93	165.81
341.158	181.81
341.386	169.81
341.614	176.81
341.842	175.81
342.07	183.81
342.298	184.81
342.526	182.81
342.754	168.81
342.981	174.81
343.209	181.81
343.437	186.81
343.665	191.81
343.893	211.81
344.12	193.81
344.348	201.81
344.576	192.81
344.804	190.81
345.031	173.81
345.259	166.81
345.487	157.81
345.714	167.81
345.942	168.81
346.17	185.81
346.397	175.81
346.625	180.81
346.853	161.81
347.08	169.81
347.308	198.81
347.535	196.81
347.763	162.81
347.99	168.81
348.218	173.81
348.445	166.81
348.673	188.81
348.9	184.81
349.128	179.81
349.355	182.81
349.583	184.81
349.81	168.81
350.037	173.81
350.265	181.81
350.492	169.81
350.72	157.81
350.947	177.81
351.174	168.81
351.402	155.81
351.629	180.81
351.856	161.81
352.083	170.81
352.311	170.81
352.538	169.81
352.765	174.81
352.992	171.81
353.22	173.81
353.447	182.81
353.674	170.81
353.901	171.81
354.128	174.81
354.355	171.81
354.583	185.81
354.81	161.81
355.037	183.81
355.264	165.81
355.491	161.81
355.718	179.81
355.945	181.81
356.172	177.81
356.399	181.81
356.626	192.81
356.853	170.81
357.08	175.81
357.307	165.81
357.534	160.81
357.761	167.81
357.988	174.81
358.215	175.81
358.441	177.81
358.668	175.81
358.895	177.81
359.122	168.81
359.349	177.81
359.576	178.81
359.802	188.81
360.029	182.81
360.256	175.81
360.483	177.81
360.709	169.81
360.936	184.81
361.163	166.81
361.39	161.81
361.616	169.81
361.843	145.81
362.07	178.81
362.296	173.81
362.523	164.81
362.749	161.81
362.976	157.81
363.203	175.81
363.429	173.81
363.656	178.81
363.882	177.81
364.109	177.81
364.335	161.81
364.562	164.81
364.788	193.81
365.015	185.81
365.241	168.81
365.468	174.81
365.694	163.81
365.92	169.81
366.147	164.81
366.373	175.81
366.599	173.81
366.826	181.81
367.052	173.81
367.278	165.81
367.505	167.81
367.731	188.81
367.957	166.81
368.184	171.81
368.41	177.81
368.636	170.81
368.862	181.81
369.089	172.81
369.315	174.81
369.541	181.81
369.767	174.81
369.993	181.81
370.219	164.81
370.445	185.81
370.672	179.81
370.898	181.81
371.124	174.81
371.35	195.81
371.576	190.81
371.802	177.81
372.028	190.81
372.254	190.81
372.48	181.81
372.706	187.81
372.932	186.81
373.158	168.81
373.384	207.81
373.61	194.81
373.835	179.81
374.061	178.81
374.287	185.81
374.513	183.81
374.739	181.81
374.965	191.81
375.191	199.81
375.416	168.81
375.642	189.81
375.868	181.81
376.094	186.81
376.319	191.81
376.545	179.81
376.771	206.81
376.997	183.81
377.222	193.81
377.448	192.81
377.674	184.81
377.899	195.81
378.125	181.81
378.35	184.81
378.576	184.81
378.802	182.81
379.027	183.81
379.253	199.81
379.478	199.81
379.704	177.81
379.929	177.81
380.155	192.81
380.38	187.81
380.606	183.81
380.831	203.81
381.057	179.81
381.282	185.81
381.507	201.81
381.733	176.81
381.958	193.81
382.184	189.81
382.409	195.81
382.634	199.81
382.86	166.81
383.085	199.81
383.31	197.81
383.535	170.81
383.761	177.81
383.986	197.81
384.211	195.81
384.436	208.81
384.662	217.81
384.887	208.81
385.112	208.81
385.337	216.81
385.562	212.81
385.787	215.81
386.013	227.81
386.238	212.81
386.463	217.81
386.688	206.81
386.913	213.81
387.138	213.81
387.363	206.81
387.588	215.81
387.813	201.81
388.038	215.81
388.263	208.81
388.488	213.81
388.713	208.81
388.938	208.81
389.163	207.81
389.387	209.81
389.612	208.81
389.837	210.81
390.062	224.81
390.287	216.81
390.512	197.81
390.736	245.81
390.961	206.81
391.186	222.81
391.411	218.81
391.636	229.81
391.86	234.81
392.085	239.81
392.31	245.81
392.534	214.81
392.759	223.81
392.984	213.81
393.208	214.81
393.433	214.81
393.658	224.81
393.882	240.81
394.107	215.81
394.331	229.81
394.556	250.81
394.78	217.81
395.005	219.81
395.229	235.81
395.454	232.81
395.678	246.81
395.903	228.81
396.127	228.81
396.352	231.81
396.576	232.81
396.801	219.81
397.025	221.81
397.249	213.81
397.474	222.81
397.698	246.81
397.922	234.81
398.147	233.81
398.371	231.81
398.595	244.81
398.82	241.81
399.044	265.81
399.268	285.81
399.492	324.81
399.717	337.81
399.941	333.81
400.165	306.81
400.389	282.81
400.613	260.81
400.837	253.81
401.062	257.81
401.286	252.81
401.51	262.81
401.734	248.81
401.958	264.81
402.182	246.81
402.406	254.81
402.63	259.81
402.854	265.81
403.078	266.81
403.302	262.81
403.526	279.81
403.75	267.81
403.974	282.81
404.198	279.81
404.422	294.81
404.645	279.81
404.869	273.81
405.093	291.81
405.317	276.81
405.541	287.81
405.765	271.81
405.988	273.81
406.212	274.81
406.436	289.81
406.66	289.81
406.883	267.81
407.107	297.81
407.331	303.81
407.555	303.81
407.778	303.81
408.002	295.81
408.226	290.81
408.449	291.81
408.673	288.81
408.896	285.81
409.12	281.81
409.344	299.81
409.567	284.81
409.791	295.81
410.014	275.81
410.238	267.81
410.461	276.81
410.685	269.81
410.908	256.81
411.132	276.81
411.355	281.81
411.578	262.81
411.802	279.81
412.025	278.81
412.249	265.81
412.472	268.81
412.695	259.81
412.919	255.81
413.142	264.81
413.365	259.81
413.589	247.81
413.812	268.81
414.035	248.81
414.258	274.81
414.482	259.81
414.705	267.81
414.928	267.81
415.151	271.81
415.374	261.81
415.597	275.81
415.821	243.81
416.044	265.81
416.267	259.81
416.49	249.81
416.713	253.81
416.936	256.81
417.159	253.81
417.382	241.81
417.605	266.81
417.828	261.81
418.051	282.81
418.274	281.81
418.497	254.81
418.72	285.81
418.943	268.81
419.166	289.81
419.389	286.81
419.611	288.81
419.834	272.81
420.057	279.81
420.28	270.81
420.503	260.81
420.726	271.81
420.948	256.81
421.171	247.81
421.394	257.81
421.617	279.81
421.839	257.81
422.062	269.81
422.285	271.81
422.507	262.81
422.73	272.81
422.953	265.81
423.175	273.81
423.398	257.81
423.621	276.81
423.843	283.81
424.066	276.81
424.288	283.81
424.511	248.81
424.733	277.81
424.956	260.81
425.178	265.81
425.401	264.81
425.623	252.81
425.846	256.81
426.068	259.81
426.291	247.81
426.513	248.81
426.735	266.81
426.958	250.81
427.18	239.81
427.402	249.81
427.625	239.81
427.847	254.81
428.069	242.81
428.292	264.81
428.514	253.81
428.736	241.81
428.958	221.81
429.181	236.81
429.403	247.81
429.625	228.81
429.847	253.81
430.069	260.81
430.292	248.81
430.514	246.81
430.736	254.81
430.958	255.81
431.18	225.81
431.402	251.81
431.624	237.81
431.846	228.81
432.068	235.81
432.29	266.81
432.512	246.81
432.734	252.81
432.956	241.81
433.178	255.81
433.4	245.81
433.622	253.81
433.844	265.81
434.066	256.81
434.287	241.81
434.509	261.81
434.731	263.81
434.953	265.81
435.175	286.81
435.397	275.81
435.618	271.81
435.84	257.81
436.062	236.81
436.284	238.81
436.505	261.81
436.727	246.81
436.949	250.81
437.17	250.81
437.392	232.81
437.614	255.81
437.835	224.81
438.057	251.81
438.278	242.81
438.5	267.81
438.721	248.81
438.943	250.81
439.165	255.81
439.386	257.81
439.608	267.81
439.829	261.81
440.05	254.81
440.272	280.81
440.493	273.81
440.715	259.81
440.936	269.81
441.158	284.81
441.379	272.81
441.6	291.81
441.822	297.81
442.043	261.81
442.264	280.81
442.486	272.81
442.707	275.81
442.928	268.81
443.149	285.81
443.371	283.81
443.592	285.81
443.813	290.81
444.034	287.81
444.255	293.81
444.476	299.81
444.698	303.81
444.919	320.81
445.14	399.81
445.361	338.81
445.582	299.81
445.803	274.81
446.024	265.81
446.245	275.81
446.466	271.81
446.687	289.81
446.908	266.81
447.129	250.81
447.35	265.81
447.571	259.81
447.792	262.81
448.013	259.81
448.234	261.81
448.455	264.81
448.675	250.81
448.896	236.81
449.117	260.81
449.338	246.81
449.559	265.81
449.779	249.81
450	238.81
450.221	231.81
450.442	242.81
450.662	261.81
450.883	252.81
451.104	259.81
451.324	255.81
451.545	247.81
451.766	242.81
451.986	242.81
452.207	250.81
452.428	245.81
452.648	228.81
452.869	242.81
453.089	237.81
453.31	250.81
453.53	242.81
453.751	232.81
453.971	221.81
454.192	222.81
454.412	229.81
454.633	242.81
454.853	236.81
455.073	224.81
455.294	217.81
455.514	230.81
455.734	230.81
455.955	237.81
456.175	224.81
456.395	227.81
456.616	230.81
456.836	218.81
457.056	234.81
457.276	225.81
457.497	224.81
457.717	218.81
457.937	238.81
458.157	229.81
458.377	221.81
458.598	244.81
458.818	238.81
459.038	247.81
459.258	262.81
459.478	245.81
459.698	258.81
459.918	268.81
460.138	269.81
460.358	301.81
460.578	277.81
460.798	281.81
461.018	293.81
461.238	276.81
461.458	283.81
461.678	274.81
461.898	261.81
462.118	287.81
462.338	293.81
462.558	318.81
462.777	303.81
462.997	346.81
463.217	356.81
463.437	343.81
463.657	321.81
463.876	325.81
464.096	306.81
464.316	308.81
464.536	325.81
464.755	313.81
464.975	312.81
465.195	304.81
465.414	278.81
465.634	265.81
465.854	263.81
466.073	273.81
466.293	267.81
466.512	242.81
466.732	243.81
466.951	270.81
467.171	279.81
467.391	231.81
467.61	247.81
467.829	245.81
468.049	249.81
468.268	241.81
468.488	237.81
468.707	244.81
468.927	240.81
469.146	238.81
469.365	248.81
469.585	230.81
469.804	264.81
470.023	248.81
470.243	251.81
470.462	270.81
470.681	265.81
470.901	263.81
471.12	252.81
471.339	249.81
471.558	261.81
471.777	230.81
471.997	241.81
472.216	237.81
472.435	236.81
472.654	233.81
472.873	227.81
473.092	235.81
473.311	228.81
473.53	234.81
473.749	226.81
473.968	243.81
474.187	239.81
474.406	227.81
474.625	225.81
474.844	237.81
475.063	237.81
475.282	246.81
475.501	232.81
475.72	237.81
475.939	231.81
476.158	231.81
476.377	254.81
476.596	232.81
476.814	237.81
477.033	249.81
477.252	247.81
477.471	242.81
477.69	274.81
477.908	272.81
478.127	269.81
478.346	278.81
478.564	271.81
478.783	269.81
479.002	294.81
479.22	280.81
479.439	290.81
479.658	288.81
479.876	279.81
480.095	289.81
480.313	290.81
480.532	292.81
480.751	273.81
480.969	257.81
481.188	263.81
481.406	272.81
481.624	234.81
481.843	275.81
482.061	253.81
482.28	258.81
482.498	250.81
482.717	243.81
482.935	260.81
483.153	261.81
483.372	263.81
483.59	261.81
483.808	275.81
484.027	262.81
484.245	257.81
484.463	255.81
484.681	245.81
484.9	258.81
485.118	264.81
485.336	244.81
485.554	260.81
485.772	258.81
485.99	256.81
486.209	242.81
486.427	257.81
486.645	282.81
486.863	276.81
487.081	238.81
487.299	270.81
487.517	273.81
487.735	266.81
487.953	274.81
488.171	262.81
488.389	259.81
488.607	261.81
488.825	266.81
489.043	266.81
489.261	243.81
489.479	269.81
489.696	259.81
489.914	259.81
490.132	256.81
490.35	258.81
490.568	240.81
490.786	278.81
491.003	286.81
491.221	273.81
491.439	277.81
491.657	268.81
491.874	255.81
492.092	276.81
492.31	290.81
492.527	285.81
492.745	283.81
492.963	289.81
493.18	298.81
493.398	277.81
493.615	285.81
493.833	270.81
494.05	281.81
494.268	287.81
494.485	266.81
494.703	286.81
494.92	279.81
495.138	289.81
495.355	270.81
495.573	282.81
495.79	288.81
496.008	304.81
496.225	299.81
496.442	292.81
496.66	310.81
496.877	277.81
497.094	298.81
497.312	295.81
497.529	324.81
497.746	317.81
497.963	301.81
498.181	318.81
498.398	317.81
498.615	344.81
498.832	356.81
499.049	386.81
499.267	411.81
499.484	419.81
499.701	495.81
499.918	489.81
500.135	566.81
500.352	627.81
500.569	655.81
500.786	633.81
501.003	603.81
501.22	529.81
501.437	479.81
501.654	435.81
501.871	387.81
502.088	373.81
502.305	382.81
502.522	351.81
502.739	354.81
502.956	309.81
503.172	319.81
503.389	327.81
503.606	291.81
503.823	306.81
504.04	282.81
504.256	305.81
504.473	307.81
504.69	298.81
504.907	317.81
505.123	303.81
505.34	272.81
505.557	271.81
505.773	276.81
505.99	250.81
506.207	269.81
506.423	271.81
506.64	272.81
506.856	263.81
507.073	241.81
507.289	251.81
507.506	240.81
507.722	229.81
507.939	258.81
508.155	251.81
508.372	240.81
508.588	239.81
508.805	237.81
509.021	234.81
509.238	229.81
509.454	235.81
509.67	238.81
509.887	219.81
510.103	215.81
510.319	233.81
510.536	227.81
510.752	224.81
510.968	221.81
511.184	220.81
511.401	232.81
511.617	229.81
511.833	221.81
512.049	233.81
512.265	212.81
512.481	218.81
512.698	239.81
512.914	223.81
513.13	234.81
513.346	228.81
513.562	217.81
513.778	222.81
513.994	220.81
514.21	226.81
514.426	227.81
514.642	235.81
514.858	234.81
515.074	237.81
515.29	245.81
515.506	232.81
515.721	232.81
515.937	223.81
516.153	249.81
516.369	244.81
516.585	247.81
516.801	267.81
517.016	258.81
517.232	280.81
517.448	282.81
517.664	293.81
517.879	300.81
518.095	283.81
518.311	291.81
518.527	254.81
518.742	283.81
518.958	255.81
519.173	245.81
519.389	248.81
519.605	246.81
519.82	248.81
520.036	228.81
520.251	231.81
520.467	232.81
520.682	232.81
520.898	233.81
521.113	207.81
521.329	217.81
521.544	227.81
521.76	212.81
521.975	224.81
522.19	226.81
522.406	227.81
522.621	218.81
522.836	210.81
523.052	228.81
523.267	208.81
523.482	210.81
523.698	222.81
523.913	224.81
524.128	222.81
524.343	209.81
524.559	205.81
524.774	224.81
524.989	237.81
525.204	220.81
525.419	213.81
525.634	208.81
525.849	227.81
526.064	221.81
526.28	210.81
526.495	219.81
526.71	209.81
526.925	226.81
527.14	211.81
527.355	209.81
527.57	237.81
527.785	207.81
527.999	203.81
528.214	212.81
528.429	201.81
528.644	213.81
528.859	201.81
529.074	233.81
529.289	207.81
529.503	203.81
529.718	210.81
529.933	212.81
530.148	195.81
530.363	227.81
530.577	216.81
530.792	217.81
531.007	200.81
531.221	217.81
531.436	221.81
531.651	210.81
531.865	216.81
532.08	213.81
532.295	208.81
532.509	208.81
532.724	217.81
532.938	216.81
533.153	209.81
533.367	217.81
533.582	228.81
533.796	217.81
534.011	202.81
534.225	209.81
534.44	215.81
534.654	214.81
534.868	202.81
535.083	212.81
535.297	207.81
535.511	207.81
535.726	222.81
535.94	198.81
536.154	211.81
536.369	212.81
536.583	203.81
536.797	228.81
537.011	205.81
537.225	198.81
537.44	196.81
537.654	207.81
537.868	184.81
538.082	209.81
538.296	191.81
538.51	204.81
538.724	201.81
538.938	216.81
539.153	193.81
539.367	193.81
539.581	203.81
539.795	206.81
540.009	207.81
540.222	205.81
540.436	192.81
540.65	219.81
540.864	221.81
541.078	203.81
541.292	227.81
541.506	191.81
541.72	222.81
541.934	206.81
542.147	202.81
542.361	201.81
542.575	205.81
542.789	210.81
543.002	203.81
543.216	195.81
543.43	210.81
543.644	206.81
543.857	191.81
544.071	200.81
544.285	203.81
544.498	198.81
544.712	205.81
544.925	203.81
545.139	194.81
545.352	203.81
545.566	185.81
545.779	199.81
545.993	197.81
546.206	221.81
546.42	194.81
546.633	215.81
546.847	206.81
547.06	197.81
547.274	210.81
547.487	202.81
547.7	209.81
547.914	192.81
548.127	213.81
548.34	210.81
548.554	205.81
548.767	208.81
548.98	200.81
549.193	205.81
549.407	177.81
549.62	208.81
549.833	217.81
550.046	193.81
550.259	207.81
550.473	207.81
550.686	216.81
550.899	209.81
551.112	192.81
551.325	198.81
551.538	189.81
551.751	197.81
551.964	203.81
552.177	216.81
552.39	213.81
552.603	196.81
552.816	212.81
553.029	220.81
553.242	210.81
553.455	215.81
553.667	231.81
553.88	216.81
554.093	207.81
554.306	198.81
554.519	199.81
554.732	199.81
554.944	211.81
555.157	200.81
555.37	189.81
555.583	200.81
555.795	182.81
556.008	197.81
556.221	175.81
556.433	186.81
556.646	196.81
556.859	185.81
557.071	184.81
557.284	190.81
557.496	193.81
557.709	193.81
557.921	183.81
558.134	177.81
558.346	190.81
558.559	170.81
558.771	187.81
558.984	173.81
559.196	182.81
559.409	171.81
559.621	185.81
559.833	179.81
560.046	182.81
560.258	187.81
560.47	170.81
560.683	175.81
560.895	167.81
561.107	184.81
561.32	189.81
561.532	176.81
561.744	182.81
561.956	170.81
562.168	170.81
562.381	179.81
562.593	198.81
562.805	199.81
563.017	185.81
563.229	171.81
563.441	174.81
563.653	191.81
563.865	173.81
564.077	157.81
564.289	168.81
564.501	185.81
564.713	192.81
564.925	190.81
565.137	194.81
565.349	210.81
565.561	201.81
565.773	202.81
565.985	213.81
566.197	217.81
566.408	227.81
566.62	242.81
566.832	259.81
567.044	239.81
567.255	258.81
567.467	255.81
567.679	251.81
567.891	279.81
568.102	272.81
568.314	265.81
568.526	237.81
568.737	235.81
568.949	221.81
569.161	200.81
569.372	195.81
569.584	183.81
569.795	182.81
570.007	167.81
570.218	166.81
570.43	200.81
570.641	187.81
570.853	173.81
571.064	173.81
571.276	172.81
571.487	177.81
571.698	182.81
571.91	185.81
572.121	165.81
572.333	166.81
572.544	163.81
572.755	171.81
572.966	162.81
573.178	171.81
573.389	155.81
573.6	166.81
573.811	166.81
574.023	167.81
574.234	150.81
574.445	164.81
574.656	169.81
574.867	170.81
575.078	162.81
575.289	139.81
575.501	145.81
575.712	153.81
575.923	144.81
576.134	165.81
576.345	131.81
576.556	149.81
576.767	151.81
576.978	137.81
577.188	147.81
577.399	157.81
577.61	134.81
577.821	150.81
578.032	157.81
578.243	164.81
578.454	158.81
578.665	149.81
578.875	155.81
579.086	150.81
579.297	139.81
579.508	152.81
579.718	152.81
579.929	153.81
580.14	149.81
580.35	146.81
580.561	140.81
580.772	145.81
580.982	137.81
581.193	149.81
581.403	139.81
581.614	147.81
581.825	137.81
582.035	144.81
582.246	139.81
582.456	129.81
582.667	138.81
582.877	142.81
583.087	151.81
583.298	148.81
583.508	153.81
583.719	134.81
583.929	136.81
584.139	141.81
584.35	137.81
584.56	150.81
584.77	163.81
584.981	143.81
585.191	134.81
585.401	134.81
585.611	148.81
585.821	127.81
586.032	146.81
586.242	145.81
586.452	144.81
586.662	121.81
586.872	140.81
587.082	127.81
587.292	140.81
587.502	141.81
587.713	134.81
587.923	141.81
588.133	133.81
588.343	145.81
588.553	153.81
588.762	150.81
588.972	145.81
589.182	138.81
589.392	129.81
589.602	132.81
589.812	139.81
590.022	131.81
590.232	131.81
590.441	150.81
590.651	135.81
590.861	135.81
591.071	146.81
591.281	133.81
591.49	151.81
591.7	152.81
591.91	135.81
592.119	149.81
592.329	152.81
592.539	165.81
592.748	133.81
592.958	164.81
593.167	137.81
593.377	151.81
593.587	142.81
593.796	141.81
594.006	160.81
594.215	158.81
594.424	159.81
594.634	171.81
594.843	163.81
595.053	170.81
595.262	163.81
595.472	149.81
595.681	153.81
595.89	143.81
596.1	151.81
596.309	146.81
596.518	145.81
596.727	133.81
596.937	129.81
597.146	139.81
597.355	133.81
597.564	150.81
597.774	135.81
597.983	134.81
598.192	134.81
598.401	131.81
598.61	120.81
598.819	132.81
599.028	121.81
599.237	132.81
599.446	133.81
599.655	134.81
599.864	125.81
600.073	147.81
600.282	122.81
600.491	143.81
600.7	151.81
600.909	126.81
601.118	123.81
601.327	136.81
601.536	142.81
601.745	122.81
601.953	129.81
602.162	127.81
602.371	129.81
602.58	135.81
602.789	139.81
602.997	133.81
603.206	133.81
603.415	130.81
603.623	127.81
603.832	134.81
604.041	135.81
604.249	127.81
604.458	126.81
604.666	134.81
604.875	129.81
605.084	123.81
605.292	118.81
605.501	128.81
605.709	125.81
605.918	129.81
606.126	129.81
606.334	126.81
606.543	126.81
606.751	120.81
606.96	115.81
607.168	134.81
607.376	129.81
607.585	125.81
607.793	143.81
608.001	121.81
608.21	123.81
608.418	121.81
608.626	113.81
608.834	134.81
609.043	124.81
609.251	140.81
609.459	121.81
609.667	129.81
609.875	136.81
610.083	123.81
610.291	123.81
610.499	103.81
610.707	103.81
610.916	128.81
611.124	143.81
611.332	143.81
611.54	129.81
611.748	123.81
611.955	136.81
612.163	105.81
612.371	134.81
612.579	132.81
612.787	121.81
612.995	112.81
613.203	129.81
613.411	136.81
613.618	119.81
613.826	131.81
614.034	110.81
614.242	140.81
614.449	121.81
614.657	133.81
614.865	125.81
615.072	131.81
615.28	131.81
615.488	123.81
615.695	110.81
615.903	140.81
616.111	131.81
616.318	134.81
616.526	121.81
616.733	129.81
616.941	125.81
617.148	118.81
617.356	118.81
617.563	139.81
617.771	143.81
617.978	122.81
618.185	135.81
618.393	139.81
618.6	130.81
618.807	127.81
619.015	129.81
619.222	121.81
619.429	109.81
619.637	121.81
619.844	116.81
620.051	119.81
620.258	123.81
620.466	115.81
620.673	131.81
620.88	123.81
621.087	118.81
621.294	107.81
621.501	113.81
621.708	117.81
621.915	125.81
622.122	128.81
622.329	123.81
622.536	126.81
622.743	111.81
622.95	118.81
623.157	104.81
623.364	131.81
623.571	123.81
623.778	128.81
623.985	134.81
624.192	113.81
624.399	121.81
624.606	116.81
624.812	126.81
625.019	113.81
625.226	109.81
625.433	124.81
625.639	124.81
625.846	125.81
626.053	106.81
626.259	103.81
626.466	107.81
626.673	112.81
626.879	113.81
627.086	112.81
627.293	122.81
627.499	119.81
627.706	121.81
627.912	112.81
628.119	112.81
628.325	110.81
628.532	123.81
628.738	114.81
628.945	127.81
629.151	121.81
629.357	126.81
629.564	113.81
629.77	125.81
629.976	111.81
630.183	98.81
630.389	112.81
630.595	102.81
630.802	119.81
631.008	106.81
631.214	113.81
631.42	115.81
631.627	121.81
631.833	111.81
632.039	121.81
632.245	112.81
632.451	106.81
632.657	112.81
632.863	119.81
633.069	107.81
633.275	118.81
633.481	121.81
633.688	113.81
633.893	115.81
634.099	115.81
634.305	96.81
634.511	114.81
634.717	104.81
634.923	118.81
635.129	110.81
635.335	87.81
635.541	106.81
635.747	104.81
635.952	98.81
636.158	110.81
636.364	119.81
636.57	112.81
636.775	119.81
636.981	110.81
637.187	97.81
637.392	95.81
637.598	112.81
637.804	115.81
638.009	119.81
638.215	106.81
638.421	98.81
638.626	105.81
638.832	105.81
639.037	107.81
639.243	93.81
639.448	105.81
639.654	105.81
639.859	108.81
640.065	117.81
640.27	111.81
640.475	112.81
640.681	110.81
640.886	105.81
641.091	96.81
641.297	108.81
641.502	104.81
641.707	101.81
641.913	111.81
642.118	102.81
642.323	109.81
642.528	98.81
642.733	106.81
642.939	115.81
643.144	105.81
643.349	112.81
643.554	106.81
643.759	109.81
643.964	115.81
644.169	113.81
644.374	105.81
644.579	113.81
644.784	92.81
644.989	100.81
645.194	105.81
645.399	98.81
645.604	110.81
645.809	109.81
646.014	105.81
646.219	106.81
646.423	114.81
646.628	102.81
646.833	123.81
647.038	124.81
647.243	101.81
647.447	104.81
647.652	103.81
647.857	109.81
648.062	103.81
648.266	114.81
648.471	107.81
648.676	103.81
648.88	107.81
649.085	120.81
649.289	109.81
649.494	109.81
649.698	113.81
649.903	105.81
650.107	101.81
650.312	112.81
650.516	105.81
650.721	95.81
650.925	104.81
651.13	104.81
651.334	107.81
651.539	102.81
651.743	98.81
651.947	102.81
652.152	113.81
652.356	87.81
652.56	101.81
652.764	103.81
652.969	88.81
653.173	111.81
653.377	111.81
653.581	112.81
653.785	101.81
653.99	110.81
654.194	98.81
654.398	87.81
654.602	98.81
654.806	110.81
655.01	94.81
655.214	102.81
655.418	89.81
655.622	96.81
655.826	89.81
656.03	109.81
656.234	101.81
656.438	98.81
656.642	95.81
656.846	93.81
657.049	104.81
657.253	107.81
657.457	116.81
657.661	118.81
657.865	88.81
658.068	105.81
658.272	100.81
658.476	90.81
658.68	101.81
658.883	84.81
659.087	100.81
659.291	93.81
659.494	89.81
659.698	90.81
659.901	89.81
660.105	92.81
660.309	88.81
660.512	82.81
660.716	89.81
660.919	93.81
661.123	81.81
661.326	82.81
661.53	81.81
661.733	85.81
661.936	85.81
662.14	78.81
662.343	91.81
662.546	79.81
662.75	78.81
662.953	91.81
663.156	79.81
663.36	76.81
663.563	89.81
663.766	79.81
663.969	92.81
664.173	84.81
664.376	78.81
664.579	66.81
664.782	77.81
664.985	81.81
665.188	72.81
665.391	86.81
665.594	85.81
665.797	89.81
666	82.81
666.203	79.81
666.406	75.81
666.609	93.81
666.812	97.81
667.015	90.81
667.218	82.81
667.421	84.81
667.624	76.81
667.827	77.81
668.03	83.81
668.232	79.81
668.435	93.81
668.638	92.81
668.841	82.81
669.043	91.81
669.246	93.81
669.449	86.81
669.651	94.81
669.854	82.81
670.057	75.81
670.259	80.81
670.462	84.81
670.665	91.81
670.867	70.81
671.07	83.81
671.272	88.81
671.475	84.81
671.677	82.81
671.88	73.81
672.082	91.81
672.284	90.81
672.487	90.81
672.689	81.81
672.892	87.81
