Data from Fe(NO3)3@0.0125M.TitratingCurve.Agarose3%dH2O.NegLispCup.LampEnergy10.LIBS07252019_HRD10591_17-01-36-337.txt Node
Date: Thu Jul 25 17:01:36 EDT 2019
User: cochatt
Spectrometer: HR+D1059
Trigger mode: 1
Integration Time (sec): 1.000000E-1
Scans to average: 1
Electric dark correction enabled: true
Nonlinearity correction enabled: false
Boxcar width: 0
XAxis mode: Wavelengths
Number of Pixels in Spectrum: 2048
>>>>>Begin Spectral Data<<<<<
223.165	-4.75
223.4	-4.75
223.635	-4.75
223.869	-9.75
224.104	-28.75
224.338	-24.75
224.573	-11.75
224.808	-15.75
225.042	-11.75
225.277	1.25
225.511	6.25
225.746	10.25
225.98	22.25
226.215	-0.75
226.449	10.25
226.683	21.25
226.918	15.25
227.152	21.25
227.387	29.25
227.621	26.25
227.856	39.25
228.09	46.25
228.324	42.25
228.559	49.25
228.793	59.25
229.027	82.25
229.262	94.25
229.496	80.25
229.73	83.25
229.964	89.25
230.199	79.25
230.433	100.25
230.667	98.25
230.901	94.25
231.136	95.25
231.37	89.25
231.604	104.25
231.838	103.25
232.072	107.25
232.306	96.25
232.541	97.25
232.775	107.25
233.009	104.25
233.243	104.25
233.477	96.25
233.711	101.25
233.945	110.25
234.179	104.25
234.413	109.25
234.647	116.25
234.881	101.25
235.115	109.25
235.349	100.25
235.583	110.25
235.817	103.25
236.051	91.25
236.285	113.25
236.519	111.25
236.753	98.25
236.987	117.25
237.221	101.25
237.455	113.25
237.689	108.25
237.922	110.25
238.156	90.25
238.39	112.25
238.624	99.25
238.858	121.25
239.091	125.25
239.325	112.25
239.559	117.25
239.793	94.25
240.027	111.25
240.26	111.25
240.494	119.25
240.728	106.25
240.961	113.25
241.195	90.25
241.429	110.25
241.662	119.25
241.896	106.25
242.13	109.25
242.363	114.25
242.597	116.25
242.83	122.25
243.064	116.25
243.298	118.25
243.531	120.25
243.765	113.25
243.998	132.25
244.232	114.25
244.465	118.25
244.699	113.25
244.932	121.25
245.166	122.25
245.399	131.25
245.633	123.25
245.866	116.25
246.099	130.25
246.333	122.25
246.566	116.25
246.8	137.25
247.033	135.25
247.266	129.25
247.5	114.25
247.733	129.25
247.966	121.25
248.2	128.25
248.433	121.25
248.666	121.25
248.899	143.25
249.133	130.25
249.366	137.25
249.599	139.25
249.832	126.25
250.066	133.25
250.299	131.25
250.532	135.25
250.765	141.25
250.998	142.25
251.231	130.25
251.465	131.25
251.698	130.25
251.931	124.25
252.164	128.25
252.397	139.25
252.63	155.25
252.863	149.25
253.096	143.25
253.329	152.25
253.562	148.25
253.795	145.25
254.028	143.25
254.261	153.25
254.494	152.25
254.727	137.25
254.96	139.25
255.193	154.25
255.426	146.25
255.659	139.25
255.892	154.25
256.124	157.25
256.357	147.25
256.59	137.25
256.823	157.25
257.056	148.25
257.289	175.25
257.521	154.25
257.754	143.25
257.987	154.25
258.22	156.25
258.452	164.25
258.685	151.25
258.918	141.25
259.151	159.25
259.383	171.25
259.616	170.25
259.849	165.25
260.081	157.25
260.314	163.25
260.547	160.25
260.779	137.25
261.012	160.25
261.244	159.25
261.477	177.25
261.71	153.25
261.942	163.25
262.175	153.25
262.407	177.25
262.64	170.25
262.872	168.25
263.105	157.25
263.337	175.25
263.57	162.25
263.802	161.25
264.035	175.25
264.267	179.25
264.499	166.25
264.732	174.25
264.964	150.25
265.197	159.25
265.429	181.25
265.661	162.25
265.894	181.25
266.126	189.25
266.358	173.25
266.591	152.25
266.823	175.25
267.055	170.25
267.287	183.25
267.52	181.25
267.752	188.25
267.984	162.25
268.216	185.25
268.448	185.25
268.681	180.25
268.913	175.25
269.145	173.25
269.377	181.25
269.609	188.25
269.841	192.25
270.073	199.25
270.306	168.25
270.538	182.25
270.77	189.25
271.002	185.25
271.234	187.25
271.466	182.25
271.698	200.25
271.93	189.25
272.162	206.25
272.394	193.25
272.626	208.25
272.858	177.25
273.09	184.25
273.322	202.25
273.553	189.25
273.785	190.25
274.017	204.25
274.249	218.25
274.481	206.25
274.713	230.25
274.945	209.25
275.176	211.25
275.408	219.25
275.64	203.25
275.872	200.25
276.104	200.25
276.335	220.25
276.567	221.25
276.799	201.25
277.031	212.25
277.262	197.25
277.494	204.25
277.726	220.25
277.957	224.25
278.189	226.25
278.421	219.25
278.652	194.25
278.884	207.25
279.115	197.25
279.347	227.25
279.579	207.25
279.81	209.25
280.042	214.25
280.273	209.25
280.505	213.25
280.736	212.25
280.968	209.25
281.199	221.25
281.431	208.25
281.662	223.25
281.894	215.25
282.125	221.25
282.356	234.25
282.588	222.25
282.819	207.25
283.051	214.25
283.282	218.25
283.513	226.25
283.745	222.25
283.976	240.25
284.207	227.25
284.439	236.25
284.67	223.25
284.901	226.25
285.132	233.25
285.364	243.25
285.595	226.25
285.826	230.25
286.057	230.25
286.288	246.25
286.52	244.25
286.751	243.25
286.982	241.25
287.213	233.25
287.444	212.25
287.675	227.25
287.906	231.25
288.138	225.25
288.369	234.25
288.6	233.25
288.831	237.25
289.062	231.25
289.293	232.25
289.524	233.25
289.755	234.25
289.986	233.25
290.217	226.25
290.448	255.25
290.679	257.25
290.91	240.25
291.141	239.25
291.371	239.25
291.602	261.25
291.833	267.25
292.064	250.25
292.295	250.25
292.526	248.25
292.757	259.25
292.987	238.25
293.218	257.25
293.449	237.25
293.68	250.25
293.91	249.25
294.141	257.25
294.372	268.25
294.603	272.25
294.833	258.25
295.064	272.25
295.295	266.25
295.525	257.25
295.756	245.25
295.987	248.25
296.217	258.25
296.448	246.25
296.679	260.25
296.909	253.25
297.14	267.25
297.37	273.25
297.601	256.25
297.831	267.25
298.062	266.25
298.292	273.25
298.523	274.25
298.753	267.25
298.984	261.25
299.214	266.25
299.445	263.25
299.675	280.25
299.905	273.25
300.136	266.25
300.366	283.25
300.597	293.25
300.827	269.25
301.057	265.25
301.288	277.25
301.518	274.25
301.748	286.25
301.979	295.25
302.209	294.25
302.439	282.25
302.669	286.25
302.9	293.25
303.13	269.25
303.36	293.25
303.59	303.25
303.82	287.25
304.051	268.25
304.281	296.25
304.511	274.25
304.741	281.25
304.971	292.25
305.201	290.25
305.431	289.25
305.661	296.25
305.891	278.25
306.121	296.25
306.352	311.25
306.582	291.25
306.812	303.25
307.042	297.25
307.272	285.25
307.502	289.25
307.731	289.25
307.961	286.25
308.191	295.25
308.421	287.25
308.651	298.25
308.881	292.25
309.111	294.25
309.341	304.25
309.571	279.25
309.8	285.25
310.03	306.25
310.26	299.25
310.49	306.25
310.72	283.25
310.949	295.25
311.179	295.25
311.409	291.25
311.639	309.25
311.868	301.25
312.098	278.25
312.328	313.25
312.557	314.25
312.787	306.25
313.017	285.25
313.246	296.25
313.476	312.25
313.706	313.25
313.935	321.25
314.165	320.25
314.394	323.25
314.624	318.25
314.853	318.25
315.083	322.25
315.312	311.25
315.542	310.25
315.771	313.25
316.001	307.25
316.23	337.25
316.46	330.25
316.689	307.25
316.919	316.25
317.148	328.25
317.377	331.25
317.607	316.25
317.836	323.25
318.065	315.25
318.295	331.25
318.524	335.25
318.753	341.25
318.983	315.25
319.212	327.25
319.441	322.25
319.67	331.25
319.9	337.25
320.129	316.25
320.358	322.25
320.587	337.25
320.816	346.25
321.046	343.25
321.275	344.25
321.504	340.25
321.733	336.25
321.962	338.25
322.191	337.25
322.42	329.25
322.649	330.25
322.878	342.25
323.108	326.25
323.337	341.25
323.566	334.25
323.795	337.25
324.024	372.25
324.253	333.25
324.482	354.25
324.71	338.25
324.939	340.25
325.168	347.25
325.397	346.25
325.626	347.25
325.855	339.25
326.084	345.25
326.313	342.25
326.542	335.25
326.77	365.25
326.999	378.25
327.228	353.25
327.457	349.25
327.686	359.25
327.914	341.25
328.143	343.25
328.372	325.25
328.6	358.25
328.829	361.25
329.058	361.25
329.287	362.25
329.515	358.25
329.744	355.25
329.972	353.25
330.201	374.25
330.43	359.25
330.658	363.25
330.887	369.25
331.115	358.25
331.344	362.25
331.572	369.25
331.801	386.25
332.03	393.25
332.258	393.25
332.486	379.25
332.715	379.25
332.943	389.25
333.172	390.25
333.4	405.25
333.629	405.25
333.857	410.25
334.085	404.25
334.314	436.25
334.542	413.25
334.771	407.25
334.999	426.25
335.227	404.25
335.455	399.25
335.684	411.25
335.912	414.25
336.14	414.25
336.369	396.25
336.597	426.25
336.825	408.25
337.053	385.25
337.281	396.25
337.51	407.25
337.738	403.25
337.966	407.25
338.194	396.25
338.422	404.25
338.65	382.25
338.878	416.25
339.106	382.25
339.334	401.25
339.562	393.25
339.79	389.25
340.018	402.25
340.246	394.25
340.474	368.25
340.702	390.25
340.93	385.25
341.158	398.25
341.386	374.25
341.614	389.25
341.842	387.25
342.07	391.25
342.298	399.25
342.526	368.25
342.754	388.25
342.981	385.25
343.209	374.25
343.437	422.25
343.665	397.25
343.893	419.25
344.12	449.25
344.348	416.25
344.576	405.25
344.804	386.25
345.031	404.25
345.259	391.25
345.487	373.25
345.714	381.25
345.942	386.25
346.17	375.25
346.397	406.25
346.625	385.25
346.853	372.25
347.08	368.25
347.308	385.25
347.535	400.25
347.763	388.25
347.99	379.25
348.218	369.25
348.445	374.25
348.673	377.25
348.9	362.25
349.128	375.25
349.355	385.25
349.583	361.25
349.81	369.25
350.037	371.25
350.265	373.25
350.492	359.25
350.72	359.25
350.947	372.25
351.174	358.25
351.402	381.25
351.629	375.25
351.856	373.25
352.083	355.25
352.311	371.25
352.538	362.25
352.765	357.25
352.992	357.25
353.22	364.25
353.447	375.25
353.674	373.25
353.901	368.25
354.128	355.25
354.355	373.25
354.583	367.25
354.81	376.25
355.037	362.25
355.264	375.25
355.491	345.25
355.718	363.25
355.945	390.25
356.172	366.25
356.399	365.25
356.626	380.25
356.853	394.25
357.08	367.25
357.307	381.25
357.534	373.25
357.761	386.25
357.988	392.25
358.215	387.25
358.441	391.25
358.668	367.25
358.895	375.25
359.122	384.25
359.349	391.25
359.576	364.25
359.802	385.25
360.029	368.25
360.256	367.25
360.483	359.25
360.709	382.25
360.936	391.25
361.163	386.25
361.39	395.25
361.616	367.25
361.843	387.25
362.07	379.25
362.296	378.25
362.523	374.25
362.749	365.25
362.976	387.25
363.203	375.25
363.429	388.25
363.656	385.25
363.882	366.25
364.109	382.25
364.335	401.25
364.562	373.25
364.788	369.25
365.015	393.25
365.241	393.25
365.468	381.25
365.694	386.25
365.92	387.25
366.147	378.25
366.373	385.25
366.599	366.25
366.826	377.25
367.052	363.25
367.278	392.25
367.505	385.25
367.731	387.25
367.957	390.25
368.184	397.25
368.41	386.25
368.636	378.25
368.862	382.25
369.089	381.25
369.315	382.25
369.541	412.25
369.767	392.25
369.993	407.25
370.219	389.25
370.445	396.25
370.672	401.25
370.898	386.25
371.124	388.25
371.35	413.25
371.576	404.25
371.802	414.25
372.028	426.25
372.254	391.25
372.48	411.25
372.706	414.25
372.932	415.25
373.158	396.25
373.384	418.25
373.61	415.25
373.835	431.25
374.061	406.25
374.287	448.25
374.513	431.25
374.739	438.25
374.965	423.25
375.191	425.25
375.416	418.25
375.642	427.25
375.868	414.25
376.094	403.25
376.319	420.25
376.545	413.25
376.771	400.25
376.997	401.25
377.222	398.25
377.448	394.25
377.674	419.25
377.899	429.25
378.125	411.25
378.35	420.25
378.576	407.25
378.802	411.25
379.027	418.25
379.253	427.25
379.478	424.25
379.704	406.25
379.929	407.25
380.155	399.25
380.38	409.25
380.606	416.25
380.831	412.25
381.057	405.25
381.282	398.25
381.507	417.25
381.733	433.25
381.958	416.25
382.184	421.25
382.409	401.25
382.634	416.25
382.86	429.25
383.085	425.25
383.31	430.25
383.535	427.25
383.761	451.25
383.986	436.25
384.211	429.25
384.436	437.25
384.662	423.25
384.887	449.25
385.112	431.25
385.337	462.25
385.562	447.25
385.787	481.25
386.013	457.25
386.238	469.25
386.463	462.25
386.688	439.25
386.913	439.25
387.138	477.25
387.363	495.25
387.588	477.25
387.813	450.25
388.038	453.25
388.263	477.25
388.488	455.25
388.713	474.25
388.938	463.25
389.163	476.25
389.387	469.25
389.612	467.25
389.837	467.25
390.062	462.25
390.287	482.25
390.512	449.25
390.736	470.25
390.961	474.25
391.186	491.25
391.411	486.25
391.636	499.25
391.86	487.25
392.085	510.25
392.31	459.25
392.534	497.25
392.759	485.25
392.984	485.25
393.208	493.25
393.433	505.25
393.658	492.25
393.882	483.25
394.107	494.25
394.331	480.25
394.556	496.25
394.78	486.25
395.005	493.25
395.229	522.25
395.454	503.25
395.678	503.25
395.903	494.25
396.127	513.25
396.352	486.25
396.576	507.25
396.801	499.25
397.025	530.25
397.249	496.25
397.474	512.25
397.698	526.25
397.922	522.25
398.147	518.25
398.371	553.25
398.595	549.25
398.82	553.25
399.044	577.25
399.268	603.25
399.492	615.25
399.717	641.25
399.941	623.25
400.165	634.25
400.389	630.25
400.613	614.25
400.837	578.25
401.062	581.25
401.286	562.25
401.51	550.25
401.734	551.25
401.958	563.25
402.182	543.25
402.406	561.25
402.63	571.25
402.854	564.25
403.078	527.25
403.302	550.25
403.526	565.25
403.75	543.25
403.974	577.25
404.198	553.25
404.422	561.25
404.645	567.25
404.869	570.25
405.093	563.25
405.317	558.25
405.541	563.25
405.765	542.25
405.988	568.25
406.212	576.25
406.436	579.25
406.66	588.25
406.883	603.25
407.107	605.25
407.331	623.25
407.555	613.25
407.778	608.25
408.002	609.25
408.226	599.25
408.449	605.25
408.673	600.25
408.896	600.25
409.12	604.25
409.344	595.25
409.567	571.25
409.791	562.25
410.014	562.25
410.238	583.25
410.461	573.25
410.685	578.25
410.908	548.25
411.132	571.25
411.355	554.25
411.578	564.25
411.802	570.25
412.025	539.25
412.249	563.25
412.472	548.25
412.695	552.25
412.919	543.25
413.142	573.25
413.365	552.25
413.589	563.25
413.812	551.25
414.035	522.25
414.258	559.25
414.482	544.25
414.705	557.25
414.928	544.25
415.151	555.25
415.374	550.25
415.597	549.25
415.821	564.25
416.044	542.25
416.267	534.25
416.49	539.25
416.713	532.25
416.936	539.25
417.159	531.25
417.382	519.25
417.605	516.25
417.828	529.25
418.051	552.25
418.274	526.25
418.497	527.25
418.72	531.25
418.943	532.25
419.166	545.25
419.389	581.25
419.611	558.25
419.834	545.25
420.057	535.25
420.28	526.25
420.503	508.25
420.726	502.25
420.948	519.25
421.171	523.25
421.394	495.25
421.617	521.25
421.839	517.25
422.062	519.25
422.285	495.25
422.507	515.25
422.73	538.25
422.953	503.25
423.175	511.25
423.398	539.25
423.621	513.25
423.843	521.25
424.066	533.25
424.288	504.25
424.511	513.25
424.733	512.25
424.956	502.25
425.178	523.25
425.401	522.25
425.623	515.25
425.846	498.25
426.068	517.25
426.291	508.25
426.513	502.25
426.735	518.25
426.958	502.25
427.18	504.25
427.402	489.25
427.625	510.25
427.847	498.25
428.069	490.25
428.292	497.25
428.514	515.25
428.736	498.25
428.958	490.25
429.181	499.25
429.403	477.25
429.625	498.25
429.847	488.25
430.069	463.25
430.292	482.25
430.514	479.25
430.736	488.25
430.958	498.25
431.18	501.25
431.402	487.25
431.624	499.25
431.846	514.25
432.068	472.25
432.29	501.25
432.512	502.25
432.734	504.25
432.956	498.25
433.178	490.25
433.4	490.25
433.622	481.25
433.844	495.25
434.066	506.25
434.287	505.25
434.509	497.25
434.731	522.25
434.953	511.25
435.175	511.25
435.397	543.25
435.618	539.25
435.84	514.25
436.062	490.25
436.284	503.25
436.505	489.25
436.727	497.25
436.949	501.25
437.17	512.25
437.392	496.25
437.614	484.25
437.835	486.25
438.057	471.25
438.278	477.25
438.5	489.25
438.721	470.25
438.943	479.25
439.165	480.25
439.386	465.25
439.608	490.25
439.829	484.25
440.05	478.25
440.272	485.25
440.493	503.25
440.715	485.25
440.936	501.25
441.158	484.25
441.379	494.25
441.6	511.25
441.822	500.25
442.043	506.25
442.264	516.25
442.486	530.25
442.707	511.25
442.928	520.25
443.149	516.25
443.371	498.25
443.592	494.25
443.813	510.25
444.034	488.25
444.255	522.25
444.476	530.25
444.698	525.25
444.919	532.25
445.14	593.25
445.361	535.25
445.582	530.25
445.803	517.25
446.024	516.25
446.245	513.25
446.466	497.25
446.687	486.25
446.908	475.25
447.129	472.25
447.35	457.25
447.571	467.25
447.792	454.25
448.013	470.25
448.234	474.25
448.455	459.25
448.675	489.25
448.896	449.25
449.117	425.25
449.338	453.25
449.559	464.25
449.779	445.25
450	453.25
450.221	457.25
450.442	439.25
450.662	447.25
450.883	462.25
451.104	449.25
451.324	472.25
451.545	449.25
451.766	432.25
451.986	443.25
452.207	456.25
452.428	425.25
452.648	442.25
452.869	424.25
453.089	447.25
453.31	454.25
453.53	436.25
453.751	424.25
453.971	423.25
454.192	431.25
454.412	429.25
454.633	435.25
454.853	447.25
455.073	423.25
455.294	450.25
455.514	439.25
455.734	426.25
455.955	445.25
456.175	438.25
456.395	434.25
456.616	456.25
456.836	450.25
457.056	452.25
457.276	424.25
457.497	449.25
457.717	435.25
457.937	441.25
458.157	451.25
458.377	439.25
458.598	454.25
458.818	466.25
459.038	460.25
459.258	470.25
459.478	491.25
459.698	497.25
459.918	498.25
460.138	504.25
460.358	517.25
460.578	512.25
460.798	520.25
461.018	517.25
461.238	522.25
461.458	527.25
461.678	527.25
461.898	548.25
462.118	548.25
462.338	547.25
462.558	572.25
462.777	563.25
462.997	587.25
463.217	581.25
463.437	590.25
463.657	574.25
463.876	587.25
464.096	576.25
464.316	579.25
464.536	566.25
464.755	576.25
464.975	564.25
465.195	568.25
465.414	497.25
465.634	493.25
465.854	528.25
466.073	494.25
466.293	509.25
466.512	494.25
466.732	477.25
466.951	483.25
467.171	485.25
467.391	477.25
467.61	484.25
467.829	478.25
468.049	480.25
468.268	456.25
468.488	474.25
468.707	489.25
468.927	493.25
469.146	471.25
469.365	460.25
469.585	462.25
469.804	481.25
470.023	497.25
470.243	455.25
470.462	489.25
470.681	494.25
470.901	486.25
471.12	491.25
471.339	477.25
471.558	474.25
471.777	489.25
471.997	480.25
472.216	466.25
472.435	482.25
472.654	477.25
472.873	485.25
473.092	471.25
473.311	472.25
473.53	487.25
473.749	490.25
473.968	485.25
474.187	471.25
474.406	481.25
474.625	463.25
474.844	482.25
475.063	490.25
475.282	487.25
475.501	486.25
475.72	498.25
475.939	517.25
476.158	503.25
476.377	515.25
476.596	510.25
476.814	518.25
477.033	520.25
477.252	514.25
477.471	523.25
477.69	538.25
477.908	546.25
478.127	562.25
478.346	569.25
478.564	541.25
478.783	556.25
479.002	545.25
479.22	561.25
479.439	575.25
479.658	586.25
479.876	584.25
480.095	574.25
480.313	590.25
480.532	587.25
480.751	589.25
480.969	577.25
481.188	584.25
481.406	603.25
481.624	569.25
481.843	581.25
482.061	575.25
482.28	562.25
482.498	565.25
482.717	561.25
482.935	583.25
483.153	574.25
483.372	561.25
483.59	579.25
483.808	584.25
484.027	570.25
484.245	587.25
484.463	599.25
484.681	586.25
484.9	586.25
485.118	595.25
485.336	601.25
485.554	614.25
485.772	608.25
485.99	589.25
486.209	594.25
486.427	598.25
486.645	574.25
486.863	593.25
487.081	598.25
487.299	619.25
487.517	623.25
487.735	605.25
487.953	583.25
488.171	600.25
488.389	593.25
488.607	597.25
488.825	596.25
489.043	598.25
489.261	587.25
489.479	591.25
489.696	596.25
489.914	599.25
490.132	572.25
490.35	587.25
490.568	579.25
490.786	624.25
491.003	595.25
491.221	595.25
491.439	605.25
491.657	615.25
491.874	621.25
492.092	606.25
492.31	617.25
492.527	627.25
492.745	598.25
492.963	585.25
493.18	580.25
493.398	599.25
493.615	630.25
493.833	626.25
494.05	609.25
494.268	617.25
494.485	638.25
494.703	601.25
494.92	630.25
495.138	616.25
495.355	608.25
495.573	622.25
495.79	649.25
496.008	632.25
496.225	627.25
496.442	663.25
496.66	654.25
496.877	660.25
497.094	652.25
497.312	677.25
497.529	679.25
497.746	697.25
497.963	704.25
498.181	727.25
498.398	768.25
498.615	752.25
498.832	801.25
499.049	807.25
499.267	823.25
499.484	858.25
499.701	891.25
499.918	921.25
500.135	962.25
500.352	1028.25
500.569	1044.25
500.786	997.25
501.003	987.25
501.22	954.25
501.437	936.25
501.654	911.25
501.871	881.25
502.088	812.25
502.305	789.25
502.522	757.25
502.739	754.25
502.956	722.25
503.172	726.25
503.389	714.25
503.606	673.25
503.823	678.25
504.04	671.25
504.256	694.25
504.473	670.25
504.69	663.25
504.907	671.25
505.123	645.25
505.34	618.25
505.557	615.25
505.773	590.25
505.99	589.25
506.207	578.25
506.423	569.25
506.64	571.25
506.856	555.25
507.073	557.25
507.289	545.25
507.506	533.25
507.722	549.25
507.939	547.25
508.155	533.25
508.372	547.25
508.588	542.25
508.805	534.25
509.021	527.25
509.238	535.25
509.454	518.25
509.67	527.25
509.887	514.25
510.103	517.25
510.319	538.25
510.536	509.25
510.752	497.25
510.968	502.25
511.184	516.25
511.401	515.25
511.617	516.25
511.833	504.25
512.049	501.25
512.265	504.25
512.481	480.25
512.698	513.25
512.914	488.25
513.13	514.25
513.346	517.25
513.562	519.25
513.778	520.25
513.994	523.25
514.21	522.25
514.426	494.25
514.642	507.25
514.858	503.25
515.074	494.25
515.29	532.25
515.506	516.25
515.721	549.25
515.937	519.25
516.153	534.25
516.369	519.25
516.585	552.25
516.801	557.25
517.016	550.25
517.232	557.25
517.448	559.25
517.664	569.25
517.879	558.25
518.095	587.25
518.311	581.25
518.527	558.25
518.742	557.25
518.958	556.25
519.173	524.25
519.389	542.25
519.605	536.25
519.82	509.25
520.036	516.25
520.251	516.25
520.467	517.25
520.682	510.25
520.898	487.25
521.113	479.25
521.329	496.25
521.544	517.25
521.76	497.25
521.975	483.25
522.19	485.25
522.406	483.25
522.621	491.25
522.836	489.25
523.052	487.25
523.267	494.25
523.482	475.25
523.698	467.25
523.913	458.25
524.128	479.25
524.343	478.25
524.559	471.25
524.774	464.25
524.989	455.25
525.204	460.25
525.419	448.25
525.634	460.25
525.849	467.25
526.064	456.25
526.28	471.25
526.495	466.25
526.71	444.25
526.925	464.25
527.14	461.25
527.355	451.25
527.57	470.25
527.785	451.25
527.999	455.25
528.214	464.25
528.429	448.25
528.644	466.25
528.859	446.25
529.074	465.25
529.289	439.25
529.503	449.25
529.718	442.25
529.933	432.25
530.148	463.25
530.363	435.25
530.577	444.25
530.792	442.25
531.007	432.25
531.221	439.25
531.436	446.25
531.651	455.25
531.865	438.25
532.08	460.25
532.295	438.25
532.509	448.25
532.724	443.25
532.938	424.25
533.153	452.25
533.367	448.25
533.582	449.25
533.796	429.25
534.011	443.25
534.225	442.25
534.44	437.25
534.654	447.25
534.868	463.25
535.083	457.25
535.297	424.25
535.511	413.25
535.726	421.25
535.94	447.25
536.154	448.25
536.369	441.25
536.583	429.25
536.797	442.25
537.011	419.25
537.225	417.25
537.44	425.25
537.654	436.25
537.868	435.25
538.082	422.25
538.296	440.25
538.51	408.25
538.724	437.25
538.938	441.25
539.153	430.25
539.367	431.25
539.581	434.25
539.795	406.25
540.009	409.25
540.222	406.25
540.436	423.25
540.65	416.25
540.864	440.25
541.078	402.25
541.292	433.25
541.506	427.25
541.72	408.25
541.934	419.25
542.147	426.25
542.361	424.25
542.575	421.25
542.789	418.25
543.002	407.25
543.216	408.25
543.43	416.25
543.644	394.25
543.857	406.25
544.071	395.25
544.285	418.25
544.498	426.25
544.712	421.25
544.925	422.25
545.139	435.25
545.352	421.25
545.566	426.25
545.779	416.25
545.993	417.25
546.206	427.25
546.42	431.25
546.633	407.25
546.847	418.25
547.06	439.25
547.274	420.25
547.487	441.25
547.7	439.25
547.914	414.25
548.127	433.25
548.34	414.25
548.554	411.25
548.767	432.25
548.98	424.25
549.193	441.25
549.407	429.25
549.62	429.25
549.833	425.25
550.046	428.25
550.259	429.25
550.473	401.25
550.686	441.25
550.899	421.25
551.112	425.25
551.325	420.25
551.538	422.25
551.751	405.25
551.964	413.25
552.177	434.25
552.39	433.25
552.603	439.25
552.816	418.25
553.029	401.25
553.242	415.25
553.455	418.25
553.667	413.25
553.88	425.25
554.093	416.25
554.306	411.25
554.519	409.25
554.732	426.25
554.944	396.25
555.157	383.25
555.37	389.25
555.583	399.25
555.795	377.25
556.008	402.25
556.221	383.25
556.433	381.25
556.646	390.25
556.859	378.25
557.071	379.25
557.284	375.25
557.496	367.25
557.709	383.25
557.921	370.25
558.134	358.25
558.346	369.25
558.559	367.25
558.771	365.25
558.984	382.25
559.196	372.25
559.409	373.25
559.621	356.25
559.833	368.25
560.046	375.25
560.258	375.25
560.47	357.25
560.683	377.25
560.895	354.25
561.107	357.25
561.32	376.25
561.532	369.25
561.744	368.25
561.956	362.25
562.168	381.25
562.381	392.25
562.593	368.25
562.805	391.25
563.017	365.25
563.229	359.25
563.441	373.25
563.653	371.25
563.865	387.25
564.077	360.25
564.289	365.25
564.501	370.25
564.713	392.25
564.925	389.25
565.137	375.25
565.349	390.25
565.561	390.25
565.773	385.25
565.985	403.25
566.197	411.25
566.408	423.25
566.62	437.25
566.832	457.25
567.044	461.25
567.255	446.25
567.467	473.25
567.679	465.25
567.891	449.25
568.102	447.25
568.314	444.25
568.526	431.25
568.737	423.25
568.949	410.25
569.161	409.25
569.372	393.25
569.584	388.25
569.795	374.25
570.007	381.25
570.218	378.25
570.43	354.25
570.641	346.25
570.853	358.25
571.064	358.25
571.276	341.25
571.487	351.25
571.698	342.25
571.91	344.25
572.121	340.25
572.333	325.25
572.544	323.25
572.755	312.25
572.966	321.25
573.178	313.25
573.389	311.25
573.6	304.25
573.811	310.25
574.023	302.25
574.234	306.25
574.445	309.25
574.656	286.25
574.867	294.25
575.078	296.25
575.289	310.25
575.501	306.25
575.712	290.25
575.923	293.25
576.134	284.25
576.345	285.25
576.556	296.25
576.767	296.25
576.978	294.25
577.188	297.25
577.399	287.25
577.61	301.25
577.821	305.25
578.032	298.25
578.243	268.25
578.454	287.25
578.665	285.25
578.875	290.25
579.086	272.25
579.297	282.25
579.508	292.25
579.718	282.25
579.929	291.25
580.14	291.25
580.35	279.25
580.561	275.25
580.772	274.25
580.982	270.25
581.193	266.25
581.403	255.25
581.614	270.25
581.825	281.25
582.035	271.25
582.246	257.25
582.456	272.25
582.667	253.25
582.877	293.25
583.087	262.25
583.298	260.25
583.508	255.25
583.719	279.25
583.929	272.25
584.139	275.25
584.35	260.25
584.56	279.25
584.77	255.25
584.981	258.25
585.191	253.25
585.401	257.25
585.611	252.25
585.821	250.25
586.032	251.25
586.242	254.25
586.452	262.25
586.662	273.25
586.872	265.25
587.082	251.25
587.292	230.25
587.502	233.25
587.713	253.25
587.923	234.25
588.133	255.25
588.343	268.25
588.553	253.25
588.762	245.25
588.972	253.25
589.182	298.25
589.392	275.25
589.602	258.25
589.812	289.25
590.022	260.25
590.232	249.25
590.441	256.25
590.651	240.25
590.861	259.25
591.071	278.25
591.281	255.25
591.49	261.25
591.7	243.25
591.91	249.25
592.119	278.25
592.329	263.25
592.539	288.25
592.748	274.25
592.958	275.25
593.167	258.25
593.377	265.25
593.587	268.25
593.796	249.25
594.006	262.25
594.215	253.25
594.424	268.25
594.634	286.25
594.843	274.25
595.053	267.25
595.262	253.25
595.472	267.25
595.681	249.25
595.89	246.25
596.1	256.25
596.309	258.25
596.518	255.25
596.727	239.25
596.937	233.25
597.146	245.25
597.355	234.25
597.564	233.25
597.774	257.25
597.983	237.25
598.192	226.25
598.401	239.25
598.61	233.25
598.819	219.25
599.028	235.25
599.237	231.25
599.446	223.25
599.655	234.25
599.864	232.25
600.073	215.25
600.282	226.25
600.491	231.25
600.7	217.25
600.909	206.25
601.118	227.25
601.327	207.25
601.536	218.25
601.745	211.25
601.953	210.25
602.162	243.25
602.371	232.25
602.58	208.25
602.789	230.25
602.997	225.25
603.206	219.25
603.415	220.25
603.623	211.25
603.832	211.25
604.041	228.25
604.249	201.25
604.458	224.25
604.666	218.25
604.875	213.25
605.084	207.25
605.292	224.25
605.501	211.25
605.709	218.25
605.918	207.25
606.126	213.25
606.334	196.25
606.543	204.25
606.751	208.25
606.96	211.25
607.168	209.25
607.376	210.25
607.585	218.25
607.793	208.25
608.001	214.25
608.21	211.25
608.418	202.25
608.626	205.25
608.834	195.25
609.043	190.25
609.251	207.25
609.459	212.25
609.667	225.25
609.875	217.25
610.083	219.25
610.291	215.25
610.499	208.25
610.707	213.25
610.916	216.25
611.124	199.25
611.332	196.25
611.54	191.25
611.748	200.25
611.955	185.25
612.163	214.25
612.371	207.25
612.579	190.25
612.787	199.25
612.995	213.25
613.203	227.25
613.411	210.25
613.618	196.25
613.826	195.25
614.034	205.25
614.242	207.25
614.449	200.25
614.657	209.25
614.865	213.25
615.072	209.25
615.28	182.25
615.488	199.25
615.695	198.25
615.903	194.25
616.111	187.25
616.318	181.25
616.526	189.25
616.733	199.25
616.941	182.25
617.148	211.25
617.356	192.25
617.563	189.25
617.771	210.25
617.978	183.25
618.185	200.25
618.393	199.25
618.6	203.25
618.807	203.25
619.015	197.25
619.222	202.25
619.429	198.25
619.637	215.25
619.844	190.25
620.051	201.25
620.258	188.25
620.466	183.25
620.673	184.25
620.88	185.25
621.087	188.25
621.294	190.25
621.501	186.25
621.708	187.25
621.915	191.25
622.122	172.25
622.329	195.25
622.536	201.25
622.743	190.25
622.95	182.25
623.157	183.25
623.364	192.25
623.571	179.25
623.778	177.25
623.985	175.25
624.192	181.25
624.399	181.25
624.606	192.25
624.812	183.25
625.019	184.25
625.226	161.25
625.433	189.25
625.639	184.25
625.846	191.25
626.053	187.25
626.259	179.25
626.466	177.25
626.673	182.25
626.879	175.25
627.086	185.25
627.293	169.25
627.499	176.25
627.706	174.25
627.912	197.25
628.119	186.25
628.325	181.25
628.532	176.25
628.738	170.25
628.945	170.25
629.151	176.25
629.357	162.25
629.564	182.25
629.77	178.25
629.976	166.25
630.183	177.25
630.389	185.25
630.595	182.25
630.802	174.25
631.008	158.25
631.214	170.25
631.42	178.25
631.627	175.25
631.833	180.25
632.039	165.25
632.245	164.25
632.451	167.25
632.657	175.25
632.863	183.25
633.069	160.25
633.275	175.25
633.481	163.25
633.688	174.25
633.893	173.25
634.099	149.25
634.305	168.25
634.511	172.25
634.717	164.25
634.923	155.25
635.129	153.25
635.335	163.25
635.541	175.25
635.747	193.25
635.952	176.25
636.158	159.25
636.364	170.25
636.57	163.25
636.775	159.25
636.981	175.25
637.187	161.25
637.392	168.25
637.598	150.25
637.804	156.25
638.009	149.25
638.215	153.25
638.421	151.25
638.626	160.25
638.832	163.25
639.037	166.25
639.243	149.25
639.448	152.25
639.654	151.25
639.859	170.25
640.065	143.25
640.27	168.25
640.475	159.25
640.681	146.25
640.886	147.25
641.091	160.25
641.297	151.25
641.502	161.25
641.707	159.25
641.913	169.25
642.118	151.25
642.323	150.25
642.528	179.25
642.733	161.25
642.939	159.25
643.144	161.25
643.349	156.25
643.554	161.25
643.759	158.25
643.964	154.25
644.169	162.25
644.374	161.25
644.579	161.25
644.784	165.25
644.989	154.25
645.194	161.25
645.399	161.25
645.604	149.25
645.809	154.25
646.014	175.25
646.219	171.25
646.423	162.25
646.628	176.25
646.833	154.25
647.038	157.25
647.243	151.25
647.447	159.25
647.652	167.25
647.857	158.25
648.062	168.25
648.266	169.25
648.471	154.25
648.676	157.25
648.88	149.25
649.085	170.25
649.289	171.25
649.494	173.25
649.698	169.25
649.903	163.25
650.107	157.25
650.312	165.25
650.516	162.25
650.721	177.25
650.925	158.25
651.13	155.25
651.334	155.25
651.539	191.25
651.743	159.25
651.947	149.25
652.152	169.25
652.356	158.25
652.56	139.25
652.764	163.25
652.969	165.25
653.173	149.25
653.377	169.25
653.581	168.25
653.785	169.25
653.99	157.25
654.194	180.25
654.398	177.25
654.602	169.25
654.806	165.25
655.01	171.25
655.214	175.25
655.418	181.25
655.622	177.25
655.826	185.25
656.03	181.25
656.234	188.25
656.438	193.25
656.642	187.25
656.846	195.25
657.049	189.25
657.253	165.25
657.457	158.25
657.661	158.25
657.865	166.25
658.068	143.25
658.272	140.25
658.476	149.25
658.68	123.25
658.883	125.25
659.087	115.25
659.291	115.25
659.494	117.25
659.698	104.25
659.901	110.25
660.105	105.25
660.309	101.25
660.512	118.25
660.716	97.25
660.919	103.25
661.123	98.25
661.326	102.25
661.53	96.25
661.733	99.25
661.936	89.25
662.14	85.25
662.343	98.25
662.546	82.25
662.75	80.25
662.953	92.25
663.156	70.25
663.36	89.25
663.563	79.25
663.766	78.25
663.969	82.25
664.173	80.25
664.376	77.25
664.579	74.25
664.782	81.25
664.985	84.25
665.188	73.25
665.391	88.25
665.594	70.25
665.797	74.25
666	86.25
666.203	71.25
666.406	81.25
666.609	77.25
666.812	74.25
667.015	78.25
667.218	94.25
667.421	88.25
667.624	85.25
667.827	81.25
668.03	78.25
668.232	79.25
668.435	82.25
668.638	91.25
668.841	96.25
669.043	69.25
669.246	79.25
669.449	70.25
669.651	75.25
669.854	67.25
670.057	79.25
670.259	82.25
670.462	73.25
670.665	87.25
670.867	85.25
671.07	84.25
671.272	82.25
671.475	82.25
671.677	77.25
671.88	95.25
672.082	87.25
672.284	79.25
672.487	98.25
672.689	82.25
672.892	75.25
