Data from Fe(NO3)3@0.1M.TitratingCurve.Agarose3%dH2O.NegLispCup.LampEnergy10.LIBS07252019_HRD10591_16-38-15-332.txt Node
Date: Thu Jul 25 16:38:15 EDT 2019
User: cochatt
Spectrometer: HR+D1059
Trigger mode: 1
Integration Time (sec): 1.000000E-1
Scans to average: 1
Electric dark correction enabled: true
Nonlinearity correction enabled: false
Boxcar width: 0
XAxis mode: Wavelengths
Number of Pixels in Spectrum: 2048
>>>>>Begin Spectral Data<<<<<
223.165	-6.5
223.4	-6.5
223.635	-6.5
223.869	-21.5
224.104	-23.5
224.338	-14.5
224.573	-18.5
224.808	-11.5
225.042	2.5
225.277	-1.5
225.511	5.5
225.746	1.5
225.98	1.5
226.215	10.5
226.449	21.5
226.683	16.5
226.918	13.5
227.152	24.5
227.387	23.5
227.621	21.5
227.856	34.5
228.09	37.5
228.324	43.5
228.559	54.5
228.793	60.5
229.027	74.5
229.262	81.5
229.496	88.5
229.73	88.5
229.964	101.5
230.199	101.5
230.433	98.5
230.667	100.5
230.901	90.5
231.136	86.5
231.37	106.5
231.604	101.5
231.838	107.5
232.072	101.5
232.306	89.5
232.541	102.5
232.775	100.5
233.009	113.5
233.243	102.5
233.477	104.5
233.711	104.5
233.945	98.5
234.179	99.5
234.413	105.5
234.647	116.5
234.881	112.5
235.115	121.5
235.349	115.5
235.583	105.5
235.817	100.5
236.051	103.5
236.285	97.5
236.519	105.5
236.753	112.5
236.987	103.5
237.221	105.5
237.455	96.5
237.689	114.5
237.922	116.5
238.156	118.5
238.39	116.5
238.624	112.5
238.858	99.5
239.091	116.5
239.325	102.5
239.559	114.5
239.793	104.5
240.027	122.5
240.26	120.5
240.494	119.5
240.728	123.5
240.961	127.5
241.195	116.5
241.429	130.5
241.662	122.5
241.896	114.5
242.13	124.5
242.363	110.5
242.597	122.5
242.83	122.5
243.064	127.5
243.298	122.5
243.531	122.5
243.765	118.5
243.998	122.5
244.232	108.5
244.465	117.5
244.699	115.5
244.932	118.5
245.166	124.5
245.399	126.5
245.633	134.5
245.866	136.5
246.099	126.5
246.333	124.5
246.566	127.5
246.8	129.5
247.033	129.5
247.266	137.5
247.5	132.5
247.733	148.5
247.966	133.5
248.2	138.5
248.433	140.5
248.666	140.5
248.899	124.5
249.133	137.5
249.366	126.5
249.599	142.5
249.832	133.5
250.066	149.5
250.299	132.5
250.532	127.5
250.765	133.5
250.998	137.5
251.231	136.5
251.465	155.5
251.698	132.5
251.931	134.5
252.164	156.5
252.397	136.5
252.63	153.5
252.863	145.5
253.096	137.5
253.329	136.5
253.562	141.5
253.795	145.5
254.028	150.5
254.261	155.5
254.494	130.5
254.727	140.5
254.96	144.5
255.193	156.5
255.426	156.5
255.659	150.5
255.892	157.5
256.124	147.5
256.357	159.5
256.59	139.5
256.823	161.5
257.056	149.5
257.289	150.5
257.521	162.5
257.754	159.5
257.987	161.5
258.22	159.5
258.452	160.5
258.685	160.5
258.918	161.5
259.151	171.5
259.383	153.5
259.616	164.5
259.849	169.5
260.081	167.5
260.314	161.5
260.547	154.5
260.779	160.5
261.012	168.5
261.244	163.5
261.477	162.5
261.71	170.5
261.942	168.5
262.175	164.5
262.407	162.5
262.64	168.5
262.872	165.5
263.105	163.5
263.337	186.5
263.57	178.5
263.802	174.5
264.035	170.5
264.267	165.5
264.499	174.5
264.732	170.5
264.964	167.5
265.197	157.5
265.429	164.5
265.661	174.5
265.894	160.5
266.126	182.5
266.358	183.5
266.591	174.5
266.823	189.5
267.055	171.5
267.287	178.5
267.52	169.5
267.752	179.5
267.984	169.5
268.216	188.5
268.448	172.5
268.681	161.5
268.913	195.5
269.145	184.5
269.377	182.5
269.609	196.5
269.841	187.5
270.073	179.5
270.306	194.5
270.538	170.5
270.77	173.5
271.002	187.5
271.234	196.5
271.466	185.5
271.698	191.5
271.93	192.5
272.162	185.5
272.394	171.5
272.626	190.5
272.858	182.5
273.09	193.5
273.322	195.5
273.553	205.5
273.785	185.5
274.017	184.5
274.249	208.5
274.481	200.5
274.713	206.5
274.945	205.5
275.176	200.5
275.408	194.5
275.64	194.5
275.872	201.5
276.104	197.5
276.335	213.5
276.567	192.5
276.799	175.5
277.031	199.5
277.262	191.5
277.494	194.5
277.726	217.5
277.957	219.5
278.189	209.5
278.421	200.5
278.652	198.5
278.884	221.5
279.115	207.5
279.347	200.5
279.579	213.5
279.81	222.5
280.042	208.5
280.273	227.5
280.505	219.5
280.736	205.5
280.968	212.5
281.199	213.5
281.431	223.5
281.662	208.5
281.894	218.5
282.125	213.5
282.356	234.5
282.588	206.5
282.819	220.5
283.051	229.5
283.282	224.5
283.513	219.5
283.745	213.5
283.976	212.5
284.207	216.5
284.439	218.5
284.67	222.5
284.901	227.5
285.132	203.5
285.364	231.5
285.595	226.5
285.826	221.5
286.057	223.5
286.288	216.5
286.52	227.5
286.751	239.5
286.982	217.5
287.213	221.5
287.444	221.5
287.675	221.5
287.906	230.5
288.138	241.5
288.369	218.5
288.6	236.5
288.831	222.5
289.062	239.5
289.293	244.5
289.524	234.5
289.755	232.5
289.986	248.5
290.217	210.5
290.448	220.5
290.679	232.5
290.91	230.5
291.141	220.5
291.371	241.5
291.602	227.5
291.833	240.5
292.064	231.5
292.295	244.5
292.526	247.5
292.757	245.5
292.987	232.5
293.218	254.5
293.449	252.5
293.68	220.5
293.91	244.5
294.141	230.5
294.372	236.5
294.603	243.5
294.833	238.5
295.064	228.5
295.295	240.5
295.525	233.5
295.756	250.5
295.987	232.5
296.217	260.5
296.448	240.5
296.679	247.5
296.909	268.5
297.14	250.5
297.37	253.5
297.601	244.5
297.831	243.5
298.062	268.5
298.292	279.5
298.523	268.5
298.753	255.5
298.984	244.5
299.214	276.5
299.445	253.5
299.675	269.5
299.905	262.5
300.136	246.5
300.366	259.5
300.597	259.5
300.827	261.5
301.057	283.5
301.288	256.5
301.518	264.5
301.748	269.5
301.979	258.5
302.209	268.5
302.439	269.5
302.669	273.5
302.9	263.5
303.13	265.5
303.36	265.5
303.59	287.5
303.82	272.5
304.051	270.5
304.281	272.5
304.511	260.5
304.741	269.5
304.971	250.5
305.201	268.5
305.431	255.5
305.661	264.5
305.891	283.5
306.121	262.5
306.352	272.5
306.582	264.5
306.812	255.5
307.042	270.5
307.272	254.5
307.502	264.5
307.731	256.5
307.961	235.5
308.191	254.5
308.421	271.5
308.651	260.5
308.881	253.5
309.111	251.5
309.341	254.5
309.571	267.5
309.8	259.5
310.03	257.5
310.26	270.5
310.49	246.5
310.72	269.5
310.949	267.5
311.179	284.5
311.409	266.5
311.639	264.5
311.868	289.5
312.098	273.5
312.328	285.5
312.557	291.5
312.787	280.5
313.017	271.5
313.246	268.5
313.476	253.5
313.706	273.5
313.935	280.5
314.165	286.5
314.394	259.5
314.624	280.5
314.853	280.5
315.083	292.5
315.312	288.5
315.542	282.5
315.771	271.5
316.001	274.5
316.23	279.5
316.46	275.5
316.689	288.5
316.919	281.5
317.148	289.5
317.377	291.5
317.607	264.5
317.836	284.5
318.065	273.5
318.295	278.5
318.524	274.5
318.753	291.5
318.983	274.5
319.212	277.5
319.441	288.5
319.67	281.5
319.9	289.5
320.129	296.5
320.358	278.5
320.587	274.5
320.816	285.5
321.046	277.5
321.275	280.5
321.504	277.5
321.733	286.5
321.962	275.5
322.191	281.5
322.42	283.5
322.649	277.5
322.878	289.5
323.108	300.5
323.337	283.5
323.566	301.5
323.795	299.5
324.024	281.5
324.253	304.5
324.482	290.5
324.71	301.5
324.939	308.5
325.168	304.5
325.397	301.5
325.626	290.5
325.855	290.5
326.084	307.5
326.313	301.5
326.542	313.5
326.77	316.5
326.999	296.5
327.228	300.5
327.457	312.5
327.686	308.5
327.914	317.5
328.143	315.5
328.372	306.5
328.6	302.5
328.829	306.5
329.058	314.5
329.287	318.5
329.515	320.5
329.744	297.5
329.972	301.5
330.201	320.5
330.43	318.5
330.658	328.5
330.887	333.5
331.115	293.5
331.344	318.5
331.572	322.5
331.801	309.5
332.03	326.5
332.258	338.5
332.486	327.5
332.715	356.5
332.943	351.5
333.172	357.5
333.4	356.5
333.629	380.5
333.857	377.5
334.085	370.5
334.314	376.5
334.542	368.5
334.771	378.5
334.999	371.5
335.227	354.5
335.455	368.5
335.684	372.5
335.912	366.5
336.14	330.5
336.369	359.5
336.597	369.5
336.825	349.5
337.053	338.5
337.281	355.5
337.51	336.5
337.738	349.5
337.966	338.5
338.194	336.5
338.422	336.5
338.65	333.5
338.878	308.5
339.106	335.5
339.334	345.5
339.562	317.5
339.79	324.5
340.018	299.5
340.246	321.5
340.474	306.5
340.702	309.5
340.93	327.5
341.158	322.5
341.386	310.5
341.614	329.5
341.842	291.5
342.07	310.5
342.298	311.5
342.526	301.5
342.754	322.5
342.981	318.5
343.209	310.5
343.437	330.5
343.665	356.5
343.893	344.5
344.12	384.5
344.348	352.5
344.576	337.5
344.804	335.5
345.031	333.5
345.259	332.5
345.487	301.5
345.714	309.5
345.942	301.5
346.17	310.5
346.397	329.5
346.625	312.5
346.853	332.5
347.08	305.5
347.308	298.5
347.535	306.5
347.763	306.5
347.99	320.5
348.218	294.5
348.445	315.5
348.673	308.5
348.9	313.5
349.128	313.5
349.355	309.5
349.583	310.5
349.81	309.5
350.037	315.5
350.265	326.5
350.492	320.5
350.72	290.5
350.947	314.5
351.174	297.5
351.402	280.5
351.629	304.5
351.856	307.5
352.083	296.5
352.311	299.5
352.538	315.5
352.765	298.5
352.992	306.5
353.22	301.5
353.447	286.5
353.674	293.5
353.901	310.5
354.128	300.5
354.355	308.5
354.583	313.5
354.81	313.5
355.037	308.5
355.264	289.5
355.491	311.5
355.718	332.5
355.945	303.5
356.172	293.5
356.399	306.5
356.626	310.5
356.853	322.5
357.08	325.5
357.307	306.5
357.534	297.5
357.761	304.5
357.988	319.5
358.215	314.5
358.441	289.5
358.668	300.5
358.895	294.5
359.122	306.5
359.349	309.5
359.576	299.5
359.802	310.5
360.029	300.5
360.256	309.5
360.483	301.5
360.709	283.5
360.936	317.5
361.163	311.5
361.39	318.5
361.616	307.5
361.843	302.5
362.07	298.5
362.296	281.5
362.523	301.5
362.749	306.5
362.976	315.5
363.203	291.5
363.429	310.5
363.656	302.5
363.882	285.5
364.109	324.5
364.335	316.5
364.562	323.5
364.788	308.5
365.015	333.5
365.241	325.5
365.468	323.5
365.694	315.5
365.92	300.5
366.147	312.5
366.373	292.5
366.599	297.5
366.826	305.5
367.052	318.5
367.278	300.5
367.505	303.5
367.731	310.5
367.957	298.5
368.184	320.5
368.41	302.5
368.636	322.5
368.862	306.5
369.089	306.5
369.315	336.5
369.541	333.5
369.767	327.5
369.993	320.5
370.219	312.5
370.445	313.5
370.672	328.5
370.898	326.5
371.124	354.5
371.35	326.5
371.576	315.5
371.802	326.5
372.028	329.5
372.254	333.5
372.48	341.5
372.706	353.5
372.932	345.5
373.158	333.5
373.384	338.5
373.61	328.5
373.835	354.5
374.061	313.5
374.287	345.5
374.513	329.5
374.739	370.5
374.965	348.5
375.191	369.5
375.416	361.5
375.642	360.5
375.868	344.5
376.094	343.5
376.319	352.5
376.545	336.5
376.771	343.5
376.997	353.5
377.222	349.5
377.448	348.5
377.674	352.5
377.899	338.5
378.125	346.5
378.35	341.5
378.576	339.5
378.802	336.5
379.027	339.5
379.253	349.5
379.478	325.5
379.704	321.5
379.929	335.5
380.155	328.5
380.38	338.5
380.606	358.5
380.831	343.5
381.057	321.5
381.282	354.5
381.507	345.5
381.733	329.5
381.958	333.5
382.184	334.5
382.409	358.5
382.634	369.5
382.86	349.5
383.085	358.5
383.31	356.5
383.535	359.5
383.761	369.5
383.986	377.5
384.211	377.5
384.436	384.5
384.662	381.5
384.887	392.5
385.112	399.5
385.337	384.5
385.562	388.5
385.787	393.5
386.013	405.5
386.238	384.5
386.463	393.5
386.688	393.5
386.913	397.5
387.138	414.5
387.363	394.5
387.588	395.5
387.813	411.5
388.038	378.5
388.263	393.5
388.488	412.5
388.713	384.5
388.938	384.5
389.163	409.5
389.387	396.5
389.612	385.5
389.837	403.5
390.062	403.5
390.287	399.5
390.512	417.5
390.736	381.5
390.961	402.5
391.186	406.5
391.411	428.5
391.636	430.5
391.86	445.5
392.085	442.5
392.31	419.5
392.534	450.5
392.759	433.5
392.984	409.5
393.208	416.5
393.433	420.5
393.658	438.5
393.882	420.5
394.107	424.5
394.331	435.5
394.556	409.5
394.78	434.5
395.005	432.5
395.229	441.5
395.454	440.5
395.678	440.5
395.903	426.5
396.127	428.5
396.352	437.5
396.576	423.5
396.801	432.5
397.025	428.5
397.249	444.5
397.474	445.5
397.698	442.5
397.922	472.5
398.147	452.5
398.371	464.5
398.595	470.5
398.82	513.5
399.044	522.5
399.268	556.5
399.492	605.5
399.717	662.5
399.941	650.5
400.165	604.5
400.389	564.5
400.613	540.5
400.837	523.5
401.062	491.5
401.286	517.5
401.51	503.5
401.734	507.5
401.958	497.5
402.182	494.5
402.406	494.5
402.63	482.5
402.854	512.5
403.078	503.5
403.302	514.5
403.526	542.5
403.75	538.5
403.974	540.5
404.198	528.5
404.422	569.5
404.645	550.5
404.869	542.5
405.093	517.5
405.317	532.5
405.541	544.5
405.765	523.5
405.988	529.5
406.212	525.5
406.436	523.5
406.66	527.5
406.883	560.5
407.107	567.5
407.331	562.5
407.555	596.5
407.778	605.5
408.002	561.5
408.226	590.5
408.449	574.5
408.673	549.5
408.896	539.5
409.12	552.5
409.344	557.5
409.567	547.5
409.791	555.5
410.014	561.5
410.238	552.5
410.461	550.5
410.685	538.5
410.908	522.5
411.132	529.5
411.355	516.5
411.578	528.5
411.802	526.5
412.025	536.5
412.249	520.5
412.472	526.5
412.695	517.5
412.919	503.5
413.142	498.5
413.365	516.5
413.589	518.5
413.812	502.5
414.035	505.5
414.258	484.5
414.482	499.5
414.705	514.5
414.928	523.5
415.151	500.5
415.374	512.5
415.597	488.5
415.821	502.5
416.044	491.5
416.267	494.5
416.49	482.5
416.713	483.5
416.936	508.5
417.159	485.5
417.382	491.5
417.605	497.5
417.828	504.5
418.051	488.5
418.274	490.5
418.497	481.5
418.72	479.5
418.943	494.5
419.166	512.5
419.389	564.5
419.611	546.5
419.834	510.5
420.057	504.5
420.28	512.5
420.503	496.5
420.726	488.5
420.948	486.5
421.171	502.5
421.394	489.5
421.617	468.5
421.839	468.5
422.062	486.5
422.285	480.5
422.507	504.5
422.73	500.5
422.953	484.5
423.175	501.5
423.398	508.5
423.621	513.5
423.843	498.5
424.066	510.5
424.288	486.5
424.511	501.5
424.733	496.5
424.956	489.5
425.178	497.5
425.401	490.5
425.623	490.5
425.846	483.5
426.068	471.5
426.291	471.5
426.513	472.5
426.735	490.5
426.958	476.5
427.18	454.5
427.402	465.5
427.625	450.5
427.847	444.5
428.069	467.5
428.292	451.5
428.514	446.5
428.736	432.5
428.958	462.5
429.181	442.5
429.403	450.5
429.625	438.5
429.847	438.5
430.069	425.5
430.292	457.5
430.514	420.5
430.736	452.5
430.958	436.5
431.18	448.5
431.402	447.5
431.624	457.5
431.846	439.5
432.068	425.5
432.29	447.5
432.512	440.5
432.734	452.5
432.956	433.5
433.178	453.5
433.4	458.5
433.622	447.5
433.844	448.5
434.066	457.5
434.287	457.5
434.509	454.5
434.731	472.5
434.953	484.5
435.175	497.5
435.397	488.5
435.618	455.5
435.84	472.5
436.062	436.5
436.284	469.5
436.505	433.5
436.727	441.5
436.949	435.5
437.17	440.5
437.392	439.5
437.614	427.5
437.835	412.5
438.057	432.5
438.278	421.5
438.5	422.5
438.721	444.5
438.943	439.5
439.165	457.5
439.386	441.5
439.608	450.5
439.829	452.5
440.05	449.5
440.272	446.5
440.493	441.5
440.715	458.5
440.936	464.5
441.158	476.5
441.379	475.5
441.6	478.5
441.822	473.5
442.043	490.5
442.264	479.5
442.486	468.5
442.707	474.5
442.928	476.5
443.149	483.5
443.371	472.5
443.592	486.5
443.813	487.5
444.034	458.5
444.255	491.5
444.476	505.5
444.698	543.5
444.919	551.5
445.14	664.5
445.361	574.5
445.582	470.5
445.803	482.5
446.024	480.5
446.245	489.5
446.466	476.5
446.687	462.5
446.908	443.5
447.129	424.5
447.35	451.5
447.571	442.5
447.792	408.5
448.013	429.5
448.234	445.5
448.455	418.5
448.675	436.5
448.896	412.5
449.117	409.5
449.338	429.5
449.559	424.5
449.779	408.5
450	425.5
450.221	411.5
450.442	416.5
450.662	417.5
450.883	427.5
451.104	426.5
451.324	413.5
451.545	418.5
451.766	408.5
451.986	412.5
452.207	412.5
452.428	405.5
452.648	403.5
452.869	410.5
453.089	382.5
453.31	413.5
453.53	397.5
453.751	397.5
453.971	392.5
454.192	399.5
454.412	393.5
454.633	416.5
454.853	385.5
455.073	384.5
455.294	382.5
455.514	403.5
455.734	392.5
455.955	387.5
456.175	378.5
456.395	388.5
456.616	372.5
456.836	398.5
457.056	380.5
457.276	383.5
457.497	384.5
457.717	391.5
457.937	404.5
458.157	414.5
458.377	419.5
458.598	397.5
458.818	413.5
459.038	426.5
459.258	427.5
459.478	438.5
459.698	461.5
459.918	468.5
460.138	476.5
460.358	476.5
460.578	498.5
460.798	517.5
461.018	490.5
461.238	498.5
461.458	498.5
461.678	516.5
461.898	515.5
462.118	499.5
462.338	536.5
462.558	549.5
462.777	566.5
462.997	591.5
463.217	632.5
463.437	621.5
463.657	588.5
463.876	566.5
464.096	588.5
464.316	582.5
464.536	587.5
464.755	581.5
464.975	523.5
465.195	514.5
465.414	479.5
465.634	489.5
465.854	458.5
466.073	449.5
466.293	444.5
466.512	432.5
466.732	442.5
466.951	440.5
467.171	432.5
467.391	442.5
467.61	426.5
467.829	428.5
468.049	411.5
468.268	402.5
468.488	396.5
468.707	439.5
468.927	421.5
469.146	442.5
469.365	427.5
469.585	426.5
469.804	420.5
470.023	442.5
470.243	420.5
470.462	457.5
470.681	443.5
470.901	451.5
471.12	450.5
471.339	422.5
471.558	443.5
471.777	448.5
471.997	417.5
472.216	427.5
472.435	417.5
472.654	411.5
472.873	394.5
473.092	404.5
473.311	416.5
473.53	416.5
473.749	401.5
473.968	403.5
474.187	402.5
474.406	404.5
474.625	424.5
474.844	434.5
475.063	403.5
475.282	404.5
475.501	409.5
475.72	417.5
475.939	391.5
476.158	410.5
476.377	427.5
476.596	410.5
476.814	424.5
477.033	440.5
477.252	427.5
477.471	451.5
477.69	448.5
477.908	469.5
478.127	469.5
478.346	453.5
478.564	453.5
478.783	461.5
479.002	491.5
479.22	497.5
479.439	509.5
479.658	492.5
479.876	480.5
480.095	500.5
480.313	506.5
480.532	544.5
480.751	530.5
480.969	515.5
481.188	476.5
481.406	482.5
481.624	477.5
481.843	458.5
482.061	464.5
482.28	465.5
482.498	462.5
482.717	440.5
482.935	454.5
483.153	475.5
483.372	436.5
483.59	461.5
483.808	451.5
484.027	470.5
484.245	452.5
484.463	456.5
484.681	466.5
484.9	469.5
485.118	484.5
485.336	487.5
485.554	482.5
485.772	491.5
485.99	476.5
486.209	485.5
486.427	481.5
486.645	464.5
486.863	477.5
487.081	480.5
487.299	469.5
487.517	473.5
487.735	481.5
487.953	484.5
488.171	473.5
488.389	485.5
488.607	459.5
488.825	463.5
489.043	472.5
489.261	468.5
489.479	481.5
489.696	453.5
489.914	481.5
490.132	481.5
490.35	493.5
490.568	483.5
490.786	482.5
491.003	505.5
491.221	494.5
491.439	491.5
491.657	500.5
491.874	472.5
492.092	497.5
492.31	509.5
492.527	490.5
492.745	491.5
492.963	506.5
493.18	504.5
493.398	499.5
493.615	499.5
493.833	497.5
494.05	514.5
494.268	517.5
494.485	520.5
494.703	510.5
494.92	504.5
495.138	507.5
495.355	522.5
495.573	496.5
495.79	513.5
496.008	491.5
496.225	522.5
496.442	507.5
496.66	538.5
496.877	546.5
497.094	573.5
497.312	554.5
497.529	567.5
497.746	580.5
497.963	582.5
498.181	604.5
498.398	629.5
498.615	675.5
498.832	686.5
499.049	752.5
499.267	785.5
499.484	856.5
499.701	893.5
499.918	986.5
500.135	1084.5
500.352	1172.5
500.569	1230.5
500.786	1197.5
501.003	1173.5
501.22	1047.5
501.437	956.5
501.654	876.5
501.871	807.5
502.088	768.5
502.305	715.5
502.522	688.5
502.739	676.5
502.956	667.5
503.172	608.5
503.389	588.5
503.606	587.5
503.823	592.5
504.04	573.5
504.256	571.5
504.473	585.5
504.69	596.5
504.907	571.5
505.123	545.5
505.34	536.5
505.557	517.5
505.773	510.5
505.99	499.5
506.207	503.5
506.423	471.5
506.64	460.5
506.856	451.5
507.073	470.5
507.289	470.5
507.506	459.5
507.722	444.5
507.939	433.5
508.155	434.5
508.372	462.5
508.588	449.5
508.805	436.5
509.021	437.5
509.238	409.5
509.454	431.5
509.67	429.5
509.887	419.5
510.103	424.5
510.319	425.5
510.536	411.5
510.752	407.5
510.968	430.5
511.184	422.5
511.401	416.5
511.617	411.5
511.833	429.5
512.049	415.5
512.265	407.5
512.481	419.5
512.698	399.5
512.914	426.5
513.13	392.5
513.346	395.5
513.562	401.5
513.778	412.5
513.994	415.5
514.21	421.5
514.426	425.5
514.642	418.5
514.858	440.5
515.074	432.5
515.29	424.5
515.506	443.5
515.721	455.5
515.937	446.5
516.153	445.5
516.369	453.5
516.585	469.5
516.801	464.5
517.016	492.5
517.232	508.5
517.448	520.5
517.664	536.5
517.879	523.5
518.095	515.5
518.311	534.5
518.527	485.5
518.742	503.5
518.958	492.5
519.173	469.5
519.389	457.5
519.605	444.5
519.82	439.5
520.036	457.5
520.251	411.5
520.467	407.5
520.682	428.5
520.898	417.5
521.113	432.5
521.329	379.5
521.544	393.5
521.76	411.5
521.975	407.5
522.19	404.5
522.406	400.5
522.621	411.5
522.836	405.5
523.052	408.5
523.267	396.5
523.482	405.5
523.698	385.5
523.913	386.5
524.128	403.5
524.343	381.5
524.559	410.5
524.774	410.5
524.989	385.5
525.204	390.5
525.419	387.5
525.634	370.5
525.849	368.5
526.064	390.5
526.28	381.5
526.495	376.5
526.71	362.5
526.925	386.5
527.14	383.5
527.355	380.5
527.57	384.5
527.785	373.5
527.999	383.5
528.214	390.5
528.429	382.5
528.644	382.5
528.859	371.5
529.074	398.5
529.289	406.5
529.503	387.5
529.718	376.5
529.933	371.5
530.148	380.5
530.363	388.5
530.577	387.5
530.792	376.5
531.007	369.5
531.221	387.5
531.436	376.5
531.651	406.5
531.865	364.5
532.08	380.5
532.295	385.5
532.509	370.5
532.724	369.5
532.938	362.5
533.153	380.5
533.367	376.5
533.582	364.5
533.796	374.5
534.011	355.5
534.225	383.5
534.44	385.5
534.654	373.5
534.868	385.5
535.083	391.5
535.297	365.5
535.511	368.5
535.726	380.5
535.94	360.5
536.154	355.5
536.369	357.5
536.583	361.5
536.797	362.5
537.011	364.5
537.225	349.5
537.44	329.5
537.654	339.5
537.868	371.5
538.082	347.5
538.296	363.5
538.51	361.5
538.724	372.5
538.938	365.5
539.153	348.5
539.367	326.5
539.581	346.5
539.795	334.5
540.009	339.5
540.222	334.5
540.436	348.5
540.65	351.5
540.864	369.5
541.078	345.5
541.292	352.5
541.506	343.5
541.72	352.5
541.934	376.5
542.147	361.5
542.361	355.5
542.575	353.5
542.789	348.5
543.002	328.5
543.216	331.5
543.43	355.5
543.644	346.5
543.857	337.5
544.071	350.5
544.285	346.5
544.498	353.5
544.712	335.5
544.925	368.5
545.139	334.5
545.352	357.5
545.566	348.5
545.779	345.5
545.993	370.5
546.206	361.5
546.42	358.5
546.633	360.5
546.847	342.5
547.06	353.5
547.274	332.5
547.487	366.5
547.7	360.5
547.914	348.5
548.127	362.5
548.34	363.5
548.554	360.5
548.767	349.5
548.98	362.5
549.193	361.5
549.407	369.5
549.62	366.5
549.833	349.5
550.046	367.5
550.259	345.5
550.473	336.5
550.686	353.5
550.899	341.5
551.112	347.5
551.325	333.5
551.538	351.5
551.751	332.5
551.964	348.5
552.177	349.5
552.39	346.5
552.603	371.5
552.816	366.5
553.029	348.5
553.242	365.5
553.455	379.5
553.667	376.5
553.88	396.5
554.093	349.5
554.306	340.5
554.519	356.5
554.732	361.5
554.944	360.5
555.157	345.5
555.37	335.5
555.583	328.5
555.795	339.5
556.008	315.5
556.221	305.5
556.433	316.5
556.646	300.5
556.859	326.5
557.071	291.5
557.284	312.5
557.496	304.5
557.709	304.5
557.921	314.5
558.134	320.5
558.346	323.5
558.559	300.5
558.771	312.5
558.984	306.5
559.196	291.5
559.409	318.5
559.621	307.5
559.833	306.5
560.046	292.5
560.258	311.5
560.47	306.5
560.683	301.5
560.895	274.5
561.107	309.5
561.32	282.5
561.532	304.5
561.744	300.5
561.956	282.5
562.168	289.5
562.381	293.5
562.593	306.5
562.805	323.5
563.017	309.5
563.229	315.5
563.441	301.5
563.653	326.5
563.865	297.5
564.077	315.5
564.289	324.5
564.501	310.5
564.713	331.5
564.925	330.5
565.137	333.5
565.349	332.5
565.561	339.5
565.773	342.5
565.985	350.5
566.197	349.5
566.408	379.5
566.62	400.5
566.832	422.5
567.044	438.5
567.255	439.5
567.467	452.5
567.679	438.5
567.891	492.5
568.102	504.5
568.314	478.5
568.526	449.5
568.737	402.5
568.949	377.5
569.161	344.5
569.372	343.5
569.584	331.5
569.795	308.5
570.007	306.5
570.218	309.5
570.43	326.5
570.641	307.5
570.853	292.5
571.064	308.5
571.276	297.5
571.487	294.5
571.698	283.5
571.91	289.5
572.121	286.5
572.333	269.5
572.544	268.5
572.755	264.5
572.966	273.5
573.178	248.5
573.389	266.5
573.6	266.5
573.811	288.5
574.023	248.5
574.234	268.5
574.445	277.5
574.656	265.5
574.867	268.5
575.078	274.5
575.289	268.5
575.501	268.5
575.712	242.5
575.923	246.5
576.134	246.5
576.345	243.5
576.556	232.5
576.767	235.5
576.978	248.5
577.188	230.5
577.399	236.5
577.61	225.5
577.821	238.5
578.032	229.5
578.243	228.5
578.454	249.5
578.665	247.5
578.875	222.5
579.086	242.5
579.297	235.5
579.508	244.5
579.718	229.5
579.929	216.5
580.14	225.5
580.35	228.5
580.561	214.5
580.772	230.5
580.982	215.5
581.193	200.5
581.403	240.5
581.614	224.5
581.825	228.5
582.035	244.5
582.246	217.5
582.456	218.5
582.667	219.5
582.877	222.5
583.087	226.5
583.298	226.5
583.508	204.5
583.719	214.5
583.929	228.5
584.139	210.5
584.35	233.5
584.56	208.5
584.77	214.5
584.981	212.5
585.191	229.5
585.401	220.5
585.611	200.5
585.821	217.5
586.032	214.5
586.242	220.5
586.452	218.5
586.662	215.5
586.872	211.5
587.082	214.5
587.292	218.5
587.502	202.5
587.713	223.5
587.923	213.5
588.133	197.5
588.343	218.5
588.553	236.5
588.762	204.5
588.972	195.5
589.182	226.5
589.392	219.5
589.602	227.5
589.812	216.5
590.022	222.5
590.232	218.5
590.441	216.5
590.651	209.5
590.861	215.5
591.071	221.5
591.281	211.5
591.49	220.5
591.7	220.5
591.91	224.5
592.119	232.5
592.329	221.5
592.539	220.5
592.748	240.5
592.958	237.5
593.167	264.5
593.377	250.5
593.587	262.5
593.796	243.5
594.006	240.5
594.215	245.5
594.424	248.5
594.634	235.5
594.843	238.5
595.053	243.5
595.262	232.5
595.472	241.5
595.681	223.5
595.89	226.5
596.1	209.5
596.309	204.5
596.518	209.5
596.727	213.5
596.937	200.5
597.146	206.5
597.355	204.5
597.564	181.5
597.774	196.5
597.983	192.5
598.192	205.5
598.401	202.5
598.61	183.5
598.819	180.5
599.028	189.5
599.237	187.5
599.446	182.5
599.655	204.5
599.864	183.5
600.073	194.5
600.282	175.5
600.491	197.5
600.7	202.5
600.909	171.5
601.118	186.5
601.327	171.5
601.536	170.5
601.745	195.5
601.953	171.5
602.162	187.5
602.371	188.5
602.58	164.5
602.789	174.5
602.997	188.5
603.206	191.5
603.415	198.5
603.623	183.5
603.832	178.5
604.041	175.5
604.249	167.5
604.458	186.5
604.666	167.5
604.875	170.5
605.084	176.5
605.292	167.5
605.501	177.5
605.709	174.5
605.918	170.5
606.126	185.5
606.334	173.5
606.543	176.5
606.751	191.5
606.96	173.5
607.168	192.5
607.376	188.5
607.585	178.5
607.793	178.5
608.001	164.5
608.21	161.5
608.418	167.5
608.626	169.5
608.834	166.5
609.043	181.5
609.251	175.5
609.459	186.5
609.667	155.5
609.875	189.5
610.083	177.5
610.291	172.5
610.499	173.5
610.707	171.5
610.916	168.5
611.124	182.5
611.332	161.5
611.54	176.5
611.748	182.5
611.955	172.5
612.163	167.5
612.371	170.5
612.579	173.5
612.787	177.5
612.995	178.5
613.203	172.5
613.411	165.5
613.618	180.5
613.826	166.5
614.034	158.5
614.242	164.5
614.449	179.5
614.657	156.5
614.865	194.5
615.072	182.5
615.28	171.5
615.488	176.5
615.695	177.5
615.903	169.5
616.111	170.5
616.318	173.5
616.526	164.5
616.733	188.5
616.941	185.5
617.148	165.5
617.356	178.5
617.563	177.5
617.771	166.5
617.978	164.5
618.185	165.5
618.393	166.5
618.6	165.5
618.807	152.5
619.015	169.5
619.222	178.5
619.429	165.5
619.637	168.5
619.844	153.5
620.051	164.5
620.258	172.5
620.466	155.5
620.673	164.5
620.88	148.5
621.087	175.5
621.294	174.5
621.501	160.5
621.708	159.5
621.915	160.5
622.122	167.5
622.329	162.5
622.536	162.5
622.743	150.5
622.95	154.5
623.157	164.5
623.364	160.5
623.571	150.5
623.778	164.5
623.985	171.5
624.192	150.5
624.399	161.5
624.606	168.5
624.812	154.5
625.019	149.5
625.226	154.5
625.433	160.5
625.639	154.5
625.846	153.5
626.053	147.5
626.259	148.5
626.466	139.5
626.673	162.5
626.879	154.5
627.086	136.5
627.293	149.5
627.499	136.5
627.706	158.5
627.912	148.5
628.119	151.5
628.325	157.5
628.532	142.5
628.738	164.5
628.945	140.5
629.151	140.5
629.357	147.5
629.564	146.5
629.77	162.5
629.976	139.5
630.183	150.5
630.389	139.5
630.595	142.5
630.802	151.5
631.008	156.5
631.214	140.5
631.42	138.5
631.627	155.5
631.833	134.5
632.039	133.5
632.245	142.5
632.451	133.5
632.657	148.5
632.863	156.5
633.069	141.5
633.275	146.5
633.481	133.5
633.688	130.5
633.893	145.5
634.099	128.5
634.305	139.5
634.511	132.5
634.717	134.5
634.923	135.5
635.129	136.5
635.335	141.5
635.541	131.5
635.747	133.5
635.952	138.5
636.158	126.5
636.364	140.5
636.57	137.5
636.775	147.5
636.981	144.5
637.187	133.5
637.392	133.5
637.598	141.5
637.804	136.5
638.009	130.5
638.215	138.5
638.421	139.5
638.626	122.5
638.832	137.5
639.037	132.5
639.243	143.5
639.448	149.5
639.654	133.5
639.859	116.5
640.065	124.5
640.27	122.5
640.475	137.5
640.681	141.5
640.886	125.5
641.091	140.5
641.297	122.5
641.502	124.5
641.707	134.5
641.913	135.5
642.118	127.5
642.323	134.5
642.528	126.5
642.733	133.5
642.939	122.5
643.144	134.5
643.349	117.5
643.554	122.5
643.759	126.5
643.964	124.5
644.169	131.5
644.374	134.5
644.579	127.5
644.784	118.5
644.989	129.5
645.194	125.5
645.399	136.5
645.604	136.5
645.809	142.5
646.014	151.5
646.219	134.5
646.423	132.5
646.628	133.5
646.833	127.5
647.038	123.5
647.243	139.5
647.447	147.5
647.652	128.5
647.857	113.5
648.062	126.5
648.266	128.5
648.471	136.5
648.676	141.5
648.88	134.5
649.085	139.5
649.289	141.5
649.494	129.5
649.698	128.5
649.903	128.5
650.107	130.5
650.312	124.5
650.516	115.5
650.721	125.5
650.925	119.5
651.13	128.5
651.334	123.5
651.539	129.5
651.743	123.5
651.947	124.5
652.152	115.5
652.356	126.5
652.56	125.5
652.764	117.5
652.969	119.5
653.173	130.5
653.377	123.5
653.581	112.5
653.785	110.5
653.99	121.5
654.194	122.5
654.398	112.5
654.602	116.5
654.806	102.5
655.01	120.5
655.214	123.5
655.418	112.5
655.622	119.5
655.826	107.5
656.03	114.5
656.234	109.5
656.438	124.5
656.642	110.5
656.846	114.5
657.049	109.5
657.253	108.5
657.457	116.5
657.661	98.5
657.865	114.5
658.068	97.5
658.272	109.5
658.476	97.5
658.68	104.5
658.883	85.5
659.087	97.5
659.291	96.5
659.494	98.5
659.698	96.5
659.901	95.5
660.105	97.5
660.309	83.5
660.512	98.5
660.716	85.5
660.919	85.5
661.123	85.5
661.326	96.5
661.53	88.5
661.733	99.5
661.936	91.5
662.14	81.5
662.343	89.5
662.546	82.5
662.75	74.5
662.953	84.5
663.156	97.5
663.36	93.5
663.563	86.5
663.766	67.5
663.969	82.5
664.173	83.5
664.376	77.5
664.579	83.5
664.782	84.5
664.985	81.5
665.188	73.5
665.391	79.5
665.594	75.5
665.797	97.5
666	94.5
666.203	77.5
666.406	83.5
666.609	85.5
666.812	72.5
667.015	77.5
667.218	80.5
667.421	73.5
667.624	77.5
667.827	82.5
668.03	76.5
668.232	79.5
668.435	90.5
668.638	86.5
668.841	87.5
669.043	77.5
669.246	89.5
669.449	88.5
669.651	79.5
669.854	82.5
670.057	78.5
670.259	80.5
670.462	83.5
670.665	82.5
670.867	100.5
671.07	78.5
671.272	91.5
671.475	97.5
671.677	86.5
671.88	86.5
672.082	87.5
672.284	86.5
672.487	79.5
672.689	82.5
672.892	90.5
