Data from Fe(NO3)3@0.05M.TitratingCurve.Agarose3%dH2O.NegLispCup.LampEnergy10.LIBS07252019_HRD10591_16-47-33-334.txt Node
Date: Thu Jul 25 16:47:33 EDT 2019
User: cochatt
Spectrometer: HR+D1059
Trigger mode: 1
Integration Time (sec): 1.000000E-1
Scans to average: 1
Electric dark correction enabled: true
Nonlinearity correction enabled: false
Boxcar width: 0
XAxis mode: Wavelengths
Number of Pixels in Spectrum: 2048
>>>>>Begin Spectral Data<<<<<
223.165	-1.44
223.4	-1.44
223.635	-1.44
223.869	-22.44
224.104	-20.44
224.338	-12.44
224.573	-16.44
224.808	-8.44
225.042	-20.44
225.277	-0.44
225.511	6.56
225.746	-1.44
225.98	-9.44
226.215	20.56
226.449	25.56
226.683	16.56
226.918	27.56
227.152	16.56
227.387	38.56
227.621	37.56
227.856	45.56
228.09	51.56
228.324	53.56
228.559	58.56
228.793	62.56
229.027	86.56
229.262	80.56
229.496	77.56
229.73	84.56
229.964	101.56
230.199	79.56
230.433	93.56
230.667	87.56
230.901	96.56
231.136	92.56
231.37	87.56
231.604	99.56
231.838	104.56
232.072	98.56
232.306	91.56
232.541	98.56
232.775	96.56
233.009	115.56
233.243	98.56
233.477	107.56
233.711	115.56
233.945	106.56
234.179	107.56
234.413	111.56
234.647	119.56
234.881	103.56
235.115	109.56
235.349	119.56
235.583	118.56
235.817	93.56
236.051	96.56
236.285	128.56
236.519	103.56
236.753	94.56
236.987	101.56
237.221	130.56
237.455	108.56
237.689	109.56
237.922	110.56
238.156	106.56
238.39	109.56
238.624	118.56
238.858	118.56
239.091	123.56
239.325	107.56
239.559	119.56
239.793	112.56
240.027	125.56
240.26	119.56
240.494	123.56
240.728	122.56
240.961	117.56
241.195	122.56
241.429	107.56
241.662	120.56
241.896	112.56
242.13	130.56
242.363	104.56
242.597	127.56
242.83	120.56
243.064	124.56
243.298	133.56
243.531	124.56
243.765	127.56
243.998	128.56
244.232	118.56
244.465	118.56
244.699	140.56
244.932	124.56
245.166	124.56
245.399	131.56
245.633	138.56
245.866	118.56
246.099	129.56
246.333	117.56
246.566	126.56
246.8	132.56
247.033	136.56
247.266	122.56
247.5	127.56
247.733	135.56
247.966	139.56
248.2	125.56
248.433	124.56
248.666	143.56
248.899	136.56
249.133	135.56
249.366	149.56
249.599	139.56
249.832	148.56
250.066	138.56
250.299	145.56
250.532	142.56
250.765	114.56
250.998	128.56
251.231	141.56
251.465	141.56
251.698	140.56
251.931	154.56
252.164	146.56
252.397	149.56
252.63	149.56
252.863	144.56
253.096	144.56
253.329	153.56
253.562	156.56
253.795	164.56
254.028	166.56
254.261	153.56
254.494	144.56
254.727	150.56
254.96	150.56
255.193	148.56
255.426	153.56
255.659	138.56
255.892	151.56
256.124	147.56
256.357	162.56
256.59	156.56
256.823	161.56
257.056	156.56
257.289	144.56
257.521	146.56
257.754	159.56
257.987	155.56
258.22	167.56
258.452	143.56
258.685	166.56
258.918	169.56
259.151	163.56
259.383	154.56
259.616	150.56
259.849	168.56
260.081	183.56
260.314	208.56
260.547	174.56
260.779	155.56
261.012	173.56
261.244	169.56
261.477	186.56
261.71	166.56
261.942	161.56
262.175	175.56
262.407	154.56
262.64	152.56
262.872	185.56
263.105	206.56
263.337	165.56
263.57	165.56
263.802	170.56
264.035	154.56
264.267	166.56
264.499	165.56
264.732	160.56
264.964	168.56
265.197	157.56
265.429	161.56
265.661	171.56
265.894	162.56
266.126	175.56
266.358	192.56
266.591	174.56
266.823	182.56
267.055	192.56
267.287	178.56
267.52	185.56
267.752	165.56
267.984	178.56
268.216	164.56
268.448	186.56
268.681	171.56
268.913	171.56
269.145	192.56
269.377	177.56
269.609	171.56
269.841	178.56
270.073	178.56
270.306	191.56
270.538	178.56
270.77	186.56
271.002	186.56
271.234	182.56
271.466	187.56
271.698	173.56
271.93	206.56
272.162	194.56
272.394	187.56
272.626	184.56
272.858	187.56
273.09	219.56
273.322	191.56
273.553	194.56
273.785	213.56
274.017	215.56
274.249	205.56
274.481	218.56
274.713	205.56
274.945	230.56
275.176	243.56
275.408	220.56
275.64	202.56
275.872	232.56
276.104	201.56
276.335	194.56
276.567	196.56
276.799	199.56
277.031	194.56
277.262	204.56
277.494	203.56
277.726	201.56
277.957	204.56
278.189	208.56
278.421	195.56
278.652	194.56
278.884	210.56
279.115	190.56
279.347	211.56
279.579	207.56
279.81	221.56
280.042	214.56
280.273	205.56
280.505	233.56
280.736	205.56
280.968	206.56
281.199	208.56
281.431	221.56
281.662	215.56
281.894	236.56
282.125	228.56
282.356	205.56
282.588	224.56
282.819	217.56
283.051	218.56
283.282	211.56
283.513	223.56
283.745	202.56
283.976	214.56
284.207	201.56
284.439	231.56
284.67	228.56
284.901	231.56
285.132	221.56
285.364	224.56
285.595	222.56
285.826	224.56
286.057	226.56
286.288	235.56
286.52	240.56
286.751	234.56
286.982	226.56
287.213	234.56
287.444	230.56
287.675	236.56
287.906	226.56
288.138	228.56
288.369	232.56
288.6	240.56
288.831	245.56
289.062	234.56
289.293	231.56
289.524	235.56
289.755	230.56
289.986	243.56
290.217	215.56
290.448	230.56
290.679	228.56
290.91	239.56
291.141	247.56
291.371	228.56
291.602	226.56
291.833	218.56
292.064	229.56
292.295	243.56
292.526	224.56
292.757	255.56
292.987	244.56
293.218	236.56
293.449	242.56
293.68	237.56
293.91	233.56
294.141	234.56
294.372	237.56
294.603	243.56
294.833	241.56
295.064	269.56
295.295	237.56
295.525	248.56
295.756	232.56
295.987	225.56
296.217	233.56
296.448	225.56
296.679	251.56
296.909	240.56
297.14	266.56
297.37	264.56
297.601	261.56
297.831	245.56
298.062	250.56
298.292	275.56
298.523	264.56
298.753	259.56
298.984	269.56
299.214	280.56
299.445	263.56
299.675	280.56
299.905	266.56
300.136	267.56
300.366	249.56
300.597	264.56
300.827	261.56
301.057	262.56
301.288	250.56
301.518	276.56
301.748	280.56
301.979	277.56
302.209	277.56
302.439	286.56
302.669	275.56
302.9	268.56
303.13	259.56
303.36	268.56
303.59	273.56
303.82	264.56
304.051	266.56
304.281	273.56
304.511	282.56
304.741	272.56
304.971	264.56
305.201	267.56
305.431	274.56
305.661	260.56
305.891	271.56
306.121	273.56
306.352	249.56
306.582	258.56
306.812	265.56
307.042	274.56
307.272	271.56
307.502	267.56
307.731	293.56
307.961	264.56
308.191	258.56
308.421	259.56
308.651	269.56
308.881	270.56
309.111	247.56
309.341	254.56
309.571	278.56
309.8	265.56
310.03	287.56
310.26	270.56
310.49	256.56
310.72	275.56
310.949	284.56
311.179	279.56
311.409	263.56
311.639	269.56
311.868	273.56
312.098	287.56
312.328	279.56
312.557	278.56
312.787	263.56
313.017	276.56
313.246	266.56
313.476	288.56
313.706	274.56
313.935	271.56
314.165	281.56
314.394	286.56
314.624	272.56
314.853	286.56
315.083	290.56
315.312	280.56
315.542	279.56
315.771	280.56
316.001	282.56
316.23	284.56
316.46	290.56
316.689	298.56
316.919	262.56
317.148	284.56
317.377	279.56
317.607	275.56
317.836	271.56
318.065	274.56
318.295	278.56
318.524	287.56
318.753	283.56
318.983	283.56
319.212	307.56
319.441	298.56
319.67	295.56
319.9	300.56
320.129	289.56
320.358	301.56
320.587	290.56
320.816	290.56
321.046	306.56
321.275	298.56
321.504	306.56
321.733	295.56
321.962	288.56
322.191	309.56
322.42	287.56
322.649	298.56
322.878	308.56
323.108	293.56
323.337	295.56
323.566	299.56
323.795	296.56
324.024	298.56
324.253	295.56
324.482	295.56
324.71	292.56
324.939	301.56
325.168	296.56
325.397	316.56
325.626	298.56
325.855	302.56
326.084	314.56
326.313	300.56
326.542	310.56
326.77	305.56
326.999	299.56
327.228	290.56
327.457	311.56
327.686	303.56
327.914	305.56
328.143	331.56
328.372	319.56
328.6	333.56
328.829	303.56
329.058	327.56
329.287	295.56
329.515	302.56
329.744	304.56
329.972	302.56
330.201	318.56
330.43	297.56
330.658	308.56
330.887	314.56
331.115	323.56
331.344	332.56
331.572	339.56
331.801	324.56
332.03	333.56
332.258	327.56
332.486	362.56
332.715	350.56
332.943	354.56
333.172	355.56
333.4	362.56
333.629	360.56
333.857	372.56
334.085	386.56
334.314	394.56
334.542	398.56
334.771	374.56
334.999	371.56
335.227	371.56
335.455	385.56
335.684	385.56
335.912	370.56
336.14	362.56
336.369	338.56
336.597	371.56
336.825	357.56
337.053	360.56
337.281	372.56
337.51	342.56
337.738	354.56
337.966	337.56
338.194	356.56
338.422	343.56
338.65	342.56
338.878	341.56
339.106	327.56
339.334	334.56
339.562	343.56
339.79	318.56
340.018	329.56
340.246	331.56
340.474	315.56
340.702	330.56
340.93	335.56
341.158	310.56
341.386	332.56
341.614	332.56
341.842	328.56
342.07	344.56
342.298	335.56
342.526	326.56
342.754	336.56
342.981	345.56
343.209	320.56
343.437	350.56
343.665	357.56
343.893	364.56
344.12	399.56
344.348	383.56
344.576	373.56
344.804	348.56
345.031	352.56
345.259	328.56
345.487	340.56
345.714	325.56
345.942	328.56
346.17	322.56
346.397	335.56
346.625	317.56
346.853	304.56
347.08	312.56
347.308	314.56
347.535	321.56
347.763	307.56
347.99	307.56
348.218	332.56
348.445	328.56
348.673	315.56
348.9	322.56
349.128	313.56
349.355	334.56
349.583	316.56
349.81	318.56
350.037	318.56
350.265	308.56
350.492	324.56
350.72	309.56
350.947	327.56
351.174	321.56
351.402	320.56
351.629	308.56
351.856	316.56
352.083	311.56
352.311	311.56
352.538	303.56
352.765	330.56
352.992	306.56
353.22	320.56
353.447	303.56
353.674	319.56
353.901	332.56
354.128	325.56
354.355	314.56
354.583	307.56
354.81	326.56
355.037	330.56
355.264	334.56
355.491	335.56
355.718	305.56
355.945	306.56
356.172	309.56
356.399	338.56
356.626	350.56
356.853	332.56
357.08	335.56
357.307	330.56
357.534	324.56
357.761	322.56
357.988	331.56
358.215	332.56
358.441	333.56
358.668	336.56
358.895	313.56
359.122	316.56
359.349	325.56
359.576	309.56
359.802	308.56
360.029	326.56
360.256	334.56
360.483	320.56
360.709	325.56
360.936	339.56
361.163	322.56
361.39	333.56
361.616	322.56
361.843	332.56
362.07	335.56
362.296	330.56
362.523	325.56
362.749	341.56
362.976	332.56
363.203	323.56
363.429	340.56
363.656	329.56
363.882	319.56
364.109	318.56
364.335	340.56
364.562	325.56
364.788	315.56
365.015	324.56
365.241	323.56
365.468	328.56
365.694	323.56
365.92	330.56
366.147	301.56
366.373	317.56
366.599	331.56
366.826	326.56
367.052	321.56
367.278	317.56
367.505	343.56
367.731	331.56
367.957	330.56
368.184	328.56
368.41	332.56
368.636	347.56
368.862	350.56
369.089	323.56
369.315	324.56
369.541	351.56
369.767	349.56
369.993	331.56
370.219	333.56
370.445	325.56
370.672	335.56
370.898	357.56
371.124	355.56
371.35	334.56
371.576	351.56
371.802	371.56
372.028	358.56
372.254	354.56
372.48	362.56
372.706	360.56
372.932	356.56
373.158	372.56
373.384	363.56
373.61	390.56
373.835	380.56
374.061	363.56
374.287	374.56
374.513	390.56
374.739	399.56
374.965	413.56
375.191	414.56
375.416	373.56
375.642	347.56
375.868	361.56
376.094	378.56
376.319	374.56
376.545	372.56
376.771	370.56
376.997	367.56
377.222	346.56
377.448	350.56
377.674	356.56
377.899	356.56
378.125	355.56
378.35	373.56
378.576	352.56
378.802	357.56
379.027	351.56
379.253	376.56
379.478	366.56
379.704	363.56
379.929	362.56
380.155	359.56
380.38	356.56
380.606	375.56
380.831	365.56
381.057	367.56
381.282	351.56
381.507	380.56
381.733	383.56
381.958	395.56
382.184	394.56
382.409	407.56
382.634	393.56
382.86	392.56
383.085	405.56
383.31	391.56
383.535	393.56
383.761	404.56
383.986	404.56
384.211	402.56
384.436	415.56
384.662	416.56
384.887	424.56
385.112	421.56
385.337	416.56
385.562	418.56
385.787	430.56
386.013	420.56
386.238	441.56
386.463	459.56
386.688	447.56
386.913	425.56
387.138	436.56
387.363	457.56
387.588	429.56
387.813	420.56
388.038	444.56
388.263	469.56
388.488	444.56
388.713	443.56
388.938	431.56
389.163	401.56
389.387	428.56
389.612	443.56
389.837	454.56
390.062	456.56
390.287	447.56
390.512	447.56
390.736	463.56
390.961	467.56
391.186	458.56
391.411	442.56
391.636	460.56
391.86	507.56
392.085	472.56
392.31	469.56
392.534	491.56
392.759	489.56
392.984	488.56
393.208	472.56
393.433	441.56
393.658	476.56
393.882	442.56
394.107	472.56
394.331	461.56
394.556	473.56
394.78	468.56
395.005	487.56
395.229	469.56
395.454	475.56
395.678	472.56
395.903	478.56
396.127	505.56
396.352	496.56
396.576	486.56
396.801	480.56
397.025	495.56
397.249	510.56
397.474	519.56
397.698	492.56
397.922	524.56
398.147	525.56
398.371	531.56
398.595	545.56
398.82	570.56
399.044	592.56
399.268	611.56
399.492	652.56
399.717	700.56
399.941	688.56
400.165	688.56
400.389	671.56
400.613	638.56
400.837	584.56
401.062	606.56
401.286	593.56
401.51	571.56
401.734	567.56
401.958	576.56
402.182	581.56
402.406	559.56
402.63	544.56
402.854	569.56
403.078	573.56
403.302	575.56
403.526	560.56
403.75	556.56
403.974	583.56
404.198	576.56
404.422	571.56
404.645	604.56
404.869	573.56
405.093	592.56
405.317	582.56
405.541	575.56
405.765	598.56
405.988	583.56
406.212	613.56
406.436	602.56
406.66	613.56
406.883	621.56
407.107	646.56
407.331	665.56
407.555	668.56
407.778	650.56
408.002	663.56
408.226	648.56
408.449	612.56
408.673	604.56
408.896	629.56
409.12	600.56
409.344	584.56
409.567	595.56
409.791	572.56
410.014	604.56
410.238	579.56
410.461	600.56
410.685	588.56
410.908	578.56
411.132	580.56
411.355	572.56
411.578	591.56
411.802	575.56
412.025	563.56
412.249	588.56
412.472	562.56
412.695	554.56
412.919	559.56
413.142	563.56
413.365	580.56
413.589	554.56
413.812	556.56
414.035	552.56
414.258	572.56
414.482	562.56
414.705	568.56
414.928	570.56
415.151	536.56
415.374	569.56
415.597	535.56
415.821	539.56
416.044	538.56
416.267	543.56
416.49	535.56
416.713	557.56
416.936	540.56
417.159	548.56
417.382	547.56
417.605	544.56
417.828	534.56
418.051	562.56
418.274	546.56
418.497	557.56
418.72	532.56
418.943	550.56
419.166	600.56
419.389	618.56
419.611	585.56
419.834	572.56
420.057	571.56
420.28	550.56
420.503	550.56
420.726	550.56
420.948	536.56
421.171	552.56
421.394	557.56
421.617	522.56
421.839	541.56
422.062	552.56
422.285	537.56
422.507	566.56
422.73	554.56
422.953	565.56
423.175	556.56
423.398	562.56
423.621	546.56
423.843	558.56
424.066	534.56
424.288	548.56
424.511	574.56
424.733	551.56
424.956	544.56
425.178	541.56
425.401	532.56
425.623	564.56
425.846	565.56
426.068	551.56
426.291	546.56
426.513	555.56
426.735	546.56
426.958	544.56
427.18	515.56
427.402	540.56
427.625	529.56
427.847	519.56
428.069	512.56
428.292	522.56
428.514	520.56
428.736	494.56
428.958	486.56
429.181	526.56
429.403	490.56
429.625	510.56
429.847	531.56
430.069	514.56
430.292	507.56
430.514	498.56
430.736	505.56
430.958	515.56
431.18	526.56
431.402	516.56
431.624	508.56
431.846	516.56
432.068	506.56
432.29	528.56
432.512	496.56
432.734	528.56
432.956	527.56
433.178	519.56
433.4	499.56
433.622	519.56
433.844	534.56
434.066	520.56
434.287	537.56
434.509	535.56
434.731	546.56
434.953	541.56
435.175	564.56
435.397	573.56
435.618	538.56
435.84	542.56
436.062	534.56
436.284	500.56
436.505	517.56
436.727	522.56
436.949	531.56
437.17	508.56
437.392	488.56
437.614	532.56
437.835	492.56
438.057	509.56
438.278	494.56
438.5	532.56
438.721	503.56
438.943	508.56
439.165	519.56
439.386	529.56
439.608	514.56
439.829	506.56
440.05	524.56
440.272	527.56
440.493	541.56
440.715	527.56
440.936	537.56
441.158	552.56
441.379	543.56
441.6	562.56
441.822	559.56
442.043	568.56
442.264	564.56
442.486	563.56
442.707	549.56
442.928	556.56
443.149	582.56
443.371	572.56
443.592	558.56
443.813	578.56
444.034	563.56
444.255	614.56
444.476	609.56
444.698	626.56
444.919	626.56
445.14	695.56
445.361	646.56
445.582	583.56
445.803	562.56
446.024	567.56
446.245	570.56
446.466	577.56
446.687	538.56
446.908	546.56
447.129	537.56
447.35	530.56
447.571	536.56
447.792	488.56
448.013	514.56
448.234	495.56
448.455	487.56
448.675	490.56
448.896	496.56
449.117	471.56
449.338	486.56
449.559	480.56
449.779	447.56
450	495.56
450.221	504.56
450.442	493.56
450.662	498.56
450.883	490.56
451.104	470.56
451.324	460.56
451.545	481.56
451.766	472.56
451.986	488.56
452.207	481.56
452.428	470.56
452.648	485.56
452.869	470.56
453.089	458.56
453.31	475.56
453.53	458.56
453.751	455.56
453.971	448.56
454.192	467.56
454.412	442.56
454.633	455.56
454.853	465.56
455.073	463.56
455.294	471.56
455.514	442.56
455.734	466.56
455.955	447.56
456.175	431.56
456.395	456.56
456.616	446.56
456.836	470.56
457.056	461.56
457.276	456.56
457.497	461.56
457.717	449.56
457.937	468.56
458.157	478.56
458.377	487.56
458.598	500.56
458.818	488.56
459.038	491.56
459.258	504.56
459.478	523.56
459.698	552.56
459.918	539.56
460.138	544.56
460.358	558.56
460.578	599.56
460.798	586.56
461.018	595.56
461.238	621.56
461.458	614.56
461.678	615.56
461.898	647.56
462.118	632.56
462.338	634.56
462.558	652.56
462.777	668.56
462.997	686.56
463.217	704.56
463.437	708.56
463.657	692.56
463.876	682.56
464.096	691.56
464.316	671.56
464.536	656.56
464.755	653.56
464.975	631.56
465.195	624.56
465.414	592.56
465.634	576.56
465.854	554.56
466.073	554.56
466.293	543.56
466.512	516.56
466.732	523.56
466.951	535.56
467.171	527.56
467.391	504.56
467.61	518.56
467.829	504.56
468.049	515.56
468.268	480.56
468.488	500.56
468.707	502.56
468.927	518.56
469.146	525.56
469.365	522.56
469.585	510.56
469.804	494.56
470.023	520.56
470.243	502.56
470.462	542.56
470.681	516.56
470.901	532.56
471.12	524.56
471.339	523.56
471.558	515.56
471.777	524.56
471.997	500.56
472.216	498.56
472.435	496.56
472.654	486.56
472.873	487.56
473.092	519.56
473.311	493.56
473.53	492.56
473.749	482.56
473.968	511.56
474.187	492.56
474.406	484.56
474.625	483.56
474.844	507.56
475.063	502.56
475.282	498.56
475.501	506.56
475.72	528.56
475.939	534.56
476.158	519.56
476.377	538.56
476.596	529.56
476.814	537.56
477.033	517.56
477.252	548.56
477.471	539.56
477.69	559.56
477.908	562.56
478.127	610.56
478.346	580.56
478.564	584.56
478.783	621.56
479.002	607.56
479.22	626.56
479.439	642.56
479.658	598.56
479.876	607.56
480.095	615.56
480.313	639.56
480.532	627.56
480.751	638.56
480.969	577.56
481.188	616.56
481.406	598.56
481.624	579.56
481.843	580.56
482.061	587.56
482.28	564.56
482.498	584.56
482.717	557.56
482.935	582.56
483.153	585.56
483.372	566.56
483.59	596.56
483.808	575.56
484.027	606.56
484.245	591.56
484.463	574.56
484.681	587.56
484.9	582.56
485.118	587.56
485.336	584.56
485.554	562.56
485.772	570.56
485.99	586.56
486.209	586.56
486.427	586.56
486.645	586.56
486.863	605.56
487.081	587.56
487.299	590.56
487.517	604.56
487.735	612.56
487.953	613.56
488.171	610.56
488.389	599.56
488.607	586.56
488.825	588.56
489.043	586.56
489.261	591.56
489.479	592.56
489.696	608.56
489.914	587.56
490.132	610.56
490.35	613.56
490.568	619.56
490.786	615.56
491.003	605.56
491.221	604.56
491.439	607.56
491.657	598.56
491.874	617.56
492.092	622.56
492.31	642.56
492.527	630.56
492.745	639.56
492.963	628.56
493.18	640.56
493.398	615.56
493.615	638.56
493.833	614.56
494.05	646.56
494.268	629.56
494.485	632.56
494.703	638.56
494.92	651.56
495.138	644.56
495.355	627.56
495.573	639.56
495.79	635.56
496.008	650.56
496.225	639.56
496.442	658.56
496.66	662.56
496.877	680.56
497.094	686.56
497.312	671.56
497.529	709.56
497.746	718.56
497.963	724.56
498.181	743.56
498.398	794.56
498.615	828.56
498.832	876.56
499.049	896.56
499.267	975.56
499.484	1024.56
499.701	1066.56
499.918	1127.56
500.135	1225.56
500.352	1276.56
500.569	1319.56
500.786	1305.56
501.003	1270.56
501.22	1203.56
501.437	1118.56
501.654	1042.56
501.871	974.56
502.088	919.56
502.305	893.56
502.522	885.56
502.739	841.56
502.956	797.56
503.172	766.56
503.389	733.56
503.606	711.56
503.823	704.56
504.04	708.56
504.256	704.56
504.473	707.56
504.69	691.56
504.907	694.56
505.123	650.56
505.34	634.56
505.557	607.56
505.773	628.56
505.99	597.56
506.207	603.56
506.423	573.56
506.64	579.56
506.856	575.56
507.073	553.56
507.289	558.56
507.506	573.56
507.722	549.56
507.939	548.56
508.155	527.56
508.372	519.56
508.588	522.56
508.805	521.56
509.021	525.56
509.238	508.56
509.454	505.56
509.67	507.56
509.887	516.56
510.103	498.56
510.319	484.56
510.536	500.56
510.752	488.56
510.968	497.56
511.184	484.56
511.401	490.56
511.617	504.56
511.833	494.56
512.049	483.56
512.265	501.56
512.481	520.56
512.698	500.56
512.914	497.56
513.13	509.56
513.346	493.56
513.562	493.56
513.778	487.56
513.994	503.56
514.21	501.56
514.426	515.56
514.642	498.56
514.858	526.56
515.074	499.56
515.29	519.56
515.506	514.56
515.721	520.56
515.937	526.56
516.153	529.56
516.369	524.56
516.585	553.56
516.801	570.56
517.016	586.56
517.232	582.56
517.448	612.56
517.664	602.56
517.879	603.56
518.095	604.56
518.311	593.56
518.527	598.56
518.742	590.56
518.958	534.56
519.173	549.56
519.389	536.56
519.605	524.56
519.82	530.56
520.036	535.56
520.251	518.56
520.467	512.56
520.682	492.56
520.898	493.56
521.113	520.56
521.329	467.56
521.544	480.56
521.76	505.56
521.975	466.56
522.19	481.56
522.406	482.56
522.621	477.56
522.836	456.56
523.052	485.56
523.267	464.56
523.482	466.56
523.698	454.56
523.913	472.56
524.128	447.56
524.343	454.56
524.559	472.56
524.774	465.56
524.989	453.56
525.204	468.56
525.419	459.56
525.634	429.56
525.849	455.56
526.064	461.56
526.28	467.56
526.495	441.56
526.71	465.56
526.925	447.56
527.14	426.56
527.355	450.56
527.57	435.56
527.785	423.56
527.999	438.56
528.214	450.56
528.429	458.56
528.644	440.56
528.859	458.56
529.074	440.56
529.289	438.56
529.503	440.56
529.718	442.56
529.933	437.56
530.148	458.56
530.363	434.56
530.577	451.56
530.792	425.56
531.007	440.56
531.221	451.56
531.436	452.56
531.651	429.56
531.865	439.56
532.08	429.56
532.295	436.56
532.509	445.56
532.724	434.56
532.938	447.56
533.153	426.56
533.367	441.56
533.582	440.56
533.796	439.56
534.011	429.56
534.225	420.56
534.44	446.56
534.654	440.56
534.868	446.56
535.083	446.56
535.297	446.56
535.511	434.56
535.726	427.56
535.94	419.56
536.154	417.56
536.369	405.56
536.583	412.56
536.797	414.56
537.011	431.56
537.225	425.56
537.44	406.56
537.654	416.56
537.868	428.56
538.082	416.56
538.296	413.56
538.51	415.56
538.724	412.56
538.938	426.56
539.153	420.56
539.367	412.56
539.581	402.56
539.795	415.56
540.009	409.56
540.222	410.56
540.436	408.56
540.65	410.56
540.864	406.56
541.078	395.56
541.292	404.56
541.506	429.56
541.72	417.56
541.934	410.56
542.147	425.56
542.361	423.56
542.575	417.56
542.789	404.56
543.002	416.56
543.216	408.56
543.43	414.56
543.644	400.56
543.857	397.56
544.071	412.56
544.285	411.56
544.498	403.56
544.712	426.56
544.925	412.56
545.139	422.56
545.352	421.56
545.566	441.56
545.779	420.56
545.993	428.56
546.206	426.56
546.42	406.56
546.633	427.56
546.847	426.56
547.06	426.56
547.274	421.56
547.487	420.56
547.7	411.56
547.914	427.56
548.127	445.56
548.34	440.56
548.554	408.56
548.767	412.56
548.98	411.56
549.193	430.56
549.407	430.56
549.62	427.56
549.833	438.56
550.046	411.56
550.259	429.56
550.473	412.56
550.686	423.56
550.899	427.56
551.112	420.56
551.325	406.56
551.538	420.56
551.751	434.56
551.964	431.56
552.177	441.56
552.39	413.56
552.603	427.56
552.816	426.56
553.029	439.56
553.242	426.56
553.455	436.56
553.667	429.56
553.88	416.56
554.093	431.56
554.306	401.56
554.519	427.56
554.732	419.56
554.944	412.56
555.157	411.56
555.37	415.56
555.583	397.56
555.795	398.56
556.008	386.56
556.221	368.56
556.433	410.56
556.646	384.56
556.859	378.56
557.071	377.56
557.284	376.56
557.496	374.56
557.709	370.56
557.921	373.56
558.134	363.56
558.346	376.56
558.559	378.56
558.771	364.56
558.984	362.56
559.196	379.56
559.409	363.56
559.621	367.56
559.833	355.56
560.046	350.56
560.258	331.56
560.47	351.56
560.683	352.56
560.895	339.56
561.107	344.56
561.32	365.56
561.532	370.56
561.744	348.56
561.956	361.56
562.168	343.56
562.381	364.56
562.593	346.56
562.805	356.56
563.017	365.56
563.229	362.56
563.441	351.56
563.653	382.56
563.865	367.56
564.077	382.56
564.289	382.56
564.501	379.56
564.713	379.56
564.925	391.56
565.137	394.56
565.349	412.56
565.561	410.56
565.773	392.56
565.985	428.56
566.197	463.56
566.408	462.56
566.62	483.56
566.832	488.56
567.044	504.56
567.255	502.56
567.467	517.56
567.679	519.56
567.891	534.56
568.102	498.56
568.314	522.56
568.526	501.56
568.737	485.56
568.949	439.56
569.161	445.56
569.372	406.56
569.584	380.56
569.795	375.56
570.007	380.56
570.218	351.56
570.43	379.56
570.641	379.56
570.853	344.56
571.064	362.56
571.276	350.56
571.487	346.56
571.698	322.56
571.91	345.56
572.121	340.56
572.333	325.56
572.544	310.56
572.755	307.56
572.966	326.56
573.178	314.56
573.389	313.56
573.6	296.56
573.811	305.56
574.023	314.56
574.234	310.56
574.445	296.56
574.656	316.56
574.867	303.56
575.078	288.56
575.289	284.56
575.501	295.56
575.712	304.56
575.923	290.56
576.134	293.56
576.345	286.56
576.556	278.56
576.767	288.56
576.978	294.56
577.188	290.56
577.399	272.56
577.61	278.56
577.821	283.56
578.032	280.56
578.243	264.56
578.454	271.56
578.665	278.56
578.875	278.56
579.086	285.56
579.297	271.56
579.508	267.56
579.718	246.56
579.929	276.56
580.14	270.56
580.35	298.56
580.561	274.56
580.772	262.56
580.982	280.56
581.193	250.56
581.403	269.56
581.614	266.56
581.825	246.56
582.035	266.56
582.246	266.56
582.456	269.56
582.667	250.56
582.877	238.56
583.087	266.56
583.298	255.56
583.508	248.56
583.719	263.56
583.929	254.56
584.139	262.56
584.35	263.56
584.56	252.56
584.77	250.56
584.981	259.56
585.191	244.56
585.401	238.56
585.611	237.56
585.821	243.56
586.032	249.56
586.242	267.56
586.452	244.56
586.662	254.56
586.872	235.56
587.082	240.56
587.292	236.56
587.502	256.56
587.713	254.56
587.923	250.56
588.133	256.56
588.343	234.56
588.553	254.56
588.762	223.56
588.972	244.56
589.182	269.56
589.392	278.56
589.602	258.56
589.812	268.56
590.022	276.56
590.232	250.56
590.441	243.56
590.651	259.56
590.861	261.56
591.071	261.56
591.281	247.56
591.49	255.56
591.7	272.56
591.91	266.56
592.119	261.56
592.329	269.56
592.539	281.56
592.748	276.56
592.958	267.56
593.167	272.56
593.377	276.56
593.587	291.56
593.796	272.56
594.006	290.56
594.215	276.56
594.424	294.56
594.634	283.56
594.843	272.56
595.053	278.56
595.262	265.56
595.472	262.56
595.681	254.56
595.89	253.56
596.1	250.56
596.309	237.56
596.518	261.56
596.727	236.56
596.937	239.56
597.146	246.56
597.355	236.56
597.564	245.56
597.774	227.56
597.983	230.56
598.192	231.56
598.401	228.56
598.61	230.56
598.819	233.56
599.028	222.56
599.237	231.56
599.446	211.56
599.655	223.56
599.864	214.56
600.073	230.56
600.282	219.56
600.491	221.56
600.7	226.56
600.909	215.56
601.118	215.56
601.327	232.56
601.536	210.56
601.745	201.56
601.953	214.56
602.162	204.56
602.371	210.56
602.58	206.56
602.789	220.56
602.997	210.56
603.206	209.56
603.415	207.56
603.623	207.56
603.832	199.56
604.041	208.56
604.249	207.56
604.458	196.56
604.666	210.56
604.875	199.56
605.084	203.56
605.292	201.56
605.501	192.56
605.709	218.56
605.918	204.56
606.126	211.56
606.334	206.56
606.543	212.56
606.751	208.56
606.96	211.56
607.168	216.56
607.376	203.56
607.585	208.56
607.793	197.56
608.001	199.56
608.21	217.56
608.418	192.56
608.626	187.56
608.834	207.56
609.043	200.56
609.251	187.56
609.459	193.56
609.667	209.56
609.875	201.56
610.083	214.56
610.291	200.56
610.499	186.56
610.707	208.56
610.916	202.56
611.124	191.56
611.332	202.56
611.54	184.56
611.748	207.56
611.955	196.56
612.163	184.56
612.371	213.56
612.579	192.56
612.787	194.56
612.995	201.56
613.203	219.56
613.411	208.56
613.618	196.56
613.826	206.56
614.034	179.56
614.242	197.56
614.449	212.56
614.657	182.56
614.865	187.56
615.072	212.56
615.28	203.56
615.488	210.56
615.695	191.56
615.903	190.56
616.111	204.56
616.318	191.56
616.526	193.56
616.733	207.56
616.941	200.56
617.148	191.56
617.356	185.56
617.563	195.56
617.771	198.56
617.978	192.56
618.185	211.56
618.393	199.56
618.6	191.56
618.807	182.56
619.015	181.56
619.222	178.56
619.429	197.56
619.637	176.56
619.844	207.56
620.051	185.56
620.258	183.56
620.466	189.56
620.673	182.56
620.88	187.56
621.087	183.56
621.294	199.56
621.501	180.56
621.708	187.56
621.915	196.56
622.122	180.56
622.329	184.56
622.536	192.56
622.743	181.56
622.95	182.56
623.157	174.56
623.364	175.56
623.571	185.56
623.778	186.56
623.985	180.56
624.192	176.56
624.399	179.56
624.606	185.56
624.812	170.56
625.019	190.56
625.226	165.56
625.433	152.56
625.639	166.56
625.846	173.56
626.053	185.56
626.259	180.56
626.466	171.56
626.673	180.56
626.879	168.56
627.086	168.56
627.293	162.56
627.499	170.56
627.706	164.56
627.912	180.56
628.119	170.56
628.325	173.56
628.532	175.56
628.738	176.56
628.945	179.56
629.151	152.56
629.357	172.56
629.564	147.56
629.77	160.56
629.976	165.56
630.183	178.56
630.389	178.56
630.595	164.56
630.802	174.56
631.008	183.56
631.214	158.56
631.42	142.56
631.627	165.56
631.833	182.56
632.039	172.56
632.245	173.56
632.451	168.56
632.657	166.56
632.863	162.56
633.069	166.56
633.275	156.56
633.481	159.56
633.688	163.56
633.893	158.56
634.099	167.56
634.305	159.56
634.511	160.56
634.717	147.56
634.923	155.56
635.129	143.56
635.335	164.56
635.541	155.56
635.747	145.56
635.952	147.56
636.158	165.56
636.364	163.56
636.57	160.56
636.775	150.56
636.981	153.56
637.187	166.56
637.392	155.56
637.598	149.56
637.804	153.56
638.009	152.56
638.215	157.56
638.421	141.56
638.626	168.56
638.832	169.56
639.037	148.56
639.243	153.56
639.448	152.56
639.654	166.56
639.859	146.56
640.065	152.56
640.27	151.56
640.475	161.56
640.681	158.56
640.886	149.56
641.091	165.56
641.297	150.56
641.502	143.56
641.707	155.56
641.913	164.56
642.118	143.56
642.323	153.56
642.528	143.56
642.733	154.56
642.939	159.56
643.144	149.56
643.349	151.56
643.554	156.56
643.759	162.56
643.964	154.56
644.169	157.56
644.374	158.56
644.579	152.56
644.784	175.56
644.989	157.56
645.194	147.56
645.399	158.56
645.604	166.56
645.809	159.56
646.014	156.56
646.219	146.56
646.423	165.56
646.628	157.56
646.833	137.56
647.038	167.56
647.243	155.56
647.447	152.56
647.652	162.56
647.857	164.56
648.062	154.56
648.266	166.56
648.471	156.56
648.676	148.56
648.88	160.56
649.085	156.56
649.289	164.56
649.494	161.56
649.698	158.56
649.903	165.56
650.107	152.56
650.312	159.56
650.516	168.56
650.721	164.56
650.925	143.56
651.13	156.56
651.334	149.56
651.539	156.56
651.743	144.56
651.947	168.56
652.152	135.56
652.356	136.56
652.56	171.56
652.764	147.56
652.969	143.56
653.173	148.56
653.377	146.56
653.581	151.56
653.785	153.56
653.99	140.56
654.194	152.56
654.398	151.56
654.602	163.56
654.806	157.56
655.01	139.56
655.214	145.56
655.418	156.56
655.622	148.56
655.826	156.56
656.03	165.56
656.234	144.56
656.438	156.56
656.642	156.56
656.846	130.56
657.049	147.56
657.253	144.56
657.457	121.56
657.661	141.56
657.865	142.56
658.068	137.56
658.272	129.56
658.476	118.56
658.68	123.56
658.883	112.56
659.087	106.56
659.291	126.56
659.494	103.56
659.698	108.56
659.901	115.56
660.105	118.56
660.309	98.56
660.512	99.56
660.716	87.56
660.919	104.56
661.123	95.56
661.326	89.56
661.53	99.56
661.733	101.56
661.936	82.56
662.14	86.56
662.343	87.56
662.546	98.56
662.75	96.56
662.953	94.56
663.156	83.56
663.36	78.56
663.563	92.56
663.766	85.56
663.969	82.56
664.173	92.56
664.376	101.56
664.579	79.56
664.782	78.56
664.985	80.56
665.188	79.56
665.391	86.56
665.594	67.56
665.797	96.56
666	85.56
666.203	74.56
666.406	92.56
666.609	80.56
666.812	86.56
667.015	74.56
667.218	84.56
667.421	86.56
667.624	89.56
667.827	70.56
668.03	77.56
668.232	78.56
668.435	86.56
668.638	84.56
668.841	79.56
669.043	83.56
669.246	97.56
669.449	80.56
669.651	81.56
669.854	91.56
670.057	82.56
670.259	80.56
670.462	73.56
670.665	88.56
670.867	72.56
671.07	77.56
671.272	70.56
671.475	75.56
671.677	83.56
671.88	90.56
672.082	89.56
672.284	83.56
672.487	78.56
672.689	84.56
672.892	73.56
