Data from Ni(NO3)2@0.125M.TitratingCurve.Agarose3%dH2O.NegLispCup.LampEnergy10.LIBS07252019_HRD10591_18-10-44-568.txt Node
Date: Thu Jul 25 18:10:44 EDT 2019
User: cochatt
Spectrometer: HR+D1059
Trigger mode: 1
Integration Time (sec): 1.000000E-1
Scans to average: 1
Electric dark correction enabled: true
Nonlinearity correction enabled: false
Boxcar width: 0
XAxis mode: Wavelengths
Number of Pixels in Spectrum: 2048
>>>>>Begin Spectral Data<<<<<
223.165	-10.69
223.4	-10.69
223.635	-10.69
223.869	-17.69
224.104	-9.69
224.338	-17.69
224.573	-17.69
224.808	-12.69
225.042	-11.69
225.277	3.31
225.511	8.31
225.746	4.31
225.98	9.31
226.215	6.31
226.449	-4.69
226.683	12.31
226.918	30.31
227.152	28.31
227.387	38.31
227.621	38.31
227.856	39.31
228.09	56.31
228.324	35.31
228.559	42.31
228.793	89.31
229.027	96.31
229.262	98.31
229.496	90.31
229.73	104.31
229.964	99.31
230.199	102.31
230.433	106.31
230.667	101.31
230.901	120.31
231.136	107.31
231.37	130.31
231.604	121.31
231.838	136.31
232.072	136.31
232.306	126.31
232.541	128.31
232.775	108.31
233.009	144.31
233.243	124.31
233.477	128.31
233.711	116.31
233.945	128.31
234.179	122.31
234.413	133.31
234.647	124.31
234.881	130.31
235.115	134.31
235.349	126.31
235.583	108.31
235.817	130.31
236.051	126.31
236.285	125.31
236.519	126.31
236.753	127.31
236.987	128.31
237.221	126.31
237.455	137.31
237.689	122.31
237.922	125.31
238.156	133.31
238.39	138.31
238.624	131.31
238.858	127.31
239.091	132.31
239.325	129.31
239.559	144.31
239.793	142.31
240.027	141.31
240.26	142.31
240.494	157.31
240.728	137.31
240.961	134.31
241.195	140.31
241.429	145.31
241.662	157.31
241.896	140.31
242.13	156.31
242.363	160.31
242.597	158.31
242.83	149.31
243.064	134.31
243.298	159.31
243.531	144.31
243.765	153.31
243.998	164.31
244.232	147.31
244.465	157.31
244.699	174.31
244.932	158.31
245.166	166.31
245.399	166.31
245.633	171.31
245.866	185.31
246.099	166.31
246.333	163.31
246.566	170.31
246.8	174.31
247.033	161.31
247.266	197.31
247.5	185.31
247.733	185.31
247.966	179.31
248.2	193.31
248.433	184.31
248.666	178.31
248.899	178.31
249.133	177.31
249.366	196.31
249.599	196.31
249.832	204.31
250.066	194.31
250.299	203.31
250.532	193.31
250.765	197.31
250.998	186.31
251.231	185.31
251.465	211.31
251.698	217.31
251.931	205.31
252.164	217.31
252.397	204.31
252.63	208.31
252.863	198.31
253.096	202.31
253.329	212.31
253.562	204.31
253.795	213.31
254.028	194.31
254.261	219.31
254.494	229.31
254.727	219.31
254.96	218.31
255.193	224.31
255.426	208.31
255.659	204.31
255.892	219.31
256.124	225.31
256.357	236.31
256.59	231.31
256.823	227.31
257.056	221.31
257.289	229.31
257.521	226.31
257.754	242.31
257.987	230.31
258.22	220.31
258.452	241.31
258.685	242.31
258.918	233.31
259.151	226.31
259.383	238.31
259.616	245.31
259.849	228.31
260.081	232.31
260.314	220.31
260.547	244.31
260.779	247.31
261.012	244.31
261.244	244.31
261.477	233.31
261.71	221.31
261.942	247.31
262.175	242.31
262.407	249.31
262.64	241.31
262.872	251.31
263.105	230.31
263.337	243.31
263.57	241.31
263.802	253.31
264.035	245.31
264.267	268.31
264.499	265.31
264.732	263.31
264.964	238.31
265.197	278.31
265.429	268.31
265.661	268.31
265.894	254.31
266.126	264.31
266.358	263.31
266.591	258.31
266.823	254.31
267.055	273.31
267.287	282.31
267.52	279.31
267.752	266.31
267.984	275.31
268.216	280.31
268.448	293.31
268.681	269.31
268.913	284.31
269.145	299.31
269.377	277.31
269.609	279.31
269.841	291.31
270.073	284.31
270.306	292.31
270.538	280.31
270.77	279.31
271.002	274.31
271.234	303.31
271.466	282.31
271.698	289.31
271.93	276.31
272.162	275.31
272.394	291.31
272.626	295.31
272.858	291.31
273.09	289.31
273.322	293.31
273.553	299.31
273.785	315.31
274.017	292.31
274.249	308.31
274.481	308.31
274.713	283.31
274.945	301.31
275.176	308.31
275.408	312.31
275.64	298.31
275.872	311.31
276.104	302.31
276.335	294.31
276.567	309.31
276.799	312.31
277.031	306.31
277.262	312.31
277.494	317.31
277.726	313.31
277.957	308.31
278.189	298.31
278.421	312.31
278.652	324.31
278.884	322.31
279.115	312.31
279.347	323.31
279.579	322.31
279.81	297.31
280.042	324.31
280.273	312.31
280.505	335.31
280.736	339.31
280.968	342.31
281.199	358.31
281.431	340.31
281.662	347.31
281.894	340.31
282.125	342.31
282.356	333.31
282.588	335.31
282.819	345.31
283.051	348.31
283.282	347.31
283.513	334.31
283.745	339.31
283.976	358.31
284.207	342.31
284.439	356.31
284.67	359.31
284.901	348.31
285.132	340.31
285.364	351.31
285.595	340.31
285.826	341.31
286.057	355.31
286.288	353.31
286.52	354.31
286.751	380.31
286.982	368.31
287.213	364.31
287.444	370.31
287.675	362.31
287.906	368.31
288.138	381.31
288.369	366.31
288.6	365.31
288.831	374.31
289.062	372.31
289.293	376.31
289.524	380.31
289.755	371.31
289.986	378.31
290.217	380.31
290.448	358.31
290.679	372.31
290.91	386.31
291.141	398.31
291.371	398.31
291.602	386.31
291.833	388.31
292.064	379.31
292.295	370.31
292.526	376.31
292.757	398.31
292.987	372.31
293.218	372.31
293.449	375.31
293.68	398.31
293.91	389.31
294.141	405.31
294.372	380.31
294.603	380.31
294.833	380.31
295.064	388.31
295.295	396.31
295.525	380.31
295.756	384.31
295.987	397.31
296.217	416.31
296.448	404.31
296.679	393.31
296.909	400.31
297.14	403.31
297.37	421.31
297.601	424.31
297.831	410.31
298.062	394.31
298.292	408.31
298.523	434.31
298.753	438.31
298.984	412.31
299.214	405.31
299.445	390.31
299.675	403.31
299.905	403.31
300.136	412.31
300.366	417.31
300.597	426.31
300.827	413.31
301.057	417.31
301.288	434.31
301.518	428.31
301.748	442.31
301.979	414.31
302.209	445.31
302.439	433.31
302.669	426.31
302.9	421.31
303.13	409.31
303.36	422.31
303.59	443.31
303.82	421.31
304.051	437.31
304.281	412.31
304.511	429.31
304.741	430.31
304.971	440.31
305.201	416.31
305.431	414.31
305.661	401.31
305.891	424.31
306.121	406.31
306.352	424.31
306.582	412.31
306.812	417.31
307.042	417.31
307.272	413.31
307.502	416.31
307.731	421.31
307.961	417.31
308.191	411.31
308.421	410.31
308.651	398.31
308.881	429.31
309.111	434.31
309.341	441.31
309.571	421.31
309.8	430.31
310.03	425.31
310.26	426.31
310.49	411.31
310.72	426.31
310.949	418.31
311.179	430.31
311.409	443.31
311.639	438.31
311.868	411.31
312.098	427.31
312.328	443.31
312.557	437.31
312.787	431.31
313.017	441.31
313.246	458.31
313.476	416.31
313.706	438.31
313.935	459.31
314.165	447.31
314.394	450.31
314.624	452.31
314.853	463.31
315.083	448.31
315.312	454.31
315.542	430.31
315.771	432.31
316.001	453.31
316.23	440.31
316.46	461.31
316.689	438.31
316.919	436.31
317.148	441.31
317.377	425.31
317.607	429.31
317.836	426.31
318.065	428.31
318.295	439.31
318.524	461.31
318.753	438.31
318.983	424.31
319.212	442.31
319.441	429.31
319.67	424.31
319.9	438.31
320.129	433.31
320.358	440.31
320.587	459.31
320.816	440.31
321.046	429.31
321.275	449.31
321.504	428.31
321.733	443.31
321.962	445.31
322.191	462.31
322.42	436.31
322.649	451.31
322.878	455.31
323.108	426.31
323.337	458.31
323.566	445.31
323.795	453.31
324.024	481.31
324.253	445.31
324.482	485.31
324.71	445.31
324.939	485.31
325.168	472.31
325.397	453.31
325.626	472.31
325.855	476.31
326.084	476.31
326.313	481.31
326.542	482.31
326.77	483.31
326.999	506.31
327.228	489.31
327.457	496.31
327.686	465.31
327.914	485.31
328.143	477.31
328.372	497.31
328.6	489.31
328.829	504.31
329.058	484.31
329.287	484.31
329.515	476.31
329.744	491.31
329.972	505.31
330.201	500.31
330.43	493.31
330.658	518.31
330.887	496.31
331.115	514.31
331.344	514.31
331.572	518.31
331.801	512.31
332.03	538.31
332.258	557.31
332.486	571.31
332.715	588.31
332.943	618.31
333.172	610.31
333.4	655.31
333.629	658.31
333.857	665.31
334.085	669.31
334.314	658.31
334.542	618.31
334.771	637.31
334.999	604.31
335.227	626.31
335.455	620.31
335.684	600.31
335.912	606.31
336.14	586.31
336.369	592.31
336.597	608.31
336.825	579.31
337.053	584.31
337.281	568.31
337.51	560.31
337.738	566.31
337.966	550.31
338.194	530.31
338.422	525.31
338.65	540.31
338.878	553.31
339.106	519.31
339.334	536.31
339.562	526.31
339.79	526.31
340.018	518.31
340.246	492.31
340.474	504.31
340.702	508.31
340.93	518.31
341.158	516.31
341.386	499.31
341.614	507.31
341.842	518.31
342.07	517.31
342.298	510.31
342.526	502.31
342.754	519.31
342.981	493.31
343.209	523.31
343.437	553.31
343.665	583.31
343.893	636.31
344.12	650.31
344.348	632.31
344.576	570.31
344.804	555.31
345.031	542.31
345.259	521.31
345.487	497.31
345.714	528.31
345.942	508.31
346.17	500.31
346.397	520.31
346.625	488.31
346.853	507.31
347.08	481.31
347.308	508.31
347.535	513.31
347.763	505.31
347.99	516.31
348.218	530.31
348.445	538.31
348.673	501.31
348.9	503.31
349.128	475.31
349.355	489.31
349.583	482.31
349.81	480.31
350.037	466.31
350.265	482.31
350.492	482.31
350.72	492.31
350.947	468.31
351.174	471.31
351.402	473.31
351.629	489.31
351.856	475.31
352.083	462.31
352.311	482.31
352.538	490.31
352.765	480.31
352.992	485.31
353.22	479.31
353.447	465.31
353.674	455.31
353.901	486.31
354.128	478.31
354.355	491.31
354.583	482.31
354.81	468.31
355.037	467.31
355.264	514.31
355.491	476.31
355.718	474.31
355.945	490.31
356.172	489.31
356.399	477.31
356.626	473.31
356.853	492.31
357.08	499.31
357.307	478.31
357.534	475.31
357.761	478.31
357.988	467.31
358.215	472.31
358.441	475.31
358.668	481.31
358.895	497.31
359.122	464.31
359.349	483.31
359.576	487.31
359.802	487.31
360.029	466.31
360.256	480.31
360.483	474.31
360.709	470.31
360.936	486.31
361.163	470.31
361.39	470.31
361.616	479.31
361.843	468.31
362.07	462.31
362.296	466.31
362.523	461.31
362.749	480.31
362.976	475.31
363.203	474.31
363.429	467.31
363.656	468.31
363.882	467.31
364.109	478.31
364.335	483.31
364.562	483.31
364.788	459.31
365.015	483.31
365.241	460.31
365.468	462.31
365.694	465.31
365.92	479.31
366.147	474.31
366.373	483.31
366.599	473.31
366.826	460.31
367.052	457.31
367.278	466.31
367.505	488.31
367.731	472.31
367.957	486.31
368.184	465.31
368.41	485.31
368.636	467.31
368.862	498.31
369.089	493.31
369.315	466.31
369.541	486.31
369.767	478.31
369.993	503.31
370.219	513.31
370.445	509.31
370.672	498.31
370.898	514.31
371.124	504.31
371.35	524.31
371.576	525.31
371.802	532.31
372.028	513.31
372.254	521.31
372.48	520.31
372.706	543.31
372.932	546.31
373.158	548.31
373.384	517.31
373.61	510.31
373.835	516.31
374.061	509.31
374.287	528.31
374.513	538.31
374.739	546.31
374.965	574.31
375.191	592.31
375.416	575.31
375.642	555.31
375.868	529.31
376.094	531.31
376.319	528.31
376.545	510.31
376.771	531.31
376.997	527.31
377.222	521.31
377.448	520.31
377.674	533.31
377.899	526.31
378.125	506.31
378.35	516.31
378.576	527.31
378.802	508.31
379.027	509.31
379.253	527.31
379.478	531.31
379.704	514.31
379.929	511.31
380.155	526.31
380.38	506.31
380.606	528.31
380.831	514.31
381.057	514.31
381.282	534.31
381.507	530.31
381.733	536.31
381.958	500.31
382.184	510.31
382.409	516.31
382.634	536.31
382.86	541.31
383.085	546.31
383.31	558.31
383.535	574.31
383.761	566.31
383.986	578.31
384.211	577.31
384.436	608.31
384.662	609.31
384.887	617.31
385.112	627.31
385.337	634.31
385.562	627.31
385.787	632.31
386.013	636.31
386.238	624.31
386.463	630.31
386.688	620.31
386.913	616.31
387.138	623.31
387.363	603.31
387.588	556.31
387.813	602.31
388.038	590.31
388.263	609.31
388.488	625.31
388.713	599.31
388.938	593.31
389.163	595.31
389.387	599.31
389.612	594.31
389.837	592.31
390.062	619.31
390.287	613.31
390.512	613.31
390.736	599.31
390.961	607.31
391.186	634.31
391.411	635.31
391.636	672.31
391.86	659.31
392.085	712.31
392.31	702.31
392.534	691.31
392.759	661.31
392.984	639.31
393.208	616.31
393.433	645.31
393.658	676.31
393.882	681.31
394.107	651.31
394.331	650.31
394.556	650.31
394.78	668.31
395.005	664.31
395.229	645.31
395.454	683.31
395.678	692.31
395.903	694.31
396.127	706.31
396.352	645.31
396.576	648.31
396.801	644.31
397.025	651.31
397.249	652.31
397.474	685.31
397.698	682.31
397.922	682.31
398.147	678.31
398.371	700.31
398.595	693.31
398.82	757.31
399.044	794.31
399.268	866.31
399.492	1013.31
399.717	1178.31
399.941	1164.31
400.165	1005.31
400.389	926.31
400.613	853.31
400.837	786.31
401.062	780.31
401.286	780.31
401.51	745.31
401.734	752.31
401.958	774.31
402.182	781.31
402.406	789.31
402.63	795.31
402.854	823.31
403.078	840.31
403.302	857.31
403.526	885.31
403.75	884.31
403.974	895.31
404.198	930.31
404.422	915.31
404.645	915.31
404.869	869.31
405.093	846.31
405.317	837.31
405.541	850.31
405.765	856.31
405.988	818.31
406.212	840.31
406.436	830.31
406.66	846.31
406.883	864.31
407.107	918.31
407.331	950.31
407.555	990.31
407.778	988.31
408.002	999.31
408.226	964.31
408.449	918.31
408.673	898.31
408.896	900.31
409.12	879.31
409.344	872.31
409.567	878.31
409.791	894.31
410.014	904.31
410.238	872.31
410.461	878.31
410.685	868.31
410.908	837.31
411.132	820.31
411.355	801.31
411.578	811.31
411.802	782.31
412.025	790.31
412.249	820.31
412.472	813.31
412.695	788.31
412.919	790.31
413.142	762.31
413.365	760.31
413.589	786.31
413.812	765.31
414.035	763.31
414.258	760.31
414.482	800.31
414.705	787.31
414.928	778.31
415.151	798.31
415.374	779.31
415.597	787.31
415.821	748.31
416.044	757.31
416.267	725.31
416.49	752.31
416.713	741.31
416.936	762.31
417.159	764.31
417.382	730.31
417.605	758.31
417.828	775.31
418.051	768.31
418.274	771.31
418.497	750.31
418.72	804.31
418.943	792.31
419.166	823.31
419.389	884.31
419.611	843.31
419.834	852.31
420.057	857.31
420.28	787.31
420.503	760.31
420.726	753.31
420.948	745.31
421.171	753.31
421.394	748.31
421.617	749.31
421.839	769.31
422.062	786.31
422.285	782.31
422.507	794.31
422.73	791.31
422.953	787.31
423.175	839.31
423.398	819.31
423.621	813.31
423.843	828.31
424.066	838.31
424.288	809.31
424.511	817.31
424.733	811.31
424.956	809.31
425.178	791.31
425.401	789.31
425.623	753.31
425.846	745.31
426.068	739.31
426.291	725.31
426.513	743.31
426.735	739.31
426.958	729.31
427.18	707.31
427.402	717.31
427.625	717.31
427.847	712.31
428.069	672.31
428.292	689.31
428.514	693.31
428.736	690.31
428.958	690.31
429.181	691.31
429.403	677.31
429.625	679.31
429.847	694.31
430.069	704.31
430.292	670.31
430.514	654.31
430.736	669.31
430.958	673.31
431.18	663.31
431.402	680.31
431.624	668.31
431.846	700.31
432.068	702.31
432.29	713.31
432.512	691.31
432.734	675.31
432.956	681.31
433.178	713.31
433.4	692.31
433.622	681.31
433.844	722.31
434.066	718.31
434.287	704.31
434.509	712.31
434.731	749.31
434.953	799.31
435.175	792.31
435.397	786.31
435.618	711.31
435.84	725.31
436.062	672.31
436.284	714.31
436.505	699.31
436.727	702.31
436.949	694.31
437.17	679.31
437.392	673.31
437.614	701.31
437.835	651.31
438.057	694.31
438.278	668.31
438.5	662.31
438.721	683.31
438.943	660.31
439.165	678.31
439.386	703.31
439.608	709.31
439.829	703.31
440.05	683.31
440.272	699.31
440.493	734.31
440.715	698.31
440.936	740.31
441.158	718.31
441.379	743.31
441.6	777.31
441.822	798.31
442.043	813.31
442.264	768.31
442.486	770.31
442.707	782.31
442.928	780.31
443.149	778.31
443.371	786.31
443.592	764.31
443.813	784.31
444.034	807.31
444.255	809.31
444.476	841.31
444.698	912.31
444.919	958.31
445.14	1004.31
445.361	875.31
445.582	834.31
445.803	794.31
446.024	748.31
446.245	738.31
446.466	721.31
446.687	691.31
446.908	692.31
447.129	679.31
447.35	679.31
447.571	663.31
447.792	648.31
448.013	661.31
448.234	658.31
448.455	646.31
448.675	629.31
448.896	628.31
449.117	628.31
449.338	667.31
449.559	658.31
449.779	624.31
450	643.31
450.221	659.31
450.442	634.31
450.662	634.31
450.883	669.31
451.104	669.31
451.324	632.31
451.545	673.31
451.766	668.31
451.986	666.31
452.207	661.31
452.428	650.31
452.648	638.31
452.869	635.31
453.089	630.31
453.31	650.31
453.53	629.31
453.751	604.31
453.971	627.31
454.192	610.31
454.412	603.31
454.633	621.31
454.853	596.31
455.073	610.31
455.294	624.31
455.514	622.31
455.734	601.31
455.955	639.31
456.175	602.31
456.395	579.31
456.616	597.31
456.836	609.31
457.056	589.31
457.276	588.31
457.497	614.31
457.717	613.31
457.937	592.31
458.157	625.31
458.377	622.31
458.598	620.31
458.818	635.31
459.038	642.31
459.258	690.31
459.478	714.31
459.698	730.31
459.918	764.31
460.138	763.31
460.358	819.31
460.578	825.31
460.798	798.31
461.018	829.31
461.238	824.31
461.458	820.31
461.678	819.31
461.898	807.31
462.118	816.31
462.338	886.31
462.558	898.31
462.777	931.31
462.997	1001.31
463.217	1130.31
463.437	1148.31
463.657	1061.31
463.876	968.31
464.096	971.31
464.316	986.31
464.536	991.31
464.755	946.31
464.975	923.31
465.195	844.31
465.414	820.31
465.634	758.31
465.854	729.31
466.073	693.31
466.293	720.31
466.512	721.31
466.732	672.31
466.951	682.31
467.171	693.31
467.391	692.31
467.61	658.31
467.829	691.31
468.049	669.31
468.268	644.31
468.488	640.31
468.707	635.31
468.927	652.31
469.146	654.31
469.365	662.31
469.585	686.31
469.804	677.31
470.023	681.31
470.243	679.31
470.462	721.31
470.681	687.31
470.901	723.31
471.12	698.31
471.339	694.31
471.558	669.31
471.777	665.31
471.997	640.31
472.216	624.31
472.435	637.31
472.654	634.31
472.873	627.31
473.092	646.31
473.311	604.31
473.53	618.31
473.749	636.31
473.968	604.31
474.187	603.31
474.406	621.31
474.625	628.31
474.844	624.31
475.063	643.31
475.282	619.31
475.501	594.31
475.72	616.31
475.939	629.31
476.158	616.31
476.377	654.31
476.596	644.31
476.814	658.31
477.033	648.31
477.252	688.31
477.471	688.31
477.69	709.31
477.908	747.31
478.127	717.31
478.346	741.31
478.564	742.31
478.783	782.31
479.002	804.31
479.22	804.31
479.439	780.31
479.658	770.31
479.876	758.31
480.095	771.31
480.313	834.31
480.532	842.31
480.751	837.31
480.969	790.31
481.188	735.31
481.406	734.31
481.624	716.31
481.843	729.31
482.061	699.31
482.28	713.31
482.498	725.31
482.717	685.31
482.935	704.31
483.153	704.31
483.372	721.31
483.59	726.31
483.808	710.31
484.027	714.31
484.245	711.31
484.463	721.31
484.681	709.31
484.9	721.31
485.118	727.31
485.336	740.31
485.554	770.31
485.772	744.31
485.99	761.31
486.209	786.31
486.427	750.31
486.645	787.31
486.863	776.31
487.081	768.31
487.299	761.31
487.517	741.31
487.735	744.31
487.953	780.31
488.171	743.31
488.389	725.31
488.607	755.31
488.825	748.31
489.043	730.31
489.261	759.31
489.479	724.31
489.696	728.31
489.914	765.31
490.132	742.31
490.35	737.31
490.568	773.31
490.786	760.31
491.003	754.31
491.221	758.31
491.439	770.31
491.657	736.31
491.874	775.31
492.092	756.31
492.31	757.31
492.527	781.31
492.745	776.31
492.963	774.31
493.18	754.31
493.398	774.31
493.615	791.31
493.833	770.31
494.05	788.31
494.268	791.31
494.485	792.31
494.703	786.31
494.92	790.31
495.138	806.31
495.355	769.31
495.573	782.31
495.79	791.31
496.008	788.31
496.225	780.31
496.442	818.31
496.66	821.31
496.877	830.31
497.094	806.31
497.312	824.31
497.529	850.31
497.746	886.31
497.963	893.31
498.181	923.31
498.398	969.31
498.615	1038.31
498.832	1072.31
499.049	1192.31
499.267	1269.31
499.484	1426.31
499.701	1573.31
499.918	1750.31
500.135	2040.31
500.352	2348.31
500.569	2484.31
500.786	2453.31
501.003	2277.31
501.22	2013.31
501.437	1736.31
501.654	1515.31
501.871	1358.31
502.088	1258.31
502.305	1185.31
502.522	1108.31
502.739	1049.31
502.956	997.31
503.172	941.31
503.389	918.31
503.606	895.31
503.823	897.31
504.04	897.31
504.256	884.31
504.473	949.31
504.69	942.31
504.907	949.31
505.123	857.31
505.34	794.31
505.557	779.31
505.773	766.31
505.99	755.31
506.207	714.31
506.423	738.31
506.64	707.31
506.856	690.31
507.073	683.31
507.289	713.31
507.506	694.31
507.722	708.31
507.939	674.31
508.155	679.31
508.372	689.31
508.588	654.31
508.805	649.31
509.021	654.31
509.238	670.31
509.454	636.31
509.67	653.31
509.887	645.31
510.103	652.31
510.319	634.31
510.536	647.31
510.752	648.31
510.968	617.31
511.184	617.31
511.401	643.31
511.617	614.31
511.833	644.31
512.049	613.31
512.265	624.31
512.481	635.31
512.698	628.31
512.914	636.31
513.13	647.31
513.346	649.31
513.562	628.31
513.778	663.31
513.994	647.31
514.21	637.31
514.426	639.31
514.642	630.31
514.858	620.31
515.074	643.31
515.29	656.31
515.506	660.31
515.721	684.31
515.937	673.31
516.153	692.31
516.369	704.31
516.585	736.31
516.801	745.31
517.016	782.31
517.232	822.31
517.448	878.31
517.664	918.31
517.879	924.31
518.095	905.31
518.311	862.31
518.527	843.31
518.742	800.31
518.958	772.31
519.173	744.31
519.389	718.31
519.605	688.31
519.82	668.31
520.036	689.31
520.251	652.31
520.467	674.31
520.682	667.31
520.898	660.31
521.113	630.31
521.329	636.31
521.544	618.31
521.76	618.31
521.975	609.31
522.19	614.31
522.406	594.31
522.621	627.31
522.836	591.31
523.052	588.31
523.267	602.31
523.482	587.31
523.698	572.31
523.913	589.31
524.128	601.31
524.343	597.31
524.559	608.31
524.774	606.31
524.989	586.31
525.204	612.31
525.419	616.31
525.634	592.31
525.849	593.31
526.064	586.31
526.28	605.31
526.495	581.31
526.71	579.31
526.925	600.31
527.14	591.31
527.355	554.31
527.57	563.31
527.785	575.31
527.999	576.31
528.214	559.31
528.429	572.31
528.644	555.31
528.859	590.31
529.074	569.31
529.289	602.31
529.503	578.31
529.718	578.31
529.933	590.31
530.148	573.31
530.363	587.31
530.577	596.31
530.792	561.31
531.007	568.31
531.221	607.31
531.436	575.31
531.651	583.31
531.865	588.31
532.08	581.31
532.295	592.31
532.509	573.31
532.724	598.31
532.938	576.31
533.153	559.31
533.367	586.31
533.582	608.31
533.796	573.31
534.011	578.31
534.225	577.31
534.44	571.31
534.654	576.31
534.868	584.31
535.083	578.31
535.297	560.31
535.511	558.31
535.726	552.31
535.94	562.31
536.154	558.31
536.369	547.31
536.583	567.31
536.797	556.31
537.011	554.31
537.225	525.31
537.44	538.31
537.654	538.31
537.868	517.31
538.082	516.31
538.296	541.31
538.51	542.31
538.724	536.31
538.938	546.31
539.153	534.31
539.367	541.31
539.581	519.31
539.795	522.31
540.009	531.31
540.222	529.31
540.436	542.31
540.65	539.31
540.864	514.31
541.078	545.31
541.292	524.31
541.506	534.31
541.72	504.31
541.934	515.31
542.147	531.31
542.361	531.31
542.575	522.31
542.789	510.31
543.002	489.31
543.216	525.31
543.43	516.31
543.644	525.31
543.857	529.31
544.071	540.31
544.285	520.31
544.498	548.31
544.712	536.31
544.925	540.31
545.139	522.31
545.352	560.31
545.566	533.31
545.779	534.31
545.993	548.31
546.206	555.31
546.42	549.31
546.633	531.31
546.847	544.31
547.06	552.31
547.274	542.31
547.487	521.31
547.7	548.31
547.914	544.31
548.127	538.31
548.34	557.31
548.554	532.31
548.767	544.31
548.98	546.31
549.193	555.31
549.407	549.31
549.62	566.31
549.833	564.31
550.046	559.31
550.259	545.31
550.473	532.31
550.686	519.31
550.899	539.31
551.112	522.31
551.325	530.31
551.538	523.31
551.751	496.31
551.964	503.31
552.177	531.31
552.39	538.31
552.603	549.31
552.816	573.31
553.029	568.31
553.242	580.31
553.455	600.31
553.667	605.31
553.88	606.31
554.093	562.31
554.306	555.31
554.519	548.31
554.732	538.31
554.944	519.31
555.157	518.31
555.37	525.31
555.583	505.31
555.795	497.31
556.008	490.31
556.221	482.31
556.433	468.31
556.646	492.31
556.859	474.31
557.071	467.31
557.284	462.31
557.496	469.31
557.709	468.31
557.921	461.31
558.134	465.31
558.346	449.31
558.559	455.31
558.771	446.31
558.984	455.31
559.196	453.31
559.409	453.31
559.621	440.31
559.833	452.31
560.046	450.31
560.258	443.31
560.47	439.31
560.683	448.31
560.895	447.31
561.107	445.31
561.32	434.31
561.532	438.31
561.744	452.31
561.956	442.31
562.168	435.31
562.381	442.31
562.593	450.31
562.805	432.31
563.017	440.31
563.229	439.31
563.441	434.31
563.653	456.31
563.865	445.31
564.077	460.31
564.289	474.31
564.501	444.31
564.713	462.31
564.925	490.31
565.137	510.31
565.349	503.31
565.561	514.31
565.773	526.31
565.985	529.31
566.197	599.31
566.408	600.31
566.62	662.31
566.832	722.31
567.044	743.31
567.255	697.31
567.467	727.31
567.679	778.31
567.891	844.31
568.102	923.31
568.314	884.31
568.526	748.31
568.737	664.31
568.949	619.31
569.161	582.31
569.372	530.31
569.584	496.31
569.795	449.31
570.007	473.31
570.218	460.31
570.43	460.31
570.641	437.31
570.853	470.31
571.064	474.31
571.276	452.31
571.487	460.31
571.698	430.31
571.91	421.31
572.121	401.31
572.333	411.31
572.544	378.31
572.755	382.31
572.966	400.31
573.178	371.31
573.389	369.31
573.6	376.31
573.811	385.31
574.023	366.31
574.234	373.31
574.445	364.31
574.656	366.31
574.867	371.31
575.078	372.31
575.289	363.31
575.501	364.31
575.712	356.31
575.923	362.31
576.134	354.31
576.345	354.31
576.556	347.31
576.767	366.31
576.978	352.31
577.188	353.31
577.399	343.31
577.61	334.31
577.821	364.31
578.032	354.31
578.243	351.31
578.454	337.31
578.665	338.31
578.875	326.31
579.086	343.31
579.297	328.31
579.508	331.31
579.718	368.31
579.929	321.31
580.14	318.31
580.35	316.31
580.561	333.31
580.772	325.31
580.982	341.31
581.193	329.31
581.403	326.31
581.614	307.31
581.825	327.31
582.035	318.31
582.246	307.31
582.456	337.31
582.667	306.31
582.877	320.31
583.087	322.31
583.298	321.31
583.508	311.31
583.719	321.31
583.929	311.31
584.139	315.31
584.35	312.31
584.56	309.31
584.77	322.31
584.981	308.31
585.191	327.31
585.401	290.31
585.611	313.31
585.821	326.31
586.032	317.31
586.242	308.31
586.452	314.31
586.662	314.31
586.872	310.31
587.082	289.31
587.292	306.31
587.502	304.31
587.713	294.31
587.923	306.31
588.133	309.31
588.343	304.31
588.553	297.31
588.762	289.31
588.972	309.31
589.182	302.31
589.392	310.31
589.602	297.31
589.812	309.31
590.022	299.31
590.232	299.31
590.441	300.31
590.651	301.31
590.861	326.31
591.071	316.31
591.281	297.31
591.49	313.31
591.7	283.31
591.91	316.31
592.119	331.31
592.329	340.31
592.539	334.31
592.748	361.31
592.958	369.31
593.167	380.31
593.377	371.31
593.587	397.31
593.796	392.31
594.006	388.31
594.215	397.31
594.424	404.31
594.634	374.31
594.843	371.31
595.053	357.31
595.262	346.31
595.472	333.31
595.681	315.31
595.89	329.31
596.1	300.31
596.309	316.31
596.518	292.31
596.727	284.31
596.937	285.31
597.146	295.31
597.355	279.31
597.564	277.31
597.774	270.31
597.983	291.31
598.192	269.31
598.401	268.31
598.61	269.31
598.819	277.31
599.028	261.31
599.237	240.31
599.446	270.31
599.655	280.31
599.864	245.31
600.073	273.31
600.282	274.31
600.491	266.31
600.7	269.31
600.909	262.31
601.118	252.31
601.327	263.31
601.536	238.31
601.745	251.31
601.953	270.31
602.162	274.31
602.371	242.31
602.58	262.31
602.789	263.31
602.997	267.31
603.206	264.31
603.415	245.31
603.623	243.31
603.832	259.31
604.041	250.31
604.249	255.31
604.458	245.31
604.666	248.31
604.875	246.31
605.084	256.31
605.292	246.31
605.501	236.31
605.709	234.31
605.918	224.31
606.126	254.31
606.334	242.31
606.543	242.31
606.751	259.31
606.96	241.31
607.168	233.31
607.376	238.31
607.585	244.31
607.793	234.31
608.001	240.31
608.21	256.31
608.418	231.31
608.626	248.31
608.834	232.31
609.043	232.31
609.251	239.31
609.459	221.31
609.667	250.31
609.875	227.31
610.083	225.31
610.291	221.31
610.499	240.31
610.707	224.31
610.916	213.31
611.124	226.31
611.332	234.31
611.54	231.31
611.748	247.31
611.955	228.31
612.163	227.31
612.371	237.31
612.579	244.31
612.787	240.31
612.995	233.31
613.203	237.31
613.411	220.31
613.618	218.31
613.826	231.31
614.034	239.31
614.242	234.31
614.449	235.31
614.657	230.31
614.865	235.31
615.072	229.31
615.28	235.31
615.488	222.31
615.695	239.31
615.903	233.31
616.111	230.31
616.318	261.31
616.526	229.31
616.733	233.31
616.941	233.31
617.148	233.31
617.356	229.31
617.563	232.31
617.771	221.31
617.978	235.31
618.185	213.31
618.393	237.31
618.6	229.31
618.807	242.31
619.015	227.31
619.222	217.31
619.429	218.31
619.637	240.31
619.844	212.31
620.051	232.31
620.258	236.31
620.466	225.31
620.673	216.31
620.88	206.31
621.087	222.31
621.294	226.31
621.501	206.31
621.708	216.31
621.915	205.31
622.122	219.31
622.329	210.31
622.536	210.31
622.743	213.31
622.95	196.31
623.157	209.31
623.364	200.31
623.571	206.31
623.778	208.31
623.985	216.31
624.192	202.31
624.399	220.31
624.606	203.31
624.812	203.31
625.019	196.31
625.226	197.31
625.433	203.31
625.639	188.31
625.846	200.31
626.053	202.31
626.259	212.31
626.466	196.31
626.673	190.31
626.879	187.31
627.086	196.31
627.293	197.31
627.499	193.31
627.706	196.31
627.912	187.31
628.119	197.31
628.325	208.31
628.532	176.31
628.738	181.31
628.945	195.31
629.151	160.31
629.357	192.31
629.564	205.31
629.77	190.31
629.976	197.31
630.183	170.31
630.389	172.31
630.595	184.31
630.802	191.31
631.008	183.31
631.214	190.31
631.42	175.31
631.627	199.31
631.833	181.31
632.039	190.31
632.245	190.31
632.451	170.31
632.657	177.31
632.863	175.31
633.069	190.31
633.275	180.31
633.481	174.31
633.688	175.31
633.893	174.31
634.099	168.31
634.305	182.31
634.511	178.31
634.717	176.31
634.923	166.31
635.129	176.31
635.335	153.31
635.541	173.31
635.747	177.31
635.952	157.31
636.158	173.31
636.364	180.31
636.57	176.31
636.775	186.31
636.981	152.31
637.187	170.31
637.392	172.31
637.598	182.31
637.804	171.31
638.009	168.31
638.215	168.31
638.421	162.31
638.626	171.31
638.832	176.31
639.037	162.31
639.243	167.31
639.448	187.31
639.654	167.31
639.859	161.31
640.065	167.31
640.27	168.31
640.475	163.31
640.681	157.31
640.886	168.31
641.091	163.31
641.297	162.31
641.502	153.31
641.707	156.31
641.913	164.31
642.118	144.31
642.323	158.31
642.528	167.31
642.733	164.31
642.939	171.31
643.144	170.31
643.349	168.31
643.554	171.31
643.759	149.31
643.964	174.31
644.169	150.31
644.374	165.31
644.579	151.31
644.784	146.31
644.989	155.31
645.194	166.31
645.399	160.31
645.604	152.31
645.809	140.31
646.014	153.31
646.219	147.31
646.423	161.31
646.628	153.31
646.833	156.31
647.038	162.31
647.243	186.31
647.447	167.31
647.652	162.31
647.857	166.31
648.062	164.31
648.266	178.31
648.471	185.31
648.676	172.31
648.88	182.31
649.085	154.31
649.289	150.31
649.494	155.31
649.698	150.31
649.903	146.31
650.107	148.31
650.312	149.31
650.516	144.31
650.721	148.31
650.925	149.31
651.13	146.31
651.334	146.31
651.539	142.31
651.743	151.31
651.947	140.31
652.152	140.31
652.356	146.31
652.56	133.31
652.764	123.31
652.969	134.31
653.173	133.31
653.377	131.31
653.581	133.31
653.785	128.31
653.99	129.31
654.194	142.31
654.398	124.31
654.602	138.31
654.806	133.31
655.01	144.31
655.214	124.31
655.418	124.31
655.622	116.31
655.826	132.31
656.03	128.31
656.234	124.31
656.438	141.31
656.642	126.31
656.846	105.31
657.049	119.31
657.253	129.31
657.457	115.31
657.661	116.31
657.865	105.31
658.068	88.31
658.272	98.31
658.476	107.31
658.68	97.31
658.883	105.31
659.087	98.31
659.291	108.31
659.494	95.31
659.698	96.31
659.901	98.31
660.105	90.31
660.309	99.31
660.512	82.31
660.716	91.31
660.919	81.31
661.123	90.31
661.326	77.31
661.53	91.31
661.733	100.31
661.936	107.31
662.14	90.31
662.343	91.31
662.546	88.31
662.75	93.31
662.953	92.31
663.156	86.31
663.36	88.31
663.563	89.31
663.766	77.31
663.969	87.31
664.173	86.31
664.376	77.31
664.579	93.31
664.782	87.31
664.985	75.31
665.188	77.31
665.391	86.31
665.594	73.31
665.797	86.31
666	73.31
666.203	89.31
666.406	84.31
666.609	93.31
666.812	92.31
667.015	81.31
667.218	86.31
667.421	84.31
667.624	89.31
667.827	71.31
668.03	78.31
668.232	85.31
668.435	72.31
668.638	77.31
668.841	82.31
669.043	84.31
669.246	75.31
669.449	93.31
669.651	91.31
669.854	83.31
670.057	81.31
670.259	78.31
670.462	85.31
670.665	85.31
670.867	99.31
671.07	73.31
671.272	76.31
671.475	81.31
671.677	82.31
671.88	92.31
672.082	77.31
672.284	79.31
672.487	82.31
672.689	89.31
672.892	70.31
