Data from Ni(NO3)2@0.0625M.TitratingCurve.Agarose3%dH2O.NegLispCup.LampEnergy10.LIBS07252019_HRD10591_18-15-58-570.txt Node
Date: Thu Jul 25 18:15:58 EDT 2019
User: cochatt
Spectrometer: HR+D1059
Trigger mode: 1
Integration Time (sec): 1.000000E-1
Scans to average: 1
Electric dark correction enabled: true
Nonlinearity correction enabled: false
Boxcar width: 0
XAxis mode: Wavelengths
Number of Pixels in Spectrum: 2048
>>>>>Begin Spectral Data<<<<<
223.165	-16.81
223.4	-16.81
223.635	-16.81
223.869	-14.81
224.104	-8.81
224.338	-18.81
224.573	-22.81
224.808	-11.81
225.042	-5.81
225.277	-4.81
225.511	3.19
225.746	-3.81
225.98	-7.81
226.215	8.19
226.449	20.19
226.683	29.19
226.918	32.19
227.152	23.19
227.387	36.19
227.621	33.19
227.856	36.19
228.09	39.19
228.324	60.19
228.559	52.19
228.793	52.19
229.027	81.19
229.262	100.19
229.496	99.19
229.73	96.19
229.964	105.19
230.199	118.19
230.433	119.19
230.667	113.19
230.901	115.19
231.136	120.19
231.37	112.19
231.604	123.19
231.838	133.19
232.072	127.19
232.306	128.19
232.541	121.19
232.775	119.19
233.009	123.19
233.243	124.19
233.477	114.19
233.711	105.19
233.945	132.19
234.179	110.19
234.413	124.19
234.647	133.19
234.881	131.19
235.115	136.19
235.349	129.19
235.583	133.19
235.817	137.19
236.051	131.19
236.285	129.19
236.519	123.19
236.753	140.19
236.987	123.19
237.221	135.19
237.455	133.19
237.689	148.19
237.922	140.19
238.156	132.19
238.39	124.19
238.624	137.19
238.858	147.19
239.091	156.19
239.325	148.19
239.559	128.19
239.793	141.19
240.027	129.19
240.26	136.19
240.494	141.19
240.728	153.19
240.961	157.19
241.195	163.19
241.429	152.19
241.662	134.19
241.896	137.19
242.13	160.19
242.363	139.19
242.597	164.19
242.83	144.19
243.064	158.19
243.298	166.19
243.531	164.19
243.765	168.19
243.998	164.19
244.232	157.19
244.465	161.19
244.699	167.19
244.932	182.19
245.166	185.19
245.399	162.19
245.633	185.19
245.866	170.19
246.099	183.19
246.333	188.19
246.566	168.19
246.8	159.19
247.033	172.19
247.266	174.19
247.5	179.19
247.733	177.19
247.966	172.19
248.2	172.19
248.433	181.19
248.666	180.19
248.899	183.19
249.133	181.19
249.366	193.19
249.599	188.19
249.832	202.19
250.066	188.19
250.299	195.19
250.532	206.19
250.765	184.19
250.998	201.19
251.231	181.19
251.465	191.19
251.698	203.19
251.931	214.19
252.164	211.19
252.397	190.19
252.63	212.19
252.863	200.19
253.096	190.19
253.329	216.19
253.562	197.19
253.795	207.19
254.028	193.19
254.261	194.19
254.494	202.19
254.727	211.19
254.96	205.19
255.193	219.19
255.426	209.19
255.659	217.19
255.892	231.19
256.124	220.19
256.357	200.19
256.59	217.19
256.823	213.19
257.056	215.19
257.289	231.19
257.521	209.19
257.754	216.19
257.987	239.19
258.22	234.19
258.452	231.19
258.685	217.19
258.918	219.19
259.151	227.19
259.383	237.19
259.616	223.19
259.849	226.19
260.081	224.19
260.314	242.19
260.547	245.19
260.779	228.19
261.012	227.19
261.244	240.19
261.477	253.19
261.71	230.19
261.942	232.19
262.175	233.19
262.407	234.19
262.64	251.19
262.872	242.19
263.105	241.19
263.337	241.19
263.57	239.19
263.802	239.19
264.035	278.19
264.267	245.19
264.499	240.19
264.732	239.19
264.964	273.19
265.197	261.19
265.429	265.19
265.661	259.19
265.894	244.19
266.126	288.19
266.358	258.19
266.591	267.19
266.823	260.19
267.055	281.19
267.287	254.19
267.52	269.19
267.752	289.19
267.984	270.19
268.216	273.19
268.448	274.19
268.681	269.19
268.913	265.19
269.145	277.19
269.377	253.19
269.609	290.19
269.841	269.19
270.073	264.19
270.306	275.19
270.538	268.19
270.77	281.19
271.002	280.19
271.234	284.19
271.466	281.19
271.698	271.19
271.93	291.19
272.162	308.19
272.394	294.19
272.626	284.19
272.858	272.19
273.09	287.19
273.322	305.19
273.553	283.19
273.785	283.19
274.017	305.19
274.249	294.19
274.481	297.19
274.713	318.19
274.945	297.19
275.176	303.19
275.408	322.19
275.64	292.19
275.872	287.19
276.104	300.19
276.335	287.19
276.567	281.19
276.799	297.19
277.031	316.19
277.262	303.19
277.494	310.19
277.726	312.19
277.957	314.19
278.189	312.19
278.421	306.19
278.652	321.19
278.884	328.19
279.115	319.19
279.347	341.19
279.579	330.19
279.81	343.19
280.042	339.19
280.273	357.19
280.505	334.19
280.736	325.19
280.968	343.19
281.199	351.19
281.431	328.19
281.662	335.19
281.894	329.19
282.125	338.19
282.356	338.19
282.588	340.19
282.819	346.19
283.051	352.19
283.282	353.19
283.513	343.19
283.745	351.19
283.976	332.19
284.207	337.19
284.439	327.19
284.67	359.19
284.901	337.19
285.132	344.19
285.364	360.19
285.595	346.19
285.826	363.19
286.057	341.19
286.288	352.19
286.52	371.19
286.751	364.19
286.982	359.19
287.213	374.19
287.444	353.19
287.675	361.19
287.906	374.19
288.138	383.19
288.369	369.19
288.6	366.19
288.831	384.19
289.062	367.19
289.293	367.19
289.524	378.19
289.755	357.19
289.986	377.19
290.217	379.19
290.448	379.19
290.679	386.19
290.91	381.19
291.141	359.19
291.371	383.19
291.602	379.19
291.833	355.19
292.064	387.19
292.295	385.19
292.526	374.19
292.757	404.19
292.987	369.19
293.218	377.19
293.449	387.19
293.68	385.19
293.91	375.19
294.141	387.19
294.372	394.19
294.603	395.19
294.833	385.19
295.064	384.19
295.295	377.19
295.525	392.19
295.756	407.19
295.987	395.19
296.217	388.19
296.448	395.19
296.679	391.19
296.909	403.19
297.14	413.19
297.37	409.19
297.601	407.19
297.831	408.19
298.062	435.19
298.292	427.19
298.523	424.19
298.753	413.19
298.984	412.19
299.214	413.19
299.445	423.19
299.675	426.19
299.905	397.19
300.136	420.19
300.366	422.19
300.597	434.19
300.827	437.19
301.057	426.19
301.288	449.19
301.518	447.19
301.748	427.19
301.979	440.19
302.209	439.19
302.439	440.19
302.669	426.19
302.9	415.19
303.13	421.19
303.36	424.19
303.59	440.19
303.82	432.19
304.051	460.19
304.281	417.19
304.511	417.19
304.741	432.19
304.971	441.19
305.201	431.19
305.431	430.19
305.661	442.19
305.891	445.19
306.121	425.19
306.352	429.19
306.582	437.19
306.812	419.19
307.042	431.19
307.272	423.19
307.502	431.19
307.731	417.19
307.961	423.19
308.191	396.19
308.421	425.19
308.651	412.19
308.881	410.19
309.111	431.19
309.341	433.19
309.571	443.19
309.8	428.19
310.03	425.19
310.26	418.19
310.49	435.19
310.72	433.19
310.949	450.19
311.179	429.19
311.409	448.19
311.639	436.19
311.868	445.19
312.098	460.19
312.328	444.19
312.557	440.19
312.787	455.19
313.017	445.19
313.246	458.19
313.476	450.19
313.706	463.19
313.935	474.19
314.165	464.19
314.394	455.19
314.624	455.19
314.853	447.19
315.083	464.19
315.312	464.19
315.542	456.19
315.771	471.19
316.001	465.19
316.23	456.19
316.46	437.19
316.689	450.19
316.919	433.19
317.148	442.19
317.377	447.19
317.607	442.19
317.836	443.19
318.065	452.19
318.295	457.19
318.524	439.19
318.753	435.19
318.983	441.19
319.212	449.19
319.441	452.19
319.67	444.19
319.9	453.19
320.129	452.19
320.358	449.19
320.587	457.19
320.816	443.19
321.046	445.19
321.275	451.19
321.504	442.19
321.733	472.19
321.962	466.19
322.191	458.19
322.42	455.19
322.649	441.19
322.878	448.19
323.108	424.19
323.337	461.19
323.566	463.19
323.795	478.19
324.024	458.19
324.253	464.19
324.482	459.19
324.71	469.19
324.939	494.19
325.168	475.19
325.397	484.19
325.626	471.19
325.855	492.19
326.084	487.19
326.313	493.19
326.542	511.19
326.77	508.19
326.999	508.19
327.228	485.19
327.457	491.19
327.686	496.19
327.914	520.19
328.143	491.19
328.372	499.19
328.6	500.19
328.829	499.19
329.058	501.19
329.287	481.19
329.515	483.19
329.744	492.19
329.972	509.19
330.201	487.19
330.43	489.19
330.658	515.19
330.887	512.19
331.115	505.19
331.344	526.19
331.572	537.19
331.801	531.19
332.03	559.19
332.258	543.19
332.486	583.19
332.715	592.19
332.943	612.19
333.172	624.19
333.4	651.19
333.629	680.19
333.857	677.19
334.085	667.19
334.314	643.19
334.542	634.19
334.771	636.19
334.999	614.19
335.227	634.19
335.455	593.19
335.684	608.19
335.912	613.19
336.14	600.19
336.369	589.19
336.597	618.19
336.825	591.19
337.053	588.19
337.281	577.19
337.51	566.19
337.738	579.19
337.966	564.19
338.194	559.19
338.422	553.19
338.65	552.19
338.878	527.19
339.106	539.19
339.334	540.19
339.562	541.19
339.79	508.19
340.018	498.19
340.246	499.19
340.474	526.19
340.702	538.19
340.93	530.19
341.158	536.19
341.386	535.19
341.614	525.19
341.842	532.19
342.07	517.19
342.298	535.19
342.526	540.19
342.754	517.19
342.981	522.19
343.209	528.19
343.437	575.19
343.665	616.19
343.893	641.19
344.12	647.19
344.348	609.19
344.576	585.19
344.804	593.19
345.031	569.19
345.259	548.19
345.487	539.19
345.714	526.19
345.942	527.19
346.17	533.19
346.397	540.19
346.625	515.19
346.853	496.19
347.08	505.19
347.308	509.19
347.535	512.19
347.763	526.19
347.99	524.19
348.218	532.19
348.445	531.19
348.673	501.19
348.9	525.19
349.128	513.19
349.355	503.19
349.583	514.19
349.81	495.19
350.037	504.19
350.265	496.19
350.492	485.19
350.72	489.19
350.947	488.19
351.174	521.19
351.402	494.19
351.629	503.19
351.856	487.19
352.083	492.19
352.311	507.19
352.538	490.19
352.765	483.19
352.992	471.19
353.22	476.19
353.447	477.19
353.674	497.19
353.901	482.19
354.128	516.19
354.355	476.19
354.583	483.19
354.81	486.19
355.037	488.19
355.264	476.19
355.491	522.19
355.718	513.19
355.945	485.19
356.172	482.19
356.399	490.19
356.626	500.19
356.853	505.19
357.08	476.19
357.307	486.19
357.534	504.19
357.761	501.19
357.988	490.19
358.215	482.19
358.441	487.19
358.668	482.19
358.895	501.19
359.122	487.19
359.349	491.19
359.576	517.19
359.802	518.19
360.029	482.19
360.256	496.19
360.483	475.19
360.709	505.19
360.936	488.19
361.163	488.19
361.39	471.19
361.616	497.19
361.843	504.19
362.07	488.19
362.296	503.19
362.523	491.19
362.749	499.19
362.976	487.19
363.203	495.19
363.429	509.19
363.656	493.19
363.882	503.19
364.109	476.19
364.335	491.19
364.562	524.19
364.788	489.19
365.015	486.19
365.241	471.19
365.468	489.19
365.694	482.19
365.92	481.19
366.147	472.19
366.373	483.19
366.599	467.19
366.826	508.19
367.052	500.19
367.278	499.19
367.505	495.19
367.731	514.19
367.957	484.19
368.184	498.19
368.41	505.19
368.636	500.19
368.862	512.19
369.089	514.19
369.315	512.19
369.541	504.19
369.767	525.19
369.993	509.19
370.219	525.19
370.445	520.19
370.672	518.19
370.898	516.19
371.124	525.19
371.35	567.19
371.576	532.19
371.802	546.19
372.028	547.19
372.254	548.19
372.48	524.19
372.706	548.19
372.932	560.19
373.158	566.19
373.384	551.19
373.61	536.19
373.835	527.19
374.061	539.19
374.287	562.19
374.513	545.19
374.739	564.19
374.965	577.19
375.191	608.19
375.416	611.19
375.642	576.19
375.868	581.19
376.094	580.19
376.319	552.19
376.545	553.19
376.771	540.19
376.997	545.19
377.222	564.19
377.448	549.19
377.674	564.19
377.899	543.19
378.125	537.19
378.35	552.19
378.576	525.19
378.802	535.19
379.027	522.19
379.253	525.19
379.478	541.19
379.704	537.19
379.929	515.19
380.155	517.19
380.38	539.19
380.606	542.19
380.831	525.19
381.057	560.19
381.282	548.19
381.507	563.19
381.733	543.19
381.958	566.19
382.184	557.19
382.409	566.19
382.634	569.19
382.86	564.19
383.085	572.19
383.31	577.19
383.535	578.19
383.761	604.19
383.986	620.19
384.211	618.19
384.436	621.19
384.662	633.19
384.887	647.19
385.112	636.19
385.337	648.19
385.562	637.19
385.787	662.19
386.013	657.19
386.238	662.19
386.463	642.19
386.688	634.19
386.913	631.19
387.138	614.19
387.363	636.19
387.588	636.19
387.813	624.19
388.038	616.19
388.263	633.19
388.488	649.19
388.713	624.19
388.938	636.19
389.163	610.19
389.387	612.19
389.612	618.19
389.837	630.19
390.062	629.19
390.287	619.19
390.512	625.19
390.736	624.19
390.961	657.19
391.186	657.19
391.411	661.19
391.636	701.19
391.86	712.19
392.085	700.19
392.31	703.19
392.534	702.19
392.759	688.19
392.984	648.19
393.208	657.19
393.433	662.19
393.658	688.19
393.882	680.19
394.107	664.19
394.331	687.19
394.556	701.19
394.78	710.19
395.005	697.19
395.229	696.19
395.454	696.19
395.678	718.19
395.903	729.19
396.127	683.19
396.352	691.19
396.576	631.19
396.801	652.19
397.025	680.19
397.249	693.19
397.474	693.19
397.698	716.19
397.922	721.19
398.147	719.19
398.371	729.19
398.595	767.19
398.82	787.19
399.044	856.19
399.268	917.19
399.492	1078.19
399.717	1216.19
399.941	1232.19
400.165	1068.19
400.389	932.19
400.613	854.19
400.837	839.19
401.062	787.19
401.286	819.19
401.51	765.19
401.734	776.19
401.958	796.19
402.182	799.19
402.406	808.19
402.63	832.19
402.854	837.19
403.078	852.19
403.302	890.19
403.526	921.19
403.75	908.19
403.974	939.19
404.198	922.19
404.422	928.19
404.645	932.19
404.869	899.19
405.093	920.19
405.317	894.19
405.541	884.19
405.765	882.19
405.988	857.19
406.212	848.19
406.436	862.19
406.66	910.19
406.883	895.19
407.107	940.19
407.331	1011.19
407.555	1052.19
407.778	1060.19
408.002	1015.19
408.226	973.19
408.449	975.19
408.673	913.19
408.896	935.19
409.12	893.19
409.344	919.19
409.567	907.19
409.791	913.19
410.014	922.19
410.238	891.19
410.461	906.19
410.685	871.19
410.908	879.19
411.132	836.19
411.355	847.19
411.578	809.19
411.802	825.19
412.025	847.19
412.249	855.19
412.472	844.19
412.695	809.19
412.919	799.19
413.142	800.19
413.365	801.19
413.589	811.19
413.812	802.19
414.035	800.19
414.258	789.19
414.482	785.19
414.705	804.19
414.928	799.19
415.151	799.19
415.374	805.19
415.597	817.19
415.821	767.19
416.044	785.19
416.267	792.19
416.49	765.19
416.713	769.19
416.936	777.19
417.159	772.19
417.382	770.19
417.605	779.19
417.828	768.19
418.051	790.19
418.274	790.19
418.497	780.19
418.72	817.19
418.943	803.19
419.166	888.19
419.389	924.19
419.611	904.19
419.834	831.19
420.057	801.19
420.28	819.19
420.503	764.19
420.726	770.19
420.948	766.19
421.171	777.19
421.394	789.19
421.617	802.19
421.839	790.19
422.062	789.19
422.285	793.19
422.507	796.19
422.73	792.19
422.953	813.19
423.175	820.19
423.398	846.19
423.621	829.19
423.843	828.19
424.066	841.19
424.288	841.19
424.511	829.19
424.733	834.19
424.956	820.19
425.178	776.19
425.401	785.19
425.623	801.19
425.846	758.19
426.068	777.19
426.291	739.19
426.513	740.19
426.735	748.19
426.958	741.19
427.18	745.19
427.402	729.19
427.625	732.19
427.847	726.19
428.069	720.19
428.292	722.19
428.514	688.19
428.736	689.19
428.958	699.19
429.181	697.19
429.403	679.19
429.625	694.19
429.847	687.19
430.069	666.19
430.292	684.19
430.514	676.19
430.736	702.19
430.958	705.19
431.18	680.19
431.402	706.19
431.624	700.19
431.846	692.19
432.068	731.19
432.29	716.19
432.512	709.19
432.734	713.19
432.956	708.19
433.178	704.19
433.4	705.19
433.622	721.19
433.844	771.19
434.066	707.19
434.287	737.19
434.509	757.19
434.731	743.19
434.953	792.19
435.175	833.19
435.397	802.19
435.618	745.19
435.84	737.19
436.062	684.19
436.284	714.19
436.505	709.19
436.727	731.19
436.949	707.19
437.17	716.19
437.392	694.19
437.614	703.19
437.835	659.19
438.057	677.19
438.278	668.19
438.5	679.19
438.721	684.19
438.943	691.19
439.165	679.19
439.386	704.19
439.608	705.19
439.829	699.19
440.05	706.19
440.272	698.19
440.493	720.19
440.715	759.19
440.936	741.19
441.158	742.19
441.379	775.19
441.6	799.19
441.822	809.19
442.043	816.19
442.264	773.19
442.486	775.19
442.707	780.19
442.928	787.19
443.149	796.19
443.371	800.19
443.592	782.19
443.813	808.19
444.034	810.19
444.255	826.19
444.476	864.19
444.698	919.19
444.919	929.19
445.14	998.19
445.361	898.19
445.582	800.19
445.803	811.19
446.024	748.19
446.245	747.19
446.466	720.19
446.687	713.19
446.908	690.19
447.129	719.19
447.35	704.19
447.571	666.19
447.792	689.19
448.013	692.19
448.234	672.19
448.455	643.19
448.675	671.19
448.896	632.19
449.117	662.19
449.338	652.19
449.559	654.19
449.779	673.19
450	646.19
450.221	655.19
450.442	659.19
450.662	677.19
450.883	682.19
451.104	685.19
451.324	681.19
451.545	667.19
451.766	697.19
451.986	650.19
452.207	666.19
452.428	707.19
452.648	666.19
452.869	666.19
453.089	649.19
453.31	667.19
453.53	644.19
453.751	657.19
453.971	645.19
454.192	639.19
454.412	643.19
454.633	622.19
454.853	629.19
455.073	628.19
455.294	631.19
455.514	624.19
455.734	607.19
455.955	609.19
456.175	626.19
456.395	614.19
456.616	598.19
456.836	613.19
457.056	616.19
457.276	600.19
457.497	626.19
457.717	611.19
457.937	621.19
458.157	632.19
458.377	615.19
458.598	643.19
458.818	683.19
459.038	682.19
459.258	689.19
459.478	729.19
459.698	755.19
459.918	738.19
460.138	800.19
460.358	831.19
460.578	859.19
460.798	843.19
461.018	868.19
461.238	821.19
461.458	825.19
461.678	835.19
461.898	827.19
462.118	868.19
462.338	894.19
462.558	905.19
462.777	947.19
462.997	1033.19
463.217	1151.19
463.437	1148.19
463.657	1053.19
463.876	1003.19
464.096	991.19
464.316	1004.19
464.536	991.19
464.755	977.19
464.975	915.19
465.195	859.19
465.414	820.19
465.634	773.19
465.854	744.19
466.073	740.19
466.293	723.19
466.512	716.19
466.732	703.19
466.951	669.19
467.171	705.19
467.391	695.19
467.61	692.19
467.829	699.19
468.049	669.19
468.268	669.19
468.488	661.19
468.707	669.19
468.927	658.19
469.146	653.19
469.365	679.19
469.585	673.19
469.804	682.19
470.023	694.19
470.243	677.19
470.462	705.19
470.681	707.19
470.901	726.19
471.12	703.19
471.339	688.19
471.558	667.19
471.777	689.19
471.997	671.19
472.216	649.19
472.435	631.19
472.654	636.19
472.873	640.19
473.092	642.19
473.311	623.19
473.53	641.19
473.749	648.19
473.968	636.19
474.187	642.19
474.406	637.19
474.625	646.19
474.844	641.19
475.063	644.19
475.282	633.19
475.501	668.19
475.72	686.19
475.939	662.19
476.158	652.19
476.377	676.19
476.596	677.19
476.814	683.19
477.033	668.19
477.252	675.19
477.471	695.19
477.69	710.19
477.908	737.19
478.127	786.19
478.346	756.19
478.564	757.19
478.783	787.19
479.002	819.19
479.22	802.19
479.439	783.19
479.658	772.19
479.876	807.19
480.095	807.19
480.313	838.19
480.532	853.19
480.751	872.19
480.969	837.19
481.188	786.19
481.406	769.19
481.624	748.19
481.843	735.19
482.061	744.19
482.28	733.19
482.498	750.19
482.717	747.19
482.935	732.19
483.153	739.19
483.372	724.19
483.59	737.19
483.808	733.19
484.027	769.19
484.245	768.19
484.463	739.19
484.681	781.19
484.9	746.19
485.118	795.19
485.336	782.19
485.554	797.19
485.772	818.19
485.99	804.19
486.209	815.19
486.427	772.19
486.645	806.19
486.863	795.19
487.081	775.19
487.299	767.19
487.517	824.19
487.735	785.19
487.953	811.19
488.171	785.19
488.389	812.19
488.607	789.19
488.825	760.19
489.043	775.19
489.261	775.19
489.479	758.19
489.696	775.19
489.914	764.19
490.132	803.19
490.35	784.19
490.568	775.19
490.786	767.19
491.003	775.19
491.221	789.19
491.439	806.19
491.657	759.19
491.874	787.19
492.092	791.19
492.31	803.19
492.527	786.19
492.745	772.19
492.963	787.19
493.18	823.19
493.398	789.19
493.615	807.19
493.833	786.19
494.05	800.19
494.268	817.19
494.485	821.19
494.703	801.19
494.92	809.19
495.138	832.19
495.355	817.19
495.573	807.19
495.79	815.19
496.008	804.19
496.225	814.19
496.442	816.19
496.66	866.19
496.877	861.19
497.094	864.19
497.312	859.19
497.529	863.19
497.746	904.19
497.963	924.19
498.181	963.19
498.398	1008.19
498.615	1067.19
498.832	1137.19
499.049	1226.19
499.267	1312.19
499.484	1433.19
499.701	1629.19
499.918	1799.19
500.135	2010.19
500.352	2347.19
500.569	2540.19
500.786	2395.19
501.003	2240.19
501.22	2005.19
501.437	1772.19
501.654	1517.19
501.871	1391.19
502.088	1263.19
502.305	1216.19
502.522	1135.19
502.739	1098.19
502.956	1066.19
503.172	984.19
503.389	960.19
503.606	916.19
503.823	921.19
504.04	938.19
504.256	920.19
504.473	941.19
504.69	1004.19
504.907	946.19
505.123	881.19
505.34	857.19
505.557	807.19
505.773	801.19
505.99	766.19
506.207	722.19
506.423	734.19
506.64	772.19
506.856	739.19
507.073	724.19
507.289	720.19
507.506	727.19
507.722	728.19
507.939	718.19
508.155	721.19
508.372	683.19
508.588	691.19
508.805	712.19
509.021	708.19
509.238	695.19
509.454	706.19
509.67	680.19
509.887	687.19
510.103	681.19
510.319	676.19
510.536	674.19
510.752	674.19
510.968	677.19
511.184	651.19
511.401	659.19
511.617	676.19
511.833	665.19
512.049	652.19
512.265	656.19
512.481	639.19
512.698	646.19
512.914	666.19
513.13	655.19
513.346	664.19
513.562	671.19
513.778	639.19
513.994	658.19
514.21	674.19
514.426	670.19
514.642	669.19
514.858	672.19
515.074	650.19
515.29	688.19
515.506	690.19
515.721	705.19
515.937	703.19
516.153	717.19
516.369	711.19
516.585	746.19
516.801	774.19
517.016	776.19
517.232	851.19
517.448	886.19
517.664	929.19
517.879	905.19
518.095	921.19
518.311	907.19
518.527	862.19
518.742	858.19
518.958	799.19
519.173	753.19
519.389	740.19
519.605	726.19
519.82	710.19
520.036	696.19
520.251	691.19
520.467	665.19
520.682	664.19
520.898	688.19
521.113	676.19
521.329	628.19
521.544	625.19
521.76	637.19
521.975	630.19
522.19	629.19
522.406	636.19
522.621	636.19
522.836	631.19
523.052	645.19
523.267	617.19
523.482	618.19
523.698	613.19
523.913	643.19
524.128	616.19
524.343	616.19
524.559	595.19
524.774	587.19
524.989	594.19
525.204	610.19
525.419	600.19
525.634	612.19
525.849	611.19
526.064	614.19
526.28	577.19
526.495	579.19
526.71	625.19
526.925	587.19
527.14	577.19
527.355	587.19
527.57	602.19
527.785	605.19
527.999	613.19
528.214	592.19
528.429	599.19
528.644	611.19
528.859	598.19
529.074	618.19
529.289	613.19
529.503	599.19
529.718	584.19
529.933	608.19
530.148	611.19
530.363	617.19
530.577	590.19
530.792	587.19
531.007	596.19
531.221	615.19
531.436	587.19
531.651	603.19
531.865	614.19
532.08	617.19
532.295	613.19
532.509	603.19
532.724	612.19
532.938	604.19
533.153	598.19
533.367	604.19
533.582	611.19
533.796	600.19
534.011	596.19
534.225	615.19
534.44	592.19
534.654	583.19
534.868	589.19
535.083	587.19
535.297	562.19
535.511	586.19
535.726	582.19
535.94	600.19
536.154	598.19
536.369	558.19
536.583	565.19
536.797	533.19
537.011	567.19
537.225	568.19
537.44	545.19
537.654	552.19
537.868	545.19
538.082	545.19
538.296	532.19
538.51	563.19
538.724	563.19
538.938	547.19
539.153	553.19
539.367	556.19
539.581	543.19
539.795	526.19
540.009	539.19
540.222	542.19
540.436	559.19
540.65	556.19
540.864	561.19
541.078	548.19
541.292	524.19
541.506	548.19
541.72	561.19
541.934	535.19
542.147	539.19
542.361	535.19
542.575	511.19
542.789	545.19
543.002	548.19
543.216	532.19
543.43	548.19
543.644	543.19
543.857	525.19
544.071	515.19
544.285	524.19
544.498	546.19
544.712	532.19
544.925	552.19
545.139	535.19
545.352	545.19
545.566	562.19
545.779	535.19
545.993	556.19
546.206	564.19
546.42	537.19
546.633	541.19
546.847	545.19
547.06	536.19
547.274	559.19
547.487	534.19
547.7	536.19
547.914	537.19
548.127	553.19
548.34	570.19
548.554	563.19
548.767	534.19
548.98	573.19
549.193	563.19
549.407	557.19
549.62	552.19
549.833	597.19
550.046	567.19
550.259	561.19
550.473	531.19
550.686	553.19
550.899	541.19
551.112	531.19
551.325	535.19
551.538	543.19
551.751	518.19
551.964	537.19
552.177	530.19
552.39	553.19
552.603	570.19
552.816	612.19
553.029	602.19
553.242	589.19
553.455	603.19
553.667	616.19
553.88	595.19
554.093	573.19
554.306	578.19
554.519	563.19
554.732	540.19
554.944	549.19
555.157	518.19
555.37	537.19
555.583	498.19
555.795	501.19
556.008	509.19
556.221	513.19
556.433	496.19
556.646	504.19
556.859	480.19
557.071	486.19
557.284	501.19
557.496	486.19
557.709	468.19
557.921	471.19
558.134	471.19
558.346	460.19
558.559	455.19
558.771	458.19
558.984	454.19
559.196	469.19
559.409	475.19
559.621	479.19
559.833	469.19
560.046	470.19
560.258	474.19
560.47	460.19
560.683	453.19
560.895	462.19
561.107	443.19
561.32	452.19
561.532	454.19
561.744	454.19
561.956	464.19
562.168	447.19
562.381	441.19
562.593	458.19
562.805	474.19
563.017	444.19
563.229	447.19
563.441	470.19
563.653	467.19
563.865	468.19
564.077	449.19
564.289	455.19
564.501	483.19
564.713	479.19
564.925	497.19
565.137	505.19
565.349	518.19
565.561	516.19
565.773	552.19
565.985	572.19
566.197	580.19
566.408	632.19
566.62	649.19
566.832	721.19
567.044	751.19
567.255	711.19
567.467	750.19
567.679	816.19
567.891	860.19
568.102	872.19
568.314	852.19
568.526	751.19
568.737	696.19
568.949	629.19
569.161	583.19
569.372	553.19
569.584	516.19
569.795	485.19
570.007	487.19
570.218	470.19
570.43	468.19
570.641	481.19
570.853	465.19
571.064	472.19
571.276	489.19
571.487	465.19
571.698	451.19
571.91	418.19
572.121	415.19
572.333	409.19
572.544	403.19
572.755	383.19
572.966	395.19
573.178	411.19
573.389	403.19
573.6	400.19
573.811	405.19
574.023	376.19
574.234	396.19
574.445	399.19
574.656	385.19
574.867	397.19
575.078	392.19
575.289	370.19
575.501	358.19
575.712	360.19
575.923	378.19
576.134	375.19
576.345	372.19
576.556	368.19
576.767	372.19
576.978	369.19
577.188	356.19
577.399	362.19
577.61	368.19
577.821	377.19
578.032	363.19
578.243	360.19
578.454	355.19
578.665	337.19
578.875	344.19
579.086	358.19
579.297	341.19
579.508	338.19
579.718	343.19
579.929	330.19
580.14	328.19
580.35	341.19
580.561	352.19
580.772	340.19
580.982	362.19
581.193	325.19
581.403	337.19
581.614	326.19
581.825	330.19
582.035	321.19
582.246	325.19
582.456	323.19
582.667	341.19
582.877	333.19
583.087	338.19
583.298	335.19
583.508	325.19
583.719	333.19
583.929	316.19
584.139	330.19
584.35	312.19
584.56	321.19
584.77	327.19
584.981	327.19
585.191	312.19
585.401	313.19
585.611	321.19
585.821	318.19
586.032	340.19
586.242	301.19
586.452	309.19
586.662	320.19
586.872	298.19
587.082	312.19
587.292	317.19
587.502	313.19
587.713	299.19
587.923	340.19
588.133	321.19
588.343	317.19
588.553	311.19
588.762	321.19
588.972	319.19
589.182	330.19
589.392	295.19
589.602	328.19
589.812	321.19
590.022	327.19
590.232	321.19
590.441	325.19
590.651	312.19
590.861	321.19
591.071	332.19
591.281	312.19
591.49	323.19
591.7	320.19
591.91	341.19
592.119	338.19
592.329	367.19
592.539	355.19
592.748	362.19
592.958	373.19
593.167	388.19
593.377	394.19
593.587	404.19
593.796	403.19
594.006	381.19
594.215	396.19
594.424	407.19
594.634	391.19
594.843	384.19
595.053	363.19
595.262	330.19
595.472	346.19
595.681	333.19
595.89	307.19
596.1	314.19
596.309	324.19
596.518	287.19
596.727	319.19
596.937	301.19
597.146	291.19
597.355	297.19
597.564	300.19
597.774	304.19
597.983	287.19
598.192	265.19
598.401	289.19
598.61	291.19
598.819	283.19
599.028	257.19
599.237	274.19
599.446	261.19
599.655	287.19
599.864	265.19
600.073	276.19
600.282	287.19
600.491	273.19
600.7	268.19
600.909	263.19
601.118	270.19
601.327	277.19
601.536	269.19
601.745	262.19
601.953	270.19
602.162	277.19
602.371	259.19
602.58	263.19
602.789	247.19
602.997	279.19
603.206	266.19
603.415	252.19
603.623	258.19
603.832	248.19
604.041	240.19
604.249	252.19
604.458	268.19
604.666	252.19
604.875	264.19
605.084	268.19
605.292	256.19
605.501	255.19
605.709	259.19
605.918	247.19
606.126	253.19
606.334	248.19
606.543	247.19
606.751	236.19
606.96	258.19
607.168	259.19
607.376	240.19
607.585	252.19
607.793	251.19
608.001	259.19
608.21	258.19
608.418	229.19
608.626	251.19
608.834	242.19
609.043	242.19
609.251	244.19
609.459	265.19
609.667	229.19
609.875	244.19
610.083	252.19
610.291	239.19
610.499	247.19
610.707	258.19
610.916	235.19
611.124	255.19
611.332	252.19
611.54	233.19
611.748	226.19
611.955	247.19
612.163	239.19
612.371	241.19
612.579	232.19
612.787	241.19
612.995	231.19
613.203	234.19
613.411	246.19
613.618	225.19
613.826	244.19
614.034	232.19
614.242	231.19
614.449	229.19
614.657	230.19
614.865	230.19
615.072	236.19
615.28	234.19
615.488	232.19
615.695	257.19
615.903	224.19
616.111	217.19
616.318	251.19
616.526	257.19
616.733	228.19
616.941	255.19
617.148	231.19
617.356	244.19
617.563	233.19
617.771	240.19
617.978	245.19
618.185	231.19
618.393	241.19
618.6	236.19
618.807	246.19
619.015	236.19
619.222	231.19
619.429	228.19
619.637	233.19
619.844	242.19
620.051	213.19
620.258	243.19
620.466	216.19
620.673	215.19
620.88	215.19
621.087	218.19
621.294	220.19
621.501	226.19
621.708	234.19
621.915	219.19
622.122	206.19
622.329	227.19
622.536	213.19
622.743	228.19
622.95	218.19
623.157	227.19
623.364	214.19
623.571	204.19
623.778	202.19
623.985	202.19
624.192	216.19
624.399	194.19
624.606	214.19
624.812	197.19
625.019	215.19
625.226	215.19
625.433	219.19
625.639	224.19
625.846	196.19
626.053	199.19
626.259	203.19
626.466	211.19
626.673	209.19
626.879	212.19
627.086	208.19
627.293	199.19
627.499	199.19
627.706	204.19
627.912	204.19
628.119	183.19
628.325	191.19
628.532	196.19
628.738	173.19
628.945	210.19
629.151	191.19
629.357	205.19
629.564	198.19
629.77	193.19
629.976	195.19
630.183	196.19
630.389	184.19
630.595	178.19
630.802	173.19
631.008	179.19
631.214	196.19
631.42	185.19
631.627	200.19
631.833	185.19
632.039	171.19
632.245	172.19
632.451	172.19
632.657	196.19
632.863	178.19
633.069	171.19
633.275	180.19
633.481	193.19
633.688	176.19
633.893	184.19
634.099	188.19
634.305	182.19
634.511	197.19
634.717	187.19
634.923	173.19
635.129	181.19
635.335	196.19
635.541	173.19
635.747	184.19
635.952	185.19
636.158	172.19
636.364	184.19
636.57	186.19
636.775	172.19
636.981	181.19
637.187	177.19
637.392	165.19
637.598	179.19
637.804	176.19
638.009	182.19
638.215	170.19
638.421	173.19
638.626	175.19
638.832	172.19
639.037	170.19
639.243	165.19
639.448	161.19
639.654	184.19
639.859	169.19
640.065	193.19
640.27	177.19
640.475	173.19
640.681	156.19
640.886	161.19
641.091	168.19
641.297	163.19
641.502	168.19
641.707	161.19
641.913	181.19
642.118	181.19
642.323	175.19
642.528	153.19
642.733	168.19
642.939	170.19
643.144	170.19
643.349	173.19
643.554	162.19
643.759	165.19
643.964	148.19
644.169	167.19
644.374	176.19
644.579	166.19
644.784	155.19
644.989	178.19
645.194	160.19
645.399	171.19
645.604	152.19
645.809	173.19
646.014	170.19
646.219	177.19
646.423	181.19
646.628	165.19
646.833	175.19
647.038	165.19
647.243	163.19
647.447	177.19
647.652	177.19
647.857	180.19
648.062	166.19
648.266	181.19
648.471	169.19
648.676	172.19
648.88	173.19
649.085	164.19
649.289	165.19
649.494	152.19
649.698	163.19
649.903	173.19
650.107	169.19
650.312	177.19
650.516	143.19
650.721	151.19
650.925	167.19
651.13	166.19
651.334	133.19
651.539	159.19
651.743	150.19
651.947	154.19
652.152	157.19
652.356	151.19
652.56	136.19
652.764	135.19
652.969	148.19
653.173	135.19
653.377	140.19
653.581	142.19
653.785	140.19
653.99	153.19
654.194	151.19
654.398	136.19
654.602	145.19
654.806	142.19
655.01	133.19
655.214	127.19
655.418	135.19
655.622	150.19
655.826	132.19
656.03	140.19
656.234	138.19
656.438	129.19
656.642	149.19
656.846	141.19
657.049	116.19
657.253	137.19
657.457	118.19
657.661	123.19
657.865	124.19
658.068	132.19
658.272	102.19
658.476	117.19
658.68	101.19
658.883	123.19
659.087	113.19
659.291	93.19
659.494	103.19
659.698	93.19
659.901	97.19
660.105	96.19
660.309	88.19
660.512	83.19
660.716	84.19
660.919	92.19
661.123	89.19
661.326	102.19
661.53	78.19
661.733	92.19
661.936	90.19
662.14	96.19
662.343	86.19
662.546	93.19
662.75	99.19
662.953	83.19
663.156	81.19
663.36	90.19
663.563	88.19
663.766	73.19
663.969	95.19
664.173	80.19
664.376	68.19
664.579	86.19
664.782	91.19
664.985	78.19
665.188	92.19
665.391	71.19
665.594	87.19
665.797	77.19
666	75.19
666.203	87.19
666.406	68.19
666.609	73.19
666.812	79.19
667.015	82.19
667.218	74.19
667.421	90.19
667.624	89.19
667.827	74.19
668.03	90.19
668.232	86.19
668.435	88.19
668.638	67.19
668.841	84.19
669.043	84.19
669.246	92.19
669.449	82.19
669.651	68.19
669.854	81.19
670.057	90.19
670.259	68.19
670.462	82.19
670.665	72.19
670.867	83.19
671.07	77.19
671.272	85.19
671.475	84.19
671.677	75.19
671.88	85.19
672.082	86.19
672.284	77.19
672.487	75.19
672.689	75.19
672.892	65.19
