Data from Ni(NO3)2Standard.Agarose3%.GreenCap.LampEnergy5.5.E.O_HRD10591_14-41-04-187.txt Node
Date: Mon Jul 22 14:41:04 EDT 2019
User: cochatt
Spectrometer: HR+D1059
Trigger mode: 1
Integration Time (sec): 1.000000E-1
Scans to average: 1
Electric dark correction enabled: true
Nonlinearity correction enabled: false
Boxcar width: 0
XAxis mode: Wavelengths
Number of Pixels in Spectrum: 2048
>>>>>Begin Spectral Data<<<<<
223.165	-4.81
223.4	-4.81
223.635	-4.81
223.869	-16.81
224.104	-15.81
224.338	-34.81
224.573	-15.81
224.808	-12.81
225.042	-15.81
225.277	8.19
225.511	-1.81
225.746	7.19
225.98	11.19
226.215	7.19
226.449	18.19
226.683	16.19
226.918	41.19
227.152	9.19
227.387	37.19
227.621	47.19
227.856	61.19
228.09	53.19
228.324	74.19
228.559	57.19
228.793	52.19
229.027	69.19
229.262	64.19
229.496	74.19
229.73	72.19
229.964	75.19
230.199	63.19
230.433	74.19
230.667	76.19
230.901	95.19
231.136	78.19
231.37	68.19
231.604	81.19
231.838	74.19
232.072	90.19
232.306	91.19
232.541	82.19
232.775	90.19
233.009	84.19
233.243	80.19
233.477	75.19
233.711	83.19
233.945	100.19
234.179	74.19
234.413	85.19
234.647	85.19
234.881	78.19
235.115	85.19
235.349	75.19
235.583	98.19
235.817	81.19
236.051	78.19
236.285	87.19
236.519	86.19
236.753	84.19
236.987	77.19
237.221	88.19
237.455	86.19
237.689	84.19
237.922	80.19
238.156	74.19
238.39	64.19
238.624	77.19
238.858	84.19
239.091	66.19
239.325	86.19
239.559	88.19
239.793	85.19
240.027	76.19
240.26	91.19
240.494	88.19
240.728	81.19
240.961	82.19
241.195	86.19
241.429	91.19
241.662	89.19
241.896	85.19
242.13	81.19
242.363	76.19
242.597	58.19
242.83	84.19
243.064	80.19
243.298	74.19
243.531	75.19
243.765	95.19
243.998	79.19
244.232	89.19
244.465	85.19
244.699	79.19
244.932	76.19
245.166	72.19
245.399	61.19
245.633	83.19
245.866	83.19
246.099	83.19
246.333	76.19
246.566	85.19
246.8	80.19
247.033	78.19
247.266	77.19
247.5	78.19
247.733	90.19
247.966	84.19
248.2	88.19
248.433	86.19
248.666	77.19
248.899	79.19
249.133	85.19
249.366	96.19
249.599	70.19
249.832	76.19
250.066	101.19
250.299	75.19
250.532	83.19
250.765	84.19
250.998	83.19
251.231	82.19
251.465	89.19
251.698	80.19
251.931	101.19
252.164	70.19
252.397	91.19
252.63	90.19
252.863	73.19
253.096	86.19
253.329	86.19
253.562	78.19
253.795	77.19
254.028	91.19
254.261	80.19
254.494	84.19
254.727	92.19
254.96	93.19
255.193	84.19
255.426	88.19
255.659	80.19
255.892	72.19
256.124	83.19
256.357	79.19
256.59	86.19
256.823	93.19
257.056	88.19
257.289	85.19
257.521	81.19
257.754	88.19
257.987	76.19
258.22	95.19
258.452	89.19
258.685	84.19
258.918	89.19
259.151	87.19
259.383	92.19
259.616	82.19
259.849	64.19
260.081	86.19
260.314	87.19
260.547	99.19
260.779	78.19
261.012	86.19
261.244	71.19
261.477	85.19
261.71	84.19
261.942	78.19
262.175	76.19
262.407	92.19
262.64	86.19
262.872	84.19
263.105	69.19
263.337	82.19
263.57	100.19
263.802	92.19
264.035	75.19
264.267	97.19
264.499	88.19
264.732	79.19
264.964	91.19
265.197	77.19
265.429	89.19
265.661	86.19
265.894	88.19
266.126	89.19
266.358	90.19
266.591	88.19
266.823	90.19
267.055	86.19
267.287	89.19
267.52	83.19
267.752	71.19
267.984	85.19
268.216	106.19
268.448	90.19
268.681	86.19
268.913	91.19
269.145	80.19
269.377	77.19
269.609	98.19
269.841	99.19
270.073	85.19
270.306	91.19
270.538	94.19
270.77	85.19
271.002	76.19
271.234	85.19
271.466	86.19
271.698	86.19
271.93	71.19
272.162	86.19
272.394	102.19
272.626	85.19
272.858	78.19
273.09	90.19
273.322	85.19
273.553	80.19
273.785	80.19
274.017	88.19
274.249	88.19
274.481	93.19
274.713	85.19
274.945	88.19
275.176	89.19
275.408	90.19
275.64	96.19
275.872	89.19
276.104	91.19
276.335	81.19
276.567	88.19
276.799	96.19
277.031	93.19
277.262	92.19
277.494	95.19
277.726	69.19
277.957	87.19
278.189	86.19
278.421	95.19
278.652	98.19
278.884	79.19
279.115	84.19
279.347	92.19
279.579	93.19
279.81	85.19
280.042	93.19
280.273	87.19
280.505	77.19
280.736	89.19
280.968	88.19
281.199	95.19
281.431	91.19
281.662	102.19
281.894	74.19
282.125	88.19
282.356	80.19
282.588	86.19
282.819	114.19
283.051	95.19
283.282	72.19
283.513	89.19
283.745	81.19
283.976	88.19
284.207	91.19
284.439	90.19
284.67	89.19
284.901	98.19
285.132	94.19
285.364	91.19
285.595	93.19
285.826	89.19
286.057	74.19
286.288	97.19
286.52	89.19
286.751	87.19
286.982	85.19
287.213	101.19
287.444	88.19
287.675	81.19
287.906	88.19
288.138	90.19
288.369	95.19
288.6	81.19
288.831	90.19
289.062	85.19
289.293	90.19
289.524	93.19
289.755	91.19
289.986	94.19
290.217	110.19
290.448	88.19
290.679	90.19
290.91	87.19
291.141	94.19
291.371	103.19
291.602	92.19
291.833	87.19
292.064	92.19
292.295	89.19
292.526	94.19
292.757	99.19
292.987	83.19
293.218	86.19
293.449	83.19
293.68	87.19
293.91	87.19
294.141	88.19
294.372	79.19
294.603	74.19
294.833	99.19
295.064	103.19
295.295	86.19
295.525	88.19
295.756	87.19
295.987	92.19
296.217	95.19
296.448	95.19
296.679	85.19
296.909	108.19
297.14	90.19
297.37	92.19
297.601	102.19
297.831	74.19
298.062	106.19
298.292	105.19
298.523	88.19
298.753	84.19
298.984	91.19
299.214	96.19
299.445	91.19
299.675	85.19
299.905	95.19
300.136	103.19
300.366	102.19
300.597	76.19
300.827	90.19
301.057	103.19
301.288	102.19
301.518	82.19
301.748	85.19
301.979	86.19
302.209	92.19
302.439	97.19
302.669	77.19
302.9	84.19
303.13	85.19
303.36	91.19
303.59	101.19
303.82	100.19
304.051	93.19
304.281	80.19
304.511	108.19
304.741	82.19
304.971	86.19
305.201	103.19
305.431	87.19
305.661	84.19
305.891	90.19
306.121	91.19
306.352	93.19
306.582	81.19
306.812	89.19
307.042	98.19
307.272	98.19
307.502	77.19
307.731	90.19
307.961	100.19
308.191	91.19
308.421	72.19
308.651	95.19
308.881	92.19
309.111	94.19
309.341	92.19
309.571	99.19
309.8	83.19
310.03	70.19
310.26	84.19
310.49	84.19
310.72	86.19
310.949	83.19
311.179	91.19
311.409	95.19
311.639	93.19
311.868	81.19
312.098	90.19
312.328	84.19
312.557	72.19
312.787	94.19
313.017	94.19
313.246	86.19
313.476	99.19
313.706	101.19
313.935	76.19
314.165	109.19
314.394	93.19
314.624	93.19
314.853	87.19
315.083	94.19
315.312	92.19
315.542	100.19
315.771	99.19
316.001	90.19
316.23	84.19
316.46	86.19
316.689	84.19
316.919	97.19
317.148	100.19
317.377	97.19
317.607	88.19
317.836	75.19
318.065	90.19
318.295	95.19
318.524	94.19
318.753	83.19
318.983	98.19
319.212	96.19
319.441	98.19
319.67	82.19
319.9	86.19
320.129	90.19
320.358	85.19
320.587	103.19
320.816	84.19
321.046	93.19
321.275	78.19
321.504	88.19
321.733	88.19
321.962	74.19
322.191	103.19
322.42	93.19
322.649	90.19
322.878	80.19
323.108	90.19
323.337	88.19
323.566	77.19
323.795	86.19
324.024	85.19
324.253	94.19
324.482	87.19
324.71	97.19
324.939	75.19
325.168	98.19
325.397	83.19
325.626	95.19
325.855	89.19
326.084	91.19
326.313	99.19
326.542	84.19
326.77	83.19
326.999	72.19
327.228	97.19
327.457	96.19
327.686	90.19
327.914	87.19
328.143	87.19
328.372	84.19
328.6	85.19
328.829	77.19
329.058	88.19
329.287	88.19
329.515	98.19
329.744	91.19
329.972	80.19
330.201	85.19
330.43	86.19
330.658	77.19
330.887	105.19
331.115	92.19
331.344	86.19
331.572	87.19
331.801	93.19
332.03	89.19
332.258	86.19
332.486	99.19
332.715	88.19
332.943	99.19
333.172	79.19
333.4	92.19
333.629	91.19
333.857	82.19
334.085	87.19
334.314	98.19
334.542	86.19
334.771	84.19
334.999	100.19
335.227	106.19
335.455	95.19
335.684	91.19
335.912	97.19
336.14	84.19
336.369	89.19
336.597	85.19
336.825	79.19
337.053	84.19
337.281	95.19
337.51	92.19
337.738	92.19
337.966	90.19
338.194	95.19
338.422	96.19
338.65	105.19
338.878	91.19
339.106	94.19
339.334	99.19
339.562	75.19
339.79	96.19
340.018	85.19
340.246	89.19
340.474	96.19
340.702	88.19
340.93	79.19
341.158	95.19
341.386	89.19
341.614	91.19
341.842	102.19
342.07	105.19
342.298	74.19
342.526	87.19
342.754	83.19
342.981	90.19
343.209	95.19
343.437	99.19
343.665	89.19
343.893	86.19
344.12	93.19
344.348	81.19
344.576	92.19
344.804	83.19
345.031	91.19
345.259	92.19
345.487	96.19
345.714	88.19
345.942	92.19
346.17	89.19
346.397	83.19
346.625	85.19
346.853	84.19
347.08	73.19
347.308	91.19
347.535	102.19
347.763	83.19
347.99	90.19
348.218	108.19
348.445	86.19
348.673	87.19
348.9	87.19
349.128	83.19
349.355	82.19
349.583	92.19
349.81	91.19
350.037	86.19
350.265	97.19
350.492	82.19
350.72	90.19
350.947	93.19
351.174	81.19
351.402	91.19
351.629	90.19
351.856	88.19
352.083	92.19
352.311	101.19
352.538	88.19
352.765	84.19
352.992	93.19
353.22	82.19
353.447	91.19
353.674	95.19
353.901	76.19
354.128	99.19
354.355	92.19
354.583	79.19
354.81	100.19
355.037	79.19
355.264	84.19
355.491	102.19
355.718	84.19
355.945	93.19
356.172	97.19
356.399	94.19
356.626	92.19
356.853	86.19
357.08	94.19
357.307	88.19
357.534	99.19
357.761	89.19
357.988	94.19
358.215	92.19
358.441	88.19
358.668	93.19
358.895	75.19
359.122	79.19
359.349	83.19
359.576	83.19
359.802	83.19
360.029	102.19
360.256	86.19
360.483	92.19
360.709	83.19
360.936	91.19
361.163	69.19
361.39	91.19
361.616	90.19
361.843	81.19
362.07	88.19
362.296	89.19
362.523	84.19
362.749	81.19
362.976	86.19
363.203	95.19
363.429	94.19
363.656	87.19
363.882	77.19
364.109	77.19
364.335	97.19
364.562	96.19
364.788	91.19
365.015	84.19
365.241	87.19
365.468	82.19
365.694	81.19
365.92	84.19
366.147	98.19
366.373	83.19
366.599	79.19
366.826	89.19
367.052	86.19
367.278	94.19
367.505	79.19
367.731	85.19
367.957	86.19
368.184	99.19
368.41	93.19
368.636	89.19
368.862	91.19
369.089	85.19
369.315	91.19
369.541	76.19
369.767	83.19
369.993	83.19
370.219	84.19
370.445	81.19
370.672	89.19
370.898	75.19
371.124	93.19
371.35	91.19
371.576	95.19
371.802	92.19
372.028	98.19
372.254	104.19
372.48	87.19
372.706	89.19
372.932	90.19
373.158	91.19
373.384	88.19
373.61	86.19
373.835	111.19
374.061	94.19
374.287	83.19
374.513	92.19
374.739	100.19
374.965	90.19
375.191	86.19
375.416	91.19
375.642	89.19
375.868	85.19
376.094	87.19
376.319	96.19
376.545	93.19
376.771	90.19
376.997	99.19
377.222	89.19
377.448	94.19
377.674	87.19
377.899	95.19
378.125	79.19
378.35	100.19
378.576	80.19
378.802	92.19
379.027	80.19
379.253	83.19
379.478	86.19
379.704	71.19
379.929	84.19
380.155	100.19
380.38	85.19
380.606	80.19
380.831	89.19
381.057	98.19
381.282	66.19
381.507	86.19
381.733	90.19
381.958	87.19
382.184	92.19
382.409	86.19
382.634	77.19
382.86	83.19
383.085	92.19
383.31	80.19
383.535	84.19
383.761	83.19
383.986	92.19
384.211	93.19
384.436	84.19
384.662	87.19
384.887	83.19
385.112	92.19
385.337	77.19
385.562	94.19
385.787	100.19
386.013	99.19
386.238	83.19
386.463	74.19
386.688	89.19
386.913	81.19
387.138	89.19
387.363	88.19
387.588	88.19
387.813	92.19
388.038	90.19
388.263	100.19
388.488	72.19
388.713	84.19
388.938	80.19
389.163	98.19
389.387	62.19
389.612	94.19
389.837	89.19
390.062	91.19
390.287	93.19
390.512	93.19
390.736	98.19
390.961	93.19
391.186	92.19
391.411	74.19
391.636	99.19
391.86	84.19
392.085	79.19
392.31	75.19
392.534	97.19
392.759	96.19
392.984	92.19
393.208	99.19
393.433	92.19
393.658	95.19
393.882	92.19
394.107	97.19
394.331	74.19
394.556	78.19
394.78	87.19
395.005	80.19
395.229	79.19
395.454	80.19
395.678	102.19
395.903	90.19
396.127	72.19
396.352	111.19
396.576	91.19
396.801	80.19
397.025	79.19
397.249	94.19
397.474	100.19
397.698	82.19
397.922	91.19
398.147	93.19
398.371	88.19
398.595	95.19
398.82	74.19
399.044	80.19
399.268	91.19
399.492	85.19
399.717	92.19
399.941	101.19
400.165	100.19
400.389	97.19
400.613	77.19
400.837	82.19
401.062	85.19
401.286	86.19
401.51	99.19
401.734	81.19
401.958	81.19
402.182	94.19
402.406	94.19
402.63	92.19
402.854	91.19
403.078	90.19
403.302	80.19
403.526	87.19
403.75	90.19
403.974	92.19
404.198	86.19
404.422	83.19
404.645	89.19
404.869	84.19
405.093	87.19
405.317	86.19
405.541	97.19
405.765	85.19
405.988	86.19
406.212	99.19
406.436	90.19
406.66	101.19
406.883	87.19
407.107	100.19
407.331	99.19
407.555	84.19
407.778	80.19
408.002	96.19
408.226	83.19
408.449	98.19
408.673	99.19
408.896	99.19
409.12	72.19
409.344	85.19
409.567	87.19
409.791	70.19
410.014	90.19
410.238	78.19
410.461	90.19
410.685	92.19
410.908	94.19
411.132	94.19
411.355	105.19
411.578	75.19
411.802	84.19
412.025	78.19
412.249	87.19
412.472	84.19
412.695	83.19
412.919	86.19
413.142	98.19
413.365	104.19
413.589	87.19
413.812	93.19
414.035	93.19
414.258	83.19
414.482	89.19
414.705	100.19
414.928	88.19
415.151	83.19
415.374	88.19
415.597	87.19
415.821	91.19
416.044	86.19
416.267	87.19
416.49	78.19
416.713	89.19
416.936	83.19
417.159	85.19
417.382	77.19
417.605	96.19
417.828	91.19
418.051	79.19
418.274	99.19
418.497	94.19
418.72	98.19
418.943	75.19
419.166	92.19
419.389	88.19
419.611	86.19
419.834	77.19
420.057	100.19
420.28	102.19
420.503	88.19
420.726	94.19
420.948	83.19
421.171	83.19
421.394	85.19
421.617	94.19
421.839	87.19
422.062	84.19
422.285	96.19
422.507	91.19
422.73	85.19
422.953	82.19
423.175	87.19
423.398	88.19
423.621	94.19
423.843	99.19
424.066	101.19
424.288	96.19
424.511	80.19
424.733	87.19
424.956	93.19
425.178	87.19
425.401	91.19
425.623	99.19
425.846	95.19
426.068	86.19
426.291	106.19
426.513	87.19
426.735	94.19
426.958	84.19
427.18	80.19
427.402	95.19
427.625	89.19
427.847	107.19
428.069	87.19
428.292	87.19
428.514	75.19
428.736	88.19
428.958	80.19
429.181	86.19
429.403	93.19
429.625	80.19
429.847	99.19
430.069	90.19
430.292	97.19
430.514	96.19
430.736	86.19
430.958	80.19
431.18	90.19
431.402	83.19
431.624	90.19
431.846	95.19
432.068	94.19
432.29	103.19
432.512	88.19
432.734	86.19
432.956	95.19
433.178	85.19
433.4	90.19
433.622	91.19
433.844	91.19
434.066	83.19
434.287	83.19
434.509	99.19
434.731	91.19
434.953	98.19
435.175	82.19
435.397	102.19
435.618	96.19
435.84	86.19
436.062	100.19
436.284	93.19
436.505	94.19
436.727	79.19
436.949	84.19
437.17	78.19
437.392	83.19
437.614	89.19
437.835	78.19
438.057	94.19
438.278	98.19
438.5	91.19
438.721	82.19
438.943	96.19
439.165	98.19
439.386	107.19
439.608	86.19
439.829	111.19
440.05	84.19
440.272	76.19
440.493	99.19
440.715	98.19
440.936	95.19
441.158	86.19
441.379	93.19
441.6	87.19
441.822	93.19
442.043	99.19
442.264	98.19
442.486	89.19
442.707	106.19
442.928	92.19
443.149	87.19
443.371	94.19
443.592	83.19
443.813	86.19
444.034	87.19
444.255	91.19
444.476	97.19
444.698	96.19
444.919	89.19
445.14	220.19
445.361	154.19
445.582	91.19
445.803	91.19
446.024	94.19
446.245	96.19
446.466	92.19
446.687	80.19
446.908	92.19
447.129	81.19
447.35	86.19
447.571	86.19
447.792	90.19
448.013	77.19
448.234	101.19
448.455	92.19
448.675	82.19
448.896	87.19
449.117	99.19
449.338	83.19
449.559	81.19
449.779	96.19
450	88.19
450.221	78.19
450.442	94.19
450.662	85.19
450.883	94.19
451.104	91.19
451.324	74.19
451.545	104.19
451.766	81.19
451.986	90.19
452.207	98.19
452.428	79.19
452.648	86.19
452.869	91.19
453.089	93.19
453.31	84.19
453.53	93.19
453.751	84.19
453.971	92.19
454.192	96.19
454.412	94.19
454.633	85.19
454.853	87.19
455.073	95.19
455.294	89.19
455.514	100.19
455.734	94.19
455.955	79.19
456.175	90.19
456.395	78.19
456.616	93.19
456.836	97.19
457.056	84.19
457.276	92.19
457.497	96.19
457.717	81.19
457.937	90.19
458.157	83.19
458.377	94.19
458.598	82.19
458.818	81.19
459.038	90.19
459.258	92.19
459.478	113.19
459.698	82.19
459.918	86.19
460.138	87.19
460.358	90.19
460.578	84.19
460.798	96.19
461.018	90.19
461.238	101.19
461.458	97.19
461.678	74.19
461.898	90.19
462.118	94.19
462.338	100.19
462.558	88.19
462.777	93.19
462.997	88.19
463.217	87.19
463.437	80.19
463.657	97.19
463.876	84.19
464.096	99.19
464.316	102.19
464.536	83.19
464.755	100.19
464.975	96.19
465.195	86.19
465.414	103.19
465.634	77.19
465.854	80.19
466.073	97.19
466.293	86.19
466.512	80.19
466.732	83.19
466.951	85.19
467.171	111.19
467.391	87.19
467.61	102.19
467.829	86.19
468.049	99.19
468.268	94.19
468.488	92.19
468.707	75.19
468.927	80.19
469.146	96.19
469.365	87.19
469.585	90.19
469.804	83.19
470.023	88.19
470.243	79.19
470.462	85.19
470.681	85.19
470.901	103.19
471.12	90.19
471.339	99.19
471.558	100.19
471.777	100.19
471.997	86.19
472.216	90.19
472.435	78.19
472.654	86.19
472.873	80.19
473.092	98.19
473.311	89.19
473.53	101.19
473.749	80.19
473.968	104.19
474.187	79.19
474.406	81.19
474.625	92.19
474.844	92.19
475.063	82.19
475.282	97.19
475.501	78.19
475.72	92.19
475.939	91.19
476.158	87.19
476.377	82.19
476.596	85.19
476.814	99.19
477.033	89.19
477.252	83.19
477.471	96.19
477.69	97.19
477.908	102.19
478.127	104.19
478.346	96.19
478.564	79.19
478.783	96.19
479.002	103.19
479.22	94.19
479.439	98.19
479.658	115.19
479.876	90.19
480.095	94.19
480.313	90.19
480.532	95.19
480.751	98.19
480.969	89.19
481.188	106.19
481.406	94.19
481.624	94.19
481.843	79.19
482.061	100.19
482.28	98.19
482.498	89.19
482.717	87.19
482.935	88.19
483.153	93.19
483.372	90.19
483.59	92.19
483.808	86.19
484.027	111.19
484.245	99.19
484.463	98.19
484.681	100.19
484.9	94.19
485.118	98.19
485.336	76.19
485.554	110.19
485.772	85.19
485.99	106.19
486.209	109.19
486.427	93.19
486.645	91.19
486.863	92.19
487.081	93.19
487.299	95.19
487.517	86.19
487.735	85.19
487.953	105.19
488.171	101.19
488.389	83.19
488.607	82.19
488.825	99.19
489.043	106.19
489.261	102.19
489.479	122.19
489.696	93.19
489.914	82.19
490.132	100.19
490.35	95.19
490.568	99.19
490.786	92.19
491.003	115.19
491.221	101.19
491.439	99.19
491.657	106.19
491.874	101.19
492.092	105.19
492.31	108.19
492.527	102.19
492.745	111.19
492.963	95.19
493.18	107.19
493.398	88.19
493.615	109.19
493.833	87.19
494.05	94.19
494.268	104.19
494.485	103.19
494.703	104.19
494.92	98.19
495.138	102.19
495.355	111.19
495.573	92.19
495.79	90.19
496.008	86.19
496.225	103.19
496.442	117.19
496.66	105.19
496.877	103.19
497.094	100.19
497.312	101.19
497.529	92.19
497.746	103.19
497.963	107.19
498.181	91.19
498.398	104.19
498.615	109.19
498.832	89.19
499.049	103.19
499.267	106.19
499.484	109.19
499.701	103.19
499.918	103.19
500.135	112.19
500.352	124.19
500.569	119.19
500.786	120.19
501.003	115.19
501.22	98.19
501.437	100.19
501.654	101.19
501.871	106.19
502.088	104.19
502.305	98.19
502.522	100.19
502.739	91.19
502.956	92.19
503.172	105.19
503.389	101.19
503.606	89.19
503.823	99.19
504.04	109.19
504.256	107.19
504.473	89.19
504.69	90.19
504.907	99.19
505.123	110.19
505.34	99.19
505.557	102.19
505.773	87.19
505.99	87.19
506.207	103.19
506.423	84.19
506.64	86.19
506.856	103.19
507.073	101.19
507.289	85.19
507.506	105.19
507.722	101.19
507.939	94.19
508.155	89.19
508.372	103.19
508.588	94.19
508.805	101.19
509.021	104.19
509.238	94.19
509.454	94.19
509.67	93.19
509.887	95.19
510.103	101.19
510.319	104.19
510.536	90.19
510.752	88.19
510.968	94.19
511.184	88.19
511.401	99.19
511.617	104.19
511.833	93.19
512.049	90.19
512.265	108.19
512.481	103.19
512.698	90.19
512.914	102.19
513.13	90.19
513.346	85.19
513.562	101.19
513.778	103.19
513.994	91.19
514.21	95.19
514.426	93.19
514.642	96.19
514.858	99.19
515.074	100.19
515.29	102.19
515.506	103.19
515.721	90.19
515.937	104.19
516.153	91.19
516.369	93.19
516.585	113.19
516.801	100.19
517.016	94.19
517.232	78.19
517.448	95.19
517.664	82.19
517.879	98.19
518.095	100.19
518.311	102.19
518.527	95.19
518.742	101.19
518.958	97.19
519.173	95.19
519.389	97.19
519.605	102.19
519.82	90.19
520.036	93.19
520.251	94.19
520.467	88.19
520.682	102.19
520.898	87.19
521.113	94.19
521.329	97.19
521.544	85.19
521.76	101.19
521.975	98.19
522.19	98.19
522.406	87.19
522.621	86.19
522.836	87.19
523.052	95.19
523.267	101.19
523.482	108.19
523.698	80.19
523.913	99.19
524.128	94.19
524.343	96.19
524.559	109.19
524.774	76.19
524.989	97.19
525.204	107.19
525.419	93.19
525.634	106.19
525.849	110.19
526.064	94.19
526.28	98.19
526.495	94.19
526.71	89.19
526.925	98.19
527.14	96.19
527.355	84.19
527.57	90.19
527.785	102.19
527.999	109.19
528.214	100.19
528.429	96.19
528.644	94.19
528.859	93.19
529.074	99.19
529.289	105.19
529.503	104.19
529.718	99.19
529.933	90.19
530.148	76.19
530.363	99.19
530.577	105.19
530.792	80.19
531.007	91.19
531.221	90.19
531.436	92.19
531.651	98.19
531.865	88.19
532.08	101.19
532.295	106.19
532.509	122.19
532.724	110.19
532.938	86.19
533.153	77.19
533.367	96.19
533.582	102.19
533.796	86.19
534.011	78.19
534.225	73.19
534.44	89.19
534.654	106.19
534.868	89.19
535.083	93.19
535.297	94.19
535.511	93.19
535.726	102.19
535.94	102.19
536.154	95.19
536.369	93.19
536.583	88.19
536.797	99.19
537.011	90.19
537.225	96.19
537.44	104.19
537.654	91.19
537.868	99.19
538.082	90.19
538.296	94.19
538.51	104.19
538.724	98.19
538.938	96.19
539.153	104.19
539.367	101.19
539.581	101.19
539.795	88.19
540.009	94.19
540.222	85.19
540.436	90.19
540.65	87.19
540.864	100.19
541.078	101.19
541.292	106.19
541.506	107.19
541.72	92.19
541.934	103.19
542.147	102.19
542.361	95.19
542.575	101.19
542.789	100.19
543.002	90.19
543.216	94.19
543.43	91.19
543.644	79.19
543.857	98.19
544.071	104.19
544.285	104.19
544.498	101.19
544.712	111.19
544.925	88.19
545.139	93.19
545.352	93.19
545.566	103.19
545.779	82.19
545.993	111.19
546.206	95.19
546.42	88.19
546.633	104.19
546.847	107.19
547.06	106.19
547.274	100.19
547.487	100.19
547.7	95.19
547.914	89.19
548.127	74.19
548.34	95.19
548.554	114.19
548.767	113.19
548.98	78.19
549.193	99.19
549.407	94.19
549.62	93.19
549.833	98.19
550.046	90.19
550.259	89.19
550.473	84.19
550.686	99.19
550.899	74.19
551.112	86.19
551.325	87.19
551.538	94.19
551.751	101.19
551.964	102.19
552.177	87.19
552.39	90.19
552.603	85.19
552.816	101.19
553.029	95.19
553.242	81.19
553.455	94.19
553.667	85.19
553.88	94.19
554.093	98.19
554.306	86.19
554.519	100.19
554.732	93.19
554.944	98.19
555.157	99.19
555.37	87.19
555.583	102.19
555.795	94.19
556.008	86.19
556.221	88.19
556.433	83.19
556.646	105.19
556.859	94.19
557.071	95.19
557.284	90.19
557.496	92.19
557.709	94.19
557.921	86.19
558.134	102.19
558.346	105.19
558.559	97.19
558.771	92.19
558.984	98.19
559.196	99.19
559.409	89.19
559.621	87.19
559.833	93.19
560.046	93.19
560.258	87.19
560.47	75.19
560.683	82.19
560.895	88.19
561.107	99.19
561.32	107.19
561.532	89.19
561.744	103.19
561.956	100.19
562.168	94.19
562.381	92.19
562.593	89.19
562.805	81.19
563.017	103.19
563.229	106.19
563.441	89.19
563.653	104.19
563.865	93.19
564.077	94.19
564.289	95.19
564.501	95.19
564.713	102.19
564.925	100.19
565.137	93.19
565.349	86.19
565.561	80.19
565.773	84.19
565.985	90.19
566.197	74.19
566.408	95.19
566.62	93.19
566.832	86.19
567.044	89.19
567.255	110.19
567.467	97.19
567.679	109.19
567.891	111.19
568.102	99.19
568.314	110.19
568.526	93.19
568.737	103.19
568.949	88.19
569.161	95.19
569.372	104.19
569.584	99.19
569.795	102.19
570.007	81.19
570.218	88.19
570.43	89.19
570.641	95.19
570.853	90.19
571.064	104.19
571.276	94.19
571.487	109.19
571.698	84.19
571.91	101.19
572.121	84.19
572.333	90.19
572.544	91.19
572.755	100.19
572.966	92.19
573.178	89.19
573.389	80.19
573.6	75.19
573.811	80.19
574.023	98.19
574.234	92.19
574.445	91.19
574.656	79.19
574.867	98.19
575.078	87.19
575.289	84.19
575.501	88.19
575.712	91.19
575.923	93.19
576.134	85.19
576.345	84.19
576.556	93.19
576.767	86.19
576.978	87.19
577.188	86.19
577.399	90.19
577.61	87.19
577.821	81.19
578.032	88.19
578.243	96.19
578.454	94.19
578.665	106.19
578.875	75.19
579.086	81.19
579.297	96.19
579.508	82.19
579.718	85.19
579.929	78.19
580.14	88.19
580.35	90.19
580.561	94.19
580.772	84.19
580.982	76.19
581.193	94.19
581.403	95.19
581.614	72.19
581.825	105.19
582.035	92.19
582.246	91.19
582.456	84.19
582.667	92.19
582.877	92.19
583.087	86.19
583.298	78.19
583.508	98.19
583.719	90.19
583.929	93.19
584.139	71.19
584.35	95.19
584.56	90.19
584.77	100.19
584.981	87.19
585.191	90.19
585.401	84.19
585.611	85.19
585.821	87.19
586.032	88.19
586.242	101.19
586.452	96.19
586.662	88.19
586.872	105.19
587.082	86.19
587.292	91.19
587.502	91.19
587.713	91.19
587.923	82.19
588.133	85.19
588.343	80.19
588.553	84.19
588.762	93.19
588.972	101.19
589.182	99.19
589.392	90.19
589.602	85.19
589.812	98.19
590.022	92.19
590.232	78.19
590.441	86.19
590.651	77.19
590.861	86.19
591.071	101.19
591.281	93.19
591.49	93.19
591.7	92.19
591.91	76.19
592.119	90.19
592.329	88.19
592.539	93.19
592.748	97.19
592.958	95.19
593.167	94.19
593.377	96.19
593.587	98.19
593.796	83.19
594.006	91.19
594.215	84.19
594.424	88.19
594.634	80.19
594.843	80.19
595.053	88.19
595.262	93.19
595.472	91.19
595.681	87.19
595.89	86.19
596.1	89.19
596.309	98.19
596.518	87.19
596.727	89.19
596.937	91.19
597.146	91.19
597.355	94.19
597.564	91.19
597.774	97.19
597.983	74.19
598.192	77.19
598.401	87.19
598.61	85.19
598.819	83.19
599.028	95.19
599.237	84.19
599.446	89.19
599.655	91.19
599.864	86.19
600.073	78.19
600.282	89.19
600.491	100.19
600.7	93.19
600.909	102.19
601.118	92.19
601.327	99.19
601.536	87.19
601.745	98.19
601.953	84.19
602.162	93.19
602.371	81.19
602.58	88.19
602.789	103.19
602.997	80.19
603.206	94.19
603.415	78.19
603.623	93.19
603.832	80.19
604.041	86.19
604.249	81.19
604.458	83.19
604.666	83.19
604.875	89.19
605.084	98.19
605.292	85.19
605.501	84.19
605.709	94.19
605.918	92.19
606.126	83.19
606.334	73.19
606.543	84.19
606.751	92.19
606.96	89.19
607.168	91.19
607.376	75.19
607.585	79.19
607.793	88.19
608.001	102.19
608.21	85.19
608.418	83.19
608.626	94.19
608.834	94.19
609.043	96.19
609.251	85.19
609.459	85.19
609.667	95.19
609.875	88.19
610.083	84.19
610.291	88.19
610.499	81.19
610.707	78.19
610.916	104.19
611.124	93.19
611.332	87.19
611.54	92.19
611.748	83.19
611.955	92.19
612.163	98.19
612.371	80.19
612.579	79.19
612.787	96.19
612.995	104.19
613.203	85.19
613.411	92.19
613.618	91.19
613.826	72.19
614.034	90.19
614.242	86.19
614.449	79.19
614.657	98.19
614.865	73.19
615.072	94.19
615.28	92.19
615.488	93.19
615.695	74.19
615.903	91.19
616.111	78.19
616.318	95.19
616.526	75.19
616.733	85.19
616.941	94.19
617.148	88.19
617.356	82.19
617.563	95.19
617.771	86.19
617.978	81.19
618.185	85.19
618.393	67.19
618.6	86.19
618.807	96.19
619.015	90.19
619.222	63.19
619.429	79.19
619.637	93.19
619.844	90.19
620.051	79.19
620.258	81.19
620.466	101.19
620.673	70.19
620.88	88.19
621.087	86.19
621.294	84.19
621.501	86.19
621.708	89.19
621.915	80.19
622.122	87.19
622.329	92.19
622.536	88.19
622.743	95.19
622.95	88.19
623.157	72.19
623.364	84.19
623.571	81.19
623.778	87.19
623.985	91.19
624.192	95.19
624.399	87.19
624.606	87.19
624.812	90.19
625.019	90.19
625.226	80.19
625.433	93.19
625.639	71.19
625.846	99.19
626.053	98.19
626.259	96.19
626.466	93.19
626.673	78.19
626.879	75.19
627.086	93.19
627.293	92.19
627.499	89.19
627.706	82.19
627.912	84.19
628.119	86.19
628.325	85.19
628.532	94.19
628.738	84.19
628.945	103.19
629.151	94.19
629.357	87.19
629.564	96.19
629.77	74.19
629.976	82.19
630.183	94.19
630.389	92.19
630.595	88.19
630.802	90.19
631.008	97.19
631.214	96.19
631.42	96.19
631.627	97.19
631.833	82.19
632.039	78.19
632.245	84.19
632.451	91.19
632.657	94.19
632.863	90.19
633.069	78.19
633.275	88.19
633.481	100.19
633.688	76.19
633.893	95.19
634.099	69.19
634.305	84.19
634.511	83.19
634.717	83.19
634.923	84.19
635.129	90.19
635.335	103.19
635.541	82.19
635.747	78.19
635.952	88.19
636.158	94.19
636.364	105.19
636.57	90.19
636.775	74.19
636.981	80.19
637.187	89.19
637.392	89.19
637.598	86.19
637.804	92.19
638.009	80.19
638.215	90.19
638.421	76.19
638.626	85.19
638.832	78.19
639.037	95.19
639.243	95.19
639.448	88.19
639.654	87.19
639.859	87.19
640.065	101.19
640.27	99.19
640.475	87.19
640.681	70.19
640.886	84.19
641.091	82.19
641.297	94.19
641.502	104.19
641.707	93.19
641.913	89.19
642.118	78.19
642.323	88.19
642.528	86.19
642.733	74.19
642.939	80.19
643.144	91.19
643.349	96.19
643.554	89.19
643.759	91.19
643.964	84.19
644.169	85.19
644.374	70.19
644.579	93.19
644.784	74.19
644.989	91.19
645.194	94.19
645.399	87.19
645.604	76.19
645.809	73.19
646.014	89.19
646.219	90.19
646.423	77.19
646.628	88.19
646.833	91.19
647.038	95.19
647.243	99.19
647.447	82.19
647.652	92.19
647.857	93.19
648.062	88.19
648.266	98.19
648.471	86.19
648.676	98.19
648.88	88.19
649.085	88.19
649.289	80.19
649.494	89.19
649.698	83.19
649.903	74.19
650.107	99.19
650.312	90.19
650.516	84.19
650.721	82.19
650.925	94.19
651.13	79.19
651.334	94.19
651.539	88.19
651.743	98.19
651.947	83.19
652.152	93.19
652.356	93.19
652.56	95.19
652.764	98.19
652.969	87.19
653.173	100.19
653.377	85.19
653.581	79.19
653.785	90.19
653.99	86.19
654.194	83.19
654.398	83.19
654.602	80.19
654.806	90.19
655.01	100.19
655.214	74.19
655.418	73.19
655.622	78.19
655.826	86.19
656.03	86.19
656.234	85.19
656.438	88.19
656.642	76.19
656.846	85.19
657.049	82.19
657.253	77.19
657.457	92.19
657.661	79.19
657.865	84.19
658.068	92.19
658.272	82.19
658.476	84.19
658.68	100.19
658.883	85.19
659.087	73.19
659.291	95.19
659.494	100.19
659.698	85.19
659.901	86.19
660.105	100.19
660.309	86.19
660.512	76.19
660.716	69.19
660.919	76.19
661.123	75.19
661.326	102.19
661.53	85.19
661.733	84.19
661.936	81.19
662.14	76.19
662.343	95.19
662.546	90.19
662.75	72.19
662.953	96.19
663.156	97.19
663.36	88.19
663.563	89.19
663.766	83.19
663.969	87.19
664.173	84.19
664.376	83.19
664.579	69.19
664.782	85.19
664.985	84.19
665.188	75.19
665.391	84.19
665.594	82.19
665.797	80.19
666	72.19
666.203	86.19
666.406	76.19
666.609	68.19
666.812	75.19
667.015	92.19
667.218	85.19
667.421	87.19
667.624	80.19
667.827	75.19
668.03	85.19
668.232	79.19
668.435	90.19
668.638	96.19
668.841	87.19
669.043	82.19
669.246	91.19
669.449	83.19
669.651	77.19
669.854	86.19
670.057	72.19
670.259	77.19
670.462	84.19
670.665	77.19
670.867	80.19
671.07	87.19
671.272	94.19
671.475	86.19
671.677	83.19
671.88	93.19
672.082	93.19
672.284	97.19
672.487	84.19
672.689	90.19
672.892	77.19
