Data from Ni(NO3)2Standard.Agarose3%.GreenCap.LampEnergy5.5.E.O_HRD10591_14-40-42-188.txt Node
Date: Mon Jul 22 14:40:42 EDT 2019
User: cochatt
Spectrometer: HR+D1059
Trigger mode: 1
Integration Time (sec): 1.000000E-1
Scans to average: 1
Electric dark correction enabled: true
Nonlinearity correction enabled: false
Boxcar width: 0
XAxis mode: Wavelengths
Number of Pixels in Spectrum: 2048
>>>>>Begin Spectral Data<<<<<
223.165	-8.69
223.4	-8.69
223.635	-8.69
223.869	-20.69
224.104	-9.69
224.338	-11.69
224.573	-15.69
224.808	0.31
225.042	-18.69
225.277	-11.69
225.511	-9.69
225.746	2.31
225.98	-2.69
226.215	18.31
226.449	20.31
226.683	12.31
226.918	21.31
227.152	34.31
227.387	34.31
227.621	34.31
227.856	45.31
228.09	59.31
228.324	58.31
228.559	56.31
228.793	53.31
229.027	53.31
229.262	71.31
229.496	46.31
229.73	58.31
229.964	76.31
230.199	71.31
230.433	86.31
230.667	79.31
230.901	86.31
231.136	97.31
231.37	80.31
231.604	82.31
231.838	87.31
232.072	86.31
232.306	76.31
232.541	86.31
232.775	84.31
233.009	88.31
233.243	86.31
233.477	84.31
233.711	73.31
233.945	84.31
234.179	82.31
234.413	76.31
234.647	88.31
234.881	80.31
235.115	77.31
235.349	87.31
235.583	87.31
235.817	80.31
236.051	82.31
236.285	94.31
236.519	83.31
236.753	80.31
236.987	68.31
237.221	84.31
237.455	74.31
237.689	69.31
237.922	69.31
238.156	70.31
238.39	71.31
238.624	73.31
238.858	91.31
239.091	92.31
239.325	79.31
239.559	73.31
239.793	73.31
240.027	84.31
240.26	75.31
240.494	83.31
240.728	84.31
240.961	69.31
241.195	88.31
241.429	87.31
241.662	70.31
241.896	80.31
242.13	67.31
242.363	88.31
242.597	81.31
242.83	76.31
243.064	86.31
243.298	73.31
243.531	70.31
243.765	85.31
243.998	78.31
244.232	79.31
244.465	85.31
244.699	86.31
244.932	89.31
245.166	88.31
245.399	77.31
245.633	70.31
245.866	77.31
246.099	76.31
246.333	85.31
246.566	67.31
246.8	79.31
247.033	75.31
247.266	97.31
247.5	76.31
247.733	68.31
247.966	77.31
248.2	80.31
248.433	78.31
248.666	79.31
248.899	77.31
249.133	84.31
249.366	73.31
249.599	75.31
249.832	65.31
250.066	85.31
250.299	70.31
250.532	75.31
250.765	77.31
250.998	79.31
251.231	74.31
251.465	73.31
251.698	86.31
251.931	81.31
252.164	69.31
252.397	77.31
252.63	75.31
252.863	80.31
253.096	83.31
253.329	77.31
253.562	70.31
253.795	78.31
254.028	78.31
254.261	71.31
254.494	88.31
254.727	92.31
254.96	82.31
255.193	91.31
255.426	83.31
255.659	83.31
255.892	82.31
256.124	72.31
256.357	78.31
256.59	79.31
256.823	83.31
257.056	98.31
257.289	88.31
257.521	84.31
257.754	76.31
257.987	80.31
258.22	76.31
258.452	64.31
258.685	86.31
258.918	84.31
259.151	78.31
259.383	103.31
259.616	97.31
259.849	76.31
260.081	89.31
260.314	82.31
260.547	75.31
260.779	84.31
261.012	71.31
261.244	79.31
261.477	96.31
261.71	80.31
261.942	89.31
262.175	84.31
262.407	86.31
262.64	93.31
262.872	87.31
263.105	83.31
263.337	84.31
263.57	84.31
263.802	82.31
264.035	79.31
264.267	83.31
264.499	77.31
264.732	87.31
264.964	80.31
265.197	82.31
265.429	84.31
265.661	93.31
265.894	87.31
266.126	85.31
266.358	91.31
266.591	79.31
266.823	83.31
267.055	75.31
267.287	71.31
267.52	75.31
267.752	70.31
267.984	99.31
268.216	75.31
268.448	75.31
268.681	87.31
268.913	78.31
269.145	79.31
269.377	83.31
269.609	88.31
269.841	92.31
270.073	86.31
270.306	88.31
270.538	80.31
270.77	94.31
271.002	84.31
271.234	77.31
271.466	94.31
271.698	79.31
271.93	81.31
272.162	90.31
272.394	92.31
272.626	79.31
272.858	91.31
273.09	79.31
273.322	86.31
273.553	77.31
273.785	94.31
274.017	75.31
274.249	79.31
274.481	76.31
274.713	100.31
274.945	79.31
275.176	86.31
275.408	71.31
275.64	80.31
275.872	83.31
276.104	80.31
276.335	97.31
276.567	88.31
276.799	83.31
277.031	87.31
277.262	91.31
277.494	79.31
277.726	87.31
277.957	85.31
278.189	88.31
278.421	91.31
278.652	83.31
278.884	73.31
279.115	79.31
279.347	84.31
279.579	90.31
279.81	96.31
280.042	78.31
280.273	75.31
280.505	96.31
280.736	72.31
280.968	89.31
281.199	88.31
281.431	84.31
281.662	93.31
281.894	71.31
282.125	84.31
282.356	81.31
282.588	88.31
282.819	99.31
283.051	80.31
283.282	94.31
283.513	79.31
283.745	86.31
283.976	95.31
284.207	95.31
284.439	90.31
284.67	88.31
284.901	84.31
285.132	76.31
285.364	100.31
285.595	91.31
285.826	94.31
286.057	93.31
286.288	93.31
286.52	85.31
286.751	90.31
286.982	83.31
287.213	86.31
287.444	93.31
287.675	66.31
287.906	92.31
288.138	80.31
288.369	88.31
288.6	92.31
288.831	99.31
289.062	79.31
289.293	93.31
289.524	90.31
289.755	103.31
289.986	88.31
290.217	88.31
290.448	91.31
290.679	91.31
290.91	90.31
291.141	87.31
291.371	100.31
291.602	75.31
291.833	83.31
292.064	86.31
292.295	91.31
292.526	83.31
292.757	91.31
292.987	90.31
293.218	84.31
293.449	84.31
293.68	95.31
293.91	91.31
294.141	93.31
294.372	76.31
294.603	94.31
294.833	78.31
295.064	108.31
295.295	82.31
295.525	88.31
295.756	89.31
295.987	82.31
296.217	88.31
296.448	92.31
296.679	91.31
296.909	74.31
297.14	93.31
297.37	84.31
297.601	83.31
297.831	80.31
298.062	91.31
298.292	88.31
298.523	97.31
298.753	95.31
298.984	90.31
299.214	89.31
299.445	107.31
299.675	91.31
299.905	94.31
300.136	100.31
300.366	95.31
300.597	90.31
300.827	102.31
301.057	82.31
301.288	80.31
301.518	86.31
301.748	96.31
301.979	85.31
302.209	89.31
302.439	88.31
302.669	91.31
302.9	95.31
303.13	103.31
303.36	94.31
303.59	92.31
303.82	84.31
304.051	93.31
304.281	83.31
304.511	90.31
304.741	80.31
304.971	89.31
305.201	85.31
305.431	79.31
305.661	84.31
305.891	76.31
306.121	85.31
306.352	91.31
306.582	91.31
306.812	102.31
307.042	71.31
307.272	91.31
307.502	83.31
307.731	93.31
307.961	97.31
308.191	80.31
308.421	82.31
308.651	85.31
308.881	86.31
309.111	80.31
309.341	82.31
309.571	88.31
309.8	97.31
310.03	95.31
310.26	95.31
310.49	87.31
310.72	88.31
310.949	83.31
311.179	81.31
311.409	95.31
311.639	90.31
311.868	92.31
312.098	90.31
312.328	88.31
312.557	83.31
312.787	95.31
313.017	86.31
313.246	107.31
313.476	81.31
313.706	96.31
313.935	93.31
314.165	88.31
314.394	90.31
314.624	79.31
314.853	99.31
315.083	88.31
315.312	78.31
315.542	93.31
315.771	72.31
316.001	88.31
316.23	96.31
316.46	72.31
316.689	84.31
316.919	80.31
317.148	90.31
317.377	91.31
317.607	96.31
317.836	85.31
318.065	78.31
318.295	74.31
318.524	86.31
318.753	98.31
318.983	79.31
319.212	91.31
319.441	90.31
319.67	77.31
319.9	85.31
320.129	108.31
320.358	90.31
320.587	82.31
320.816	79.31
321.046	96.31
321.275	98.31
321.504	84.31
321.733	90.31
321.962	83.31
322.191	75.31
322.42	67.31
322.649	84.31
322.878	103.31
323.108	96.31
323.337	85.31
323.566	87.31
323.795	85.31
324.024	75.31
324.253	92.31
324.482	90.31
324.71	80.31
324.939	98.31
325.168	93.31
325.397	91.31
325.626	86.31
325.855	79.31
326.084	83.31
326.313	94.31
326.542	86.31
326.77	75.31
326.999	92.31
327.228	92.31
327.457	84.31
327.686	87.31
327.914	92.31
328.143	83.31
328.372	99.31
328.6	81.31
328.829	89.31
329.058	93.31
329.287	95.31
329.515	83.31
329.744	88.31
329.972	93.31
330.201	96.31
330.43	93.31
330.658	83.31
330.887	86.31
331.115	99.31
331.344	99.31
331.572	96.31
331.801	91.31
332.03	88.31
332.258	99.31
332.486	94.31
332.715	93.31
332.943	86.31
333.172	87.31
333.4	91.31
333.629	87.31
333.857	80.31
334.085	87.31
334.314	86.31
334.542	101.31
334.771	86.31
334.999	98.31
335.227	84.31
335.455	73.31
335.684	94.31
335.912	84.31
336.14	106.31
336.369	77.31
336.597	87.31
336.825	91.31
337.053	81.31
337.281	109.31
337.51	99.31
337.738	95.31
337.966	88.31
338.194	83.31
338.422	90.31
338.65	100.31
338.878	100.31
339.106	93.31
339.334	89.31
339.562	77.31
339.79	92.31
340.018	88.31
340.246	87.31
340.474	90.31
340.702	87.31
340.93	78.31
341.158	97.31
341.386	95.31
341.614	92.31
341.842	96.31
342.07	86.31
342.298	73.31
342.526	74.31
342.754	82.31
342.981	77.31
343.209	86.31
343.437	83.31
343.665	85.31
343.893	86.31
344.12	89.31
344.348	97.31
344.576	86.31
344.804	80.31
345.031	97.31
345.259	80.31
345.487	79.31
345.714	97.31
345.942	80.31
346.17	82.31
346.397	75.31
346.625	90.31
346.853	75.31
347.08	91.31
347.308	91.31
347.535	102.31
347.763	86.31
347.99	96.31
348.218	80.31
348.445	82.31
348.673	93.31
348.9	87.31
349.128	84.31
349.355	85.31
349.583	93.31
349.81	82.31
350.037	93.31
350.265	81.31
350.492	95.31
350.72	81.31
350.947	95.31
351.174	94.31
351.402	88.31
351.629	82.31
351.856	92.31
352.083	94.31
352.311	93.31
352.538	86.31
352.765	87.31
352.992	101.31
353.22	83.31
353.447	86.31
353.674	90.31
353.901	87.31
354.128	87.31
354.355	74.31
354.583	80.31
354.81	84.31
355.037	70.31
355.264	86.31
355.491	84.31
355.718	83.31
355.945	95.31
356.172	90.31
356.399	87.31
356.626	78.31
356.853	93.31
357.08	80.31
357.307	84.31
357.534	83.31
357.761	89.31
357.988	100.31
358.215	83.31
358.441	91.31
358.668	92.31
358.895	82.31
359.122	98.31
359.349	75.31
359.576	83.31
359.802	90.31
360.029	72.31
360.256	88.31
360.483	82.31
360.709	88.31
360.936	103.31
361.163	79.31
361.39	85.31
361.616	100.31
361.843	76.31
362.07	88.31
362.296	90.31
362.523	95.31
362.749	95.31
362.976	74.31
363.203	86.31
363.429	79.31
363.656	87.31
363.882	106.31
364.109	91.31
364.335	90.31
364.562	83.31
364.788	90.31
365.015	74.31
365.241	75.31
365.468	90.31
365.694	97.31
365.92	83.31
366.147	95.31
366.373	91.31
366.599	81.31
366.826	94.31
367.052	76.31
367.278	75.31
367.505	75.31
367.731	91.31
367.957	99.31
368.184	84.31
368.41	82.31
368.636	84.31
368.862	91.31
369.089	89.31
369.315	79.31
369.541	89.31
369.767	85.31
369.993	96.31
370.219	87.31
370.445	84.31
370.672	97.31
370.898	89.31
371.124	90.31
371.35	88.31
371.576	97.31
371.802	91.31
372.028	77.31
372.254	96.31
372.48	84.31
372.706	70.31
372.932	90.31
373.158	95.31
373.384	104.31
373.61	94.31
373.835	79.31
374.061	88.31
374.287	71.31
374.513	88.31
374.739	86.31
374.965	79.31
375.191	88.31
375.416	90.31
375.642	103.31
375.868	84.31
376.094	95.31
376.319	79.31
376.545	91.31
376.771	92.31
376.997	89.31
377.222	95.31
377.448	91.31
377.674	90.31
377.899	83.31
378.125	95.31
378.35	102.31
378.576	84.31
378.802	87.31
379.027	84.31
379.253	88.31
379.478	76.31
379.704	85.31
379.929	78.31
380.155	90.31
380.38	89.31
380.606	91.31
380.831	100.31
381.057	100.31
381.282	80.31
381.507	90.31
381.733	99.31
381.958	77.31
382.184	81.31
382.409	100.31
382.634	97.31
382.86	72.31
383.085	104.31
383.31	91.31
383.535	86.31
383.761	87.31
383.986	81.31
384.211	94.31
384.436	83.31
384.662	101.31
384.887	94.31
385.112	96.31
385.337	80.31
385.562	87.31
385.787	84.31
386.013	87.31
386.238	91.31
386.463	103.31
386.688	94.31
386.913	70.31
387.138	91.31
387.363	90.31
387.588	87.31
387.813	92.31
388.038	86.31
388.263	82.31
388.488	103.31
388.713	92.31
388.938	87.31
389.163	93.31
389.387	88.31
389.612	90.31
389.837	86.31
390.062	84.31
390.287	85.31
390.512	85.31
390.736	76.31
390.961	88.31
391.186	78.31
391.411	78.31
391.636	91.31
391.86	93.31
392.085	87.31
392.31	108.31
392.534	91.31
392.759	86.31
392.984	91.31
393.208	95.31
393.433	94.31
393.658	87.31
393.882	82.31
394.107	99.31
394.331	82.31
394.556	87.31
394.78	95.31
395.005	83.31
395.229	91.31
395.454	93.31
395.678	84.31
395.903	96.31
396.127	86.31
396.352	77.31
396.576	87.31
396.801	87.31
397.025	87.31
397.249	88.31
397.474	91.31
397.698	82.31
397.922	73.31
398.147	91.31
398.371	82.31
398.595	73.31
398.82	86.31
399.044	79.31
399.268	94.31
399.492	100.31
399.717	88.31
399.941	78.31
400.165	81.31
400.389	96.31
400.613	78.31
400.837	88.31
401.062	92.31
401.286	89.31
401.51	98.31
401.734	94.31
401.958	110.31
402.182	89.31
402.406	87.31
402.63	97.31
402.854	87.31
403.078	82.31
403.302	83.31
403.526	86.31
403.75	88.31
403.974	81.31
404.198	77.31
404.422	82.31
404.645	86.31
404.869	79.31
405.093	83.31
405.317	82.31
405.541	89.31
405.765	86.31
405.988	85.31
406.212	88.31
406.436	94.31
406.66	83.31
406.883	98.31
407.107	78.31
407.331	74.31
407.555	76.31
407.778	100.31
408.002	78.31
408.226	80.31
408.449	86.31
408.673	88.31
408.896	75.31
409.12	85.31
409.344	85.31
409.567	81.31
409.791	93.31
410.014	85.31
410.238	81.31
410.461	100.31
410.685	86.31
410.908	92.31
411.132	94.31
411.355	89.31
411.578	100.31
411.802	74.31
412.025	79.31
412.249	82.31
412.472	92.31
412.695	96.31
412.919	93.31
413.142	91.31
413.365	85.31
413.589	92.31
413.812	98.31
414.035	92.31
414.258	98.31
414.482	85.31
414.705	76.31
414.928	80.31
415.151	92.31
415.374	83.31
415.597	90.31
415.821	81.31
416.044	87.31
416.267	82.31
416.49	88.31
416.713	71.31
416.936	86.31
417.159	87.31
417.382	87.31
417.605	94.31
417.828	87.31
418.051	83.31
418.274	88.31
418.497	104.31
418.72	93.31
418.943	84.31
419.166	91.31
419.389	88.31
419.611	90.31
419.834	80.31
420.057	71.31
420.28	83.31
420.503	91.31
420.726	84.31
420.948	95.31
421.171	80.31
421.394	81.31
421.617	88.31
421.839	79.31
422.062	83.31
422.285	74.31
422.507	82.31
422.73	81.31
422.953	82.31
423.175	74.31
423.398	80.31
423.621	90.31
423.843	97.31
424.066	76.31
424.288	88.31
424.511	60.31
424.733	76.31
424.956	86.31
425.178	95.31
425.401	82.31
425.623	89.31
425.846	80.31
426.068	90.31
426.291	76.31
426.513	96.31
426.735	93.31
426.958	86.31
427.18	75.31
427.402	98.31
427.625	84.31
427.847	76.31
428.069	82.31
428.292	93.31
428.514	78.31
428.736	86.31
428.958	87.31
429.181	88.31
429.403	69.31
429.625	88.31
429.847	78.31
430.069	89.31
430.292	89.31
430.514	89.31
430.736	86.31
430.958	86.31
431.18	93.31
431.402	92.31
431.624	93.31
431.846	98.31
432.068	90.31
432.29	87.31
432.512	87.31
432.734	87.31
432.956	90.31
433.178	93.31
433.4	101.31
433.622	100.31
433.844	100.31
434.066	87.31
434.287	78.31
434.509	85.31
434.731	85.31
434.953	74.31
435.175	83.31
435.397	92.31
435.618	87.31
435.84	90.31
436.062	83.31
436.284	91.31
436.505	99.31
436.727	88.31
436.949	93.31
437.17	96.31
437.392	94.31
437.614	85.31
437.835	88.31
438.057	75.31
438.278	70.31
438.5	86.31
438.721	89.31
438.943	91.31
439.165	81.31
439.386	75.31
439.608	83.31
439.829	85.31
440.05	94.31
440.272	84.31
440.493	96.31
440.715	101.31
440.936	94.31
441.158	93.31
441.379	83.31
441.6	81.31
441.822	84.31
442.043	86.31
442.264	90.31
442.486	108.31
442.707	97.31
442.928	79.31
443.149	87.31
443.371	100.31
443.592	92.31
443.813	78.31
444.034	70.31
444.255	79.31
444.476	77.31
444.698	88.31
444.919	95.31
445.14	202.31
445.361	128.31
445.582	94.31
445.803	88.31
446.024	84.31
446.245	82.31
446.466	86.31
446.687	80.31
446.908	75.31
447.129	90.31
447.35	86.31
447.571	88.31
447.792	103.31
448.013	95.31
448.234	87.31
448.455	81.31
448.675	83.31
448.896	84.31
449.117	95.31
449.338	90.31
449.559	85.31
449.779	83.31
450	90.31
450.221	85.31
450.442	99.31
450.662	79.31
450.883	78.31
451.104	95.31
451.324	81.31
451.545	88.31
451.766	92.31
451.986	84.31
452.207	85.31
452.428	83.31
452.648	87.31
452.869	99.31
453.089	91.31
453.31	84.31
453.53	84.31
453.751	91.31
453.971	83.31
454.192	86.31
454.412	97.31
454.633	94.31
454.853	76.31
455.073	86.31
455.294	81.31
455.514	85.31
455.734	78.31
455.955	102.31
456.175	82.31
456.395	82.31
456.616	76.31
456.836	85.31
457.056	99.31
457.276	102.31
457.497	86.31
457.717	92.31
457.937	92.31
458.157	95.31
458.377	83.31
458.598	85.31
458.818	91.31
459.038	85.31
459.258	87.31
459.478	106.31
459.698	88.31
459.918	84.31
460.138	88.31
460.358	92.31
460.578	83.31
460.798	103.31
461.018	92.31
461.238	90.31
461.458	72.31
461.678	83.31
461.898	89.31
462.118	77.31
462.338	84.31
462.558	82.31
462.777	92.31
462.997	86.31
463.217	92.31
463.437	92.31
463.657	79.31
463.876	99.31
464.096	90.31
464.316	93.31
464.536	100.31
464.755	103.31
464.975	84.31
465.195	87.31
465.414	91.31
465.634	106.31
465.854	85.31
466.073	82.31
466.293	83.31
466.512	71.31
466.732	90.31
466.951	80.31
467.171	94.31
467.391	88.31
467.61	91.31
467.829	91.31
468.049	89.31
468.268	76.31
468.488	83.31
468.707	94.31
468.927	91.31
469.146	84.31
469.365	101.31
469.585	97.31
469.804	100.31
470.023	97.31
470.243	87.31
470.462	103.31
470.681	85.31
470.901	87.31
471.12	83.31
471.339	84.31
471.558	93.31
471.777	86.31
471.997	82.31
472.216	87.31
472.435	81.31
472.654	82.31
472.873	99.31
473.092	92.31
473.311	100.31
473.53	95.31
473.749	80.31
473.968	86.31
474.187	98.31
474.406	80.31
474.625	96.31
474.844	83.31
475.063	92.31
475.282	96.31
475.501	93.31
475.72	101.31
475.939	86.31
476.158	85.31
476.377	86.31
476.596	80.31
476.814	93.31
477.033	90.31
477.252	91.31
477.471	85.31
477.69	84.31
477.908	81.31
478.127	88.31
478.346	108.31
478.564	92.31
478.783	86.31
479.002	97.31
479.22	92.31
479.439	102.31
479.658	91.31
479.876	100.31
480.095	86.31
480.313	115.31
480.532	87.31
480.751	96.31
480.969	81.31
481.188	102.31
481.406	96.31
481.624	95.31
481.843	85.31
482.061	95.31
482.28	85.31
482.498	99.31
482.717	98.31
482.935	102.31
483.153	97.31
483.372	93.31
483.59	79.31
483.808	90.31
484.027	99.31
484.245	98.31
484.463	98.31
484.681	102.31
484.9	98.31
485.118	80.31
485.336	73.31
485.554	94.31
485.772	76.31
485.99	106.31
486.209	104.31
486.427	100.31
486.645	99.31
486.863	98.31
487.081	102.31
487.299	82.31
487.517	95.31
487.735	101.31
487.953	96.31
488.171	101.31
488.389	91.31
488.607	103.31
488.825	98.31
489.043	89.31
489.261	76.31
489.479	102.31
489.696	84.31
489.914	103.31
490.132	96.31
490.35	90.31
490.568	98.31
490.786	106.31
491.003	83.31
491.221	82.31
491.439	107.31
491.657	93.31
491.874	93.31
492.092	90.31
492.31	88.31
492.527	88.31
492.745	102.31
492.963	91.31
493.18	99.31
493.398	76.31
493.615	83.31
493.833	98.31
494.05	103.31
494.268	122.31
494.485	99.31
494.703	103.31
494.92	87.31
495.138	108.31
495.355	89.31
495.573	103.31
495.79	92.31
496.008	97.31
496.225	89.31
496.442	81.31
496.66	102.31
496.877	106.31
497.094	106.31
497.312	103.31
497.529	92.31
497.746	91.31
497.963	105.31
498.181	96.31
498.398	101.31
498.615	102.31
498.832	78.31
499.049	92.31
499.267	87.31
499.484	106.31
499.701	109.31
499.918	103.31
500.135	119.31
500.352	102.31
500.569	104.31
500.786	121.31
501.003	103.31
501.22	107.31
501.437	100.31
501.654	106.31
501.871	93.31
502.088	100.31
502.305	95.31
502.522	92.31
502.739	94.31
502.956	110.31
503.172	85.31
503.389	88.31
503.606	90.31
503.823	100.31
504.04	107.31
504.256	95.31
504.473	96.31
504.69	108.31
504.907	101.31
505.123	93.31
505.34	85.31
505.557	83.31
505.773	108.31
505.99	102.31
506.207	90.31
506.423	95.31
506.64	101.31
506.856	100.31
507.073	96.31
507.289	85.31
507.506	95.31
507.722	91.31
507.939	88.31
508.155	88.31
508.372	98.31
508.588	89.31
508.805	88.31
509.021	92.31
509.238	97.31
509.454	96.31
509.67	91.31
509.887	91.31
510.103	92.31
510.319	82.31
510.536	95.31
510.752	93.31
510.968	98.31
511.184	86.31
511.401	80.31
511.617	100.31
511.833	102.31
512.049	95.31
512.265	98.31
512.481	86.31
512.698	97.31
512.914	80.31
513.13	108.31
513.346	88.31
513.562	95.31
513.778	100.31
513.994	91.31
514.21	79.31
514.426	100.31
514.642	105.31
514.858	96.31
515.074	98.31
515.29	94.31
515.506	101.31
515.721	100.31
515.937	93.31
516.153	95.31
516.369	85.31
516.585	85.31
516.801	99.31
517.016	79.31
517.232	99.31
517.448	100.31
517.664	97.31
517.879	92.31
518.095	99.31
518.311	94.31
518.527	102.31
518.742	97.31
518.958	91.31
519.173	93.31
519.389	76.31
519.605	88.31
519.82	87.31
520.036	89.31
520.251	86.31
520.467	101.31
520.682	91.31
520.898	103.31
521.113	84.31
521.329	92.31
521.544	87.31
521.76	86.31
521.975	94.31
522.19	93.31
522.406	97.31
522.621	88.31
522.836	114.31
523.052	103.31
523.267	88.31
523.482	87.31
523.698	102.31
523.913	91.31
524.128	85.31
524.343	90.31
524.559	81.31
524.774	76.31
524.989	104.31
525.204	121.31
525.419	74.31
525.634	85.31
525.849	91.31
526.064	92.31
526.28	89.31
526.495	80.31
526.71	99.31
526.925	89.31
527.14	78.31
527.355	97.31
527.57	101.31
527.785	85.31
527.999	83.31
528.214	102.31
528.429	94.31
528.644	100.31
528.859	108.31
529.074	110.31
529.289	101.31
529.503	88.31
529.718	81.31
529.933	90.31
530.148	96.31
530.363	101.31
530.577	90.31
530.792	94.31
531.007	93.31
531.221	95.31
531.436	90.31
531.651	94.31
531.865	91.31
532.08	88.31
532.295	94.31
532.509	95.31
532.724	97.31
532.938	102.31
533.153	90.31
533.367	90.31
533.582	93.31
533.796	91.31
534.011	90.31
534.225	89.31
534.44	90.31
534.654	94.31
534.868	99.31
535.083	89.31
535.297	84.31
535.511	102.31
535.726	93.31
535.94	98.31
536.154	90.31
536.369	83.31
536.583	88.31
536.797	94.31
537.011	86.31
537.225	95.31
537.44	83.31
537.654	89.31
537.868	87.31
538.082	95.31
538.296	98.31
538.51	96.31
538.724	93.31
538.938	104.31
539.153	90.31
539.367	91.31
539.581	108.31
539.795	99.31
540.009	83.31
540.222	87.31
540.436	92.31
540.65	89.31
540.864	95.31
541.078	91.31
541.292	94.31
541.506	101.31
541.72	84.31
541.934	95.31
542.147	90.31
542.361	88.31
542.575	92.31
542.789	102.31
543.002	84.31
543.216	86.31
543.43	98.31
543.644	95.31
543.857	88.31
544.071	79.31
544.285	100.31
544.498	100.31
544.712	94.31
544.925	92.31
545.139	106.31
545.352	92.31
545.566	101.31
545.779	87.31
545.993	93.31
546.206	103.31
546.42	103.31
546.633	86.31
546.847	91.31
547.06	77.31
547.274	87.31
547.487	84.31
547.7	98.31
547.914	89.31
548.127	103.31
548.34	89.31
548.554	109.31
548.767	92.31
548.98	98.31
549.193	94.31
549.407	96.31
549.62	81.31
549.833	80.31
550.046	90.31
550.259	85.31
550.473	74.31
550.686	87.31
550.899	87.31
551.112	89.31
551.325	101.31
551.538	94.31
551.751	83.31
551.964	85.31
552.177	97.31
552.39	102.31
552.603	91.31
552.816	95.31
553.029	102.31
553.242	92.31
553.455	82.31
553.667	91.31
553.88	95.31
554.093	91.31
554.306	94.31
554.519	87.31
554.732	99.31
554.944	84.31
555.157	99.31
555.37	102.31
555.583	82.31
555.795	96.31
556.008	103.31
556.221	90.31
556.433	93.31
556.646	88.31
556.859	86.31
557.071	95.31
557.284	94.31
557.496	94.31
557.709	88.31
557.921	108.31
558.134	74.31
558.346	102.31
558.559	91.31
558.771	93.31
558.984	77.31
559.196	74.31
559.409	82.31
559.621	81.31
559.833	80.31
560.046	84.31
560.258	89.31
560.47	79.31
560.683	77.31
560.895	93.31
561.107	106.31
561.32	80.31
561.532	82.31
561.744	90.31
561.956	79.31
562.168	86.31
562.381	82.31
562.593	88.31
562.805	98.31
563.017	100.31
563.229	87.31
563.441	94.31
563.653	94.31
563.865	88.31
564.077	99.31
564.289	76.31
564.501	103.31
564.713	107.31
564.925	87.31
565.137	91.31
565.349	88.31
565.561	87.31
565.773	76.31
565.985	95.31
566.197	88.31
566.408	88.31
566.62	92.31
566.832	110.31
567.044	103.31
567.255	94.31
567.467	95.31
567.679	91.31
567.891	89.31
568.102	93.31
568.314	96.31
568.526	94.31
568.737	100.31
568.949	97.31
569.161	91.31
569.372	100.31
569.584	85.31
569.795	86.31
570.007	88.31
570.218	82.31
570.43	90.31
570.641	95.31
570.853	88.31
571.064	104.31
571.276	96.31
571.487	91.31
571.698	91.31
571.91	90.31
572.121	90.31
572.333	92.31
572.544	78.31
572.755	83.31
572.966	89.31
573.178	91.31
573.389	76.31
573.6	98.31
573.811	92.31
574.023	76.31
574.234	83.31
574.445	86.31
574.656	92.31
574.867	76.31
575.078	91.31
575.289	75.31
575.501	85.31
575.712	96.31
575.923	87.31
576.134	79.31
576.345	99.31
576.556	89.31
576.767	85.31
576.978	100.31
577.188	96.31
577.399	88.31
577.61	82.31
577.821	91.31
578.032	99.31
578.243	90.31
578.454	92.31
578.665	93.31
578.875	74.31
579.086	79.31
579.297	80.31
579.508	88.31
579.718	84.31
579.929	80.31
580.14	93.31
580.35	88.31
580.561	87.31
580.772	89.31
580.982	84.31
581.193	87.31
581.403	90.31
581.614	101.31
581.825	81.31
582.035	91.31
582.246	89.31
582.456	82.31
582.667	85.31
582.877	85.31
583.087	85.31
583.298	100.31
583.508	92.31
583.719	83.31
583.929	99.31
584.139	83.31
584.35	92.31
584.56	99.31
584.77	96.31
584.981	90.31
585.191	81.31
585.401	83.31
585.611	86.31
585.821	90.31
586.032	80.31
586.242	91.31
586.452	99.31
586.662	82.31
586.872	92.31
587.082	84.31
587.292	89.31
587.502	87.31
587.713	93.31
587.923	90.31
588.133	96.31
588.343	82.31
588.553	88.31
588.762	98.31
588.972	97.31
589.182	91.31
589.392	83.31
589.602	86.31
589.812	102.31
590.022	90.31
590.232	84.31
590.441	91.31
590.651	79.31
590.861	87.31
591.071	94.31
591.281	104.31
591.49	86.31
591.7	77.31
591.91	88.31
592.119	94.31
592.329	95.31
592.539	87.31
592.748	85.31
592.958	102.31
593.167	100.31
593.377	96.31
593.587	96.31
593.796	82.31
594.006	77.31
594.215	89.31
594.424	92.31
594.634	100.31
594.843	99.31
595.053	89.31
595.262	83.31
595.472	81.31
595.681	84.31
595.89	83.31
596.1	78.31
596.309	80.31
596.518	90.31
596.727	100.31
596.937	76.31
597.146	80.31
597.355	79.31
597.564	92.31
597.774	91.31
597.983	100.31
598.192	77.31
598.401	86.31
598.61	85.31
598.819	84.31
599.028	67.31
599.237	74.31
599.446	75.31
599.655	85.31
599.864	86.31
600.073	77.31
600.282	77.31
600.491	78.31
600.7	74.31
600.909	76.31
601.118	77.31
601.327	98.31
601.536	79.31
601.745	90.31
601.953	82.31
602.162	106.31
602.371	90.31
602.58	101.31
602.789	80.31
602.997	91.31
603.206	91.31
603.415	86.31
603.623	90.31
603.832	87.31
604.041	79.31
604.249	74.31
604.458	89.31
604.666	86.31
604.875	71.31
605.084	74.31
605.292	82.31
605.501	79.31
605.709	83.31
605.918	79.31
606.126	75.31
606.334	91.31
606.543	98.31
606.751	93.31
606.96	85.31
607.168	84.31
607.376	86.31
607.585	90.31
607.793	90.31
608.001	95.31
608.21	94.31
608.418	84.31
608.626	76.31
608.834	79.31
609.043	78.31
609.251	91.31
609.459	83.31
609.667	88.31
609.875	95.31
610.083	90.31
610.291	89.31
610.499	80.31
610.707	88.31
610.916	83.31
611.124	101.31
611.332	84.31
611.54	89.31
611.748	91.31
611.955	101.31
612.163	78.31
612.371	78.31
612.579	89.31
612.787	78.31
612.995	83.31
613.203	86.31
613.411	86.31
613.618	87.31
613.826	85.31
614.034	76.31
614.242	89.31
614.449	86.31
614.657	75.31
614.865	78.31
615.072	84.31
615.28	73.31
615.488	83.31
615.695	89.31
615.903	84.31
616.111	99.31
616.318	87.31
616.526	80.31
616.733	88.31
616.941	79.31
617.148	96.31
617.356	87.31
617.563	94.31
617.771	90.31
617.978	76.31
618.185	88.31
618.393	79.31
618.6	99.31
618.807	86.31
619.015	89.31
619.222	86.31
619.429	88.31
619.637	76.31
619.844	80.31
620.051	87.31
620.258	79.31
620.466	79.31
620.673	91.31
620.88	86.31
621.087	80.31
621.294	74.31
621.501	67.31
621.708	84.31
621.915	83.31
622.122	76.31
622.329	84.31
622.536	83.31
622.743	81.31
622.95	88.31
623.157	81.31
623.364	84.31
623.571	84.31
623.778	78.31
623.985	78.31
624.192	91.31
624.399	99.31
624.606	95.31
624.812	86.31
625.019	91.31
625.226	86.31
625.433	84.31
625.639	87.31
625.846	91.31
626.053	91.31
626.259	82.31
626.466	98.31
626.673	86.31
626.879	80.31
627.086	74.31
627.293	100.31
627.499	84.31
627.706	90.31
627.912	85.31
628.119	93.31
628.325	99.31
628.532	96.31
628.738	85.31
628.945	84.31
629.151	75.31
629.357	79.31
629.564	81.31
629.77	86.31
629.976	71.31
630.183	94.31
630.389	77.31
630.595	83.31
630.802	85.31
631.008	85.31
631.214	70.31
631.42	90.31
631.627	80.31
631.833	76.31
632.039	92.31
632.245	82.31
632.451	91.31
632.657	88.31
632.863	84.31
633.069	83.31
633.275	81.31
633.481	95.31
633.688	90.31
633.893	98.31
634.099	79.31
634.305	93.31
634.511	89.31
634.717	86.31
634.923	86.31
635.129	90.31
635.335	96.31
635.541	87.31
635.747	80.31
635.952	95.31
636.158	82.31
636.364	83.31
636.57	98.31
636.775	88.31
636.981	82.31
637.187	78.31
637.392	96.31
637.598	85.31
637.804	89.31
638.009	72.31
638.215	97.31
638.421	86.31
638.626	81.31
638.832	94.31
639.037	78.31
639.243	78.31
639.448	83.31
639.654	99.31
639.859	70.31
640.065	78.31
640.27	87.31
640.475	85.31
640.681	82.31
640.886	99.31
641.091	92.31
641.297	98.31
641.502	79.31
641.707	92.31
641.913	98.31
642.118	86.31
642.323	93.31
642.528	91.31
642.733	94.31
642.939	98.31
643.144	79.31
643.349	80.31
643.554	88.31
643.759	80.31
643.964	87.31
644.169	73.31
644.374	89.31
644.579	87.31
644.784	87.31
644.989	81.31
645.194	96.31
645.399	75.31
645.604	72.31
645.809	78.31
646.014	87.31
646.219	81.31
646.423	77.31
646.628	91.31
646.833	89.31
647.038	92.31
647.243	89.31
647.447	99.31
647.652	81.31
647.857	88.31
648.062	93.31
648.266	82.31
648.471	95.31
648.676	101.31
648.88	74.31
649.085	70.31
649.289	86.31
649.494	82.31
649.698	77.31
649.903	62.31
650.107	85.31
650.312	78.31
650.516	76.31
650.721	78.31
650.925	80.31
651.13	85.31
651.334	78.31
651.539	87.31
651.743	76.31
651.947	86.31
652.152	93.31
652.356	72.31
652.56	81.31
652.764	92.31
652.969	87.31
653.173	94.31
653.377	91.31
653.581	87.31
653.785	88.31
653.99	81.31
654.194	75.31
654.398	84.31
654.602	80.31
654.806	80.31
655.01	84.31
655.214	85.31
655.418	90.31
655.622	80.31
655.826	76.31
656.03	87.31
656.234	71.31
656.438	74.31
656.642	76.31
656.846	85.31
657.049	94.31
657.253	102.31
657.457	86.31
657.661	64.31
657.865	92.31
658.068	85.31
658.272	88.31
658.476	80.31
658.68	81.31
658.883	73.31
659.087	97.31
659.291	91.31
659.494	66.31
659.698	92.31
659.901	78.31
660.105	77.31
660.309	82.31
660.512	87.31
660.716	87.31
660.919	76.31
661.123	94.31
661.326	92.31
661.53	86.31
661.733	91.31
661.936	107.31
662.14	86.31
662.343	78.31
662.546	84.31
662.75	80.31
662.953	90.31
663.156	87.31
663.36	86.31
663.563	68.31
663.766	76.31
663.969	80.31
664.173	67.31
664.376	86.31
664.579	85.31
664.782	81.31
664.985	88.31
665.188	91.31
665.391	86.31
665.594	79.31
665.797	76.31
666	76.31
666.203	70.31
666.406	77.31
666.609	90.31
666.812	90.31
667.015	92.31
667.218	77.31
667.421	77.31
667.624	76.31
667.827	98.31
668.03	97.31
668.232	87.31
668.435	86.31
668.638	79.31
668.841	85.31
669.043	63.31
669.246	73.31
669.449	76.31
669.651	80.31
669.854	88.31
670.057	86.31
670.259	80.31
670.462	79.31
670.665	85.31
670.867	88.31
671.07	103.31
671.272	86.31
671.475	73.31
671.677	87.31
671.88	94.31
672.082	84.31
672.284	81.31
672.487	84.31
672.689	71.31
672.892	77.31
