Data from Ni(NO3)2@0.125M.TitratingCurve.Agarose3%dH2O.NegLispCup.LampEnergy10.LIBS07252019_HRD10591_18-11-22-568.txt Node
Date: Thu Jul 25 18:11:22 EDT 2019
User: cochatt
Spectrometer: HR+D1059
Trigger mode: 1
Integration Time (sec): 1.000000E-1
Scans to average: 1
Electric dark correction enabled: true
Nonlinearity correction enabled: false
Boxcar width: 0
XAxis mode: Wavelengths
Number of Pixels in Spectrum: 2048
>>>>>Begin Spectral Data<<<<<
223.165	-9.88
223.4	-9.88
223.635	-9.88
223.869	-27.88
224.104	-20.88
224.338	-9.88
224.573	-12.88
224.808	-6.88
225.042	-2.88
225.277	-13.88
225.511	-1.88
225.746	11.12
225.98	14.12
226.215	8.12
226.449	17.12
226.683	13.12
226.918	22.12
227.152	21.12
227.387	34.12
227.621	27.12
227.856	34.12
228.09	46.12
228.324	49.12
228.559	58.12
228.793	67.12
229.027	105.12
229.262	119.12
229.496	109.12
229.73	112.12
229.964	115.12
230.199	133.12
230.433	126.12
230.667	129.12
230.901	124.12
231.136	129.12
231.37	123.12
231.604	136.12
231.838	141.12
232.072	129.12
232.306	142.12
232.541	153.12
232.775	139.12
233.009	129.12
233.243	134.12
233.477	126.12
233.711	134.12
233.945	150.12
234.179	138.12
234.413	139.12
234.647	137.12
234.881	157.12
235.115	150.12
235.349	157.12
235.583	126.12
235.817	142.12
236.051	136.12
236.285	135.12
236.519	143.12
236.753	142.12
236.987	151.12
237.221	143.12
237.455	139.12
237.689	146.12
237.922	142.12
238.156	154.12
238.39	156.12
238.624	160.12
238.858	150.12
239.091	170.12
239.325	149.12
239.559	164.12
239.793	171.12
240.027	166.12
240.26	169.12
240.494	169.12
240.728	174.12
240.961	166.12
241.195	166.12
241.429	172.12
241.662	164.12
241.896	170.12
242.13	179.12
242.363	173.12
242.597	193.12
242.83	185.12
243.064	193.12
243.298	189.12
243.531	177.12
243.765	198.12
243.998	193.12
244.232	198.12
244.465	198.12
244.699	205.12
244.932	191.12
245.166	196.12
245.399	198.12
245.633	207.12
245.866	209.12
246.099	186.12
246.333	193.12
246.566	205.12
246.8	212.12
247.033	199.12
247.266	192.12
247.5	208.12
247.733	203.12
247.966	217.12
248.2	223.12
248.433	218.12
248.666	227.12
248.899	220.12
249.133	218.12
249.366	226.12
249.599	237.12
249.832	211.12
250.066	232.12
250.299	248.12
250.532	228.12
250.765	232.12
250.998	241.12
251.231	235.12
251.465	241.12
251.698	251.12
251.931	233.12
252.164	247.12
252.397	257.12
252.63	238.12
252.863	251.12
253.096	261.12
253.329	263.12
253.562	265.12
253.795	270.12
254.028	245.12
254.261	247.12
254.494	251.12
254.727	271.12
254.96	256.12
255.193	265.12
255.426	270.12
255.659	257.12
255.892	273.12
256.124	258.12
256.357	261.12
256.59	278.12
256.823	270.12
257.056	272.12
257.289	275.12
257.521	271.12
257.754	281.12
257.987	290.12
258.22	272.12
258.452	262.12
258.685	293.12
258.918	277.12
259.151	277.12
259.383	290.12
259.616	313.12
259.849	297.12
260.081	299.12
260.314	296.12
260.547	305.12
260.779	289.12
261.012	302.12
261.244	294.12
261.477	299.12
261.71	302.12
261.942	305.12
262.175	317.12
262.407	305.12
262.64	320.12
262.872	324.12
263.105	306.12
263.337	314.12
263.57	301.12
263.802	302.12
264.035	321.12
264.267	316.12
264.499	323.12
264.732	318.12
264.964	338.12
265.197	340.12
265.429	319.12
265.661	325.12
265.894	348.12
266.126	325.12
266.358	339.12
266.591	331.12
266.823	336.12
267.055	332.12
267.287	336.12
267.52	342.12
267.752	359.12
267.984	338.12
268.216	356.12
268.448	362.12
268.681	351.12
268.913	353.12
269.145	344.12
269.377	344.12
269.609	345.12
269.841	378.12
270.073	339.12
270.306	341.12
270.538	362.12
270.77	347.12
271.002	353.12
271.234	344.12
271.466	351.12
271.698	355.12
271.93	364.12
272.162	373.12
272.394	366.12
272.626	361.12
272.858	361.12
273.09	377.12
273.322	384.12
273.553	375.12
273.785	381.12
274.017	372.12
274.249	367.12
274.481	404.12
274.713	391.12
274.945	393.12
275.176	392.12
275.408	383.12
275.64	406.12
275.872	357.12
276.104	397.12
276.335	396.12
276.567	397.12
276.799	380.12
277.031	383.12
277.262	393.12
277.494	399.12
277.726	409.12
277.957	410.12
278.189	400.12
278.421	398.12
278.652	390.12
278.884	419.12
279.115	393.12
279.347	428.12
279.579	395.12
279.81	414.12
280.042	420.12
280.273	399.12
280.505	426.12
280.736	439.12
280.968	437.12
281.199	425.12
281.431	445.12
281.662	444.12
281.894	442.12
282.125	434.12
282.356	445.12
282.588	429.12
282.819	423.12
283.051	446.12
283.282	425.12
283.513	446.12
283.745	440.12
283.976	445.12
284.207	453.12
284.439	460.12
284.67	454.12
284.901	465.12
285.132	437.12
285.364	466.12
285.595	437.12
285.826	466.12
286.057	440.12
286.288	444.12
286.52	457.12
286.751	456.12
286.982	454.12
287.213	463.12
287.444	461.12
287.675	490.12
287.906	469.12
288.138	498.12
288.369	490.12
288.6	480.12
288.831	490.12
289.062	473.12
289.293	485.12
289.524	499.12
289.755	457.12
289.986	507.12
290.217	486.12
290.448	459.12
290.679	492.12
290.91	472.12
291.141	454.12
291.371	470.12
291.602	502.12
291.833	479.12
292.064	484.12
292.295	467.12
292.526	507.12
292.757	489.12
292.987	465.12
293.218	460.12
293.449	496.12
293.68	483.12
293.91	486.12
294.141	497.12
294.372	500.12
294.603	510.12
294.833	520.12
295.064	490.12
295.295	497.12
295.525	495.12
295.756	504.12
295.987	506.12
296.217	504.12
296.448	517.12
296.679	492.12
296.909	520.12
297.14	534.12
297.37	542.12
297.601	518.12
297.831	527.12
298.062	533.12
298.292	543.12
298.523	524.12
298.753	539.12
298.984	529.12
299.214	537.12
299.445	546.12
299.675	537.12
299.905	522.12
300.136	506.12
300.366	545.12
300.597	545.12
300.827	548.12
301.057	541.12
301.288	571.12
301.518	572.12
301.748	561.12
301.979	574.12
302.209	574.12
302.439	582.12
302.669	554.12
302.9	569.12
303.13	551.12
303.36	563.12
303.59	565.12
303.82	565.12
304.051	580.12
304.281	556.12
304.511	571.12
304.741	572.12
304.971	538.12
305.201	556.12
305.431	541.12
305.661	565.12
305.891	545.12
306.121	561.12
306.352	563.12
306.582	553.12
306.812	557.12
307.042	554.12
307.272	526.12
307.502	545.12
307.731	561.12
307.961	556.12
308.191	546.12
308.421	558.12
308.651	557.12
308.881	539.12
309.111	561.12
309.341	539.12
309.571	541.12
309.8	546.12
310.03	533.12
310.26	529.12
310.49	558.12
310.72	557.12
310.949	545.12
311.179	569.12
311.409	554.12
311.639	557.12
311.868	556.12
312.098	576.12
312.328	567.12
312.557	572.12
312.787	561.12
313.017	594.12
313.246	594.12
313.476	602.12
313.706	600.12
313.935	578.12
314.165	593.12
314.394	599.12
314.624	592.12
314.853	592.12
315.083	602.12
315.312	597.12
315.542	597.12
315.771	576.12
316.001	580.12
316.23	595.12
316.46	580.12
316.689	571.12
316.919	583.12
317.148	575.12
317.377	595.12
317.607	569.12
317.836	557.12
318.065	566.12
318.295	576.12
318.524	561.12
318.753	557.12
318.983	593.12
319.212	558.12
319.441	601.12
319.67	579.12
319.9	589.12
320.129	590.12
320.358	577.12
320.587	583.12
320.816	596.12
321.046	595.12
321.275	606.12
321.504	596.12
321.733	568.12
321.962	596.12
322.191	595.12
322.42	589.12
322.649	586.12
322.878	580.12
323.108	592.12
323.337	594.12
323.566	602.12
323.795	579.12
324.024	594.12
324.253	612.12
324.482	607.12
324.71	635.12
324.939	601.12
325.168	616.12
325.397	601.12
325.626	604.12
325.855	623.12
326.084	631.12
326.313	653.12
326.542	655.12
326.77	649.12
326.999	644.12
327.228	619.12
327.457	635.12
327.686	631.12
327.914	636.12
328.143	620.12
328.372	641.12
328.6	648.12
328.829	655.12
329.058	633.12
329.287	638.12
329.515	654.12
329.744	648.12
329.972	666.12
330.201	619.12
330.43	663.12
330.658	653.12
330.887	650.12
331.115	682.12
331.344	676.12
331.572	682.12
331.801	687.12
332.03	715.12
332.258	754.12
332.486	745.12
332.715	775.12
332.943	809.12
333.172	847.12
333.4	876.12
333.629	864.12
333.857	878.12
334.085	873.12
334.314	841.12
334.542	854.12
334.771	821.12
334.999	800.12
335.227	825.12
335.455	811.12
335.684	780.12
335.912	781.12
336.14	767.12
336.369	771.12
336.597	763.12
336.825	781.12
337.053	765.12
337.281	765.12
337.51	754.12
337.738	733.12
337.966	692.12
338.194	699.12
338.422	680.12
338.65	714.12
338.878	700.12
339.106	709.12
339.334	706.12
339.562	717.12
339.79	668.12
340.018	675.12
340.246	678.12
340.474	662.12
340.702	687.12
340.93	674.12
341.158	695.12
341.386	684.12
341.614	677.12
341.842	677.12
342.07	658.12
342.298	656.12
342.526	680.12
342.754	658.12
342.981	671.12
343.209	707.12
343.437	740.12
343.665	778.12
343.893	819.12
344.12	839.12
344.348	806.12
344.576	749.12
344.804	737.12
345.031	719.12
345.259	699.12
345.487	681.12
345.714	656.12
345.942	671.12
346.17	661.12
346.397	655.12
346.625	676.12
346.853	665.12
347.08	660.12
347.308	670.12
347.535	668.12
347.763	655.12
347.99	666.12
348.218	672.12
348.445	650.12
348.673	665.12
348.9	658.12
349.128	666.12
349.355	654.12
349.583	667.12
349.81	641.12
350.037	638.12
350.265	652.12
350.492	670.12
350.72	634.12
350.947	645.12
351.174	646.12
351.402	636.12
351.629	629.12
351.856	628.12
352.083	598.12
352.311	636.12
352.538	617.12
352.765	639.12
352.992	623.12
353.22	624.12
353.447	613.12
353.674	645.12
353.901	646.12
354.128	638.12
354.355	630.12
354.583	636.12
354.81	625.12
355.037	636.12
355.264	647.12
355.491	642.12
355.718	639.12
355.945	648.12
356.172	640.12
356.399	651.12
356.626	644.12
356.853	625.12
357.08	636.12
357.307	636.12
357.534	645.12
357.761	619.12
357.988	623.12
358.215	610.12
358.441	634.12
358.668	635.12
358.895	641.12
359.122	605.12
359.349	633.12
359.576	613.12
359.802	646.12
360.029	646.12
360.256	633.12
360.483	633.12
360.709	644.12
360.936	638.12
361.163	643.12
361.39	648.12
361.616	641.12
361.843	631.12
362.07	615.12
362.296	632.12
362.523	616.12
362.749	626.12
362.976	638.12
363.203	617.12
363.429	609.12
363.656	642.12
363.882	638.12
364.109	613.12
364.335	635.12
364.562	620.12
364.788	619.12
365.015	627.12
365.241	627.12
365.468	647.12
365.694	610.12
365.92	625.12
366.147	608.12
366.373	628.12
366.599	602.12
366.826	635.12
367.052	634.12
367.278	657.12
367.505	634.12
367.731	641.12
367.957	661.12
368.184	650.12
368.41	638.12
368.636	648.12
368.862	613.12
369.089	649.12
369.315	655.12
369.541	664.12
369.767	653.12
369.993	649.12
370.219	672.12
370.445	671.12
370.672	684.12
370.898	665.12
371.124	677.12
371.35	698.12
371.576	683.12
371.802	678.12
372.028	690.12
372.254	698.12
372.48	699.12
372.706	696.12
372.932	686.12
373.158	722.12
373.384	694.12
373.61	683.12
373.835	705.12
374.061	707.12
374.287	708.12
374.513	707.12
374.739	757.12
374.965	765.12
375.191	754.12
375.416	737.12
375.642	726.12
375.868	728.12
376.094	702.12
376.319	714.12
376.545	699.12
376.771	690.12
376.997	689.12
377.222	673.12
377.448	681.12
377.674	703.12
377.899	695.12
378.125	670.12
378.35	693.12
378.576	681.12
378.802	666.12
379.027	684.12
379.253	661.12
379.478	668.12
379.704	679.12
379.929	675.12
380.155	713.12
380.38	671.12
380.606	692.12
380.831	694.12
381.057	686.12
381.282	693.12
381.507	684.12
381.733	669.12
381.958	722.12
382.184	711.12
382.409	693.12
382.634	706.12
382.86	703.12
383.085	717.12
383.31	750.12
383.535	753.12
383.761	786.12
383.986	762.12
384.211	813.12
384.436	825.12
384.662	820.12
384.887	821.12
385.112	837.12
385.337	824.12
385.562	825.12
385.787	815.12
386.013	825.12
386.238	835.12
386.463	825.12
386.688	858.12
386.913	818.12
387.138	810.12
387.363	801.12
387.588	802.12
387.813	842.12
388.038	809.12
388.263	816.12
388.488	814.12
388.713	810.12
388.938	807.12
389.163	808.12
389.387	805.12
389.612	784.12
389.837	811.12
390.062	802.12
390.287	811.12
390.512	778.12
390.736	799.12
390.961	799.12
391.186	866.12
391.411	855.12
391.636	893.12
391.86	917.12
392.085	897.12
392.31	909.12
392.534	925.12
392.759	883.12
392.984	863.12
393.208	876.12
393.433	862.12
393.658	877.12
393.882	871.12
394.107	870.12
394.331	864.12
394.556	843.12
394.78	879.12
395.005	911.12
395.229	871.12
395.454	907.12
395.678	932.12
395.903	926.12
396.127	912.12
396.352	894.12
396.576	866.12
396.801	845.12
397.025	871.12
397.249	883.12
397.474	897.12
397.698	913.12
397.922	926.12
398.147	922.12
398.371	917.12
398.595	943.12
398.82	1010.12
399.044	1081.12
399.268	1188.12
399.492	1417.12
399.717	1587.12
399.941	1569.12
400.165	1335.12
400.389	1217.12
400.613	1116.12
400.837	1089.12
401.062	1063.12
401.286	1021.12
401.51	1013.12
401.734	996.12
401.958	1041.12
402.182	1066.12
402.406	1068.12
402.63	1078.12
402.854	1092.12
403.078	1112.12
403.302	1124.12
403.526	1174.12
403.75	1191.12
403.974	1221.12
404.198	1225.12
404.422	1207.12
404.645	1213.12
404.869	1167.12
405.093	1144.12
405.317	1135.12
405.541	1134.12
405.765	1142.12
405.988	1101.12
406.212	1121.12
406.436	1139.12
406.66	1181.12
406.883	1175.12
407.107	1247.12
407.331	1281.12
407.555	1329.12
407.778	1320.12
408.002	1290.12
408.226	1235.12
408.449	1204.12
408.673	1177.12
408.896	1153.12
409.12	1140.12
409.344	1153.12
409.567	1162.12
409.791	1158.12
410.014	1163.12
410.238	1154.12
410.461	1133.12
410.685	1127.12
410.908	1126.12
411.132	1090.12
411.355	1060.12
411.578	1075.12
411.802	1037.12
412.025	1090.12
412.249	1103.12
412.472	1077.12
412.695	1039.12
412.919	1013.12
413.142	1036.12
413.365	1012.12
413.589	1035.12
413.812	1002.12
414.035	996.12
414.258	1031.12
414.482	1012.12
414.705	1045.12
414.928	1025.12
415.151	1016.12
415.374	987.12
415.597	1027.12
415.821	981.12
416.044	987.12
416.267	984.12
416.49	999.12
416.713	1030.12
416.936	1014.12
417.159	1029.12
417.382	1013.12
417.605	988.12
417.828	997.12
418.051	1023.12
418.274	1021.12
418.497	1018.12
418.72	1062.12
418.943	1043.12
419.166	1068.12
419.389	1183.12
419.611	1115.12
419.834	1070.12
420.057	1076.12
420.28	1057.12
420.503	999.12
420.726	1036.12
420.948	1000.12
421.171	992.12
421.394	993.12
421.617	1003.12
421.839	1019.12
422.062	1027.12
422.285	1051.12
422.507	1046.12
422.73	1052.12
422.953	1059.12
423.175	1060.12
423.398	1086.12
423.621	1093.12
423.843	1118.12
424.066	1086.12
424.288	1100.12
424.511	1076.12
424.733	1098.12
424.956	1036.12
425.178	1047.12
425.401	1028.12
425.623	1010.12
425.846	986.12
426.068	973.12
426.291	984.12
426.513	948.12
426.735	917.12
426.958	948.12
427.18	917.12
427.402	931.12
427.625	940.12
427.847	912.12
428.069	891.12
428.292	908.12
428.514	881.12
428.736	905.12
428.958	916.12
429.181	898.12
429.403	901.12
429.625	893.12
429.847	866.12
430.069	871.12
430.292	904.12
430.514	879.12
430.736	912.12
430.958	878.12
431.18	881.12
431.402	875.12
431.624	886.12
431.846	899.12
432.068	901.12
432.29	940.12
432.512	884.12
432.734	889.12
432.956	896.12
433.178	902.12
433.4	923.12
433.622	903.12
433.844	908.12
434.066	903.12
434.287	939.12
434.509	962.12
434.731	998.12
434.953	1012.12
435.175	1033.12
435.397	1007.12
435.618	955.12
435.84	947.12
436.062	938.12
436.284	907.12
436.505	915.12
436.727	921.12
436.949	957.12
437.17	909.12
437.392	899.12
437.614	889.12
437.835	841.12
438.057	851.12
438.278	845.12
438.5	841.12
438.721	864.12
438.943	865.12
439.165	888.12
439.386	878.12
439.608	910.12
439.829	907.12
440.05	897.12
440.272	905.12
440.493	899.12
440.715	916.12
440.936	947.12
441.158	947.12
441.379	977.12
441.6	1051.12
441.822	1021.12
442.043	1015.12
442.264	979.12
442.486	994.12
442.707	994.12
442.928	1025.12
443.149	998.12
443.371	1000.12
443.592	1017.12
443.813	1029.12
444.034	1046.12
444.255	1095.12
444.476	1121.12
444.698	1214.12
444.919	1246.12
445.14	1310.12
445.361	1148.12
445.582	1057.12
445.803	997.12
446.024	946.12
446.245	956.12
446.466	932.12
446.687	913.12
446.908	925.12
447.129	894.12
447.35	884.12
447.571	840.12
447.792	889.12
448.013	839.12
448.234	864.12
448.455	830.12
448.675	840.12
448.896	825.12
449.117	833.12
449.338	823.12
449.559	821.12
449.779	823.12
450	809.12
450.221	821.12
450.442	841.12
450.662	839.12
450.883	833.12
451.104	872.12
451.324	855.12
451.545	866.12
451.766	851.12
451.986	857.12
452.207	836.12
452.428	833.12
452.648	823.12
452.869	817.12
453.089	824.12
453.31	810.12
453.53	782.12
453.751	788.12
453.971	791.12
454.192	827.12
454.412	810.12
454.633	803.12
454.853	789.12
455.073	790.12
455.294	777.12
455.514	793.12
455.734	786.12
455.955	742.12
456.175	746.12
456.395	794.12
456.616	765.12
456.836	754.12
457.056	778.12
457.276	778.12
457.497	772.12
457.717	779.12
457.937	787.12
458.157	789.12
458.377	789.12
458.598	797.12
458.818	818.12
459.038	837.12
459.258	874.12
459.478	892.12
459.698	934.12
459.918	950.12
460.138	1029.12
460.358	1035.12
460.578	1048.12
460.798	1097.12
461.018	1104.12
461.238	1046.12
461.458	1047.12
461.678	1059.12
461.898	1069.12
462.118	1067.12
462.338	1132.12
462.558	1147.12
462.777	1199.12
462.997	1297.12
463.217	1469.12
463.437	1447.12
463.657	1308.12
463.876	1241.12
464.096	1239.12
464.316	1261.12
464.536	1261.12
464.755	1211.12
464.975	1180.12
465.195	1130.12
465.414	1040.12
465.634	986.12
465.854	941.12
466.073	917.12
466.293	914.12
466.512	869.12
466.732	874.12
466.951	864.12
467.171	855.12
467.391	863.12
467.61	857.12
467.829	874.12
468.049	812.12
468.268	838.12
468.488	838.12
468.707	819.12
468.927	843.12
469.146	836.12
469.365	830.12
469.585	837.12
469.804	843.12
470.023	894.12
470.243	881.12
470.462	905.12
470.681	882.12
470.901	869.12
471.12	860.12
471.339	859.12
471.558	837.12
471.777	830.12
471.997	867.12
472.216	830.12
472.435	825.12
472.654	803.12
472.873	769.12
473.092	798.12
473.311	809.12
473.53	802.12
473.749	829.12
473.968	809.12
474.187	810.12
474.406	802.12
474.625	812.12
474.844	797.12
475.063	823.12
475.282	804.12
475.501	831.12
475.72	835.12
475.939	818.12
476.158	848.12
476.377	846.12
476.596	817.12
476.814	835.12
477.033	858.12
477.252	833.12
477.471	889.12
477.69	911.12
477.908	920.12
478.127	978.12
478.346	953.12
478.564	988.12
478.783	983.12
479.002	1018.12
479.22	1035.12
479.439	998.12
479.658	1023.12
479.876	1021.12
480.095	1019.12
480.313	1053.12
480.532	1095.12
480.751	1088.12
480.969	1033.12
481.188	1036.12
481.406	978.12
481.624	939.12
481.843	905.12
482.061	931.12
482.28	929.12
482.498	924.12
482.717	891.12
482.935	902.12
483.153	921.12
483.372	905.12
483.59	928.12
483.808	931.12
484.027	916.12
484.245	945.12
484.463	918.12
484.681	938.12
484.9	954.12
485.118	941.12
485.336	965.12
485.554	972.12
485.772	973.12
485.99	981.12
486.209	982.12
486.427	961.12
486.645	967.12
486.863	999.12
487.081	962.12
487.299	965.12
487.517	987.12
487.735	956.12
487.953	938.12
488.171	984.12
488.389	964.12
488.607	951.12
488.825	965.12
489.043	958.12
489.261	957.12
489.479	963.12
489.696	971.12
489.914	967.12
490.132	965.12
490.35	962.12
490.568	940.12
490.786	964.12
491.003	974.12
491.221	968.12
491.439	954.12
491.657	957.12
491.874	946.12
492.092	971.12
492.31	988.12
492.527	986.12
492.745	1006.12
492.963	1010.12
493.18	983.12
493.398	993.12
493.615	1019.12
493.833	996.12
494.05	1037.12
494.268	1033.12
494.485	1025.12
494.703	1023.12
494.92	1034.12
495.138	1008.12
495.355	1015.12
495.573	1015.12
495.79	1021.12
496.008	1037.12
496.225	1011.12
496.442	1024.12
496.66	1034.12
496.877	1107.12
497.094	1105.12
497.312	1115.12
497.529	1128.12
497.746	1170.12
497.963	1171.12
498.181	1209.12
498.398	1306.12
498.615	1364.12
498.832	1440.12
499.049	1545.12
499.267	1698.12
499.484	1900.12
499.701	2063.12
499.918	2299.12
500.135	2651.12
500.352	3112.12
500.569	3253.12
500.786	3176.12
501.003	2898.12
501.22	2604.12
501.437	2244.12
501.654	1917.12
501.871	1788.12
502.088	1637.12
502.305	1538.12
502.522	1459.12
502.739	1374.12
502.956	1298.12
503.172	1248.12
503.389	1205.12
503.606	1191.12
503.823	1159.12
504.04	1148.12
504.256	1169.12
504.473	1203.12
504.69	1266.12
504.907	1214.12
505.123	1123.12
505.34	1053.12
505.557	1022.12
505.773	987.12
505.99	975.12
506.207	927.12
506.423	951.12
506.64	906.12
506.856	908.12
507.073	924.12
507.289	927.12
507.506	879.12
507.722	919.12
507.939	907.12
508.155	867.12
508.372	853.12
508.588	857.12
508.805	867.12
509.021	831.12
509.238	867.12
509.454	857.12
509.67	841.12
509.887	826.12
510.103	829.12
510.319	844.12
510.536	809.12
510.752	806.12
510.968	841.12
511.184	814.12
511.401	826.12
511.617	811.12
511.833	835.12
512.049	808.12
512.265	814.12
512.481	832.12
512.698	805.12
512.914	801.12
513.13	810.12
513.346	811.12
513.562	824.12
513.778	840.12
513.994	787.12
514.21	845.12
514.426	846.12
514.642	812.12
514.858	834.12
515.074	857.12
515.29	844.12
515.506	827.12
515.721	869.12
515.937	890.12
516.153	867.12
516.369	893.12
516.585	901.12
516.801	970.12
517.016	1011.12
517.232	1077.12
517.448	1095.12
517.664	1161.12
517.879	1163.12
518.095	1171.12
518.311	1123.12
518.527	1105.12
518.742	1037.12
518.958	966.12
519.173	962.12
519.389	939.12
519.605	919.12
519.82	868.12
520.036	876.12
520.251	817.12
520.467	839.12
520.682	835.12
520.898	813.12
521.113	811.12
521.329	813.12
521.544	794.12
521.76	779.12
521.975	782.12
522.19	786.12
522.406	775.12
522.621	758.12
522.836	774.12
523.052	796.12
523.267	753.12
523.482	756.12
523.698	773.12
523.913	759.12
524.128	775.12
524.343	745.12
524.559	765.12
524.774	721.12
524.989	763.12
525.204	768.12
525.419	725.12
525.634	748.12
525.849	745.12
526.064	781.12
526.28	740.12
526.495	729.12
526.71	769.12
526.925	748.12
527.14	719.12
527.355	746.12
527.57	735.12
527.785	746.12
527.999	734.12
528.214	767.12
528.429	720.12
528.644	736.12
528.859	743.12
529.074	741.12
529.289	745.12
529.503	742.12
529.718	741.12
529.933	719.12
530.148	737.12
530.363	731.12
530.577	728.12
530.792	743.12
531.007	730.12
531.221	738.12
531.436	747.12
531.651	751.12
531.865	734.12
532.08	795.12
532.295	723.12
532.509	753.12
532.724	741.12
532.938	738.12
533.153	741.12
533.367	703.12
533.582	727.12
533.796	750.12
534.011	716.12
534.225	728.12
534.44	754.12
534.654	713.12
534.868	732.12
535.083	719.12
535.297	733.12
535.511	711.12
535.726	742.12
535.94	718.12
536.154	700.12
536.369	705.12
536.583	701.12
536.797	697.12
537.011	707.12
537.225	702.12
537.44	668.12
537.654	681.12
537.868	695.12
538.082	689.12
538.296	676.12
538.51	683.12
538.724	678.12
538.938	656.12
539.153	646.12
539.367	654.12
539.581	669.12
539.795	652.12
540.009	679.12
540.222	649.12
540.436	665.12
540.65	653.12
540.864	657.12
541.078	673.12
541.292	663.12
541.506	663.12
541.72	677.12
541.934	680.12
542.147	669.12
542.361	651.12
542.575	643.12
542.789	638.12
543.002	625.12
543.216	654.12
543.43	653.12
543.644	661.12
543.857	649.12
544.071	656.12
544.285	667.12
544.498	665.12
544.712	671.12
544.925	664.12
545.139	679.12
545.352	657.12
545.566	694.12
545.779	662.12
545.993	671.12
546.206	704.12
546.42	691.12
546.633	694.12
546.847	674.12
547.06	670.12
547.274	668.12
547.487	661.12
547.7	670.12
547.914	667.12
548.127	677.12
548.34	701.12
548.554	684.12
548.767	706.12
548.98	671.12
549.193	684.12
549.407	670.12
549.62	694.12
549.833	699.12
550.046	690.12
550.259	696.12
550.473	668.12
550.686	676.12
550.899	674.12
551.112	638.12
551.325	656.12
551.538	638.12
551.751	636.12
551.964	658.12
552.177	689.12
552.39	707.12
552.603	702.12
552.816	711.12
553.029	726.12
553.242	741.12
553.455	751.12
553.667	761.12
553.88	756.12
554.093	731.12
554.306	700.12
554.519	681.12
554.732	658.12
554.944	662.12
555.157	649.12
555.37	647.12
555.583	615.12
555.795	594.12
556.008	610.12
556.221	610.12
556.433	581.12
556.646	608.12
556.859	575.12
557.071	591.12
557.284	570.12
557.496	567.12
557.709	585.12
557.921	583.12
558.134	585.12
558.346	577.12
558.559	597.12
558.771	584.12
558.984	543.12
559.196	570.12
559.409	542.12
559.621	573.12
559.833	575.12
560.046	551.12
560.258	537.12
560.47	525.12
560.683	548.12
560.895	564.12
561.107	566.12
561.32	547.12
561.532	540.12
561.744	547.12
561.956	534.12
562.168	543.12
562.381	560.12
562.593	557.12
562.805	565.12
563.017	556.12
563.229	581.12
563.441	547.12
563.653	558.12
563.865	569.12
564.077	569.12
564.289	588.12
564.501	572.12
564.713	582.12
564.925	614.12
565.137	616.12
565.349	627.12
565.561	653.12
565.773	661.12
565.985	686.12
566.197	725.12
566.408	783.12
566.62	869.12
566.832	923.12
567.044	938.12
567.255	917.12
567.467	943.12
567.679	1013.12
567.891	1067.12
568.102	1140.12
568.314	1104.12
568.526	908.12
568.737	860.12
568.949	797.12
569.161	717.12
569.372	676.12
569.584	628.12
569.795	629.12
570.007	581.12
570.218	569.12
570.43	573.12
570.641	569.12
570.853	579.12
571.064	594.12
571.276	573.12
571.487	567.12
571.698	554.12
571.91	527.12
572.121	514.12
572.333	516.12
572.544	491.12
572.755	492.12
572.966	481.12
573.178	467.12
573.389	476.12
573.6	469.12
573.811	475.12
574.023	441.12
574.234	467.12
574.445	449.12
574.656	461.12
574.867	469.12
575.078	472.12
575.289	450.12
575.501	471.12
575.712	451.12
575.923	466.12
576.134	438.12
576.345	438.12
576.556	426.12
576.767	419.12
576.978	434.12
577.188	441.12
577.399	404.12
577.61	440.12
577.821	422.12
578.032	421.12
578.243	427.12
578.454	429.12
578.665	422.12
578.875	415.12
579.086	411.12
579.297	423.12
579.508	419.12
579.718	400.12
579.929	383.12
580.14	396.12
580.35	402.12
580.561	400.12
580.772	396.12
580.982	389.12
581.193	371.12
581.403	405.12
581.614	397.12
581.825	375.12
582.035	382.12
582.246	393.12
582.456	381.12
582.667	389.12
582.877	395.12
583.087	396.12
583.298	381.12
583.508	386.12
583.719	393.12
583.929	392.12
584.139	397.12
584.35	375.12
584.56	355.12
584.77	396.12
584.981	385.12
585.191	385.12
585.401	385.12
585.611	369.12
585.821	364.12
586.032	380.12
586.242	371.12
586.452	364.12
586.662	393.12
586.872	377.12
587.082	379.12
587.292	375.12
587.502	375.12
587.713	364.12
587.923	371.12
588.133	372.12
588.343	371.12
588.553	364.12
588.762	359.12
588.972	370.12
589.182	354.12
589.392	372.12
589.602	395.12
589.812	364.12
590.022	385.12
590.232	377.12
590.441	374.12
590.651	363.12
590.861	376.12
591.071	389.12
591.281	390.12
591.49	384.12
591.7	389.12
591.91	392.12
592.119	390.12
592.329	422.12
592.539	432.12
592.748	425.12
592.958	463.12
593.167	456.12
593.377	480.12
593.587	473.12
593.796	481.12
594.006	488.12
594.215	494.12
594.424	493.12
594.634	487.12
594.843	446.12
595.053	426.12
595.262	407.12
595.472	407.12
595.681	395.12
595.89	395.12
596.1	373.12
596.309	375.12
596.518	356.12
596.727	367.12
596.937	341.12
597.146	345.12
597.355	353.12
597.564	342.12
597.774	315.12
597.983	321.12
598.192	330.12
598.401	352.12
598.61	343.12
598.819	308.12
599.028	334.12
599.237	321.12
599.446	313.12
599.655	332.12
599.864	353.12
600.073	311.12
600.282	324.12
600.491	299.12
600.7	309.12
600.909	320.12
601.118	325.12
601.327	318.12
601.536	311.12
601.745	298.12
601.953	313.12
602.162	318.12
602.371	316.12
602.58	304.12
602.789	309.12
602.997	306.12
603.206	308.12
603.415	297.12
603.623	312.12
603.832	286.12
604.041	304.12
604.249	307.12
604.458	298.12
604.666	307.12
604.875	280.12
605.084	286.12
605.292	291.12
605.501	301.12
605.709	296.12
605.918	309.12
606.126	295.12
606.334	277.12
606.543	293.12
606.751	301.12
606.96	282.12
607.168	287.12
607.376	269.12
607.585	293.12
607.793	308.12
608.001	277.12
608.21	295.12
608.418	282.12
608.626	278.12
608.834	302.12
609.043	289.12
609.251	268.12
609.459	265.12
609.667	293.12
609.875	281.12
610.083	282.12
610.291	279.12
610.499	310.12
610.707	298.12
610.916	276.12
611.124	275.12
611.332	285.12
611.54	275.12
611.748	278.12
611.955	270.12
612.163	276.12
612.371	305.12
612.579	270.12
612.787	265.12
612.995	281.12
613.203	280.12
613.411	274.12
613.618	272.12
613.826	269.12
614.034	279.12
614.242	271.12
614.449	274.12
614.657	272.12
614.865	278.12
615.072	282.12
615.28	276.12
615.488	277.12
615.695	282.12
615.903	283.12
616.111	280.12
616.318	290.12
616.526	282.12
616.733	279.12
616.941	284.12
617.148	272.12
617.356	274.12
617.563	278.12
617.771	270.12
617.978	270.12
618.185	257.12
618.393	261.12
618.6	275.12
618.807	271.12
619.015	275.12
619.222	266.12
619.429	269.12
619.637	284.12
619.844	266.12
620.051	258.12
620.258	269.12
620.466	252.12
620.673	265.12
620.88	238.12
621.087	237.12
621.294	253.12
621.501	238.12
621.708	273.12
621.915	251.12
622.122	254.12
622.329	267.12
622.536	252.12
622.743	236.12
622.95	268.12
623.157	239.12
623.364	245.12
623.571	253.12
623.778	240.12
623.985	229.12
624.192	233.12
624.399	225.12
624.606	248.12
624.812	234.12
625.019	236.12
625.226	222.12
625.433	254.12
625.639	246.12
625.846	238.12
626.053	228.12
626.259	221.12
626.466	214.12
626.673	231.12
626.879	241.12
627.086	218.12
627.293	214.12
627.499	213.12
627.706	226.12
627.912	227.12
628.119	217.12
628.325	242.12
628.532	237.12
628.738	225.12
628.945	211.12
629.151	225.12
629.357	228.12
629.564	220.12
629.77	231.12
629.976	226.12
630.183	211.12
630.389	217.12
630.595	212.12
630.802	230.12
631.008	210.12
631.214	200.12
631.42	197.12
631.627	227.12
631.833	228.12
632.039	211.12
632.245	209.12
632.451	214.12
632.657	200.12
632.863	199.12
633.069	213.12
633.275	210.12
633.481	211.12
633.688	213.12
633.893	205.12
634.099	205.12
634.305	203.12
634.511	213.12
634.717	220.12
634.923	208.12
635.129	199.12
635.335	211.12
635.541	186.12
635.747	200.12
635.952	215.12
636.158	197.12
636.364	205.12
636.57	188.12
636.775	212.12
636.981	202.12
637.187	192.12
637.392	200.12
637.598	187.12
637.804	211.12
638.009	194.12
638.215	201.12
638.421	189.12
638.626	185.12
638.832	192.12
639.037	198.12
639.243	175.12
639.448	198.12
639.654	202.12
639.859	196.12
640.065	190.12
640.27	173.12
640.475	189.12
640.681	197.12
640.886	184.12
641.091	181.12
641.297	198.12
641.502	181.12
641.707	203.12
641.913	193.12
642.118	181.12
642.323	206.12
642.528	193.12
642.733	194.12
642.939	174.12
643.144	186.12
643.349	181.12
643.554	187.12
643.759	163.12
643.964	174.12
644.169	170.12
644.374	188.12
644.579	187.12
644.784	191.12
644.989	185.12
645.194	170.12
645.399	181.12
645.604	179.12
645.809	175.12
646.014	192.12
646.219	189.12
646.423	198.12
646.628	178.12
646.833	193.12
647.038	206.12
647.243	188.12
647.447	179.12
647.652	189.12
647.857	191.12
648.062	190.12
648.266	216.12
648.471	201.12
648.676	185.12
648.88	196.12
649.085	195.12
649.289	193.12
649.494	180.12
649.698	193.12
649.903	184.12
650.107	187.12
650.312	174.12
650.516	182.12
650.721	201.12
650.925	181.12
651.13	172.12
651.334	166.12
651.539	159.12
651.743	181.12
651.947	178.12
652.152	162.12
652.356	152.12
652.56	145.12
652.764	155.12
652.969	147.12
653.173	150.12
653.377	153.12
653.581	153.12
653.785	151.12
653.99	149.12
654.194	155.12
654.398	151.12
654.602	147.12
654.806	133.12
655.01	139.12
655.214	127.12
655.418	138.12
655.622	146.12
655.826	146.12
656.03	156.12
656.234	147.12
656.438	150.12
656.642	151.12
656.846	154.12
657.049	131.12
657.253	125.12
657.457	131.12
657.661	126.12
657.865	116.12
658.068	116.12
658.272	119.12
658.476	128.12
658.68	119.12
658.883	109.12
659.087	111.12
659.291	96.12
659.494	112.12
659.698	98.12
659.901	104.12
660.105	116.12
660.309	92.12
660.512	92.12
660.716	104.12
660.919	99.12
661.123	85.12
661.326	92.12
661.53	85.12
661.733	89.12
661.936	93.12
662.14	85.12
662.343	94.12
662.546	80.12
662.75	77.12
662.953	83.12
663.156	74.12
663.36	85.12
663.563	77.12
663.766	78.12
663.969	81.12
664.173	86.12
664.376	89.12
664.579	97.12
664.782	86.12
664.985	76.12
665.188	81.12
665.391	83.12
665.594	106.12
665.797	93.12
666	78.12
666.203	74.12
666.406	79.12
666.609	77.12
666.812	82.12
667.015	90.12
667.218	83.12
667.421	80.12
667.624	78.12
667.827	106.12
668.03	73.12
668.232	79.12
668.435	87.12
668.638	81.12
668.841	87.12
669.043	86.12
669.246	77.12
669.449	86.12
669.651	89.12
669.854	79.12
670.057	89.12
670.259	88.12
670.462	85.12
670.665	78.12
670.867	81.12
671.07	85.12
671.272	80.12
671.475	88.12
671.677	77.12
671.88	94.12
672.082	94.12
672.284	86.12
672.487	98.12
672.689	91.12
672.892	82.12
