Data from Ni(NO3)2@0.0625M.TitratingCurve.Agarose3%dH2O.NegLispCup.LampEnergy10.LIBS07252019_HRD10591_18-14-09-569.txt Node
Date: Thu Jul 25 18:14:09 EDT 2019
User: cochatt
Spectrometer: HR+D1059
Trigger mode: 1
Integration Time (sec): 1.000000E-1
Scans to average: 1
Electric dark correction enabled: true
Nonlinearity correction enabled: false
Boxcar width: 0
XAxis mode: Wavelengths
Number of Pixels in Spectrum: 2048
>>>>>Begin Spectral Data<<<<<
223.165	-14
223.4	-14
223.635	-14
223.869	-8
224.104	-27
224.338	-24
224.573	-12
224.808	-21
225.042	-13
225.277	-6
225.511	1
225.746	7
225.98	1
226.215	19
226.449	26
226.683	28
226.918	24
227.152	19
227.387	47
227.621	37
227.856	32
228.09	41
228.324	38
228.559	62
228.793	65
229.027	108
229.262	99
229.496	110
229.73	126
229.964	110
230.199	131
230.433	135
230.667	125
230.901	148
231.136	144
231.37	130
231.604	155
231.838	137
232.072	144
232.306	134
232.541	147
232.775	160
233.009	141
233.243	159
233.477	161
233.711	154
233.945	137
234.179	167
234.413	156
234.647	154
234.881	134
235.115	163
235.349	159
235.583	144
235.817	150
236.051	159
236.285	152
236.519	165
236.753	163
236.987	149
237.221	156
237.455	164
237.689	141
237.922	153
238.156	174
238.39	160
238.624	155
238.858	163
239.091	182
239.325	164
239.559	174
239.793	168
240.027	175
240.26	172
240.494	178
240.728	179
240.961	173
241.195	190
241.429	188
241.662	195
241.896	195
242.13	189
242.363	203
242.597	181
242.83	209
243.064	202
243.298	217
243.531	198
243.765	200
243.998	211
244.232	214
244.465	202
244.699	199
244.932	216
245.166	207
245.399	218
245.633	207
245.866	216
246.099	205
246.333	221
246.566	217
246.8	203
247.033	230
247.266	221
247.5	214
247.733	236
247.966	230
248.2	229
248.433	225
248.666	226
248.899	251
249.133	226
249.366	226
249.599	246
249.832	262
250.066	255
250.299	255
250.532	260
250.765	269
250.998	248
251.231	250
251.465	251
251.698	260
251.931	250
252.164	262
252.397	271
252.63	279
252.863	282
253.096	259
253.329	270
253.562	274
253.795	279
254.028	278
254.261	269
254.494	278
254.727	256
254.96	283
255.193	293
255.426	289
255.659	277
255.892	289
256.124	289
256.357	274
256.59	268
256.823	280
257.056	278
257.289	292
257.521	280
257.754	298
257.987	281
258.22	289
258.452	306
258.685	295
258.918	305
259.151	309
259.383	309
259.616	319
259.849	314
260.081	319
260.314	315
260.547	309
260.779	318
261.012	306
261.244	310
261.477	317
261.71	310
261.942	311
262.175	318
262.407	312
262.64	322
262.872	333
263.105	354
263.337	333
263.57	358
263.802	323
264.035	322
264.267	333
264.499	355
264.732	351
264.964	364
265.197	321
265.429	337
265.661	365
265.894	359
266.126	361
266.358	346
266.591	353
266.823	357
267.055	355
267.287	343
267.52	347
267.752	366
267.984	372
268.216	345
268.448	354
268.681	351
268.913	376
269.145	376
269.377	353
269.609	353
269.841	397
270.073	383
270.306	358
270.538	379
270.77	387
271.002	380
271.234	365
271.466	374
271.698	378
271.93	375
272.162	380
272.394	387
272.626	385
272.858	379
273.09	391
273.322	381
273.553	380
273.785	397
274.017	396
274.249	391
274.481	429
274.713	394
274.945	404
275.176	412
275.408	386
275.64	385
275.872	398
276.104	412
276.335	412
276.567	402
276.799	433
277.031	414
277.262	409
277.494	413
277.726	412
277.957	416
278.189	433
278.421	424
278.652	433
278.884	423
279.115	422
279.347	417
279.579	435
279.81	415
280.042	452
280.273	449
280.505	461
280.736	422
280.968	440
281.199	452
281.431	443
281.662	449
281.894	449
282.125	444
282.356	445
282.588	444
282.819	437
283.051	458
283.282	445
283.513	484
283.745	478
283.976	469
284.207	483
284.439	462
284.67	486
284.901	491
285.132	478
285.364	458
285.595	472
285.826	445
286.057	483
286.288	482
286.52	491
286.751	476
286.982	497
287.213	499
287.444	490
287.675	485
287.906	484
288.138	483
288.369	497
288.6	516
288.831	485
289.062	499
289.293	509
289.524	490
289.755	503
289.986	488
290.217	503
290.448	487
290.679	522
290.91	518
291.141	505
291.371	505
291.602	494
291.833	513
292.064	501
292.295	501
292.526	530
292.757	519
292.987	517
293.218	517
293.449	518
293.68	513
293.91	542
294.141	539
294.372	501
294.603	527
294.833	499
295.064	523
295.295	517
295.525	511
295.756	534
295.987	531
296.217	553
296.448	556
296.679	541
296.909	539
297.14	548
297.37	548
297.601	570
297.831	535
298.062	566
298.292	575
298.523	582
298.753	571
298.984	575
299.214	581
299.445	549
299.675	560
299.905	570
300.136	562
300.366	556
300.597	583
300.827	582
301.057	601
301.288	599
301.518	596
301.748	589
301.979	585
302.209	585
302.439	577
302.669	562
302.9	582
303.13	565
303.36	563
303.59	572
303.82	561
304.051	591
304.281	575
304.511	585
304.741	560
304.971	573
305.201	585
305.431	569
305.661	580
305.891	580
306.121	573
306.352	581
306.582	555
306.812	558
307.042	567
307.272	555
307.502	587
307.731	550
307.961	567
308.191	570
308.421	566
308.651	563
308.881	565
309.111	558
309.341	564
309.571	571
309.8	572
310.03	566
310.26	553
310.49	538
310.72	571
310.949	570
311.179	590
311.409	564
311.639	569
311.868	573
312.098	566
312.328	558
312.557	583
312.787	582
313.017	586
313.246	574
313.476	603
313.706	636
313.935	599
314.165	614
314.394	590
314.624	597
314.853	595
315.083	601
315.312	593
315.542	603
315.771	614
316.001	591
316.23	597
316.46	581
316.689	592
316.919	578
317.148	574
317.377	594
317.607	596
317.836	597
318.065	583
318.295	590
318.524	598
318.753	597
318.983	571
319.212	599
319.441	638
319.67	601
319.9	600
320.129	603
320.358	594
320.587	589
320.816	607
321.046	598
321.275	591
321.504	617
321.733	580
321.962	581
322.191	596
322.42	585
322.649	627
322.878	596
323.108	601
323.337	624
323.566	591
323.795	605
324.024	598
324.253	587
324.482	607
324.71	618
324.939	611
325.168	616
325.397	600
325.626	627
325.855	641
326.084	655
326.313	648
326.542	675
326.77	661
326.999	645
327.228	650
327.457	644
327.686	654
327.914	646
328.143	658
328.372	639
328.6	660
328.829	636
329.058	644
329.287	669
329.515	652
329.744	658
329.972	655
330.201	668
330.43	650
330.658	651
330.887	654
331.115	694
331.344	689
331.572	674
331.801	710
332.03	741
332.258	746
332.486	729
332.715	762
332.943	814
333.172	826
333.4	883
333.629	933
333.857	915
334.085	865
334.314	862
334.542	870
334.771	834
334.999	837
335.227	826
335.455	806
335.684	804
335.912	796
336.14	782
336.369	787
336.597	797
336.825	791
337.053	797
337.281	770
337.51	741
337.738	748
337.966	725
338.194	713
338.422	709
338.65	710
338.878	714
339.106	708
339.334	722
339.562	698
339.79	679
340.018	666
340.246	681
340.474	670
340.702	677
340.93	670
341.158	676
341.386	686
341.614	667
341.842	670
342.07	668
342.298	669
342.526	679
342.754	678
342.981	695
343.209	697
343.437	727
343.665	778
343.893	838
344.12	873
344.348	827
344.576	802
344.804	749
345.031	718
345.259	715
345.487	717
345.714	685
345.942	655
346.17	683
346.397	681
346.625	664
346.853	658
347.08	655
347.308	694
347.535	689
347.763	653
347.99	667
348.218	663
348.445	668
348.673	662
348.9	669
349.128	655
349.355	639
349.583	642
349.81	644
350.037	648
350.265	652
350.492	638
350.72	632
350.947	644
351.174	636
351.402	648
351.629	645
351.856	642
352.083	658
352.311	612
352.538	625
352.765	634
352.992	612
353.22	612
353.447	638
353.674	627
353.901	655
354.128	647
354.355	637
354.583	612
354.81	622
355.037	654
355.264	619
355.491	622
355.718	647
355.945	638
356.172	656
356.399	627
356.626	645
356.853	663
357.08	640
357.307	646
357.534	630
357.761	629
357.988	645
358.215	633
358.441	646
358.668	610
358.895	640
359.122	648
359.349	645
359.576	649
359.802	650
360.029	630
360.256	642
360.483	630
360.709	610
360.936	635
361.163	642
361.39	605
361.616	644
361.843	647
362.07	636
362.296	626
362.523	639
362.749	631
362.976	609
363.203	635
363.429	625
363.656	637
363.882	630
364.109	628
364.335	594
364.562	619
364.788	614
365.015	645
365.241	623
365.468	634
365.694	615
365.92	633
366.147	625
366.373	636
366.599	627
366.826	647
367.052	607
367.278	629
367.505	642
367.731	623
367.957	638
368.184	649
368.41	639
368.636	663
368.862	634
369.089	661
369.315	651
369.541	662
369.767	657
369.993	647
370.219	641
370.445	670
370.672	693
370.898	661
371.124	667
371.35	711
371.576	705
371.802	682
372.028	683
372.254	690
372.48	699
372.706	706
372.932	713
373.158	739
373.384	704
373.61	694
373.835	685
374.061	708
374.287	708
374.513	697
374.739	730
374.965	769
375.191	798
375.416	787
375.642	748
375.868	765
376.094	726
376.319	724
376.545	710
376.771	701
376.997	709
377.222	721
377.448	700
377.674	711
377.899	683
378.125	682
378.35	680
378.576	676
378.802	682
379.027	697
379.253	673
379.478	663
379.704	692
379.929	695
380.155	690
380.38	695
380.606	694
380.831	677
381.057	685
381.282	702
381.507	706
381.733	701
381.958	675
382.184	711
382.409	725
382.634	726
382.86	733
383.085	751
383.31	737
383.535	769
383.761	781
383.986	796
384.211	806
384.436	809
384.662	822
384.887	864
385.112	820
385.337	820
385.562	828
385.787	836
386.013	862
386.238	866
386.463	847
386.688	862
386.913	823
387.138	833
387.363	825
387.588	830
387.813	802
388.038	790
388.263	818
388.488	820
388.713	839
388.938	814
389.163	803
389.387	783
389.612	809
389.837	812
390.062	801
390.287	809
390.512	812
390.736	828
390.961	805
391.186	824
391.411	861
391.636	888
391.86	928
392.085	979
392.31	969
392.534	941
392.759	887
392.984	855
393.208	869
393.433	879
393.658	866
393.882	883
394.107	880
394.331	893
394.556	886
394.78	869
395.005	904
395.229	897
395.454	926
395.678	958
395.903	935
396.127	925
396.352	901
396.576	877
396.801	873
397.025	887
397.249	886
397.474	907
397.698	921
397.922	904
398.147	927
398.371	909
398.595	973
398.82	1010
399.044	1005
399.268	1188
399.492	1395
399.717	1657
399.941	1635
400.165	1375
400.389	1251
400.613	1171
400.837	1081
401.062	1053
401.286	1034
401.51	1016
401.734	1060
401.958	1070
402.182	1061
402.406	1080
402.63	1116
402.854	1082
403.078	1140
403.302	1213
403.526	1211
403.75	1225
403.974	1250
404.198	1303
404.422	1257
404.645	1233
404.869	1195
405.093	1211
405.317	1143
405.541	1146
405.765	1149
405.988	1118
406.212	1131
406.436	1103
406.66	1170
406.883	1188
407.107	1298
407.331	1348
407.555	1391
407.778	1373
408.002	1337
408.226	1295
408.449	1206
408.673	1203
408.896	1201
409.12	1198
409.344	1179
409.567	1203
409.791	1228
410.014	1206
410.238	1204
410.461	1184
410.685	1170
410.908	1159
411.132	1124
411.355	1082
411.578	1072
411.802	1095
412.025	1127
412.249	1133
412.472	1076
412.695	1053
412.919	1015
413.142	1023
413.365	1031
413.589	1046
413.812	1045
414.035	1039
414.258	1014
414.482	1065
414.705	1049
414.928	1050
415.151	1070
415.374	1057
415.597	1043
415.821	1007
416.044	1033
416.267	1003
416.49	1019
416.713	998
416.936	1009
417.159	1027
417.382	1031
417.605	1017
417.828	1039
418.051	1039
418.274	1062
418.497	1040
418.72	1086
418.943	1075
419.166	1116
419.389	1199
419.611	1183
419.834	1135
420.057	1103
420.28	1082
420.503	1016
420.726	1021
420.948	1036
421.171	1027
421.394	1025
421.617	1031
421.839	1037
422.062	1022
422.285	1043
422.507	1077
422.73	1039
422.953	1070
423.175	1078
423.398	1102
423.621	1125
423.843	1107
424.066	1097
424.288	1116
424.511	1117
424.733	1086
424.956	1057
425.178	1037
425.401	1066
425.623	1077
425.846	1029
426.068	985
426.291	974
426.513	948
426.735	959
426.958	982
427.18	940
427.402	919
427.625	949
427.847	916
428.069	949
428.292	927
428.514	917
428.736	898
428.958	922
429.181	918
429.403	898
429.625	921
429.847	899
430.069	884
430.292	912
430.514	879
430.736	919
430.958	903
431.18	892
431.402	898
431.624	883
431.846	934
432.068	931
432.29	954
432.512	925
432.734	926
432.956	934
433.178	929
433.4	920
433.622	925
433.844	903
434.066	932
434.287	961
434.509	990
434.731	1031
434.953	1062
435.175	1071
435.397	1068
435.618	1022
435.84	1003
436.062	945
436.284	937
436.505	942
436.727	945
436.949	945
437.17	940
437.392	919
437.614	912
437.835	886
438.057	907
438.278	850
438.5	869
438.721	894
438.943	915
439.165	881
439.386	892
439.608	929
439.829	901
440.05	888
440.272	953
440.493	953
440.715	921
440.936	964
441.158	975
441.379	1002
441.6	1063
441.822	1059
442.043	1066
442.264	1007
442.486	990
442.707	1024
442.928	1014
443.149	1023
443.371	1036
443.592	1046
443.813	1065
444.034	1086
444.255	1102
444.476	1161
444.698	1253
444.919	1301
445.14	1377
445.361	1209
445.582	1073
445.803	1010
446.024	953
446.245	965
446.466	940
446.687	906
446.908	947
447.129	931
447.35	858
447.571	892
447.792	877
448.013	860
448.234	853
448.455	871
448.675	842
448.896	834
449.117	845
449.338	874
449.559	829
449.779	844
450	807
450.221	881
450.442	837
450.662	845
450.883	869
451.104	881
451.324	885
451.545	872
451.766	878
451.986	846
452.207	865
452.428	863
452.648	877
452.869	830
453.089	833
453.31	839
453.53	837
453.751	846
453.971	843
454.192	843
454.412	831
454.633	829
454.853	826
455.073	830
455.294	844
455.514	825
455.734	807
455.955	829
456.175	814
456.395	793
456.616	785
456.836	760
457.056	809
457.276	790
457.497	806
457.717	806
457.937	791
458.157	811
458.377	833
458.598	834
458.818	842
459.038	874
459.258	926
459.478	952
459.698	966
459.918	1005
460.138	1060
460.358	1107
460.578	1107
460.798	1119
461.018	1126
461.238	1083
461.458	1104
461.678	1075
461.898	1085
462.118	1103
462.338	1178
462.558	1204
462.777	1254
462.997	1397
463.217	1518
463.437	1575
463.657	1399
463.876	1332
464.096	1281
464.316	1345
464.536	1339
464.755	1278
464.975	1231
465.195	1187
465.414	1077
465.634	1013
465.854	995
466.073	945
466.293	942
466.512	907
466.732	919
466.951	898
467.171	902
467.391	874
467.61	894
467.829	936
468.049	890
468.268	847
468.488	845
468.707	858
468.927	848
469.146	862
469.365	854
469.585	863
469.804	940
470.023	924
470.243	903
470.462	925
470.681	939
470.901	932
471.12	923
471.339	898
471.558	885
471.777	878
471.997	861
472.216	829
472.435	862
472.654	829
472.873	806
473.092	823
473.311	815
473.53	818
473.749	811
473.968	817
474.187	849
474.406	813
474.625	842
474.844	869
475.063	848
475.282	844
475.501	858
475.72	872
475.939	828
476.158	883
476.377	883
476.596	883
476.814	887
477.033	892
477.252	890
477.471	909
477.69	929
477.908	977
478.127	992
478.346	998
478.564	974
478.783	1004
479.002	1030
479.22	1069
479.439	1049
479.658	1022
479.876	1026
480.095	1083
480.313	1078
480.532	1138
480.751	1134
480.969	1067
481.188	1032
481.406	1004
481.624	969
481.843	962
482.061	965
482.28	942
482.498	937
482.717	942
482.935	954
483.153	969
483.372	975
483.59	963
483.808	937
484.027	957
484.245	979
484.463	947
484.681	1009
484.9	991
485.118	989
485.336	989
485.554	986
485.772	1038
485.99	1029
486.209	1036
486.427	1031
486.645	1025
486.863	1030
487.081	996
487.299	1011
487.517	996
487.735	983
487.953	967
488.171	990
488.389	989
488.607	1005
488.825	980
489.043	970
489.261	966
489.479	1000
489.696	1014
489.914	974
490.132	1004
490.35	1004
490.568	987
490.786	1009
491.003	1014
491.221	1024
491.439	987
491.657	1006
491.874	993
492.092	1017
492.31	987
492.527	1021
492.745	1035
492.963	1038
493.18	1047
493.398	999
493.615	1037
493.833	1062
494.05	1070
494.268	1039
494.485	1045
494.703	1055
494.92	1035
495.138	1032
495.355	1016
495.573	1022
495.79	1048
496.008	1075
496.225	1109
496.442	1064
496.66	1094
496.877	1097
497.094	1111
497.312	1145
497.529	1146
497.746	1177
497.963	1198
498.181	1256
498.398	1293
498.615	1397
498.832	1509
499.049	1607
499.267	1751
499.484	1880
499.701	2105
499.918	2378
500.135	2760
500.352	3269
500.569	3457
500.786	3404
501.003	3132
501.22	2777
501.437	2383
501.654	2116
501.871	1921
502.088	1741
502.305	1577
502.522	1521
502.739	1455
502.956	1367
503.172	1323
503.389	1283
503.606	1220
503.823	1182
504.04	1198
504.256	1211
504.473	1249
504.69	1316
504.907	1273
505.123	1155
505.34	1095
505.557	1090
505.773	1034
505.99	1004
506.207	986
506.423	981
506.64	963
506.856	939
507.073	953
507.289	939
507.506	948
507.722	929
507.939	939
508.155	924
508.372	915
508.588	893
508.805	892
509.021	892
509.238	894
509.454	871
509.67	893
509.887	878
510.103	868
510.319	847
510.536	865
510.752	855
510.968	876
511.184	838
511.401	868
511.617	861
511.833	862
512.049	852
512.265	857
512.481	840
512.698	840
512.914	836
513.13	849
513.346	858
513.562	863
513.778	855
513.994	852
514.21	893
514.426	857
514.642	853
514.858	876
515.074	884
515.29	888
515.506	894
515.721	914
515.937	931
516.153	953
516.369	949
516.585	979
516.801	1006
517.016	1047
517.232	1111
517.448	1147
517.664	1225
517.879	1252
518.095	1224
518.311	1199
518.527	1147
518.742	1085
518.958	1051
519.173	1031
519.389	1013
519.605	916
519.82	921
520.036	888
520.251	866
520.467	847
520.682	874
520.898	884
521.113	863
521.329	844
521.544	861
521.76	872
521.975	837
522.19	823
522.406	837
522.621	843
522.836	821
523.052	814
523.267	806
523.482	790
523.698	777
523.913	786
524.128	818
524.343	803
524.559	793
524.774	791
524.989	800
525.204	796
525.419	798
525.634	759
525.849	781
526.064	779
526.28	780
526.495	736
526.71	797
526.925	788
527.14	747
527.355	771
527.57	754
527.785	772
527.999	797
528.214	773
528.429	801
528.644	783
528.859	783
529.074	777
529.289	787
529.503	773
529.718	785
529.933	777
530.148	798
530.363	772
530.577	780
530.792	740
531.007	768
531.221	793
531.436	771
531.651	772
531.865	772
532.08	783
532.295	795
532.509	776
532.724	775
532.938	781
533.153	798
533.367	783
533.582	788
533.796	772
534.011	766
534.225	782
534.44	771
534.654	776
534.868	775
535.083	769
535.297	766
535.511	730
535.726	757
535.94	750
536.154	742
536.369	731
536.583	728
536.797	747
537.011	735
537.225	713
537.44	710
537.654	735
537.868	711
538.082	686
538.296	714
538.51	718
538.724	746
538.938	713
539.153	702
539.367	687
539.581	709
539.795	719
540.009	709
540.222	707
540.436	722
540.65	685
540.864	693
541.078	681
541.292	685
541.506	697
541.72	692
541.934	710
542.147	684
542.361	695
542.575	670
542.789	705
543.002	705
543.216	694
543.43	693
543.644	664
543.857	661
544.071	663
544.285	702
544.498	691
544.712	702
544.925	696
545.139	706
545.352	708
545.566	706
545.779	713
545.993	730
546.206	709
546.42	699
546.633	711
546.847	718
547.06	723
547.274	691
547.487	706
547.7	707
547.914	687
548.127	744
548.34	711
548.554	724
548.767	706
548.98	699
549.193	724
549.407	709
549.62	737
549.833	741
550.046	742
550.259	703
550.473	686
550.686	683
550.899	698
551.112	705
551.325	709
551.538	687
551.751	675
551.964	708
552.177	699
552.39	725
552.603	754
552.816	742
553.029	767
553.242	787
553.455	787
553.667	790
553.88	779
554.093	771
554.306	737
554.519	705
554.732	725
554.944	693
555.157	683
555.37	694
555.583	663
555.795	654
556.008	653
556.221	657
556.433	637
556.646	628
556.859	633
557.071	616
557.284	646
557.496	605
557.709	633
557.921	611
558.134	605
558.346	597
558.559	608
558.771	600
558.984	599
559.196	591
559.409	596
559.621	604
559.833	612
560.046	576
560.258	607
560.47	591
560.683	581
560.895	591
561.107	585
561.32	594
561.532	587
561.744	592
561.956	578
562.168	604
562.381	584
562.593	586
562.805	614
563.017	592
563.229	586
563.441	602
563.653	612
563.865	636
564.077	588
564.289	627
564.501	637
564.713	638
564.925	637
565.137	669
565.349	642
565.561	689
565.773	707
565.985	721
566.197	749
566.408	820
566.62	892
566.832	970
567.044	1006
567.255	985
567.467	1028
567.679	1085
567.891	1194
568.102	1234
568.314	1174
568.526	1041
568.737	899
568.949	847
569.161	769
569.372	708
569.584	689
569.795	639
570.007	641
570.218	622
570.43	601
570.641	598
570.853	607
571.064	625
571.276	619
571.487	605
571.698	575
571.91	540
572.121	554
572.333	562
572.544	526
572.755	495
572.966	522
573.178	514
573.389	525
573.6	502
573.811	474
574.023	486
574.234	499
574.445	485
574.656	476
574.867	510
575.078	498
575.289	502
575.501	482
575.712	474
575.923	466
576.134	467
576.345	493
576.556	481
576.767	451
576.978	474
577.188	469
577.399	457
577.61	450
577.821	464
578.032	459
578.243	445
578.454	456
578.665	449
578.875	440
579.086	435
579.297	452
579.508	446
579.718	451
579.929	447
580.14	422
580.35	435
580.561	432
580.772	437
580.982	433
581.193	400
581.403	433
581.614	436
581.825	427
582.035	439
582.246	408
582.456	419
582.667	404
582.877	422
583.087	392
583.298	404
583.508	417
583.719	428
583.929	408
584.139	418
584.35	389
584.56	410
584.77	398
584.981	411
585.191	386
585.401	413
585.611	400
585.821	420
586.032	406
586.242	407
586.452	391
586.662	413
586.872	388
587.082	400
587.292	396
587.502	399
587.713	405
587.923	382
588.133	397
588.343	417
588.553	374
588.762	379
588.972	390
589.182	413
589.392	404
589.602	411
589.812	395
590.022	409
590.232	406
590.441	405
590.651	395
590.861	400
591.071	394
591.281	410
591.49	413
591.7	401
591.91	413
592.119	425
592.329	446
592.539	441
592.748	453
592.958	473
593.167	507
593.377	507
593.587	520
593.796	505
594.006	537
594.215	551
594.424	519
594.634	500
594.843	487
595.053	487
595.262	461
595.472	442
595.681	414
595.89	417
596.1	379
596.309	385
596.518	391
596.727	382
596.937	371
597.146	382
597.355	378
597.564	370
597.774	369
597.983	372
598.192	345
598.401	358
598.61	365
598.819	360
599.028	335
599.237	338
599.446	344
599.655	348
599.864	337
600.073	345
600.282	348
600.491	349
600.7	354
600.909	347
601.118	335
601.327	320
601.536	331
601.745	314
601.953	338
602.162	325
602.371	338
602.58	337
602.789	331
602.997	332
603.206	315
603.415	311
603.623	340
603.832	314
604.041	303
604.249	342
604.458	320
604.666	312
604.875	338
605.084	316
605.292	311
605.501	323
605.709	315
605.918	315
606.126	314
606.334	305
606.543	309
606.751	322
606.96	319
607.168	306
607.376	316
607.585	315
607.793	327
608.001	319
608.21	307
608.418	309
608.626	308
608.834	295
609.043	302
609.251	293
609.459	318
609.667	294
609.875	311
610.083	301
610.291	305
610.499	296
610.707	286
610.916	321
611.124	315
611.332	289
611.54	317
611.748	301
611.955	307
612.163	311
612.371	302
612.579	289
612.787	294
612.995	291
613.203	274
613.411	297
613.618	304
613.826	288
614.034	294
614.242	284
614.449	284
614.657	291
614.865	276
615.072	295
615.28	300
615.488	283
615.695	305
615.903	305
616.111	285
616.318	299
616.526	289
616.733	289
616.941	281
617.148	308
617.356	305
617.563	290
617.771	288
617.978	277
618.185	303
618.393	300
618.6	292
618.807	282
619.015	304
619.222	289
619.429	292
619.637	285
619.844	294
620.051	266
620.258	288
620.466	270
620.673	261
620.88	278
621.087	275
621.294	293
621.501	275
621.708	267
621.915	269
622.122	271
622.329	259
622.536	280
622.743	264
622.95	270
623.157	271
623.364	260
623.571	277
623.778	238
623.985	256
624.192	259
624.399	258
624.606	261
624.812	261
625.019	252
625.226	252
625.433	258
625.639	257
625.846	262
626.053	262
626.259	245
626.466	262
626.673	254
626.879	248
627.086	233
627.293	247
627.499	249
627.706	252
627.912	241
628.119	240
628.325	240
628.532	247
628.738	239
628.945	233
629.151	241
629.357	219
629.564	226
629.77	232
629.976	228
630.183	226
630.389	221
630.595	235
630.802	238
631.008	229
631.214	238
631.42	233
631.627	236
631.833	209
632.039	230
632.245	221
632.451	222
632.657	205
632.863	222
633.069	221
633.275	226
633.481	238
633.688	222
633.893	207
634.099	214
634.305	220
634.511	207
634.717	230
634.923	226
635.129	229
635.335	204
635.541	216
635.747	217
635.952	220
636.158	211
636.364	212
636.57	206
636.775	207
636.981	196
637.187	202
637.392	205
637.598	205
637.804	207
638.009	213
638.215	207
638.421	200
638.626	212
638.832	191
639.037	213
639.243	201
639.448	219
639.654	211
639.859	205
640.065	195
640.27	222
640.475	199
640.681	202
640.886	210
641.091	198
641.297	190
641.502	191
641.707	205
641.913	190
642.118	190
642.323	180
642.528	188
642.733	203
642.939	191
643.144	182
643.349	175
643.554	208
643.759	175
643.964	182
644.169	190
644.374	186
644.579	188
644.784	195
644.989	199
645.194	188
645.399	189
645.604	189
645.809	190
646.014	194
646.219	197
646.423	185
646.628	187
646.833	182
647.038	189
647.243	198
647.447	202
647.652	202
647.857	196
648.062	211
648.266	200
648.471	208
648.676	202
648.88	193
649.085	201
649.289	190
649.494	201
649.698	190
649.903	191
650.107	195
650.312	187
650.516	168
650.721	178
650.925	180
651.13	148
651.334	191
651.539	171
651.743	174
651.947	168
652.152	186
652.356	162
652.56	163
652.764	159
652.969	157
653.173	139
653.377	143
653.581	147
653.785	153
653.99	141
654.194	145
654.398	144
654.602	149
654.806	133
655.01	149
655.214	142
655.418	143
655.622	149
655.826	148
656.03	130
656.234	147
656.438	145
656.642	136
656.846	144
657.049	130
657.253	129
657.457	119
657.661	115
657.865	131
658.068	121
658.272	106
658.476	117
658.68	100
658.883	94
659.087	120
659.291	113
659.494	107
659.698	104
659.901	96
660.105	101
660.309	78
660.512	96
660.716	103
660.919	101
661.123	97
661.326	103
661.53	102
661.733	95
661.936	89
662.14	90
662.343	103
662.546	86
662.75	98
662.953	94
663.156	83
663.36	82
663.563	74
663.766	85
663.969	99
664.173	89
664.376	79
664.579	90
664.782	84
664.985	91
665.188	84
665.391	93
665.594	83
665.797	89
666	74
666.203	76
666.406	84
666.609	96
666.812	83
667.015	88
667.218	78
667.421	88
667.624	80
667.827	94
668.03	98
668.232	92
668.435	82
668.638	80
668.841	89
669.043	94
669.246	95
669.449	76
669.651	74
669.854	79
670.057	93
670.259	68
670.462	70
670.665	86
670.867	85
671.07	83
671.272	68
671.475	88
671.677	85
671.88	89
672.082	79
672.284	95
672.487	81
672.689	91
672.892	82
