Data from Ni(NO3)2Standard.Agarose3%.GreenCap.LampEnergy5.5.E.O_HRD10591_14-42-46-188.txt Node
Date: Mon Jul 22 14:42:46 EDT 2019
User: cochatt
Spectrometer: HR+D1059
Trigger mode: 1
Integration Time (sec): 1.000000E-1
Scans to average: 1
Electric dark correction enabled: true
Nonlinearity correction enabled: false
Boxcar width: 0
XAxis mode: Wavelengths
Number of Pixels in Spectrum: 2048
>>>>>Begin Spectral Data<<<<<
223.165	-11.88
223.4	-11.88
223.635	-11.88
223.869	-22.88
224.104	-11.88
224.338	10.12
224.573	-16.88
224.808	-30.88
225.042	8.12
225.277	-2.88
225.511	-15.88
225.746	7.12
225.98	19.12
226.215	2.12
226.449	3.12
226.683	13.12
226.918	22.12
227.152	28.12
227.387	45.12
227.621	53.12
227.856	35.12
228.09	50.12
228.324	52.12
228.559	54.12
228.793	63.12
229.027	41.12
229.262	57.12
229.496	58.12
229.73	77.12
229.964	75.12
230.199	74.12
230.433	72.12
230.667	90.12
230.901	77.12
231.136	65.12
231.37	75.12
231.604	83.12
231.838	74.12
232.072	83.12
232.306	77.12
232.541	96.12
232.775	69.12
233.009	78.12
233.243	67.12
233.477	90.12
233.711	85.12
233.945	87.12
234.179	81.12
234.413	72.12
234.647	90.12
234.881	80.12
235.115	77.12
235.349	89.12
235.583	83.12
235.817	79.12
236.051	81.12
236.285	75.12
236.519	84.12
236.753	79.12
236.987	86.12
237.221	66.12
237.455	81.12
237.689	79.12
237.922	67.12
238.156	88.12
238.39	71.12
238.624	73.12
238.858	77.12
239.091	83.12
239.325	81.12
239.559	73.12
239.793	70.12
240.027	79.12
240.26	75.12
240.494	78.12
240.728	77.12
240.961	66.12
241.195	76.12
241.429	83.12
241.662	87.12
241.896	75.12
242.13	69.12
242.363	81.12
242.597	77.12
242.83	84.12
243.064	85.12
243.298	78.12
243.531	74.12
243.765	83.12
243.998	64.12
244.232	82.12
244.465	81.12
244.699	85.12
244.932	77.12
245.166	79.12
245.399	65.12
245.633	71.12
245.866	84.12
246.099	71.12
246.333	73.12
246.566	71.12
246.8	74.12
247.033	80.12
247.266	76.12
247.5	84.12
247.733	69.12
247.966	73.12
248.2	68.12
248.433	77.12
248.666	74.12
248.899	83.12
249.133	72.12
249.366	88.12
249.599	76.12
249.832	70.12
250.066	69.12
250.299	77.12
250.532	88.12
250.765	81.12
250.998	89.12
251.231	82.12
251.465	79.12
251.698	85.12
251.931	69.12
252.164	73.12
252.397	87.12
252.63	83.12
252.863	85.12
253.096	73.12
253.329	84.12
253.562	79.12
253.795	80.12
254.028	75.12
254.261	72.12
254.494	81.12
254.727	86.12
254.96	80.12
255.193	84.12
255.426	79.12
255.659	86.12
255.892	76.12
256.124	70.12
256.357	87.12
256.59	77.12
256.823	75.12
257.056	82.12
257.289	78.12
257.521	83.12
257.754	75.12
257.987	80.12
258.22	87.12
258.452	68.12
258.685	72.12
258.918	80.12
259.151	80.12
259.383	89.12
259.616	80.12
259.849	77.12
260.081	67.12
260.314	83.12
260.547	87.12
260.779	77.12
261.012	82.12
261.244	85.12
261.477	69.12
261.71	91.12
261.942	83.12
262.175	76.12
262.407	90.12
262.64	91.12
262.872	101.12
263.105	95.12
263.337	68.12
263.57	74.12
263.802	72.12
264.035	92.12
264.267	83.12
264.499	84.12
264.732	87.12
264.964	76.12
265.197	75.12
265.429	85.12
265.661	76.12
265.894	84.12
266.126	84.12
266.358	90.12
266.591	76.12
266.823	76.12
267.055	78.12
267.287	81.12
267.52	82.12
267.752	83.12
267.984	76.12
268.216	83.12
268.448	89.12
268.681	84.12
268.913	88.12
269.145	76.12
269.377	89.12
269.609	79.12
269.841	80.12
270.073	79.12
270.306	88.12
270.538	79.12
270.77	80.12
271.002	87.12
271.234	98.12
271.466	92.12
271.698	88.12
271.93	81.12
272.162	92.12
272.394	87.12
272.626	68.12
272.858	90.12
273.09	95.12
273.322	86.12
273.553	80.12
273.785	99.12
274.017	95.12
274.249	88.12
274.481	82.12
274.713	85.12
274.945	91.12
275.176	80.12
275.408	74.12
275.64	66.12
275.872	84.12
276.104	80.12
276.335	78.12
276.567	77.12
276.799	77.12
277.031	81.12
277.262	87.12
277.494	91.12
277.726	100.12
277.957	94.12
278.189	88.12
278.421	91.12
278.652	80.12
278.884	68.12
279.115	70.12
279.347	67.12
279.579	75.12
279.81	89.12
280.042	90.12
280.273	92.12
280.505	84.12
280.736	81.12
280.968	79.12
281.199	83.12
281.431	74.12
281.662	77.12
281.894	86.12
282.125	83.12
282.356	82.12
282.588	64.12
282.819	80.12
283.051	87.12
283.282	89.12
283.513	101.12
283.745	82.12
283.976	85.12
284.207	89.12
284.439	81.12
284.67	76.12
284.901	87.12
285.132	76.12
285.364	84.12
285.595	74.12
285.826	96.12
286.057	82.12
286.288	75.12
286.52	84.12
286.751	77.12
286.982	78.12
287.213	77.12
287.444	89.12
287.675	89.12
287.906	77.12
288.138	86.12
288.369	86.12
288.6	88.12
288.831	93.12
289.062	98.12
289.293	104.12
289.524	88.12
289.755	97.12
289.986	95.12
290.217	79.12
290.448	89.12
290.679	88.12
290.91	95.12
291.141	100.12
291.371	87.12
291.602	71.12
291.833	87.12
292.064	84.12
292.295	73.12
292.526	74.12
292.757	66.12
292.987	76.12
293.218	84.12
293.449	96.12
293.68	91.12
293.91	93.12
294.141	89.12
294.372	92.12
294.603	83.12
294.833	88.12
295.064	86.12
295.295	77.12
295.525	77.12
295.756	101.12
295.987	79.12
296.217	77.12
296.448	85.12
296.679	89.12
296.909	86.12
297.14	78.12
297.37	84.12
297.601	82.12
297.831	83.12
298.062	65.12
298.292	87.12
298.523	81.12
298.753	97.12
298.984	97.12
299.214	71.12
299.445	100.12
299.675	90.12
299.905	94.12
300.136	88.12
300.366	79.12
300.597	91.12
300.827	72.12
301.057	83.12
301.288	72.12
301.518	77.12
301.748	81.12
301.979	74.12
302.209	79.12
302.439	87.12
302.669	83.12
302.9	91.12
303.13	81.12
303.36	94.12
303.59	89.12
303.82	85.12
304.051	93.12
304.281	73.12
304.511	83.12
304.741	85.12
304.971	88.12
305.201	96.12
305.431	72.12
305.661	84.12
305.891	76.12
306.121	98.12
306.352	68.12
306.582	80.12
306.812	94.12
307.042	82.12
307.272	85.12
307.502	93.12
307.731	84.12
307.961	100.12
308.191	86.12
308.421	79.12
308.651	90.12
308.881	94.12
309.111	85.12
309.341	82.12
309.571	89.12
309.8	88.12
310.03	97.12
310.26	84.12
310.49	77.12
310.72	86.12
310.949	95.12
311.179	89.12
311.409	75.12
311.639	90.12
311.868	74.12
312.098	82.12
312.328	89.12
312.557	84.12
312.787	85.12
313.017	81.12
313.246	87.12
313.476	73.12
313.706	68.12
313.935	95.12
314.165	83.12
314.394	98.12
314.624	72.12
314.853	82.12
315.083	88.12
315.312	75.12
315.542	82.12
315.771	87.12
316.001	71.12
316.23	89.12
316.46	77.12
316.689	86.12
316.919	88.12
317.148	92.12
317.377	83.12
317.607	98.12
317.836	72.12
318.065	77.12
318.295	85.12
318.524	85.12
318.753	94.12
318.983	97.12
319.212	84.12
319.441	75.12
319.67	88.12
319.9	93.12
320.129	88.12
320.358	92.12
320.587	87.12
320.816	97.12
321.046	88.12
321.275	86.12
321.504	85.12
321.733	77.12
321.962	75.12
322.191	89.12
322.42	82.12
322.649	80.12
322.878	82.12
323.108	97.12
323.337	96.12
323.566	101.12
323.795	73.12
324.024	96.12
324.253	87.12
324.482	79.12
324.71	84.12
324.939	85.12
325.168	80.12
325.397	81.12
325.626	83.12
325.855	82.12
326.084	82.12
326.313	95.12
326.542	92.12
326.77	85.12
326.999	92.12
327.228	85.12
327.457	88.12
327.686	82.12
327.914	67.12
328.143	80.12
328.372	85.12
328.6	83.12
328.829	90.12
329.058	84.12
329.287	88.12
329.515	100.12
329.744	74.12
329.972	79.12
330.201	86.12
330.43	83.12
330.658	86.12
330.887	86.12
331.115	93.12
331.344	83.12
331.572	93.12
331.801	92.12
332.03	78.12
332.258	89.12
332.486	83.12
332.715	75.12
332.943	76.12
333.172	97.12
333.4	84.12
333.629	77.12
333.857	72.12
334.085	72.12
334.314	89.12
334.542	98.12
334.771	81.12
334.999	99.12
335.227	82.12
335.455	94.12
335.684	74.12
335.912	78.12
336.14	90.12
336.369	77.12
336.597	81.12
336.825	77.12
337.053	93.12
337.281	77.12
337.51	83.12
337.738	91.12
337.966	100.12
338.194	71.12
338.422	94.12
338.65	95.12
338.878	98.12
339.106	89.12
339.334	86.12
339.562	81.12
339.79	79.12
340.018	83.12
340.246	82.12
340.474	85.12
340.702	88.12
340.93	92.12
341.158	92.12
341.386	86.12
341.614	80.12
341.842	76.12
342.07	82.12
342.298	75.12
342.526	75.12
342.754	82.12
342.981	93.12
343.209	85.12
343.437	95.12
343.665	80.12
343.893	84.12
344.12	75.12
344.348	70.12
344.576	96.12
344.804	94.12
345.031	90.12
345.259	82.12
345.487	82.12
345.714	84.12
345.942	83.12
346.17	80.12
346.397	99.12
346.625	81.12
346.853	89.12
347.08	88.12
347.308	89.12
347.535	103.12
347.763	95.12
347.99	73.12
348.218	85.12
348.445	84.12
348.673	89.12
348.9	91.12
349.128	71.12
349.355	99.12
349.583	82.12
349.81	89.12
350.037	90.12
350.265	85.12
350.492	82.12
350.72	85.12
350.947	78.12
351.174	95.12
351.402	91.12
351.629	83.12
351.856	85.12
352.083	81.12
352.311	87.12
352.538	87.12
352.765	95.12
352.992	91.12
353.22	89.12
353.447	88.12
353.674	77.12
353.901	79.12
354.128	83.12
354.355	77.12
354.583	85.12
354.81	97.12
355.037	92.12
355.264	72.12
355.491	90.12
355.718	89.12
355.945	91.12
356.172	91.12
356.399	85.12
356.626	82.12
356.853	79.12
357.08	75.12
357.307	71.12
357.534	88.12
357.761	89.12
357.988	87.12
358.215	87.12
358.441	81.12
358.668	85.12
358.895	94.12
359.122	81.12
359.349	97.12
359.576	90.12
359.802	88.12
360.029	83.12
360.256	81.12
360.483	91.12
360.709	84.12
360.936	103.12
361.163	87.12
361.39	105.12
361.616	87.12
361.843	94.12
362.07	96.12
362.296	89.12
362.523	76.12
362.749	80.12
362.976	88.12
363.203	91.12
363.429	98.12
363.656	80.12
363.882	79.12
364.109	71.12
364.335	87.12
364.562	85.12
364.788	78.12
365.015	87.12
365.241	93.12
365.468	81.12
365.694	83.12
365.92	81.12
366.147	102.12
366.373	99.12
366.599	80.12
366.826	90.12
367.052	79.12
367.278	87.12
367.505	75.12
367.731	72.12
367.957	80.12
368.184	79.12
368.41	85.12
368.636	73.12
368.862	100.12
369.089	70.12
369.315	74.12
369.541	78.12
369.767	84.12
369.993	88.12
370.219	84.12
370.445	84.12
370.672	94.12
370.898	82.12
371.124	74.12
371.35	89.12
371.576	78.12
371.802	84.12
372.028	83.12
372.254	93.12
372.48	86.12
372.706	70.12
372.932	95.12
373.158	97.12
373.384	83.12
373.61	76.12
373.835	84.12
374.061	79.12
374.287	77.12
374.513	100.12
374.739	88.12
374.965	98.12
375.191	72.12
375.416	88.12
375.642	83.12
375.868	80.12
376.094	75.12
376.319	89.12
376.545	79.12
376.771	80.12
376.997	95.12
377.222	73.12
377.448	84.12
377.674	83.12
377.899	89.12
378.125	85.12
378.35	94.12
378.576	81.12
378.802	77.12
379.027	77.12
379.253	86.12
379.478	101.12
379.704	91.12
379.929	89.12
380.155	71.12
380.38	77.12
380.606	90.12
380.831	84.12
381.057	89.12
381.282	84.12
381.507	88.12
381.733	83.12
381.958	80.12
382.184	82.12
382.409	85.12
382.634	84.12
382.86	91.12
383.085	101.12
383.31	78.12
383.535	81.12
383.761	91.12
383.986	72.12
384.211	71.12
384.436	80.12
384.662	84.12
384.887	83.12
385.112	80.12
385.337	91.12
385.562	78.12
385.787	73.12
386.013	90.12
386.238	84.12
386.463	69.12
386.688	78.12
386.913	87.12
387.138	86.12
387.363	87.12
387.588	91.12
387.813	89.12
388.038	86.12
388.263	80.12
388.488	87.12
388.713	66.12
388.938	76.12
389.163	67.12
389.387	83.12
389.612	74.12
389.837	87.12
390.062	95.12
390.287	105.12
390.512	72.12
390.736	82.12
390.961	91.12
391.186	82.12
391.411	76.12
391.636	76.12
391.86	89.12
392.085	68.12
392.31	84.12
392.534	88.12
392.759	79.12
392.984	73.12
393.208	96.12
393.433	82.12
393.658	94.12
393.882	80.12
394.107	86.12
394.331	84.12
394.556	86.12
394.78	80.12
395.005	83.12
395.229	77.12
395.454	84.12
395.678	94.12
395.903	85.12
396.127	102.12
396.352	84.12
396.576	84.12
396.801	80.12
397.025	97.12
397.249	77.12
397.474	76.12
397.698	67.12
397.922	92.12
398.147	80.12
398.371	78.12
398.595	92.12
398.82	84.12
399.044	77.12
399.268	87.12
399.492	99.12
399.717	76.12
399.941	91.12
400.165	89.12
400.389	81.12
400.613	78.12
400.837	84.12
401.062	85.12
401.286	88.12
401.51	81.12
401.734	89.12
401.958	69.12
402.182	73.12
402.406	87.12
402.63	86.12
402.854	76.12
403.078	93.12
403.302	79.12
403.526	82.12
403.75	80.12
403.974	85.12
404.198	92.12
404.422	83.12
404.645	71.12
404.869	97.12
405.093	93.12
405.317	75.12
405.541	81.12
405.765	83.12
405.988	91.12
406.212	83.12
406.436	77.12
406.66	89.12
406.883	100.12
407.107	82.12
407.331	96.12
407.555	73.12
407.778	74.12
408.002	87.12
408.226	81.12
408.449	90.12
408.673	88.12
408.896	103.12
409.12	76.12
409.344	80.12
409.567	71.12
409.791	75.12
410.014	93.12
410.238	86.12
410.461	76.12
410.685	68.12
410.908	89.12
411.132	82.12
411.355	79.12
411.578	94.12
411.802	83.12
412.025	76.12
412.249	87.12
412.472	88.12
412.695	72.12
412.919	83.12
413.142	81.12
413.365	90.12
413.589	95.12
413.812	90.12
414.035	89.12
414.258	95.12
414.482	75.12
414.705	73.12
414.928	97.12
415.151	94.12
415.374	86.12
415.597	94.12
415.821	98.12
416.044	82.12
416.267	78.12
416.49	90.12
416.713	90.12
416.936	85.12
417.159	83.12
417.382	76.12
417.605	75.12
417.828	85.12
418.051	76.12
418.274	90.12
418.497	69.12
418.72	84.12
418.943	84.12
419.166	69.12
419.389	99.12
419.611	73.12
419.834	83.12
420.057	83.12
420.28	82.12
420.503	97.12
420.726	89.12
420.948	83.12
421.171	84.12
421.394	75.12
421.617	87.12
421.839	81.12
422.062	91.12
422.285	81.12
422.507	71.12
422.73	81.12
422.953	77.12
423.175	81.12
423.398	79.12
423.621	81.12
423.843	84.12
424.066	91.12
424.288	83.12
424.511	85.12
424.733	86.12
424.956	85.12
425.178	75.12
425.401	99.12
425.623	81.12
425.846	83.12
426.068	85.12
426.291	76.12
426.513	89.12
426.735	96.12
426.958	82.12
427.18	87.12
427.402	81.12
427.625	85.12
427.847	63.12
428.069	92.12
428.292	95.12
428.514	83.12
428.736	73.12
428.958	80.12
429.181	82.12
429.403	90.12
429.625	99.12
429.847	84.12
430.069	81.12
430.292	97.12
430.514	86.12
430.736	91.12
430.958	88.12
431.18	84.12
431.402	90.12
431.624	92.12
431.846	74.12
432.068	84.12
432.29	76.12
432.512	90.12
432.734	85.12
432.956	89.12
433.178	90.12
433.4	92.12
433.622	84.12
433.844	79.12
434.066	89.12
434.287	91.12
434.509	89.12
434.731	81.12
434.953	92.12
435.175	75.12
435.397	72.12
435.618	87.12
435.84	75.12
436.062	84.12
436.284	83.12
436.505	87.12
436.727	91.12
436.949	92.12
437.17	74.12
437.392	84.12
437.614	82.12
437.835	82.12
438.057	85.12
438.278	87.12
438.5	92.12
438.721	76.12
438.943	91.12
439.165	90.12
439.386	82.12
439.608	77.12
439.829	79.12
440.05	86.12
440.272	87.12
440.493	79.12
440.715	72.12
440.936	71.12
441.158	82.12
441.379	90.12
441.6	99.12
441.822	84.12
442.043	89.12
442.264	87.12
442.486	96.12
442.707	89.12
442.928	89.12
443.149	84.12
443.371	90.12
443.592	89.12
443.813	80.12
444.034	81.12
444.255	70.12
444.476	88.12
444.698	92.12
444.919	80.12
445.14	193.12
445.361	140.12
445.582	93.12
445.803	103.12
446.024	74.12
446.245	73.12
446.466	84.12
446.687	77.12
446.908	88.12
447.129	82.12
447.35	83.12
447.571	68.12
447.792	80.12
448.013	98.12
448.234	90.12
448.455	95.12
448.675	80.12
448.896	102.12
449.117	80.12
449.338	87.12
449.559	92.12
449.779	95.12
450	83.12
450.221	78.12
450.442	81.12
450.662	92.12
450.883	78.12
451.104	93.12
451.324	88.12
451.545	88.12
451.766	92.12
451.986	76.12
452.207	73.12
452.428	89.12
452.648	69.12
452.869	81.12
453.089	78.12
453.31	78.12
453.53	80.12
453.751	88.12
453.971	75.12
454.192	76.12
454.412	82.12
454.633	82.12
454.853	80.12
455.073	83.12
455.294	90.12
455.514	92.12
455.734	93.12
455.955	86.12
456.175	80.12
456.395	88.12
456.616	86.12
456.836	87.12
457.056	91.12
457.276	89.12
457.497	83.12
457.717	99.12
457.937	81.12
458.157	97.12
458.377	74.12
458.598	80.12
458.818	79.12
459.038	79.12
459.258	79.12
459.478	87.12
459.698	86.12
459.918	75.12
460.138	81.12
460.358	75.12
460.578	91.12
460.798	76.12
461.018	93.12
461.238	68.12
461.458	71.12
461.678	83.12
461.898	87.12
462.118	86.12
462.338	91.12
462.558	85.12
462.777	82.12
462.997	82.12
463.217	87.12
463.437	109.12
463.657	92.12
463.876	88.12
464.096	83.12
464.316	84.12
464.536	87.12
464.755	84.12
464.975	91.12
465.195	83.12
465.414	95.12
465.634	84.12
465.854	84.12
466.073	79.12
466.293	93.12
466.512	86.12
466.732	87.12
466.951	82.12
467.171	85.12
467.391	84.12
467.61	98.12
467.829	75.12
468.049	77.12
468.268	84.12
468.488	83.12
468.707	91.12
468.927	95.12
469.146	85.12
469.365	92.12
469.585	79.12
469.804	92.12
470.023	81.12
470.243	76.12
470.462	86.12
470.681	83.12
470.901	90.12
471.12	79.12
471.339	92.12
471.558	84.12
471.777	78.12
471.997	76.12
472.216	86.12
472.435	82.12
472.654	83.12
472.873	90.12
473.092	80.12
473.311	96.12
473.53	85.12
473.749	89.12
473.968	98.12
474.187	104.12
474.406	80.12
474.625	87.12
474.844	80.12
475.063	85.12
475.282	94.12
475.501	89.12
475.72	83.12
475.939	95.12
476.158	90.12
476.377	91.12
476.596	84.12
476.814	95.12
477.033	86.12
477.252	83.12
477.471	82.12
477.69	98.12
477.908	87.12
478.127	87.12
478.346	84.12
478.564	75.12
478.783	95.12
479.002	74.12
479.22	99.12
479.439	84.12
479.658	87.12
479.876	80.12
480.095	81.12
480.313	90.12
480.532	99.12
480.751	99.12
480.969	93.12
481.188	83.12
481.406	99.12
481.624	89.12
481.843	81.12
482.061	101.12
482.28	86.12
482.498	83.12
482.717	95.12
482.935	85.12
483.153	88.12
483.372	81.12
483.59	88.12
483.808	84.12
484.027	85.12
484.245	95.12
484.463	102.12
484.681	91.12
484.9	81.12
485.118	89.12
485.336	99.12
485.554	89.12
485.772	89.12
485.99	88.12
486.209	80.12
486.427	77.12
486.645	86.12
486.863	76.12
487.081	85.12
487.299	88.12
487.517	93.12
487.735	85.12
487.953	84.12
488.171	88.12
488.389	90.12
488.607	92.12
488.825	87.12
489.043	86.12
489.261	99.12
489.479	86.12
489.696	87.12
489.914	95.12
490.132	92.12
490.35	88.12
490.568	96.12
490.786	86.12
491.003	89.12
491.221	77.12
491.439	93.12
491.657	87.12
491.874	86.12
492.092	88.12
492.31	97.12
492.527	114.12
492.745	101.12
492.963	95.12
493.18	93.12
493.398	104.12
493.615	93.12
493.833	95.12
494.05	94.12
494.268	73.12
494.485	74.12
494.703	83.12
494.92	88.12
495.138	80.12
495.355	97.12
495.573	104.12
495.79	98.12
496.008	93.12
496.225	88.12
496.442	105.12
496.66	99.12
496.877	83.12
497.094	96.12
497.312	79.12
497.529	108.12
497.746	96.12
497.963	87.12
498.181	98.12
498.398	99.12
498.615	91.12
498.832	93.12
499.049	91.12
499.267	95.12
499.484	108.12
499.701	105.12
499.918	105.12
500.135	105.12
500.352	112.12
500.569	101.12
500.786	112.12
501.003	99.12
501.22	119.12
501.437	116.12
501.654	85.12
501.871	104.12
502.088	89.12
502.305	107.12
502.522	96.12
502.739	101.12
502.956	96.12
503.172	94.12
503.389	84.12
503.606	98.12
503.823	90.12
504.04	79.12
504.256	85.12
504.473	74.12
504.69	83.12
504.907	84.12
505.123	96.12
505.34	108.12
505.557	84.12
505.773	90.12
505.99	87.12
506.207	96.12
506.423	74.12
506.64	93.12
506.856	88.12
507.073	96.12
507.289	83.12
507.506	89.12
507.722	85.12
507.939	101.12
508.155	86.12
508.372	88.12
508.588	99.12
508.805	97.12
509.021	99.12
509.238	91.12
509.454	81.12
509.67	84.12
509.887	73.12
510.103	108.12
510.319	95.12
510.536	85.12
510.752	86.12
510.968	104.12
511.184	88.12
511.401	90.12
511.617	99.12
511.833	81.12
512.049	90.12
512.265	93.12
512.481	85.12
512.698	101.12
512.914	86.12
513.13	85.12
513.346	90.12
513.562	86.12
513.778	81.12
513.994	92.12
514.21	76.12
514.426	91.12
514.642	99.12
514.858	85.12
515.074	81.12
515.29	88.12
515.506	92.12
515.721	85.12
515.937	82.12
516.153	85.12
516.369	102.12
516.585	82.12
516.801	77.12
517.016	91.12
517.232	83.12
517.448	92.12
517.664	85.12
517.879	93.12
518.095	99.12
518.311	95.12
518.527	89.12
518.742	86.12
518.958	77.12
519.173	111.12
519.389	91.12
519.605	95.12
519.82	96.12
520.036	94.12
520.251	93.12
520.467	89.12
520.682	83.12
520.898	105.12
521.113	86.12
521.329	96.12
521.544	95.12
521.76	82.12
521.975	83.12
522.19	92.12
522.406	80.12
522.621	95.12
522.836	96.12
523.052	84.12
523.267	77.12
523.482	86.12
523.698	84.12
523.913	89.12
524.128	95.12
524.343	96.12
524.559	90.12
524.774	75.12
524.989	84.12
525.204	83.12
525.419	108.12
525.634	81.12
525.849	92.12
526.064	88.12
526.28	93.12
526.495	84.12
526.71	90.12
526.925	84.12
527.14	89.12
527.355	72.12
527.57	88.12
527.785	100.12
527.999	92.12
528.214	83.12
528.429	89.12
528.644	99.12
528.859	87.12
529.074	68.12
529.289	97.12
529.503	85.12
529.718	89.12
529.933	88.12
530.148	106.12
530.363	94.12
530.577	85.12
530.792	80.12
531.007	82.12
531.221	80.12
531.436	85.12
531.651	93.12
531.865	85.12
532.08	91.12
532.295	89.12
532.509	87.12
532.724	85.12
532.938	88.12
533.153	89.12
533.367	83.12
533.582	84.12
533.796	86.12
534.011	89.12
534.225	103.12
534.44	93.12
534.654	76.12
534.868	93.12
535.083	95.12
535.297	96.12
535.511	96.12
535.726	103.12
535.94	87.12
536.154	96.12
536.369	90.12
536.583	91.12
536.797	92.12
537.011	96.12
537.225	95.12
537.44	82.12
537.654	83.12
537.868	88.12
538.082	88.12
538.296	80.12
538.51	96.12
538.724	101.12
538.938	91.12
539.153	88.12
539.367	87.12
539.581	96.12
539.795	79.12
540.009	91.12
540.222	91.12
540.436	88.12
540.65	90.12
540.864	101.12
541.078	84.12
541.292	90.12
541.506	90.12
541.72	91.12
541.934	91.12
542.147	86.12
542.361	92.12
542.575	101.12
542.789	86.12
543.002	76.12
543.216	98.12
543.43	77.12
543.644	77.12
543.857	91.12
544.071	87.12
544.285	75.12
544.498	97.12
544.712	99.12
544.925	88.12
545.139	96.12
545.352	89.12
545.566	99.12
545.779	91.12
545.993	90.12
546.206	96.12
546.42	84.12
546.633	76.12
546.847	95.12
547.06	88.12
547.274	82.12
547.487	69.12
547.7	98.12
547.914	97.12
548.127	96.12
548.34	94.12
548.554	98.12
548.767	107.12
548.98	96.12
549.193	74.12
549.407	90.12
549.62	100.12
549.833	92.12
550.046	96.12
550.259	101.12
550.473	82.12
550.686	95.12
550.899	102.12
551.112	99.12
551.325	93.12
551.538	86.12
551.751	94.12
551.964	92.12
552.177	92.12
552.39	81.12
552.603	102.12
552.816	71.12
553.029	91.12
553.242	83.12
553.455	100.12
553.667	88.12
553.88	98.12
554.093	85.12
554.306	106.12
554.519	97.12
554.732	76.12
554.944	87.12
555.157	97.12
555.37	80.12
555.583	94.12
555.795	84.12
556.008	87.12
556.221	83.12
556.433	85.12
556.646	95.12
556.859	80.12
557.071	101.12
557.284	91.12
557.496	87.12
557.709	95.12
557.921	91.12
558.134	96.12
558.346	92.12
558.559	108.12
558.771	77.12
558.984	83.12
559.196	74.12
559.409	91.12
559.621	87.12
559.833	93.12
560.046	91.12
560.258	93.12
560.47	77.12
560.683	92.12
560.895	82.12
561.107	95.12
561.32	81.12
561.532	79.12
561.744	89.12
561.956	85.12
562.168	87.12
562.381	89.12
562.593	82.12
562.805	96.12
563.017	88.12
563.229	89.12
563.441	103.12
563.653	84.12
563.865	81.12
564.077	95.12
564.289	96.12
564.501	105.12
564.713	83.12
564.925	73.12
565.137	70.12
565.349	99.12
565.561	83.12
565.773	90.12
565.985	82.12
566.197	88.12
566.408	91.12
566.62	78.12
566.832	81.12
567.044	91.12
567.255	91.12
567.467	108.12
567.679	92.12
567.891	106.12
568.102	91.12
568.314	94.12
568.526	89.12
568.737	94.12
568.949	78.12
569.161	86.12
569.372	93.12
569.584	77.12
569.795	84.12
570.007	97.12
570.218	90.12
570.43	83.12
570.641	95.12
570.853	65.12
571.064	80.12
571.276	87.12
571.487	87.12
571.698	91.12
571.91	88.12
572.121	81.12
572.333	75.12
572.544	84.12
572.755	87.12
572.966	84.12
573.178	81.12
573.389	74.12
573.6	76.12
573.811	74.12
574.023	93.12
574.234	100.12
574.445	89.12
574.656	92.12
574.867	95.12
575.078	75.12
575.289	77.12
575.501	87.12
575.712	83.12
575.923	85.12
576.134	89.12
576.345	81.12
576.556	88.12
576.767	90.12
576.978	80.12
577.188	96.12
577.399	80.12
577.61	76.12
577.821	76.12
578.032	96.12
578.243	80.12
578.454	93.12
578.665	81.12
578.875	84.12
579.086	91.12
579.297	86.12
579.508	98.12
579.718	99.12
579.929	91.12
580.14	80.12
580.35	83.12
580.561	87.12
580.772	79.12
580.982	87.12
581.193	74.12
581.403	83.12
581.614	84.12
581.825	88.12
582.035	89.12
582.246	89.12
582.456	85.12
582.667	91.12
582.877	102.12
583.087	88.12
583.298	74.12
583.508	87.12
583.719	107.12
583.929	93.12
584.139	83.12
584.35	80.12
584.56	99.12
584.77	91.12
584.981	87.12
585.191	89.12
585.401	77.12
585.611	93.12
585.821	71.12
586.032	86.12
586.242	91.12
586.452	75.12
586.662	87.12
586.872	91.12
587.082	105.12
587.292	75.12
587.502	85.12
587.713	89.12
587.923	100.12
588.133	83.12
588.343	89.12
588.553	84.12
588.762	90.12
588.972	94.12
589.182	88.12
589.392	99.12
589.602	76.12
589.812	81.12
590.022	89.12
590.232	98.12
590.441	89.12
590.651	90.12
590.861	88.12
591.071	68.12
591.281	84.12
591.49	90.12
591.7	89.12
591.91	75.12
592.119	73.12
592.329	80.12
592.539	95.12
592.748	75.12
592.958	80.12
593.167	87.12
593.377	77.12
593.587	89.12
593.796	92.12
594.006	81.12
594.215	80.12
594.424	91.12
594.634	86.12
594.843	74.12
595.053	83.12
595.262	95.12
595.472	75.12
595.681	87.12
595.89	92.12
596.1	78.12
596.309	73.12
596.518	77.12
596.727	101.12
596.937	80.12
597.146	86.12
597.355	90.12
597.564	92.12
597.774	91.12
597.983	81.12
598.192	73.12
598.401	71.12
598.61	88.12
598.819	61.12
599.028	74.12
599.237	99.12
599.446	87.12
599.655	71.12
599.864	92.12
600.073	87.12
600.282	85.12
600.491	87.12
600.7	88.12
600.909	87.12
601.118	72.12
601.327	79.12
601.536	81.12
601.745	100.12
601.953	82.12
602.162	84.12
602.371	57.12
602.58	89.12
602.789	80.12
602.997	89.12
603.206	87.12
603.415	86.12
603.623	80.12
603.832	74.12
604.041	84.12
604.249	84.12
604.458	95.12
604.666	83.12
604.875	87.12
605.084	82.12
605.292	85.12
605.501	90.12
605.709	89.12
605.918	88.12
606.126	82.12
606.334	65.12
606.543	76.12
606.751	92.12
606.96	90.12
607.168	89.12
607.376	70.12
607.585	92.12
607.793	77.12
608.001	81.12
608.21	74.12
608.418	82.12
608.626	84.12
608.834	87.12
609.043	87.12
609.251	79.12
609.459	85.12
609.667	88.12
609.875	64.12
610.083	83.12
610.291	97.12
610.499	77.12
610.707	87.12
610.916	87.12
611.124	89.12
611.332	88.12
611.54	74.12
611.748	87.12
611.955	93.12
612.163	81.12
612.371	98.12
612.579	76.12
612.787	87.12
612.995	90.12
613.203	77.12
613.411	86.12
613.618	77.12
613.826	87.12
614.034	89.12
614.242	96.12
614.449	87.12
614.657	77.12
614.865	90.12
615.072	82.12
615.28	88.12
615.488	87.12
615.695	82.12
615.903	82.12
616.111	85.12
616.318	85.12
616.526	82.12
616.733	95.12
616.941	76.12
617.148	84.12
617.356	76.12
617.563	83.12
617.771	84.12
617.978	75.12
618.185	87.12
618.393	77.12
618.6	86.12
618.807	90.12
619.015	81.12
619.222	75.12
619.429	76.12
619.637	102.12
619.844	86.12
620.051	68.12
620.258	97.12
620.466	89.12
620.673	80.12
620.88	81.12
621.087	77.12
621.294	90.12
621.501	72.12
621.708	90.12
621.915	85.12
622.122	69.12
622.329	92.12
622.536	61.12
622.743	77.12
622.95	88.12
623.157	89.12
623.364	85.12
623.571	88.12
623.778	82.12
623.985	81.12
624.192	82.12
624.399	83.12
624.606	88.12
624.812	87.12
625.019	85.12
625.226	76.12
625.433	89.12
625.639	87.12
625.846	97.12
626.053	88.12
626.259	78.12
626.466	82.12
626.673	83.12
626.879	86.12
627.086	95.12
627.293	100.12
627.499	80.12
627.706	87.12
627.912	76.12
628.119	82.12
628.325	88.12
628.532	74.12
628.738	86.12
628.945	82.12
629.151	93.12
629.357	96.12
629.564	89.12
629.77	91.12
629.976	77.12
630.183	70.12
630.389	69.12
630.595	81.12
630.802	85.12
631.008	80.12
631.214	72.12
631.42	55.12
631.627	80.12
631.833	75.12
632.039	104.12
632.245	87.12
632.451	71.12
632.657	82.12
632.863	83.12
633.069	83.12
633.275	89.12
633.481	77.12
633.688	72.12
633.893	84.12
634.099	85.12
634.305	86.12
634.511	84.12
634.717	86.12
634.923	79.12
635.129	84.12
635.335	85.12
635.541	82.12
635.747	81.12
635.952	76.12
636.158	79.12
636.364	90.12
636.57	88.12
636.775	75.12
636.981	81.12
637.187	73.12
637.392	66.12
637.598	88.12
637.804	91.12
638.009	69.12
638.215	83.12
638.421	87.12
638.626	77.12
638.832	97.12
639.037	83.12
639.243	92.12
639.448	84.12
639.654	89.12
639.859	79.12
640.065	79.12
640.27	83.12
640.475	84.12
640.681	80.12
640.886	84.12
641.091	90.12
641.297	75.12
641.502	73.12
641.707	84.12
641.913	85.12
642.118	83.12
642.323	75.12
642.528	75.12
642.733	82.12
642.939	79.12
643.144	64.12
643.349	82.12
643.554	87.12
643.759	81.12
643.964	98.12
644.169	90.12
644.374	61.12
644.579	84.12
644.784	82.12
644.989	70.12
645.194	84.12
645.399	74.12
645.604	86.12
645.809	87.12
646.014	89.12
646.219	87.12
646.423	86.12
646.628	83.12
646.833	77.12
647.038	68.12
647.243	83.12
647.447	83.12
647.652	85.12
647.857	86.12
648.062	81.12
648.266	107.12
648.471	77.12
648.676	79.12
648.88	90.12
649.085	84.12
649.289	97.12
649.494	70.12
649.698	81.12
649.903	80.12
650.107	82.12
650.312	81.12
650.516	88.12
650.721	72.12
650.925	83.12
651.13	87.12
651.334	97.12
651.539	79.12
651.743	77.12
651.947	85.12
652.152	76.12
652.356	86.12
652.56	86.12
652.764	81.12
652.969	89.12
653.173	88.12
653.377	63.12
653.581	81.12
653.785	91.12
653.99	75.12
654.194	77.12
654.398	76.12
654.602	84.12
654.806	63.12
655.01	83.12
655.214	89.12
655.418	83.12
655.622	84.12
655.826	81.12
656.03	82.12
656.234	75.12
656.438	80.12
656.642	81.12
656.846	81.12
657.049	78.12
657.253	85.12
657.457	91.12
657.661	86.12
657.865	82.12
658.068	81.12
658.272	95.12
658.476	75.12
658.68	77.12
658.883	74.12
659.087	80.12
659.291	78.12
659.494	90.12
659.698	73.12
659.901	80.12
660.105	75.12
660.309	85.12
660.512	83.12
660.716	89.12
660.919	70.12
661.123	84.12
661.326	81.12
661.53	74.12
661.733	80.12
661.936	82.12
662.14	62.12
662.343	63.12
662.546	73.12
662.75	84.12
662.953	86.12
663.156	81.12
663.36	76.12
663.563	75.12
663.766	89.12
663.969	83.12
664.173	93.12
664.376	74.12
664.579	68.12
664.782	71.12
664.985	93.12
665.188	88.12
665.391	72.12
665.594	101.12
665.797	76.12
666	81.12
666.203	80.12
666.406	65.12
666.609	83.12
666.812	80.12
667.015	69.12
667.218	81.12
667.421	72.12
667.624	63.12
667.827	76.12
668.03	86.12
668.232	81.12
668.435	72.12
668.638	73.12
668.841	92.12
669.043	82.12
669.246	90.12
669.449	75.12
669.651	87.12
669.854	77.12
670.057	72.12
670.259	77.12
670.462	77.12
670.665	80.12
670.867	79.12
671.07	87.12
671.272	79.12
671.475	83.12
671.677	79.12
671.88	84.12
672.082	65.12
672.284	76.12
672.487	84.12
672.689	75.12
672.892	82.12
