Data from Ni(NO3)2@0.0625M.TitratingCurve.Agarose3%dH2O.NegLispCup.LampEnergy10.LIBS07252019_HRD10591_18-14-12-569.txt Node
Date: Thu Jul 25 18:14:12 EDT 2019
User: cochatt
Spectrometer: HR+D1059
Trigger mode: 1
Integration Time (sec): 1.000000E-1
Scans to average: 1
Electric dark correction enabled: true
Nonlinearity correction enabled: false
Boxcar width: 0
XAxis mode: Wavelengths
Number of Pixels in Spectrum: 2048
>>>>>Begin Spectral Data<<<<<
223.165	-15.75
223.4	-15.75
223.635	-15.75
223.869	-16.75
224.104	-22.75
224.338	-21.75
224.573	-10.75
224.808	-5.75
225.042	-17.75
225.277	-13.75
225.511	-0.75
225.746	2.25
225.98	15.25
226.215	4.25
226.449	24.25
226.683	22.25
226.918	30.25
227.152	27.25
227.387	37.25
227.621	38.25
227.856	39.25
228.09	44.25
228.324	56.25
228.559	72.25
228.793	70.25
229.027	111.25
229.262	125.25
229.496	130.25
229.73	129.25
229.964	124.25
230.199	161.25
230.433	156.25
230.667	144.25
230.901	142.25
231.136	140.25
231.37	164.25
231.604	141.25
231.838	149.25
232.072	150.25
232.306	151.25
232.541	154.25
232.775	160.25
233.009	165.25
233.243	161.25
233.477	161.25
233.711	163.25
233.945	146.25
234.179	179.25
234.413	166.25
234.647	175.25
234.881	156.25
235.115	166.25
235.349	169.25
235.583	175.25
235.817	194.25
236.051	169.25
236.285	172.25
236.519	174.25
236.753	181.25
236.987	200.25
237.221	172.25
237.455	178.25
237.689	175.25
237.922	192.25
238.156	204.25
238.39	178.25
238.624	194.25
238.858	193.25
239.091	185.25
239.325	184.25
239.559	203.25
239.793	207.25
240.027	207.25
240.26	189.25
240.494	191.25
240.728	196.25
240.961	216.25
241.195	226.25
241.429	223.25
241.662	202.25
241.896	217.25
242.13	232.25
242.363	226.25
242.597	229.25
242.83	220.25
243.064	251.25
243.298	239.25
243.531	216.25
243.765	246.25
243.998	229.25
244.232	239.25
244.465	233.25
244.699	241.25
244.932	249.25
245.166	268.25
245.399	238.25
245.633	250.25
245.866	260.25
246.099	262.25
246.333	258.25
246.566	266.25
246.8	269.25
247.033	245.25
247.266	258.25
247.5	278.25
247.733	265.25
247.966	262.25
248.2	272.25
248.433	275.25
248.666	290.25
248.899	287.25
249.133	276.25
249.366	297.25
249.599	293.25
249.832	283.25
250.066	312.25
250.299	300.25
250.532	284.25
250.765	290.25
250.998	304.25
251.231	291.25
251.465	322.25
251.698	294.25
251.931	318.25
252.164	306.25
252.397	320.25
252.63	322.25
252.863	320.25
253.096	330.25
253.329	324.25
253.562	305.25
253.795	329.25
254.028	336.25
254.261	329.25
254.494	333.25
254.727	322.25
254.96	332.25
255.193	337.25
255.426	336.25
255.659	332.25
255.892	341.25
256.124	330.25
256.357	351.25
256.59	329.25
256.823	338.25
257.056	364.25
257.289	344.25
257.521	368.25
257.754	350.25
257.987	334.25
258.22	343.25
258.452	349.25
258.685	372.25
258.918	367.25
259.151	355.25
259.383	367.25
259.616	377.25
259.849	358.25
260.081	384.25
260.314	372.25
260.547	369.25
260.779	373.25
261.012	392.25
261.244	398.25
261.477	369.25
261.71	369.25
261.942	391.25
262.175	384.25
262.407	385.25
262.64	388.25
262.872	384.25
263.105	403.25
263.337	376.25
263.57	389.25
263.802	389.25
264.035	411.25
264.267	427.25
264.499	391.25
264.732	399.25
264.964	412.25
265.197	415.25
265.429	414.25
265.661	421.25
265.894	414.25
266.126	436.25
266.358	436.25
266.591	427.25
266.823	441.25
267.055	430.25
267.287	442.25
267.52	409.25
267.752	444.25
267.984	472.25
268.216	450.25
268.448	441.25
268.681	445.25
268.913	446.25
269.145	444.25
269.377	460.25
269.609	460.25
269.841	457.25
270.073	447.25
270.306	438.25
270.538	440.25
270.77	454.25
271.002	440.25
271.234	448.25
271.466	461.25
271.698	464.25
271.93	468.25
272.162	465.25
272.394	458.25
272.626	477.25
272.858	470.25
273.09	471.25
273.322	472.25
273.553	472.25
273.785	472.25
274.017	465.25
274.249	454.25
274.481	481.25
274.713	474.25
274.945	496.25
275.176	494.25
275.408	494.25
275.64	480.25
275.872	479.25
276.104	491.25
276.335	496.25
276.567	485.25
276.799	489.25
277.031	481.25
277.262	517.25
277.494	512.25
277.726	492.25
277.957	514.25
278.189	505.25
278.421	519.25
278.652	529.25
278.884	529.25
279.115	536.25
279.347	517.25
279.579	533.25
279.81	512.25
280.042	534.25
280.273	560.25
280.505	552.25
280.736	553.25
280.968	541.25
281.199	538.25
281.431	538.25
281.662	558.25
281.894	531.25
282.125	561.25
282.356	580.25
282.588	556.25
282.819	568.25
283.051	558.25
283.282	544.25
283.513	560.25
283.745	584.25
283.976	558.25
284.207	575.25
284.439	572.25
284.67	558.25
284.901	571.25
285.132	602.25
285.364	572.25
285.595	571.25
285.826	566.25
286.057	591.25
286.288	592.25
286.52	583.25
286.751	586.25
286.982	590.25
287.213	590.25
287.444	587.25
287.675	607.25
287.906	637.25
288.138	612.25
288.369	634.25
288.6	614.25
288.831	617.25
289.062	626.25
289.293	630.25
289.524	610.25
289.755	613.25
289.986	618.25
290.217	610.25
290.448	625.25
290.679	627.25
290.91	615.25
291.141	621.25
291.371	642.25
291.602	624.25
291.833	630.25
292.064	625.25
292.295	619.25
292.526	641.25
292.757	618.25
292.987	623.25
293.218	605.25
293.449	625.25
293.68	630.25
293.91	632.25
294.141	624.25
294.372	633.25
294.603	637.25
294.833	628.25
295.064	635.25
295.295	648.25
295.525	655.25
295.756	648.25
295.987	645.25
296.217	678.25
296.448	679.25
296.679	653.25
296.909	641.25
297.14	650.25
297.37	692.25
297.601	672.25
297.831	685.25
298.062	694.25
298.292	708.25
298.523	694.25
298.753	707.25
298.984	721.25
299.214	685.25
299.445	671.25
299.675	664.25
299.905	696.25
300.136	687.25
300.366	696.25
300.597	709.25
300.827	695.25
301.057	733.25
301.288	709.25
301.518	739.25
301.748	708.25
301.979	739.25
302.209	705.25
302.439	720.25
302.669	725.25
302.9	716.25
303.13	717.25
303.36	713.25
303.59	721.25
303.82	705.25
304.051	722.25
304.281	721.25
304.511	716.25
304.741	721.25
304.971	734.25
305.201	698.25
305.431	696.25
305.661	700.25
305.891	717.25
306.121	702.25
306.352	698.25
306.582	716.25
306.812	700.25
307.042	701.25
307.272	701.25
307.502	690.25
307.731	689.25
307.961	698.25
308.191	683.25
308.421	714.25
308.651	712.25
308.881	669.25
309.111	694.25
309.341	673.25
309.571	716.25
309.8	733.25
310.03	693.25
310.26	705.25
310.49	688.25
310.72	695.25
310.949	694.25
311.179	709.25
311.409	698.25
311.639	708.25
311.868	690.25
312.098	698.25
312.328	740.25
312.557	735.25
312.787	734.25
313.017	722.25
313.246	758.25
313.476	749.25
313.706	722.25
313.935	753.25
314.165	761.25
314.394	745.25
314.624	768.25
314.853	728.25
315.083	738.25
315.312	759.25
315.542	756.25
315.771	749.25
316.001	737.25
316.23	738.25
316.46	731.25
316.689	719.25
316.919	706.25
317.148	712.25
317.377	737.25
317.607	756.25
317.836	742.25
318.065	730.25
318.295	757.25
318.524	728.25
318.753	727.25
318.983	719.25
319.212	720.25
319.441	730.25
319.67	712.25
319.9	726.25
320.129	734.25
320.358	721.25
320.587	747.25
320.816	757.25
321.046	724.25
321.275	765.25
321.504	749.25
321.733	737.25
321.962	748.25
322.191	734.25
322.42	725.25
322.649	744.25
322.878	746.25
323.108	737.25
323.337	738.25
323.566	740.25
323.795	751.25
324.024	780.25
324.253	764.25
324.482	756.25
324.71	745.25
324.939	806.25
325.168	794.25
325.397	792.25
325.626	794.25
325.855	781.25
326.084	810.25
326.313	808.25
326.542	792.25
326.77	817.25
326.999	808.25
327.228	796.25
327.457	814.25
327.686	786.25
327.914	807.25
328.143	826.25
328.372	794.25
328.6	814.25
328.829	813.25
329.058	790.25
329.287	821.25
329.515	797.25
329.744	820.25
329.972	824.25
330.201	786.25
330.43	836.25
330.658	792.25
330.887	860.25
331.115	844.25
331.344	859.25
331.572	861.25
331.801	892.25
332.03	881.25
332.258	912.25
332.486	922.25
332.715	960.25
332.943	1022.25
333.172	1068.25
333.4	1120.25
333.629	1131.25
333.857	1107.25
334.085	1094.25
334.314	1079.25
334.542	1045.25
334.771	1056.25
334.999	1015.25
335.227	996.25
335.455	1032.25
335.684	1001.25
335.912	1007.25
336.14	1003.25
336.369	982.25
336.597	974.25
336.825	962.25
337.053	996.25
337.281	944.25
337.51	923.25
337.738	900.25
337.966	860.25
338.194	912.25
338.422	884.25
338.65	889.25
338.878	904.25
339.106	896.25
339.334	880.25
339.562	858.25
339.79	870.25
340.018	860.25
340.246	858.25
340.474	843.25
340.702	858.25
340.93	852.25
341.158	869.25
341.386	858.25
341.614	853.25
341.842	852.25
342.07	850.25
342.298	804.25
342.526	818.25
342.754	839.25
342.981	849.25
343.209	852.25
343.437	928.25
343.665	966.25
343.893	1009.25
344.12	1088.25
344.348	1015.25
344.576	941.25
344.804	913.25
345.031	881.25
345.259	850.25
345.487	850.25
345.714	870.25
345.942	855.25
346.17	847.25
346.397	828.25
346.625	810.25
346.853	804.25
347.08	822.25
347.308	828.25
347.535	834.25
347.763	799.25
347.99	835.25
348.218	865.25
348.445	823.25
348.673	826.25
348.9	826.25
349.128	802.25
349.355	808.25
349.583	825.25
349.81	828.25
350.037	807.25
350.265	786.25
350.492	811.25
350.72	776.25
350.947	797.25
351.174	798.25
351.402	822.25
351.629	785.25
351.856	790.25
352.083	774.25
352.311	802.25
352.538	778.25
352.765	801.25
352.992	809.25
353.22	778.25
353.447	782.25
353.674	778.25
353.901	804.25
354.128	804.25
354.355	782.25
354.583	765.25
354.81	783.25
355.037	798.25
355.264	793.25
355.491	800.25
355.718	806.25
355.945	767.25
356.172	784.25
356.399	818.25
356.626	815.25
356.853	802.25
357.08	796.25
357.307	797.25
357.534	813.25
357.761	796.25
357.988	817.25
358.215	777.25
358.441	775.25
358.668	821.25
358.895	782.25
359.122	782.25
359.349	777.25
359.576	810.25
359.802	780.25
360.029	786.25
360.256	805.25
360.483	783.25
360.709	799.25
360.936	796.25
361.163	767.25
361.39	782.25
361.616	780.25
361.843	792.25
362.07	836.25
362.296	761.25
362.523	804.25
362.749	794.25
362.976	805.25
363.203	781.25
363.429	786.25
363.656	800.25
363.882	783.25
364.109	803.25
364.335	800.25
364.562	795.25
364.788	783.25
365.015	816.25
365.241	813.25
365.468	772.25
365.694	781.25
365.92	751.25
366.147	797.25
366.373	785.25
366.599	798.25
366.826	778.25
367.052	799.25
367.278	801.25
367.505	791.25
367.731	797.25
367.957	780.25
368.184	801.25
368.41	794.25
368.636	805.25
368.862	804.25
369.089	807.25
369.315	810.25
369.541	833.25
369.767	796.25
369.993	832.25
370.219	818.25
370.445	833.25
370.672	842.25
370.898	825.25
371.124	845.25
371.35	844.25
371.576	864.25
371.802	847.25
372.028	841.25
372.254	843.25
372.48	879.25
372.706	883.25
372.932	902.25
373.158	891.25
373.384	880.25
373.61	858.25
373.835	876.25
374.061	871.25
374.287	865.25
374.513	885.25
374.739	909.25
374.965	937.25
375.191	954.25
375.416	967.25
375.642	926.25
375.868	913.25
376.094	916.25
376.319	893.25
376.545	865.25
376.771	866.25
376.997	853.25
377.222	859.25
377.448	844.25
377.674	882.25
377.899	855.25
378.125	853.25
378.35	857.25
378.576	859.25
378.802	858.25
379.027	835.25
379.253	830.25
379.478	847.25
379.704	852.25
379.929	850.25
380.155	847.25
380.38	855.25
380.606	860.25
380.831	838.25
381.057	866.25
381.282	838.25
381.507	857.25
381.733	850.25
381.958	879.25
382.184	865.25
382.409	902.25
382.634	898.25
382.86	909.25
383.085	953.25
383.31	917.25
383.535	956.25
383.761	931.25
383.986	978.25
384.211	987.25
384.436	995.25
384.662	1012.25
384.887	1042.25
385.112	1035.25
385.337	1054.25
385.562	1046.25
385.787	1045.25
386.013	1079.25
386.238	1062.25
386.463	1046.25
386.688	1051.25
386.913	1033.25
387.138	1018.25
387.363	1028.25
387.588	1034.25
387.813	1007.25
388.038	1006.25
388.263	1044.25
388.488	1047.25
388.713	1032.25
388.938	1025.25
389.163	987.25
389.387	1016.25
389.612	1015.25
389.837	1040.25
390.062	992.25
390.287	1034.25
390.512	1036.25
390.736	1026.25
390.961	1038.25
391.186	1055.25
391.411	1112.25
391.636	1117.25
391.86	1195.25
392.085	1212.25
392.31	1198.25
392.534	1160.25
392.759	1119.25
392.984	1104.25
393.208	1098.25
393.433	1067.25
393.658	1094.25
393.882	1099.25
394.107	1103.25
394.331	1110.25
394.556	1119.25
394.78	1098.25
395.005	1117.25
395.229	1116.25
395.454	1138.25
395.678	1150.25
395.903	1182.25
396.127	1173.25
396.352	1116.25
396.576	1109.25
396.801	1096.25
397.025	1113.25
397.249	1154.25
397.474	1176.25
397.698	1133.25
397.922	1144.25
398.147	1154.25
398.371	1177.25
398.595	1241.25
398.82	1275.25
399.044	1349.25
399.268	1513.25
399.492	1806.25
399.717	2079.25
399.941	2037.25
400.165	1793.25
400.389	1548.25
400.613	1436.25
400.837	1396.25
401.062	1322.25
401.286	1318.25
401.51	1290.25
401.734	1289.25
401.958	1299.25
402.182	1343.25
402.406	1346.25
402.63	1378.25
402.854	1397.25
403.078	1402.25
403.302	1466.25
403.526	1479.25
403.75	1487.25
403.974	1519.25
404.198	1540.25
404.422	1570.25
404.645	1568.25
404.869	1480.25
405.093	1480.25
405.317	1474.25
405.541	1477.25
405.765	1464.25
405.988	1425.25
406.212	1430.25
406.436	1407.25
406.66	1482.25
406.883	1490.25
407.107	1572.25
407.331	1650.25
407.555	1709.25
407.778	1728.25
408.002	1665.25
408.226	1594.25
408.449	1526.25
408.673	1520.25
408.896	1496.25
409.12	1467.25
409.344	1496.25
409.567	1457.25
409.791	1492.25
410.014	1510.25
410.238	1467.25
410.461	1459.25
410.685	1457.25
410.908	1402.25
411.132	1404.25
411.355	1346.25
411.578	1363.25
411.802	1351.25
412.025	1340.25
412.249	1383.25
412.472	1334.25
412.695	1332.25
412.919	1323.25
413.142	1311.25
413.365	1303.25
413.589	1323.25
413.812	1273.25
414.035	1310.25
414.258	1282.25
414.482	1324.25
414.705	1319.25
414.928	1336.25
415.151	1322.25
415.374	1296.25
415.597	1319.25
415.821	1328.25
416.044	1265.25
416.267	1250.25
416.49	1245.25
416.713	1234.25
416.936	1270.25
417.159	1272.25
417.382	1259.25
417.605	1274.25
417.828	1307.25
418.051	1274.25
418.274	1310.25
418.497	1252.25
418.72	1309.25
418.943	1343.25
419.166	1401.25
419.389	1495.25
419.611	1486.25
419.834	1419.25
420.057	1358.25
420.28	1324.25
420.503	1292.25
420.726	1259.25
420.948	1303.25
421.171	1288.25
421.394	1291.25
421.617	1308.25
421.839	1292.25
422.062	1296.25
422.285	1287.25
422.507	1340.25
422.73	1349.25
422.953	1327.25
423.175	1355.25
423.398	1393.25
423.621	1364.25
423.843	1370.25
424.066	1378.25
424.288	1363.25
424.511	1360.25
424.733	1372.25
424.956	1302.25
425.178	1325.25
425.401	1284.25
425.623	1296.25
425.846	1261.25
426.068	1252.25
426.291	1230.25
426.513	1225.25
426.735	1197.25
426.958	1216.25
427.18	1150.25
427.402	1183.25
427.625	1144.25
427.847	1136.25
428.069	1124.25
428.292	1134.25
428.514	1154.25
428.736	1111.25
428.958	1138.25
429.181	1090.25
429.403	1111.25
429.625	1096.25
429.847	1109.25
430.069	1102.25
430.292	1104.25
430.514	1087.25
430.736	1098.25
430.958	1094.25
431.18	1118.25
431.402	1124.25
431.624	1140.25
431.846	1141.25
432.068	1169.25
432.29	1163.25
432.512	1151.25
432.734	1162.25
432.956	1120.25
433.178	1146.25
433.4	1141.25
433.622	1128.25
433.844	1150.25
434.066	1160.25
434.287	1180.25
434.509	1192.25
434.731	1265.25
434.953	1301.25
435.175	1278.25
435.397	1255.25
435.618	1171.25
435.84	1192.25
436.062	1185.25
436.284	1136.25
436.505	1126.25
436.727	1127.25
436.949	1169.25
437.17	1113.25
437.392	1085.25
437.614	1096.25
437.835	1090.25
438.057	1070.25
438.278	1061.25
438.5	1087.25
438.721	1089.25
438.943	1110.25
439.165	1098.25
439.386	1121.25
439.608	1098.25
439.829	1109.25
440.05	1154.25
440.272	1144.25
440.493	1123.25
440.715	1142.25
440.936	1178.25
441.158	1169.25
441.379	1198.25
441.6	1290.25
441.822	1312.25
442.043	1309.25
442.264	1273.25
442.486	1244.25
442.707	1222.25
442.928	1276.25
443.149	1308.25
443.371	1264.25
443.592	1277.25
443.813	1314.25
444.034	1299.25
444.255	1370.25
444.476	1426.25
444.698	1539.25
444.919	1574.25
445.14	1627.25
445.361	1441.25
445.582	1306.25
445.803	1257.25
446.024	1213.25
446.245	1184.25
446.466	1171.25
446.687	1156.25
446.908	1152.25
447.129	1109.25
447.35	1086.25
447.571	1107.25
447.792	1080.25
448.013	1090.25
448.234	1061.25
448.455	1053.25
448.675	1012.25
448.896	1043.25
449.117	1007.25
449.338	1019.25
449.559	1035.25
449.779	997.25
450	1011.25
450.221	1028.25
450.442	1040.25
450.662	1070.25
450.883	1058.25
451.104	1056.25
451.324	1076.25
451.545	1070.25
451.766	1046.25
451.986	1032.25
452.207	1041.25
452.428	1051.25
452.648	1054.25
452.869	1010.25
453.089	1014.25
453.31	1041.25
453.53	1028.25
453.751	1014.25
453.971	1028.25
454.192	1014.25
454.412	960.25
454.633	993.25
454.853	976.25
455.073	979.25
455.294	1000.25
455.514	976.25
455.734	978.25
455.955	942.25
456.175	977.25
456.395	960.25
456.616	965.25
456.836	973.25
457.056	981.25
457.276	934.25
457.497	968.25
457.717	951.25
457.937	993.25
458.157	958.25
458.377	1026.25
458.598	1035.25
458.818	1040.25
459.038	1082.25
459.258	1153.25
459.478	1136.25
459.698	1191.25
459.918	1230.25
460.138	1260.25
460.358	1363.25
460.578	1341.25
460.798	1354.25
461.018	1391.25
461.238	1348.25
461.458	1342.25
461.678	1334.25
461.898	1394.25
462.118	1372.25
462.338	1433.25
462.558	1466.25
462.777	1530.25
462.997	1665.25
463.217	1884.25
463.437	1873.25
463.657	1720.25
463.876	1629.25
464.096	1603.25
464.316	1608.25
464.536	1608.25
464.755	1553.25
464.975	1470.25
465.195	1397.25
465.414	1332.25
465.634	1245.25
465.854	1206.25
466.073	1166.25
466.293	1147.25
466.512	1140.25
466.732	1084.25
466.951	1102.25
467.171	1104.25
467.391	1086.25
467.61	1069.25
467.829	1064.25
468.049	1084.25
468.268	1045.25
468.488	1051.25
468.707	1046.25
468.927	1070.25
469.146	1036.25
469.365	1068.25
469.585	1053.25
469.804	1077.25
470.023	1098.25
470.243	1112.25
470.462	1142.25
470.681	1145.25
470.901	1141.25
471.12	1103.25
471.339	1123.25
471.558	1069.25
471.777	1063.25
471.997	1044.25
472.216	1067.25
472.435	1049.25
472.654	1057.25
472.873	1012.25
473.092	1036.25
473.311	997.25
473.53	1024.25
473.749	1014.25
473.968	1013.25
474.187	1003.25
474.406	987.25
474.625	1012.25
474.844	1009.25
475.063	994.25
475.282	1031.25
475.501	1037.25
475.72	1034.25
475.939	1025.25
476.158	1068.25
476.377	1060.25
476.596	1058.25
476.814	1078.25
477.033	1078.25
477.252	1080.25
477.471	1129.25
477.69	1117.25
477.908	1157.25
478.127	1198.25
478.346	1224.25
478.564	1222.25
478.783	1245.25
479.002	1303.25
479.22	1291.25
479.439	1277.25
479.658	1274.25
479.876	1303.25
480.095	1313.25
480.313	1360.25
480.532	1412.25
480.751	1393.25
480.969	1325.25
481.188	1274.25
481.406	1238.25
481.624	1212.25
481.843	1183.25
482.061	1164.25
482.28	1129.25
482.498	1158.25
482.717	1137.25
482.935	1136.25
483.153	1151.25
483.372	1135.25
483.59	1134.25
483.808	1158.25
484.027	1146.25
484.245	1185.25
484.463	1172.25
484.681	1182.25
484.9	1210.25
485.118	1204.25
485.336	1200.25
485.554	1218.25
485.772	1234.25
485.99	1259.25
486.209	1261.25
486.427	1258.25
486.645	1222.25
486.863	1233.25
487.081	1194.25
487.299	1230.25
487.517	1249.25
487.735	1224.25
487.953	1217.25
488.171	1229.25
488.389	1190.25
488.607	1205.25
488.825	1227.25
489.043	1183.25
489.261	1200.25
489.479	1197.25
489.696	1218.25
489.914	1198.25
490.132	1206.25
490.35	1225.25
490.568	1204.25
490.786	1248.25
491.003	1239.25
491.221	1231.25
491.439	1236.25
491.657	1230.25
491.874	1201.25
492.092	1201.25
492.31	1222.25
492.527	1220.25
492.745	1247.25
492.963	1271.25
493.18	1266.25
493.398	1288.25
493.615	1280.25
493.833	1275.25
494.05	1256.25
494.268	1280.25
494.485	1268.25
494.703	1279.25
494.92	1272.25
495.138	1290.25
495.355	1270.25
495.573	1291.25
495.79	1316.25
496.008	1302.25
496.225	1319.25
496.442	1308.25
496.66	1345.25
496.877	1347.25
497.094	1334.25
497.312	1396.25
497.529	1408.25
497.746	1492.25
497.963	1520.25
498.181	1592.25
498.398	1618.25
498.615	1736.25
498.832	1888.25
499.049	1974.25
499.267	2138.25
499.484	2369.25
499.701	2634.25
499.918	2993.25
500.135	3438.25
500.352	3983.25
500.569	4225.25
500.786	4228.25
501.003	3833.25
501.22	3347.25
501.437	2960.25
501.654	2598.25
501.871	2322.25
502.088	2136.25
502.305	1976.25
502.522	1858.25
502.739	1844.25
502.956	1713.25
503.172	1612.25
503.389	1568.25
503.606	1498.25
503.823	1464.25
504.04	1466.25
504.256	1478.25
504.473	1553.25
504.69	1576.25
504.907	1592.25
505.123	1434.25
505.34	1350.25
505.557	1308.25
505.773	1266.25
505.99	1224.25
506.207	1193.25
506.423	1169.25
506.64	1174.25
506.856	1157.25
507.073	1166.25
507.289	1146.25
507.506	1127.25
507.722	1120.25
507.939	1117.25
508.155	1081.25
508.372	1090.25
508.588	1082.25
508.805	1098.25
509.021	1089.25
509.238	1086.25
509.454	1104.25
509.67	1074.25
509.887	1039.25
510.103	1053.25
510.319	1054.25
510.536	1051.25
510.752	1040.25
510.968	1055.25
511.184	1066.25
511.401	1043.25
511.617	1050.25
511.833	1028.25
512.049	1017.25
512.265	1069.25
512.481	1034.25
512.698	1036.25
512.914	1037.25
513.13	1042.25
513.346	1068.25
513.562	1042.25
513.778	1038.25
513.994	1038.25
514.21	1055.25
514.426	1070.25
514.642	1086.25
514.858	1113.25
515.074	1103.25
515.29	1112.25
515.506	1082.25
515.721	1118.25
515.937	1127.25
516.153	1153.25
516.369	1167.25
516.585	1212.25
516.801	1225.25
517.016	1304.25
517.232	1384.25
517.448	1425.25
517.664	1515.25
517.879	1493.25
518.095	1529.25
518.311	1475.25
518.527	1386.25
518.742	1313.25
518.958	1264.25
519.173	1228.25
519.389	1184.25
519.605	1168.25
519.82	1090.25
520.036	1128.25
520.251	1094.25
520.467	1068.25
520.682	1028.25
520.898	1069.25
521.113	1050.25
521.329	1012.25
521.544	1008.25
521.76	990.25
521.975	1018.25
522.19	985.25
522.406	1003.25
522.621	984.25
522.836	984.25
523.052	977.25
523.267	1004.25
523.482	967.25
523.698	987.25
523.913	995.25
524.128	984.25
524.343	986.25
524.559	972.25
524.774	959.25
524.989	967.25
525.204	944.25
525.419	940.25
525.634	910.25
525.849	931.25
526.064	958.25
526.28	928.25
526.495	945.25
526.71	927.25
526.925	915.25
527.14	937.25
527.355	932.25
527.57	936.25
527.785	947.25
527.999	955.25
528.214	963.25
528.429	949.25
528.644	934.25
528.859	957.25
529.074	934.25
529.289	948.25
529.503	968.25
529.718	946.25
529.933	973.25
530.148	934.25
530.363	935.25
530.577	942.25
530.792	939.25
531.007	940.25
531.221	927.25
531.436	937.25
531.651	952.25
531.865	960.25
532.08	959.25
532.295	945.25
532.509	925.25
532.724	942.25
532.938	956.25
533.153	940.25
533.367	943.25
533.582	944.25
533.796	951.25
534.011	965.25
534.225	950.25
534.44	925.25
534.654	945.25
534.868	949.25
535.083	928.25
535.297	936.25
535.511	920.25
535.726	920.25
535.94	908.25
536.154	897.25
536.369	908.25
536.583	898.25
536.797	891.25
537.011	893.25
537.225	861.25
537.44	868.25
537.654	862.25
537.868	867.25
538.082	865.25
538.296	835.25
538.51	859.25
538.724	871.25
538.938	857.25
539.153	844.25
539.367	828.25
539.581	817.25
539.795	841.25
540.009	834.25
540.222	842.25
540.436	832.25
540.65	830.25
540.864	825.25
541.078	849.25
541.292	829.25
541.506	842.25
541.72	835.25
541.934	828.25
542.147	850.25
542.361	836.25
542.575	833.25
542.789	820.25
543.002	827.25
543.216	825.25
543.43	830.25
543.644	801.25
543.857	815.25
544.071	825.25
544.285	846.25
544.498	816.25
544.712	852.25
544.925	844.25
545.139	853.25
545.352	867.25
545.566	893.25
545.779	838.25
545.993	837.25
546.206	855.25
546.42	828.25
546.633	833.25
546.847	870.25
547.06	844.25
547.274	833.25
547.487	866.25
547.7	855.25
547.914	881.25
548.127	869.25
548.34	873.25
548.554	872.25
548.767	861.25
548.98	845.25
549.193	853.25
549.407	873.25
549.62	866.25
549.833	927.25
550.046	886.25
550.259	869.25
550.473	865.25
550.686	847.25
550.899	832.25
551.112	807.25
551.325	821.25
551.538	857.25
551.751	850.25
551.964	879.25
552.177	866.25
552.39	861.25
552.603	873.25
552.816	923.25
553.029	912.25
553.242	913.25
553.455	945.25
553.667	930.25
553.88	946.25
554.093	901.25
554.306	906.25
554.519	890.25
554.732	837.25
554.944	828.25
555.157	801.25
555.37	830.25
555.583	809.25
555.795	778.25
556.008	778.25
556.221	775.25
556.433	750.25
556.646	776.25
556.859	753.25
557.071	740.25
557.284	751.25
557.496	717.25
557.709	736.25
557.921	719.25
558.134	730.25
558.346	706.25
558.559	713.25
558.771	708.25
558.984	737.25
559.196	709.25
559.409	686.25
559.621	708.25
559.833	713.25
560.046	678.25
560.258	717.25
560.47	708.25
560.683	713.25
560.895	701.25
561.107	716.25
561.32	695.25
561.532	688.25
561.744	698.25
561.956	696.25
562.168	722.25
562.381	684.25
562.593	711.25
562.805	697.25
563.017	705.25
563.229	713.25
563.441	726.25
563.653	712.25
563.865	721.25
564.077	720.25
564.289	741.25
564.501	766.25
564.713	752.25
564.925	794.25
565.137	766.25
565.349	801.25
565.561	804.25
565.773	851.25
565.985	867.25
566.197	937.25
566.408	1032.25
566.62	1084.25
566.832	1208.25
567.044	1232.25
567.255	1222.25
567.467	1268.25
567.679	1316.25
567.891	1452.25
568.102	1482.25
568.314	1414.25
568.526	1263.25
568.737	1080.25
568.949	1019.25
569.161	910.25
569.372	884.25
569.584	825.25
569.795	781.25
570.007	782.25
570.218	730.25
570.43	712.25
570.641	713.25
570.853	731.25
571.064	751.25
571.276	752.25
571.487	715.25
571.698	689.25
571.91	673.25
572.121	681.25
572.333	635.25
572.544	614.25
572.755	603.25
572.966	609.25
573.178	630.25
573.389	619.25
573.6	609.25
573.811	618.25
574.023	588.25
574.234	595.25
574.445	568.25
574.656	564.25
574.867	608.25
575.078	593.25
575.289	576.25
575.501	573.25
575.712	553.25
575.923	564.25
576.134	553.25
576.345	564.25
576.556	550.25
576.767	554.25
576.978	544.25
577.188	568.25
577.399	560.25
577.61	541.25
577.821	549.25
578.032	522.25
578.243	512.25
578.454	540.25
578.665	534.25
578.875	502.25
579.086	524.25
579.297	524.25
579.508	530.25
579.718	527.25
579.929	507.25
580.14	492.25
580.35	495.25
580.561	493.25
580.772	500.25
580.982	504.25
581.193	483.25
581.403	512.25
581.614	516.25
581.825	498.25
582.035	501.25
582.246	502.25
582.456	475.25
582.667	484.25
582.877	500.25
583.087	496.25
583.298	489.25
583.508	488.25
583.719	483.25
583.929	488.25
584.139	481.25
584.35	481.25
584.56	474.25
584.77	472.25
584.981	486.25
585.191	469.25
585.401	459.25
585.611	464.25
585.821	470.25
586.032	467.25
586.242	483.25
586.452	487.25
586.662	448.25
586.872	441.25
587.082	456.25
587.292	450.25
587.502	459.25
587.713	470.25
587.923	475.25
588.133	452.25
588.343	465.25
588.553	461.25
588.762	460.25
588.972	466.25
589.182	451.25
589.392	456.25
589.602	464.25
589.812	477.25
590.022	471.25
590.232	478.25
590.441	478.25
590.651	489.25
590.861	466.25
591.071	479.25
591.281	506.25
591.49	502.25
591.7	505.25
591.91	500.25
592.119	518.25
592.329	503.25
592.539	545.25
592.748	579.25
592.958	568.25
593.167	586.25
593.377	597.25
593.587	600.25
593.796	610.25
594.006	621.25
594.215	628.25
594.424	620.25
594.634	594.25
594.843	591.25
595.053	541.25
595.262	536.25
595.472	504.25
595.681	506.25
595.89	495.25
596.1	463.25
596.309	442.25
596.518	476.25
596.727	445.25
596.937	433.25
597.146	448.25
597.355	430.25
597.564	435.25
597.774	423.25
597.983	410.25
598.192	424.25
598.401	421.25
598.61	407.25
598.819	406.25
599.028	417.25
599.237	389.25
599.446	410.25
599.655	399.25
599.864	398.25
600.073	390.25
600.282	411.25
600.491	394.25
600.7	388.25
600.909	397.25
601.118	383.25
601.327	387.25
601.536	400.25
601.745	395.25
601.953	376.25
602.162	390.25
602.371	383.25
602.58	386.25
602.789	386.25
602.997	377.25
603.206	382.25
603.415	394.25
603.623	370.25
603.832	359.25
604.041	368.25
604.249	392.25
604.458	367.25
604.666	372.25
604.875	358.25
605.084	354.25
605.292	357.25
605.501	368.25
605.709	357.25
605.918	357.25
606.126	368.25
606.334	356.25
606.543	359.25
606.751	384.25
606.96	363.25
607.168	353.25
607.376	356.25
607.585	342.25
607.793	359.25
608.001	370.25
608.21	331.25
608.418	356.25
608.626	337.25
608.834	342.25
609.043	361.25
609.251	356.25
609.459	327.25
609.667	338.25
609.875	345.25
610.083	325.25
610.291	347.25
610.499	336.25
610.707	341.25
610.916	335.25
611.124	366.25
611.332	352.25
611.54	364.25
611.748	328.25
611.955	346.25
612.163	326.25
612.371	329.25
612.579	345.25
612.787	341.25
612.995	363.25
613.203	332.25
613.411	338.25
613.618	344.25
613.826	334.25
614.034	333.25
614.242	330.25
614.449	343.25
614.657	325.25
614.865	320.25
615.072	332.25
615.28	323.25
615.488	324.25
615.695	355.25
615.903	335.25
616.111	330.25
616.318	351.25
616.526	351.25
616.733	353.25
616.941	357.25
617.148	345.25
617.356	336.25
617.563	334.25
617.771	340.25
617.978	337.25
618.185	355.25
618.393	319.25
618.6	351.25
618.807	328.25
619.015	337.25
619.222	331.25
619.429	322.25
619.637	325.25
619.844	324.25
620.051	328.25
620.258	333.25
620.466	313.25
620.673	300.25
620.88	303.25
621.087	305.25
621.294	305.25
621.501	328.25
621.708	317.25
621.915	310.25
622.122	311.25
622.329	312.25
622.536	306.25
622.743	290.25
622.95	304.25
623.157	287.25
623.364	302.25
623.571	296.25
623.778	299.25
623.985	298.25
624.192	304.25
624.399	297.25
624.606	297.25
624.812	297.25
625.019	280.25
625.226	277.25
625.433	274.25
625.639	287.25
625.846	287.25
626.053	296.25
626.259	289.25
626.466	282.25
626.673	274.25
626.879	280.25
627.086	279.25
627.293	284.25
627.499	285.25
627.706	288.25
627.912	268.25
628.119	276.25
628.325	265.25
628.532	266.25
628.738	279.25
628.945	282.25
629.151	275.25
629.357	257.25
629.564	253.25
629.77	276.25
629.976	276.25
630.183	272.25
630.389	270.25
630.595	261.25
630.802	240.25
631.008	264.25
631.214	257.25
631.42	264.25
631.627	265.25
631.833	249.25
632.039	273.25
632.245	234.25
632.451	271.25
632.657	251.25
632.863	256.25
633.069	251.25
633.275	262.25
633.481	243.25
633.688	238.25
633.893	256.25
634.099	258.25
634.305	267.25
634.511	244.25
634.717	231.25
634.923	242.25
635.129	242.25
635.335	237.25
635.541	242.25
635.747	257.25
635.952	235.25
636.158	252.25
636.364	244.25
636.57	239.25
636.775	238.25
636.981	233.25
637.187	244.25
637.392	249.25
637.598	238.25
637.804	228.25
638.009	226.25
638.215	230.25
638.421	245.25
638.626	226.25
638.832	234.25
639.037	225.25
639.243	240.25
639.448	226.25
639.654	247.25
639.859	240.25
640.065	221.25
640.27	230.25
640.475	216.25
640.681	220.25
640.886	225.25
641.091	224.25
641.297	229.25
641.502	222.25
641.707	221.25
641.913	239.25
642.118	207.25
642.323	220.25
642.528	237.25
642.733	214.25
642.939	220.25
643.144	222.25
643.349	224.25
643.554	231.25
643.759	210.25
643.964	222.25
644.169	221.25
644.374	214.25
644.579	205.25
644.784	212.25
644.989	221.25
645.194	217.25
645.399	217.25
645.604	220.25
645.809	206.25
646.014	230.25
646.219	226.25
646.423	219.25
646.628	216.25
646.833	227.25
647.038	220.25
647.243	237.25
647.447	227.25
647.652	222.25
647.857	222.25
648.062	218.25
648.266	229.25
648.471	244.25
648.676	229.25
648.88	225.25
649.085	230.25
649.289	218.25
649.494	225.25
649.698	215.25
649.903	221.25
650.107	206.25
650.312	228.25
650.516	199.25
650.721	209.25
650.925	189.25
651.13	207.25
651.334	207.25
651.539	207.25
651.743	193.25
651.947	196.25
652.152	191.25
652.356	192.25
652.56	189.25
652.764	174.25
652.969	177.25
653.173	167.25
653.377	168.25
653.581	160.25
653.785	162.25
653.99	168.25
654.194	164.25
654.398	157.25
654.602	167.25
654.806	147.25
655.01	161.25
655.214	166.25
655.418	159.25
655.622	153.25
655.826	156.25
656.03	154.25
656.234	162.25
656.438	161.25
656.642	162.25
656.846	155.25
657.049	137.25
657.253	135.25
657.457	142.25
657.661	137.25
657.865	138.25
658.068	130.25
658.272	129.25
658.476	120.25
658.68	111.25
658.883	114.25
659.087	128.25
659.291	111.25
659.494	98.25
659.698	110.25
659.901	100.25
660.105	113.25
660.309	105.25
660.512	112.25
660.716	111.25
660.919	92.25
661.123	103.25
661.326	114.25
661.53	87.25
661.733	97.25
661.936	111.25
662.14	95.25
662.343	90.25
662.546	90.25
662.75	92.25
662.953	73.25
663.156	94.25
663.36	91.25
663.563	94.25
663.766	87.25
663.969	90.25
664.173	95.25
664.376	93.25
664.579	81.25
664.782	81.25
664.985	74.25
665.188	76.25
665.391	90.25
665.594	94.25
665.797	87.25
666	90.25
666.203	91.25
666.406	80.25
666.609	86.25
666.812	82.25
667.015	85.25
667.218	82.25
667.421	85.25
667.624	98.25
667.827	92.25
668.03	85.25
668.232	71.25
668.435	80.25
668.638	81.25
668.841	79.25
669.043	81.25
669.246	80.25
669.449	95.25
669.651	92.25
669.854	86.25
670.057	82.25
670.259	88.25
670.462	101.25
670.665	77.25
670.867	87.25
671.07	72.25
671.272	91.25
671.475	79.25
671.677	88.25
671.88	92.25
672.082	82.25
672.284	89.25
672.487	81.25
672.689	86.25
672.892	87.25
