Data from Ni(NO3)2@0.125M.TitratingCurve.Agarose3%dH2O.NegLispCup.LampEnergy10.LIBS07252019_HRD10591_18-11-38-568.txt Node
Date: Thu Jul 25 18:11:38 EDT 2019
User: cochatt
Spectrometer: HR+D1059
Trigger mode: 1
Integration Time (sec): 1.000000E-1
Scans to average: 1
Electric dark correction enabled: true
Nonlinearity correction enabled: false
Boxcar width: 0
XAxis mode: Wavelengths
Number of Pixels in Spectrum: 2048
>>>>>Begin Spectral Data<<<<<
223.165	-6.81
223.4	-6.81
223.635	-6.81
223.869	-21.81
224.104	-14.81
224.338	-18.81
224.573	-14.81
224.808	-16.81
225.042	-8.81
225.277	-0.81
225.511	-1.81
225.746	-5.81
225.98	11.19
226.215	26.19
226.449	18.19
226.683	21.19
226.918	25.19
227.152	9.19
227.387	46.19
227.621	40.19
227.856	48.19
228.09	44.19
228.324	67.19
228.559	78.19
228.793	83.19
229.027	107.19
229.262	112.19
229.496	128.19
229.73	132.19
229.964	131.19
230.199	139.19
230.433	146.19
230.667	140.19
230.901	141.19
231.136	136.19
231.37	153.19
231.604	150.19
231.838	148.19
232.072	151.19
232.306	153.19
232.541	159.19
232.775	157.19
233.009	165.19
233.243	167.19
233.477	160.19
233.711	167.19
233.945	169.19
234.179	164.19
234.413	181.19
234.647	166.19
234.881	180.19
235.115	176.19
235.349	161.19
235.583	163.19
235.817	167.19
236.051	170.19
236.285	166.19
236.519	170.19
236.753	169.19
236.987	170.19
237.221	171.19
237.455	171.19
237.689	176.19
237.922	192.19
238.156	170.19
238.39	177.19
238.624	190.19
238.858	195.19
239.091	196.19
239.325	195.19
239.559	185.19
239.793	179.19
240.027	188.19
240.26	190.19
240.494	199.19
240.728	195.19
240.961	199.19
241.195	193.19
241.429	208.19
241.662	206.19
241.896	214.19
242.13	224.19
242.363	216.19
242.597	196.19
242.83	220.19
243.064	230.19
243.298	220.19
243.531	229.19
243.765	217.19
243.998	201.19
244.232	217.19
244.465	232.19
244.699	222.19
244.932	239.19
245.166	237.19
245.399	249.19
245.633	246.19
245.866	236.19
246.099	227.19
246.333	239.19
246.566	248.19
246.8	246.19
247.033	253.19
247.266	267.19
247.5	247.19
247.733	253.19
247.966	261.19
248.2	267.19
248.433	269.19
248.666	267.19
248.899	277.19
249.133	273.19
249.366	272.19
249.599	274.19
249.832	279.19
250.066	281.19
250.299	272.19
250.532	276.19
250.765	284.19
250.998	300.19
251.231	281.19
251.465	280.19
251.698	292.19
251.931	303.19
252.164	292.19
252.397	284.19
252.63	315.19
252.863	292.19
253.096	312.19
253.329	320.19
253.562	303.19
253.795	295.19
254.028	302.19
254.261	312.19
254.494	326.19
254.727	303.19
254.96	298.19
255.193	312.19
255.426	319.19
255.659	315.19
255.892	325.19
256.124	335.19
256.357	324.19
256.59	314.19
256.823	343.19
257.056	341.19
257.289	337.19
257.521	338.19
257.754	339.19
257.987	332.19
258.22	351.19
258.452	344.19
258.685	338.19
258.918	344.19
259.151	340.19
259.383	342.19
259.616	348.19
259.849	352.19
260.081	376.19
260.314	364.19
260.547	354.19
260.779	363.19
261.012	359.19
261.244	367.19
261.477	363.19
261.71	366.19
261.942	384.19
262.175	385.19
262.407	363.19
262.64	380.19
262.872	377.19
263.105	378.19
263.337	401.19
263.57	393.19
263.802	396.19
264.035	393.19
264.267	375.19
264.499	393.19
264.732	401.19
264.964	381.19
265.197	386.19
265.429	417.19
265.661	381.19
265.894	397.19
266.126	413.19
266.358	415.19
266.591	391.19
266.823	422.19
267.055	405.19
267.287	418.19
267.52	410.19
267.752	417.19
267.984	411.19
268.216	413.19
268.448	410.19
268.681	397.19
268.913	409.19
269.145	420.19
269.377	445.19
269.609	429.19
269.841	427.19
270.073	438.19
270.306	430.19
270.538	441.19
270.77	397.19
271.002	424.19
271.234	433.19
271.466	420.19
271.698	425.19
271.93	443.19
272.162	431.19
272.394	444.19
272.626	445.19
272.858	454.19
273.09	444.19
273.322	432.19
273.553	454.19
273.785	455.19
274.017	461.19
274.249	461.19
274.481	443.19
274.713	482.19
274.945	438.19
275.176	458.19
275.408	468.19
275.64	486.19
275.872	469.19
276.104	492.19
276.335	494.19
276.567	492.19
276.799	488.19
277.031	491.19
277.262	493.19
277.494	505.19
277.726	484.19
277.957	515.19
278.189	505.19
278.421	487.19
278.652	485.19
278.884	493.19
279.115	485.19
279.347	489.19
279.579	499.19
279.81	504.19
280.042	495.19
280.273	513.19
280.505	523.19
280.736	496.19
280.968	533.19
281.199	527.19
281.431	529.19
281.662	534.19
281.894	530.19
282.125	506.19
282.356	539.19
282.588	550.19
282.819	541.19
283.051	541.19
283.282	527.19
283.513	529.19
283.745	567.19
283.976	530.19
284.207	535.19
284.439	552.19
284.67	558.19
284.901	540.19
285.132	549.19
285.364	539.19
285.595	564.19
285.826	555.19
286.057	544.19
286.288	554.19
286.52	563.19
286.751	571.19
286.982	579.19
287.213	595.19
287.444	591.19
287.675	581.19
287.906	574.19
288.138	594.19
288.369	591.19
288.6	575.19
288.831	580.19
289.062	593.19
289.293	609.19
289.524	617.19
289.755	589.19
289.986	608.19
290.217	610.19
290.448	590.19
290.679	608.19
290.91	616.19
291.141	591.19
291.371	602.19
291.602	613.19
291.833	615.19
292.064	620.19
292.295	611.19
292.526	593.19
292.757	617.19
292.987	595.19
293.218	588.19
293.449	614.19
293.68	613.19
293.91	600.19
294.141	591.19
294.372	616.19
294.603	602.19
294.833	613.19
295.064	607.19
295.295	600.19
295.525	611.19
295.756	595.19
295.987	593.19
296.217	613.19
296.448	629.19
296.679	641.19
296.909	620.19
297.14	635.19
297.37	619.19
297.601	646.19
297.831	642.19
298.062	640.19
298.292	651.19
298.523	650.19
298.753	686.19
298.984	663.19
299.214	655.19
299.445	660.19
299.675	631.19
299.905	653.19
300.136	668.19
300.366	678.19
300.597	676.19
300.827	683.19
301.057	709.19
301.288	679.19
301.518	709.19
301.748	701.19
301.979	726.19
302.209	721.19
302.439	689.19
302.669	686.19
302.9	691.19
303.13	669.19
303.36	695.19
303.59	691.19
303.82	686.19
304.051	711.19
304.281	705.19
304.511	674.19
304.741	676.19
304.971	684.19
305.201	685.19
305.431	669.19
305.661	660.19
305.891	688.19
306.121	683.19
306.352	654.19
306.582	669.19
306.812	649.19
307.042	677.19
307.272	685.19
307.502	680.19
307.731	664.19
307.961	672.19
308.191	674.19
308.421	666.19
308.651	666.19
308.881	663.19
309.111	684.19
309.341	660.19
309.571	656.19
309.8	663.19
310.03	675.19
310.26	653.19
310.49	695.19
310.72	699.19
310.949	682.19
311.179	642.19
311.409	694.19
311.639	692.19
311.868	660.19
312.098	692.19
312.328	689.19
312.557	707.19
312.787	703.19
313.017	699.19
313.246	705.19
313.476	714.19
313.706	713.19
313.935	705.19
314.165	722.19
314.394	743.19
314.624	757.19
314.853	707.19
315.083	737.19
315.312	734.19
315.542	712.19
315.771	700.19
316.001	720.19
316.23	709.19
316.46	713.19
316.689	716.19
316.919	703.19
317.148	712.19
317.377	725.19
317.607	699.19
317.836	693.19
318.065	701.19
318.295	715.19
318.524	701.19
318.753	699.19
318.983	690.19
319.212	720.19
319.441	724.19
319.67	732.19
319.9	718.19
320.129	740.19
320.358	683.19
320.587	701.19
320.816	721.19
321.046	729.19
321.275	733.19
321.504	729.19
321.733	722.19
321.962	713.19
322.191	729.19
322.42	716.19
322.649	734.19
322.878	743.19
323.108	721.19
323.337	736.19
323.566	749.19
323.795	730.19
324.024	707.19
324.253	743.19
324.482	739.19
324.71	740.19
324.939	738.19
325.168	751.19
325.397	760.19
325.626	747.19
325.855	768.19
326.084	752.19
326.313	797.19
326.542	772.19
326.77	802.19
326.999	797.19
327.228	783.19
327.457	794.19
327.686	779.19
327.914	784.19
328.143	784.19
328.372	793.19
328.6	786.19
328.829	794.19
329.058	801.19
329.287	793.19
329.515	793.19
329.744	803.19
329.972	795.19
330.201	807.19
330.43	786.19
330.658	807.19
330.887	816.19
331.115	835.19
331.344	844.19
331.572	834.19
331.801	863.19
332.03	879.19
332.258	912.19
332.486	917.19
332.715	931.19
332.943	999.19
333.172	1032.19
333.4	1092.19
333.629	1092.19
333.857	1068.19
334.085	1079.19
334.314	1053.19
334.542	1027.19
334.771	1023.19
334.999	1011.19
335.227	998.19
335.455	1007.19
335.684	984.19
335.912	985.19
336.14	948.19
336.369	951.19
336.597	968.19
336.825	935.19
337.053	956.19
337.281	931.19
337.51	899.19
337.738	902.19
337.966	889.19
338.194	899.19
338.422	864.19
338.65	860.19
338.878	875.19
339.106	848.19
339.334	900.19
339.562	857.19
339.79	848.19
340.018	827.19
340.246	803.19
340.474	807.19
340.702	832.19
340.93	821.19
341.158	851.19
341.386	852.19
341.614	826.19
341.842	824.19
342.07	808.19
342.298	838.19
342.526	827.19
342.754	819.19
342.981	828.19
343.209	873.19
343.437	896.19
343.665	972.19
343.893	1011.19
344.12	1033.19
344.348	968.19
344.576	936.19
344.804	907.19
345.031	888.19
345.259	838.19
345.487	845.19
345.714	832.19
345.942	805.19
346.17	822.19
346.397	797.19
346.625	791.19
346.853	810.19
347.08	803.19
347.308	811.19
347.535	804.19
347.763	811.19
347.99	800.19
348.218	801.19
348.445	803.19
348.673	798.19
348.9	777.19
349.128	812.19
349.355	787.19
349.583	769.19
349.81	777.19
350.037	765.19
350.265	739.19
350.492	784.19
350.72	784.19
350.947	785.19
351.174	748.19
351.402	784.19
351.629	756.19
351.856	759.19
352.083	750.19
352.311	755.19
352.538	786.19
352.765	769.19
352.992	753.19
353.22	757.19
353.447	775.19
353.674	776.19
353.901	793.19
354.128	768.19
354.355	749.19
354.583	755.19
354.81	766.19
355.037	771.19
355.264	792.19
355.491	786.19
355.718	769.19
355.945	776.19
356.172	772.19
356.399	783.19
356.626	799.19
356.853	766.19
357.08	773.19
357.307	780.19
357.534	779.19
357.761	771.19
357.988	800.19
358.215	771.19
358.441	765.19
358.668	741.19
358.895	776.19
359.122	771.19
359.349	795.19
359.576	784.19
359.802	775.19
360.029	755.19
360.256	777.19
360.483	780.19
360.709	762.19
360.936	771.19
361.163	804.19
361.39	751.19
361.616	765.19
361.843	772.19
362.07	767.19
362.296	780.19
362.523	724.19
362.749	771.19
362.976	757.19
363.203	772.19
363.429	772.19
363.656	757.19
363.882	760.19
364.109	754.19
364.335	768.19
364.562	773.19
364.788	757.19
365.015	776.19
365.241	790.19
365.468	756.19
365.694	765.19
365.92	778.19
366.147	764.19
366.373	769.19
366.599	734.19
366.826	747.19
367.052	782.19
367.278	779.19
367.505	764.19
367.731	780.19
367.957	755.19
368.184	771.19
368.41	764.19
368.636	785.19
368.862	779.19
369.089	783.19
369.315	808.19
369.541	767.19
369.767	807.19
369.993	795.19
370.219	796.19
370.445	785.19
370.672	831.19
370.898	815.19
371.124	833.19
371.35	822.19
371.576	845.19
371.802	855.19
372.028	846.19
372.254	831.19
372.48	853.19
372.706	870.19
372.932	891.19
373.158	865.19
373.384	860.19
373.61	857.19
373.835	848.19
374.061	825.19
374.287	840.19
374.513	871.19
374.739	887.19
374.965	911.19
375.191	927.19
375.416	924.19
375.642	922.19
375.868	858.19
376.094	879.19
376.319	861.19
376.545	848.19
376.771	833.19
376.997	824.19
377.222	833.19
377.448	832.19
377.674	843.19
377.899	841.19
378.125	843.19
378.35	813.19
378.576	827.19
378.802	843.19
379.027	861.19
379.253	820.19
379.478	816.19
379.704	824.19
379.929	816.19
380.155	822.19
380.38	815.19
380.606	841.19
380.831	820.19
381.057	836.19
381.282	861.19
381.507	855.19
381.733	869.19
381.958	835.19
382.184	878.19
382.409	871.19
382.634	878.19
382.86	867.19
383.085	877.19
383.31	932.19
383.535	925.19
383.761	948.19
383.986	940.19
384.211	965.19
384.436	1035.19
384.662	1011.19
384.887	1036.19
385.112	1011.19
385.337	1025.19
385.562	991.19
385.787	1039.19
386.013	1029.19
386.238	1049.19
386.463	999.19
386.688	1022.19
386.913	983.19
387.138	1003.19
387.363	964.19
387.588	971.19
387.813	993.19
388.038	990.19
388.263	1034.19
388.488	1024.19
388.713	1027.19
388.938	996.19
389.163	985.19
389.387	996.19
389.612	980.19
389.837	1014.19
390.062	999.19
390.287	985.19
390.512	968.19
390.736	995.19
390.961	1032.19
391.186	1040.19
391.411	1047.19
391.636	1097.19
391.86	1108.19
392.085	1146.19
392.31	1122.19
392.534	1105.19
392.759	1065.19
392.984	1081.19
393.208	1104.19
393.433	1036.19
393.658	1094.19
393.882	1052.19
394.107	1083.19
394.331	1077.19
394.556	1096.19
394.78	1083.19
395.005	1085.19
395.229	1105.19
395.454	1140.19
395.678	1138.19
395.903	1164.19
396.127	1079.19
396.352	1091.19
396.576	1060.19
396.801	1077.19
397.025	1083.19
397.249	1110.19
397.474	1148.19
397.698	1149.19
397.922	1088.19
398.147	1116.19
398.371	1149.19
398.595	1201.19
398.82	1233.19
399.044	1335.19
399.268	1471.19
399.492	1743.19
399.717	1997.19
399.941	1974.19
400.165	1728.19
400.389	1514.19
400.613	1390.19
400.837	1361.19
401.062	1295.19
401.286	1255.19
401.51	1273.19
401.734	1270.19
401.958	1297.19
402.182	1304.19
402.406	1332.19
402.63	1317.19
402.854	1344.19
403.078	1400.19
403.302	1430.19
403.526	1471.19
403.75	1514.19
403.974	1511.19
404.198	1510.19
404.422	1510.19
404.645	1476.19
404.869	1455.19
405.093	1463.19
405.317	1431.19
405.541	1431.19
405.765	1392.19
405.988	1378.19
406.212	1382.19
406.436	1390.19
406.66	1487.19
406.883	1467.19
407.107	1529.19
407.331	1668.19
407.555	1701.19
407.778	1693.19
408.002	1620.19
408.226	1563.19
408.449	1487.19
408.673	1501.19
408.896	1462.19
409.12	1422.19
409.344	1439.19
409.567	1454.19
409.791	1446.19
410.014	1488.19
410.238	1439.19
410.461	1442.19
410.685	1394.19
410.908	1410.19
411.132	1370.19
411.355	1319.19
411.578	1321.19
411.802	1326.19
412.025	1344.19
412.249	1326.19
412.472	1354.19
412.695	1288.19
412.919	1259.19
413.142	1245.19
413.365	1274.19
413.589	1297.19
413.812	1297.19
414.035	1287.19
414.258	1252.19
414.482	1270.19
414.705	1301.19
414.928	1299.19
415.151	1305.19
415.374	1287.19
415.597	1301.19
415.821	1259.19
416.044	1220.19
416.267	1199.19
416.49	1232.19
416.713	1235.19
416.936	1241.19
417.159	1263.19
417.382	1284.19
417.605	1217.19
417.828	1235.19
418.051	1257.19
418.274	1263.19
418.497	1266.19
418.72	1283.19
418.943	1297.19
419.166	1367.19
419.389	1457.19
419.611	1390.19
419.834	1383.19
420.057	1326.19
420.28	1259.19
420.503	1237.19
420.726	1225.19
420.948	1225.19
421.171	1237.19
421.394	1270.19
421.617	1248.19
421.839	1235.19
422.062	1259.19
422.285	1243.19
422.507	1251.19
422.73	1294.19
422.953	1287.19
423.175	1296.19
423.398	1359.19
423.621	1333.19
423.843	1370.19
424.066	1389.19
424.288	1392.19
424.511	1341.19
424.733	1305.19
424.956	1297.19
425.178	1276.19
425.401	1290.19
425.623	1253.19
425.846	1212.19
426.068	1195.19
426.291	1200.19
426.513	1181.19
426.735	1168.19
426.958	1144.19
427.18	1112.19
427.402	1157.19
427.625	1165.19
427.847	1128.19
428.069	1113.19
428.292	1144.19
428.514	1088.19
428.736	1081.19
428.958	1108.19
429.181	1107.19
429.403	1080.19
429.625	1085.19
429.847	1051.19
430.069	1053.19
430.292	1089.19
430.514	1079.19
430.736	1077.19
430.958	1084.19
431.18	1064.19
431.402	1087.19
431.624	1084.19
431.846	1129.19
432.068	1112.19
432.29	1116.19
432.512	1104.19
432.734	1150.19
432.956	1092.19
433.178	1114.19
433.4	1123.19
433.622	1151.19
433.844	1156.19
434.066	1137.19
434.287	1115.19
434.509	1183.19
434.731	1228.19
434.953	1257.19
435.175	1278.19
435.397	1257.19
435.618	1183.19
435.84	1151.19
436.062	1128.19
436.284	1123.19
436.505	1121.19
436.727	1145.19
436.949	1129.19
437.17	1120.19
437.392	1102.19
437.614	1083.19
437.835	1081.19
438.057	1063.19
438.278	1061.19
438.5	1053.19
438.721	1032.19
438.943	1070.19
439.165	1058.19
439.386	1077.19
439.608	1096.19
439.829	1088.19
440.05	1123.19
440.272	1108.19
440.493	1105.19
440.715	1122.19
440.936	1136.19
441.158	1181.19
441.379	1215.19
441.6	1265.19
441.822	1295.19
442.043	1244.19
442.264	1226.19
442.486	1213.19
442.707	1242.19
442.928	1209.19
443.149	1247.19
443.371	1214.19
443.592	1246.19
443.813	1254.19
444.034	1259.19
444.255	1314.19
444.476	1407.19
444.698	1487.19
444.919	1562.19
445.14	1589.19
445.361	1411.19
445.582	1275.19
445.803	1192.19
446.024	1200.19
446.245	1186.19
446.466	1190.19
446.687	1116.19
446.908	1103.19
447.129	1086.19
447.35	1061.19
447.571	1083.19
447.792	1051.19
448.013	1050.19
448.234	1047.19
448.455	1011.19
448.675	1030.19
448.896	1016.19
449.117	1024.19
449.338	995.19
449.559	993.19
449.779	994.19
450	983.19
450.221	1016.19
450.442	1029.19
450.662	1015.19
450.883	1066.19
451.104	1056.19
451.324	1045.19
451.545	1005.19
451.766	1009.19
451.986	999.19
452.207	1024.19
452.428	1012.19
452.648	1016.19
452.869	988.19
453.089	987.19
453.31	1048.19
453.53	976.19
453.751	974.19
453.971	949.19
454.192	977.19
454.412	964.19
454.633	981.19
454.853	948.19
455.073	937.19
455.294	942.19
455.514	956.19
455.734	935.19
455.955	924.19
456.175	926.19
456.395	938.19
456.616	971.19
456.836	925.19
457.056	922.19
457.276	918.19
457.497	949.19
457.717	901.19
457.937	944.19
458.157	981.19
458.377	973.19
458.598	990.19
458.818	1008.19
459.038	1048.19
459.258	1055.19
459.478	1126.19
459.698	1118.19
459.918	1177.19
460.138	1233.19
460.358	1289.19
460.578	1333.19
460.798	1323.19
461.018	1317.19
461.238	1300.19
461.458	1316.19
461.678	1315.19
461.898	1325.19
462.118	1321.19
462.338	1424.19
462.558	1427.19
462.777	1499.19
462.997	1659.19
463.217	1846.19
463.437	1821.19
463.657	1659.19
463.876	1547.19
464.096	1563.19
464.316	1516.19
464.536	1569.19
464.755	1454.19
464.975	1429.19
465.195	1361.19
465.414	1311.19
465.634	1177.19
465.854	1166.19
466.073	1144.19
466.293	1141.19
466.512	1072.19
466.732	1081.19
466.951	1055.19
467.171	1047.19
467.391	1096.19
467.61	1080.19
467.829	1066.19
468.049	1055.19
468.268	1018.19
468.488	990.19
468.707	1004.19
468.927	990.19
469.146	1024.19
469.365	994.19
469.585	1030.19
469.804	1040.19
470.023	1080.19
470.243	1082.19
470.462	1090.19
470.681	1109.19
470.901	1148.19
471.12	1059.19
471.339	1046.19
471.558	1016.19
471.777	1048.19
471.997	990.19
472.216	1013.19
472.435	1004.19
472.654	1003.19
472.873	992.19
473.092	959.19
473.311	996.19
473.53	981.19
473.749	977.19
473.968	950.19
474.187	943.19
474.406	985.19
474.625	960.19
474.844	988.19
475.063	979.19
475.282	1011.19
475.501	1000.19
475.72	1012.19
475.939	984.19
476.158	1027.19
476.377	1023.19
476.596	1022.19
476.814	1047.19
477.033	1025.19
477.252	1040.19
477.471	1067.19
477.69	1117.19
477.908	1149.19
478.127	1209.19
478.346	1206.19
478.564	1234.19
478.783	1220.19
479.002	1242.19
479.22	1286.19
479.439	1255.19
479.658	1255.19
479.876	1238.19
480.095	1227.19
480.313	1329.19
480.532	1340.19
480.751	1327.19
480.969	1251.19
481.188	1239.19
481.406	1186.19
481.624	1165.19
481.843	1175.19
482.061	1135.19
482.28	1139.19
482.498	1087.19
482.717	1113.19
482.935	1134.19
483.153	1103.19
483.372	1139.19
483.59	1137.19
483.808	1145.19
484.027	1127.19
484.245	1149.19
484.463	1150.19
484.681	1153.19
484.9	1174.19
485.118	1179.19
485.336	1179.19
485.554	1181.19
485.772	1180.19
485.99	1225.19
486.209	1228.19
486.427	1207.19
486.645	1200.19
486.863	1175.19
487.081	1203.19
487.299	1169.19
487.517	1224.19
487.735	1216.19
487.953	1186.19
488.171	1196.19
488.389	1173.19
488.607	1173.19
488.825	1172.19
489.043	1149.19
489.261	1196.19
489.479	1155.19
489.696	1210.19
489.914	1167.19
490.132	1190.19
490.35	1198.19
490.568	1195.19
490.786	1188.19
491.003	1187.19
491.221	1172.19
491.439	1199.19
491.657	1209.19
491.874	1191.19
492.092	1197.19
492.31	1168.19
492.527	1206.19
492.745	1224.19
492.963	1207.19
493.18	1203.19
493.398	1197.19
493.615	1264.19
493.833	1249.19
494.05	1269.19
494.268	1263.19
494.485	1270.19
494.703	1235.19
494.92	1232.19
495.138	1213.19
495.355	1269.19
495.573	1214.19
495.79	1230.19
496.008	1260.19
496.225	1247.19
496.442	1251.19
496.66	1272.19
496.877	1314.19
497.094	1326.19
497.312	1375.19
497.529	1384.19
497.746	1429.19
497.963	1451.19
498.181	1525.19
498.398	1577.19
498.615	1655.19
498.832	1759.19
499.049	1926.19
499.267	2117.19
499.484	2327.19
499.701	2569.19
499.918	2836.19
500.135	3259.19
500.352	3820.19
500.569	3977.19
500.786	3884.19
501.003	3593.19
501.22	3217.19
501.437	2841.19
501.654	2415.19
501.871	2208.19
502.088	2048.19
502.305	1902.19
502.522	1809.19
502.739	1749.19
502.956	1648.19
503.172	1551.19
503.389	1512.19
503.606	1493.19
503.823	1430.19
504.04	1408.19
504.256	1426.19
504.473	1499.19
504.69	1513.19
504.907	1467.19
505.123	1388.19
505.34	1324.19
505.557	1244.19
505.773	1205.19
505.99	1176.19
506.207	1148.19
506.423	1157.19
506.64	1118.19
506.856	1114.19
507.073	1128.19
507.289	1134.19
507.506	1120.19
507.722	1120.19
507.939	1112.19
508.155	1099.19
508.372	1042.19
508.588	1053.19
508.805	1043.19
509.021	1047.19
509.238	1062.19
509.454	1032.19
509.67	990.19
509.887	1004.19
510.103	991.19
510.319	1019.19
510.536	1000.19
510.752	993.19
510.968	999.19
511.184	968.19
511.401	991.19
511.617	1000.19
511.833	993.19
512.049	965.19
512.265	979.19
512.481	976.19
512.698	972.19
512.914	977.19
513.13	993.19
513.346	995.19
513.562	994.19
513.778	1004.19
513.994	1003.19
514.21	1018.19
514.426	993.19
514.642	1011.19
514.858	1031.19
515.074	1035.19
515.29	1049.19
515.506	1027.19
515.721	1073.19
515.937	1067.19
516.153	1067.19
516.369	1137.19
516.585	1166.19
516.801	1189.19
517.016	1231.19
517.232	1315.19
517.448	1386.19
517.664	1443.19
517.879	1439.19
518.095	1428.19
518.311	1403.19
518.527	1348.19
518.742	1261.19
518.958	1194.19
519.173	1177.19
519.389	1159.19
519.605	1086.19
519.82	1078.19
520.036	1065.19
520.251	1067.19
520.467	1027.19
520.682	1020.19
520.898	1016.19
521.113	983.19
521.329	961.19
521.544	958.19
521.76	956.19
521.975	972.19
522.19	965.19
522.406	943.19
522.621	949.19
522.836	955.19
523.052	929.19
523.267	945.19
523.482	910.19
523.698	936.19
523.913	919.19
524.128	899.19
524.343	922.19
524.559	919.19
524.774	894.19
524.989	910.19
525.204	915.19
525.419	899.19
525.634	879.19
525.849	884.19
526.064	904.19
526.28	921.19
526.495	895.19
526.71	904.19
526.925	889.19
527.14	885.19
527.355	905.19
527.57	886.19
527.785	917.19
527.999	905.19
528.214	914.19
528.429	907.19
528.644	912.19
528.859	912.19
529.074	912.19
529.289	892.19
529.503	890.19
529.718	893.19
529.933	906.19
530.148	894.19
530.363	893.19
530.577	910.19
530.792	906.19
531.007	889.19
531.221	906.19
531.436	891.19
531.651	912.19
531.865	900.19
532.08	894.19
532.295	926.19
532.509	900.19
532.724	908.19
532.938	884.19
533.153	883.19
533.367	902.19
533.582	904.19
533.796	870.19
534.011	892.19
534.225	894.19
534.44	906.19
534.654	881.19
534.868	885.19
535.083	883.19
535.297	883.19
535.511	852.19
535.726	850.19
535.94	860.19
536.154	840.19
536.369	859.19
536.583	825.19
536.797	847.19
537.011	833.19
537.225	840.19
537.44	825.19
537.654	829.19
537.868	808.19
538.082	815.19
538.296	815.19
538.51	838.19
538.724	823.19
538.938	795.19
539.153	803.19
539.367	777.19
539.581	811.19
539.795	772.19
540.009	780.19
540.222	811.19
540.436	797.19
540.65	798.19
540.864	817.19
541.078	797.19
541.292	815.19
541.506	813.19
541.72	800.19
541.934	797.19
542.147	807.19
542.361	789.19
542.575	788.19
542.789	789.19
543.002	805.19
543.216	772.19
543.43	765.19
543.644	783.19
543.857	805.19
544.071	806.19
544.285	809.19
544.498	781.19
544.712	804.19
544.925	800.19
545.139	836.19
545.352	839.19
545.566	797.19
545.779	863.19
545.993	835.19
546.206	823.19
546.42	802.19
546.633	861.19
546.847	825.19
547.06	836.19
547.274	829.19
547.487	808.19
547.7	819.19
547.914	813.19
548.127	856.19
548.34	807.19
548.554	833.19
548.767	825.19
548.98	831.19
549.193	852.19
549.407	845.19
549.62	856.19
549.833	872.19
550.046	864.19
550.259	833.19
550.473	827.19
550.686	810.19
550.899	835.19
551.112	797.19
551.325	784.19
551.538	809.19
551.751	814.19
551.964	812.19
552.177	819.19
552.39	821.19
552.603	833.19
552.816	861.19
553.029	860.19
553.242	906.19
553.455	896.19
553.667	931.19
553.88	899.19
554.093	870.19
554.306	865.19
554.519	848.19
554.732	811.19
554.944	840.19
555.157	773.19
555.37	779.19
555.583	758.19
555.795	737.19
556.008	745.19
556.221	729.19
556.433	708.19
556.646	712.19
556.859	719.19
557.071	699.19
557.284	707.19
557.496	697.19
557.709	703.19
557.921	692.19
558.134	699.19
558.346	688.19
558.559	679.19
558.771	686.19
558.984	679.19
559.196	693.19
559.409	683.19
559.621	688.19
559.833	688.19
560.046	693.19
560.258	663.19
560.47	662.19
560.683	669.19
560.895	665.19
561.107	672.19
561.32	686.19
561.532	659.19
561.744	680.19
561.956	677.19
562.168	676.19
562.381	685.19
562.593	677.19
562.805	675.19
563.017	680.19
563.229	684.19
563.441	670.19
563.653	672.19
563.865	698.19
564.077	693.19
564.289	721.19
564.501	713.19
564.713	719.19
564.925	752.19
565.137	737.19
565.349	772.19
565.561	793.19
565.773	813.19
565.985	849.19
566.197	879.19
566.408	952.19
566.62	1054.19
566.832	1121.19
567.044	1161.19
567.255	1131.19
567.467	1181.19
567.679	1255.19
567.891	1379.19
568.102	1413.19
568.314	1360.19
568.526	1150.19
568.737	1063.19
568.949	951.19
569.161	871.19
569.372	811.19
569.584	767.19
569.795	761.19
570.007	743.19
570.218	701.19
570.43	688.19
570.641	704.19
570.853	700.19
571.064	730.19
571.276	692.19
571.487	679.19
571.698	645.19
571.91	610.19
572.121	608.19
572.333	612.19
572.544	589.19
572.755	578.19
572.966	579.19
573.178	567.19
573.389	575.19
573.6	574.19
573.811	581.19
574.023	544.19
574.234	541.19
574.445	570.19
574.656	550.19
574.867	559.19
575.078	565.19
575.289	563.19
575.501	531.19
575.712	538.19
575.923	521.19
576.134	535.19
576.345	549.19
576.556	523.19
576.767	523.19
576.978	521.19
577.188	524.19
577.399	544.19
577.61	517.19
577.821	489.19
578.032	499.19
578.243	505.19
578.454	481.19
578.665	494.19
578.875	460.19
579.086	501.19
579.297	495.19
579.508	513.19
579.718	489.19
579.929	477.19
580.14	502.19
580.35	485.19
580.561	453.19
580.772	472.19
580.982	464.19
581.193	470.19
581.403	481.19
581.614	462.19
581.825	486.19
582.035	465.19
582.246	472.19
582.456	469.19
582.667	457.19
582.877	464.19
583.087	475.19
583.298	477.19
583.508	468.19
583.719	477.19
583.929	463.19
584.139	442.19
584.35	451.19
584.56	454.19
584.77	458.19
584.981	447.19
585.191	457.19
585.401	445.19
585.611	448.19
585.821	454.19
586.032	438.19
586.242	433.19
586.452	449.19
586.662	446.19
586.872	466.19
587.082	448.19
587.292	456.19
587.502	469.19
587.713	456.19
587.923	443.19
588.133	449.19
588.343	456.19
588.553	452.19
588.762	439.19
588.972	446.19
589.182	440.19
589.392	436.19
589.602	432.19
589.812	451.19
590.022	447.19
590.232	433.19
590.441	447.19
590.651	452.19
590.861	436.19
591.071	456.19
591.281	450.19
591.49	457.19
591.7	464.19
591.91	462.19
592.119	489.19
592.329	477.19
592.539	506.19
592.748	517.19
592.958	542.19
593.167	569.19
593.377	577.19
593.587	581.19
593.796	569.19
594.006	601.19
594.215	604.19
594.424	569.19
594.634	573.19
594.843	554.19
595.053	525.19
595.262	509.19
595.472	492.19
595.681	459.19
595.89	459.19
596.1	462.19
596.309	423.19
596.518	435.19
596.727	425.19
596.937	409.19
597.146	428.19
597.355	431.19
597.564	391.19
597.774	399.19
597.983	396.19
598.192	387.19
598.401	390.19
598.61	390.19
598.819	375.19
599.028	381.19
599.237	368.19
599.446	380.19
599.655	359.19
599.864	380.19
600.073	373.19
600.282	385.19
600.491	374.19
600.7	377.19
600.909	399.19
601.118	379.19
601.327	368.19
601.536	381.19
601.745	380.19
601.953	359.19
602.162	353.19
602.371	370.19
602.58	355.19
602.789	357.19
602.997	343.19
603.206	374.19
603.415	346.19
603.623	358.19
603.832	352.19
604.041	367.19
604.249	355.19
604.458	377.19
604.666	348.19
604.875	323.19
605.084	338.19
605.292	364.19
605.501	343.19
605.709	342.19
605.918	347.19
606.126	336.19
606.334	346.19
606.543	359.19
606.751	329.19
606.96	362.19
607.168	353.19
607.376	332.19
607.585	326.19
607.793	340.19
608.001	344.19
608.21	327.19
608.418	334.19
608.626	337.19
608.834	320.19
609.043	329.19
609.251	336.19
609.459	323.19
609.667	326.19
609.875	333.19
610.083	331.19
610.291	324.19
610.499	319.19
610.707	330.19
610.916	339.19
611.124	356.19
611.332	324.19
611.54	325.19
611.748	342.19
611.955	299.19
612.163	341.19
612.371	326.19
612.579	313.19
612.787	320.19
612.995	329.19
613.203	319.19
613.411	326.19
613.618	328.19
613.826	321.19
614.034	323.19
614.242	341.19
614.449	338.19
614.657	310.19
614.865	348.19
615.072	329.19
615.28	324.19
615.488	301.19
615.695	328.19
615.903	326.19
616.111	321.19
616.318	324.19
616.526	333.19
616.733	334.19
616.941	339.19
617.148	330.19
617.356	331.19
617.563	318.19
617.771	335.19
617.978	315.19
618.185	311.19
618.393	319.19
618.6	341.19
618.807	311.19
619.015	327.19
619.222	320.19
619.429	277.19
619.637	311.19
619.844	312.19
620.051	305.19
620.258	309.19
620.466	295.19
620.673	289.19
620.88	300.19
621.087	277.19
621.294	309.19
621.501	325.19
621.708	295.19
621.915	292.19
622.122	305.19
622.329	314.19
622.536	288.19
622.743	310.19
622.95	287.19
623.157	275.19
623.364	289.19
623.571	288.19
623.778	287.19
623.985	278.19
624.192	279.19
624.399	290.19
624.606	273.19
624.812	271.19
625.019	271.19
625.226	281.19
625.433	284.19
625.639	288.19
625.846	270.19
626.053	272.19
626.259	269.19
626.466	276.19
626.673	272.19
626.879	263.19
627.086	258.19
627.293	271.19
627.499	261.19
627.706	253.19
627.912	273.19
628.119	269.19
628.325	272.19
628.532	250.19
628.738	260.19
628.945	245.19
629.151	277.19
629.357	248.19
629.564	241.19
629.77	265.19
629.976	256.19
630.183	253.19
630.389	241.19
630.595	237.19
630.802	255.19
631.008	245.19
631.214	244.19
631.42	251.19
631.627	255.19
631.833	244.19
632.039	247.19
632.245	245.19
632.451	226.19
632.657	235.19
632.863	245.19
633.069	247.19
633.275	228.19
633.481	236.19
633.688	239.19
633.893	244.19
634.099	233.19
634.305	232.19
634.511	256.19
634.717	237.19
634.923	255.19
635.129	213.19
635.335	248.19
635.541	237.19
635.747	214.19
635.952	213.19
636.158	223.19
636.364	235.19
636.57	231.19
636.775	221.19
636.981	237.19
637.187	247.19
637.392	245.19
637.598	218.19
637.804	234.19
638.009	226.19
638.215	208.19
638.421	219.19
638.626	229.19
638.832	208.19
639.037	231.19
639.243	224.19
639.448	199.19
639.654	220.19
639.859	202.19
640.065	227.19
640.27	224.19
640.475	201.19
640.681	198.19
640.886	212.19
641.091	215.19
641.297	212.19
641.502	202.19
641.707	208.19
641.913	209.19
642.118	219.19
642.323	199.19
642.528	206.19
642.733	212.19
642.939	200.19
643.144	189.19
643.349	198.19
643.554	200.19
643.759	198.19
643.964	212.19
644.169	199.19
644.374	203.19
644.579	217.19
644.784	212.19
644.989	208.19
645.194	200.19
645.399	197.19
645.604	214.19
645.809	173.19
646.014	215.19
646.219	194.19
646.423	216.19
646.628	196.19
646.833	197.19
647.038	204.19
647.243	226.19
647.447	208.19
647.652	214.19
647.857	229.19
648.062	235.19
648.266	222.19
648.471	236.19
648.676	243.19
648.88	231.19
649.085	226.19
649.289	221.19
649.494	221.19
649.698	205.19
649.903	220.19
650.107	217.19
650.312	212.19
650.516	189.19
650.721	201.19
650.925	201.19
651.13	178.19
651.334	191.19
651.539	205.19
651.743	172.19
651.947	188.19
652.152	193.19
652.356	191.19
652.56	184.19
652.764	187.19
652.969	167.19
653.173	165.19
653.377	157.19
653.581	170.19
653.785	157.19
653.99	163.19
654.194	176.19
654.398	181.19
654.602	165.19
654.806	169.19
655.01	166.19
655.214	162.19
655.418	154.19
655.622	166.19
655.826	179.19
656.03	174.19
656.234	166.19
656.438	170.19
656.642	177.19
656.846	154.19
657.049	161.19
657.253	146.19
657.457	144.19
657.661	145.19
657.865	124.19
658.068	127.19
658.272	133.19
658.476	133.19
658.68	132.19
658.883	127.19
659.087	112.19
659.291	125.19
659.494	108.19
659.698	105.19
659.901	108.19
660.105	116.19
660.309	89.19
660.512	117.19
660.716	97.19
660.919	109.19
661.123	100.19
661.326	94.19
661.53	98.19
661.733	91.19
661.936	85.19
662.14	88.19
662.343	103.19
662.546	94.19
662.75	87.19
662.953	90.19
663.156	100.19
663.36	86.19
663.563	89.19
663.766	95.19
663.969	102.19
664.173	85.19
664.376	85.19
664.579	80.19
664.782	96.19
664.985	110.19
665.188	97.19
665.391	92.19
665.594	74.19
665.797	84.19
666	91.19
666.203	91.19
666.406	91.19
666.609	77.19
666.812	76.19
667.015	75.19
667.218	82.19
667.421	87.19
667.624	81.19
667.827	103.19
668.03	89.19
668.232	96.19
668.435	86.19
668.638	105.19
668.841	85.19
669.043	89.19
669.246	73.19
669.449	91.19
669.651	82.19
669.854	88.19
670.057	85.19
670.259	91.19
670.462	75.19
670.665	81.19
670.867	77.19
671.07	107.19
671.272	91.19
671.475	76.19
671.677	87.19
671.88	85.19
672.082	83.19
672.284	94.19
672.487	90.19
672.689	64.19
672.892	82.19
