Data from Ni(NO3)2@0.25M.TitratingCurve.Agarose3%dH2O.NegLispCup.LampEnergy10.LIBS07252019_HRD10591_18-04-44-566.txt Node
Date: Thu Jul 25 18:04:44 EDT 2019
User: cochatt
Spectrometer: HR+D1059
Trigger mode: 1
Integration Time (sec): 1.000000E-1
Scans to average: 1
Electric dark correction enabled: true
Nonlinearity correction enabled: false
Boxcar width: 0
XAxis mode: Wavelengths
Number of Pixels in Spectrum: 2048
>>>>>Begin Spectral Data<<<<<
223.165	-20.69
223.4	-20.69
223.635	-20.69
223.869	-29.69
224.104	-26.69
224.338	-8.69
224.573	-1.69
224.808	-22.69
225.042	-12.69
225.277	-13.69
225.511	9.31
225.746	8.31
225.98	8.31
226.215	7.31
226.449	20.31
226.683	30.31
226.918	22.31
227.152	30.31
227.387	29.31
227.621	32.31
227.856	29.31
228.09	47.31
228.324	47.31
228.559	62.31
228.793	61.31
229.027	92.31
229.262	92.31
229.496	108.31
229.73	96.31
229.964	104.31
230.199	110.31
230.433	103.31
230.667	107.31
230.901	114.31
231.136	116.31
231.37	106.31
231.604	101.31
231.838	125.31
232.072	128.31
232.306	114.31
232.541	124.31
232.775	123.31
233.009	124.31
233.243	115.31
233.477	120.31
233.711	109.31
233.945	122.31
234.179	108.31
234.413	125.31
234.647	120.31
234.881	122.31
235.115	107.31
235.349	120.31
235.583	126.31
235.817	115.31
236.051	112.31
236.285	128.31
236.519	119.31
236.753	118.31
236.987	125.31
237.221	121.31
237.455	120.31
237.689	111.31
237.922	116.31
238.156	120.31
238.39	138.31
238.624	114.31
238.858	142.31
239.091	131.31
239.325	134.31
239.559	150.31
239.793	139.31
240.027	136.31
240.26	131.31
240.494	150.31
240.728	142.31
240.961	139.31
241.195	136.31
241.429	145.31
241.662	128.31
241.896	141.31
242.13	132.31
242.363	148.31
242.597	133.31
242.83	145.31
243.064	152.31
243.298	148.31
243.531	128.31
243.765	129.31
243.998	152.31
244.232	158.31
244.465	157.31
244.699	133.31
244.932	143.31
245.166	155.31
245.399	160.31
245.633	161.31
245.866	153.31
246.099	150.31
246.333	157.31
246.566	150.31
246.8	163.31
247.033	156.31
247.266	139.31
247.5	164.31
247.733	163.31
247.966	174.31
248.2	169.31
248.433	182.31
248.666	158.31
248.899	162.31
249.133	180.31
249.366	179.31
249.599	181.31
249.832	188.31
250.066	182.31
250.299	156.31
250.532	178.31
250.765	182.31
250.998	193.31
251.231	178.31
251.465	209.31
251.698	190.31
251.931	201.31
252.164	179.31
252.397	192.31
252.63	197.31
252.863	197.31
253.096	188.31
253.329	218.31
253.562	206.31
253.795	201.31
254.028	213.31
254.261	196.31
254.494	209.31
254.727	215.31
254.96	197.31
255.193	200.31
255.426	214.31
255.659	213.31
255.892	209.31
256.124	228.31
256.357	212.31
256.59	198.31
256.823	218.31
257.056	203.31
257.289	218.31
257.521	217.31
257.754	215.31
257.987	232.31
258.22	215.31
258.452	220.31
258.685	204.31
258.918	224.31
259.151	217.31
259.383	227.31
259.616	236.31
259.849	247.31
260.081	216.31
260.314	232.31
260.547	229.31
260.779	229.31
261.012	236.31
261.244	242.31
261.477	237.31
261.71	231.31
261.942	243.31
262.175	252.31
262.407	255.31
262.64	235.31
262.872	247.31
263.105	249.31
263.337	236.31
263.57	250.31
263.802	253.31
264.035	259.31
264.267	268.31
264.499	258.31
264.732	254.31
264.964	253.31
265.197	256.31
265.429	260.31
265.661	238.31
265.894	258.31
266.126	261.31
266.358	270.31
266.591	278.31
266.823	277.31
267.055	253.31
267.287	272.31
267.52	261.31
267.752	281.31
267.984	267.31
268.216	276.31
268.448	280.31
268.681	275.31
268.913	266.31
269.145	278.31
269.377	258.31
269.609	278.31
269.841	275.31
270.073	274.31
270.306	281.31
270.538	278.31
270.77	263.31
271.002	285.31
271.234	270.31
271.466	307.31
271.698	274.31
271.93	278.31
272.162	287.31
272.394	291.31
272.626	304.31
272.858	281.31
273.09	293.31
273.322	267.31
273.553	285.31
273.785	278.31
274.017	284.31
274.249	288.31
274.481	317.31
274.713	286.31
274.945	286.31
275.176	298.31
275.408	305.31
275.64	309.31
275.872	302.31
276.104	285.31
276.335	307.31
276.567	280.31
276.799	312.31
277.031	302.31
277.262	310.31
277.494	310.31
277.726	318.31
277.957	302.31
278.189	316.31
278.421	301.31
278.652	314.31
278.884	323.31
279.115	289.31
279.347	298.31
279.579	323.31
279.81	315.31
280.042	328.31
280.273	328.31
280.505	325.31
280.736	322.31
280.968	320.31
281.199	324.31
281.431	333.31
281.662	319.31
281.894	327.31
282.125	335.31
282.356	342.31
282.588	327.31
282.819	329.31
283.051	322.31
283.282	312.31
283.513	341.31
283.745	340.31
283.976	328.31
284.207	342.31
284.439	327.31
284.67	333.31
284.901	333.31
285.132	330.31
285.364	317.31
285.595	332.31
285.826	355.31
286.057	349.31
286.288	346.31
286.52	337.31
286.751	366.31
286.982	364.31
287.213	348.31
287.444	334.31
287.675	349.31
287.906	358.31
288.138	365.31
288.369	363.31
288.6	362.31
288.831	334.31
289.062	320.31
289.293	351.31
289.524	346.31
289.755	366.31
289.986	355.31
290.217	355.31
290.448	360.31
290.679	370.31
290.91	362.31
291.141	355.31
291.371	341.31
291.602	354.31
291.833	363.31
292.064	339.31
292.295	357.31
292.526	350.31
292.757	364.31
292.987	350.31
293.218	336.31
293.449	357.31
293.68	349.31
293.91	356.31
294.141	369.31
294.372	346.31
294.603	377.31
294.833	377.31
295.064	347.31
295.295	350.31
295.525	335.31
295.756	366.31
295.987	394.31
296.217	344.31
296.448	374.31
296.679	373.31
296.909	371.31
297.14	375.31
297.37	389.31
297.601	382.31
297.831	391.31
298.062	404.31
298.292	377.31
298.523	384.31
298.753	393.31
298.984	384.31
299.214	365.31
299.445	382.31
299.675	375.31
299.905	381.31
300.136	407.31
300.366	406.31
300.597	400.31
300.827	408.31
301.057	398.31
301.288	396.31
301.518	403.31
301.748	406.31
301.979	410.31
302.209	415.31
302.439	417.31
302.669	404.31
302.9	399.31
303.13	395.31
303.36	398.31
303.59	382.31
303.82	402.31
304.051	416.31
304.281	410.31
304.511	406.31
304.741	408.31
304.971	393.31
305.201	394.31
305.431	408.31
305.661	397.31
305.891	413.31
306.121	410.31
306.352	401.31
306.582	387.31
306.812	403.31
307.042	378.31
307.272	399.31
307.502	404.31
307.731	390.31
307.961	392.31
308.191	404.31
308.421	397.31
308.651	396.31
308.881	410.31
309.111	411.31
309.341	392.31
309.571	400.31
309.8	411.31
310.03	418.31
310.26	403.31
310.49	422.31
310.72	385.31
310.949	411.31
311.179	430.31
311.409	422.31
311.639	412.31
311.868	416.31
312.098	421.31
312.328	409.31
312.557	415.31
312.787	436.31
313.017	443.31
313.246	434.31
313.476	444.31
313.706	443.31
313.935	420.31
314.165	444.31
314.394	424.31
314.624	425.31
314.853	442.31
315.083	445.31
315.312	443.31
315.542	434.31
315.771	448.31
316.001	448.31
316.23	463.31
316.46	428.31
316.689	434.31
316.919	443.31
317.148	445.31
317.377	444.31
317.607	475.31
317.836	435.31
318.065	438.31
318.295	455.31
318.524	447.31
318.753	446.31
318.983	441.31
319.212	451.31
319.441	441.31
319.67	466.31
319.9	454.31
320.129	461.31
320.358	469.31
320.587	464.31
320.816	466.31
321.046	468.31
321.275	458.31
321.504	470.31
321.733	475.31
321.962	494.31
322.191	470.31
322.42	495.31
322.649	473.31
322.878	458.31
323.108	498.31
323.337	493.31
323.566	504.31
323.795	506.31
324.024	503.31
324.253	474.31
324.482	478.31
324.71	488.31
324.939	492.31
325.168	496.31
325.397	512.31
325.626	518.31
325.855	512.31
326.084	511.31
326.313	520.31
326.542	520.31
326.77	528.31
326.999	542.31
327.228	517.31
327.457	525.31
327.686	535.31
327.914	538.31
328.143	549.31
328.372	524.31
328.6	519.31
328.829	542.31
329.058	509.31
329.287	541.31
329.515	560.31
329.744	546.31
329.972	558.31
330.201	552.31
330.43	548.31
330.658	564.31
330.887	553.31
331.115	574.31
331.344	562.31
331.572	588.31
331.801	596.31
332.03	613.31
332.258	598.31
332.486	611.31
332.715	634.31
332.943	634.31
333.172	657.31
333.4	670.31
333.629	640.31
333.857	672.31
334.085	672.31
334.314	680.31
334.542	702.31
334.771	691.31
334.999	680.31
335.227	692.31
335.455	685.31
335.684	684.31
335.912	688.31
336.14	672.31
336.369	676.31
336.597	688.31
336.825	667.31
337.053	686.31
337.281	665.31
337.51	633.31
337.738	635.31
337.966	647.31
338.194	647.31
338.422	641.31
338.65	627.31
338.878	607.31
339.106	646.31
339.334	597.31
339.562	612.31
339.79	605.31
340.018	608.31
340.246	583.31
340.474	595.31
340.702	589.31
340.93	588.31
341.158	593.31
341.386	610.31
341.614	634.31
341.842	609.31
342.07	589.31
342.298	630.31
342.526	615.31
342.754	594.31
342.981	612.31
343.209	613.31
343.437	632.31
343.665	663.31
343.893	671.31
344.12	673.31
344.348	667.31
344.576	696.31
344.804	675.31
345.031	644.31
345.259	618.31
345.487	610.31
345.714	627.31
345.942	612.31
346.17	607.31
346.397	608.31
346.625	613.31
346.853	592.31
347.08	588.31
347.308	595.31
347.535	582.31
347.763	565.31
347.99	590.31
348.218	584.31
348.445	578.31
348.673	582.31
348.9	568.31
349.128	582.31
349.355	576.31
349.583	586.31
349.81	589.31
350.037	566.31
350.265	582.31
350.492	570.31
350.72	579.31
350.947	566.31
351.174	546.31
351.402	570.31
351.629	592.31
351.856	575.31
352.083	562.31
352.311	541.31
352.538	598.31
352.765	584.31
352.992	565.31
353.22	535.31
353.447	544.31
353.674	564.31
353.901	558.31
354.128	561.31
354.355	551.31
354.583	570.31
354.81	559.31
355.037	555.31
355.264	546.31
355.491	550.31
355.718	535.31
355.945	550.31
356.172	553.31
356.399	550.31
356.626	574.31
356.853	572.31
357.08	575.31
357.307	562.31
357.534	547.31
357.761	548.31
357.988	529.31
358.215	546.31
358.441	550.31
358.668	536.31
358.895	548.31
359.122	556.31
359.349	562.31
359.576	562.31
359.802	560.31
360.029	547.31
360.256	514.31
360.483	556.31
360.709	561.31
360.936	560.31
361.163	576.31
361.39	564.31
361.616	559.31
361.843	586.31
362.07	566.31
362.296	559.31
362.523	529.31
362.749	546.31
362.976	570.31
363.203	556.31
363.429	557.31
363.656	567.31
363.882	538.31
364.109	578.31
364.335	564.31
364.562	534.31
364.788	545.31
365.015	558.31
365.241	522.31
365.468	572.31
365.694	541.31
365.92	549.31
366.147	552.31
366.373	560.31
366.599	547.31
366.826	556.31
367.052	552.31
367.278	544.31
367.505	558.31
367.731	546.31
367.957	533.31
368.184	569.31
368.41	554.31
368.636	563.31
368.862	555.31
369.089	567.31
369.315	578.31
369.541	569.31
369.767	555.31
369.993	587.31
370.219	563.31
370.445	574.31
370.672	558.31
370.898	563.31
371.124	568.31
371.35	582.31
371.576	588.31
371.802	588.31
372.028	592.31
372.254	595.31
372.48	590.31
372.706	608.31
372.932	602.31
373.158	632.31
373.384	598.31
373.61	591.31
373.835	589.31
374.061	598.31
374.287	600.31
374.513	587.31
374.739	612.31
374.965	622.31
375.191	621.31
375.416	606.31
375.642	611.31
375.868	611.31
376.094	597.31
376.319	593.31
376.545	599.31
376.771	602.31
376.997	577.31
377.222	592.31
377.448	572.31
377.674	579.31
377.899	588.31
378.125	565.31
378.35	595.31
378.576	576.31
378.802	564.31
379.027	564.31
379.253	571.31
379.478	567.31
379.704	573.31
379.929	578.31
380.155	588.31
380.38	566.31
380.606	551.31
380.831	567.31
381.057	572.31
381.282	593.31
381.507	573.31
381.733	588.31
381.958	580.31
382.184	551.31
382.409	564.31
382.634	605.31
382.86	601.31
383.085	599.31
383.31	603.31
383.535	611.31
383.761	614.31
383.986	618.31
384.211	642.31
384.436	627.31
384.662	654.31
384.887	618.31
385.112	650.31
385.337	657.31
385.562	646.31
385.787	637.31
386.013	687.31
386.238	680.31
386.463	687.31
386.688	679.31
386.913	654.31
387.138	660.31
387.363	688.31
387.588	670.31
387.813	672.31
388.038	652.31
388.263	674.31
388.488	679.31
388.713	652.31
388.938	648.31
389.163	673.31
389.387	668.31
389.612	651.31
389.837	664.31
390.062	627.31
390.287	651.31
390.512	652.31
390.736	685.31
390.961	687.31
391.186	718.31
391.411	714.31
391.636	725.31
391.86	750.31
392.085	730.31
392.31	729.31
392.534	710.31
392.759	711.31
392.984	736.31
393.208	720.31
393.433	706.31
393.658	708.31
393.882	693.31
394.107	702.31
394.331	701.31
394.556	719.31
394.78	723.31
395.005	729.31
395.229	704.31
395.454	734.31
395.678	733.31
395.903	748.31
396.127	716.31
396.352	735.31
396.576	706.31
396.801	754.31
397.025	740.31
397.249	747.31
397.474	741.31
397.698	778.31
397.922	794.31
398.147	766.31
398.371	773.31
398.595	794.31
398.82	829.31
399.044	861.31
399.268	911.31
399.492	1020.31
399.717	1090.31
399.941	1083.31
400.165	1067.31
400.389	976.31
400.613	921.31
400.837	878.31
401.062	837.31
401.286	870.31
401.51	855.31
401.734	837.31
401.958	864.31
402.182	847.31
402.406	855.31
402.63	839.31
402.854	871.31
403.078	857.31
403.302	894.31
403.526	879.31
403.75	892.31
403.974	894.31
404.198	877.31
404.422	895.31
404.645	885.31
404.869	900.31
405.093	902.31
405.317	896.31
405.541	895.31
405.765	891.31
405.988	916.31
406.212	896.31
406.436	933.31
406.66	953.31
406.883	938.31
407.107	984.31
407.331	989.31
407.555	1020.31
407.778	1044.31
408.002	1028.31
408.226	992.31
408.449	1011.31
408.673	946.31
408.896	930.31
409.12	926.31
409.344	965.31
409.567	902.31
409.791	917.31
410.014	951.31
410.238	916.31
410.461	935.31
410.685	917.31
410.908	908.31
411.132	907.31
411.355	878.31
411.578	871.31
411.802	868.31
412.025	868.31
412.249	889.31
412.472	854.31
412.695	882.31
412.919	860.31
413.142	848.31
413.365	879.31
413.589	856.31
413.812	853.31
414.035	848.31
414.258	851.31
414.482	892.31
414.705	870.31
414.928	864.31
415.151	860.31
415.374	867.31
415.597	841.31
415.821	841.31
416.044	856.31
416.267	853.31
416.49	846.31
416.713	834.31
416.936	837.31
417.159	847.31
417.382	824.31
417.605	850.31
417.828	834.31
418.051	840.31
418.274	843.31
418.497	834.31
418.72	877.31
418.943	842.31
419.166	895.31
419.389	983.31
419.611	930.31
419.834	890.31
420.057	879.31
420.28	861.31
420.503	853.31
420.726	860.31
420.948	840.31
421.171	870.31
421.394	851.31
421.617	834.31
421.839	862.31
422.062	855.31
422.285	843.31
422.507	859.31
422.73	843.31
422.953	886.31
423.175	866.31
423.398	851.31
423.621	831.31
423.843	877.31
424.066	882.31
424.288	850.31
424.511	855.31
424.733	873.31
424.956	855.31
425.178	840.31
425.401	872.31
425.623	877.31
425.846	859.31
426.068	831.31
426.291	834.31
426.513	852.31
426.735	824.31
426.958	806.31
427.18	790.31
427.402	827.31
427.625	794.31
427.847	802.31
428.069	802.31
428.292	798.31
428.514	784.31
428.736	815.31
428.958	805.31
429.181	794.31
429.403	792.31
429.625	756.31
429.847	804.31
430.069	800.31
430.292	793.31
430.514	808.31
430.736	803.31
430.958	784.31
431.18	789.31
431.402	798.31
431.624	780.31
431.846	804.31
432.068	803.31
432.29	818.31
432.512	799.31
432.734	787.31
432.956	815.31
433.178	808.31
433.4	806.31
433.622	845.31
433.844	819.31
434.066	830.31
434.287	838.31
434.509	814.31
434.731	845.31
434.953	873.31
435.175	868.31
435.397	904.31
435.618	835.31
435.84	836.31
436.062	821.31
436.284	800.31
436.505	787.31
436.727	840.31
436.949	818.31
437.17	803.31
437.392	804.31
437.614	785.31
437.835	756.31
438.057	782.31
438.278	757.31
438.5	767.31
438.721	794.31
438.943	794.31
439.165	807.31
439.386	791.31
439.608	797.31
439.829	810.31
440.05	812.31
440.272	806.31
440.493	825.31
440.715	815.31
440.936	868.31
441.158	831.31
441.379	858.31
441.6	882.31
441.822	872.31
442.043	880.31
442.264	870.31
442.486	839.31
442.707	880.31
442.928	872.31
443.149	880.31
443.371	863.31
443.592	881.31
443.813	892.31
444.034	900.31
444.255	941.31
444.476	951.31
444.698	946.31
444.919	978.31
445.14	1029.31
445.361	971.31
445.582	918.31
445.803	884.31
446.024	865.31
446.245	858.31
446.466	853.31
446.687	822.31
446.908	827.31
447.129	805.31
447.35	772.31
447.571	808.31
447.792	787.31
448.013	792.31
448.234	759.31
448.455	787.31
448.675	738.31
448.896	766.31
449.117	767.31
449.338	748.31
449.559	739.31
449.779	748.31
450	743.31
450.221	777.31
450.442	755.31
450.662	756.31
450.883	771.31
451.104	790.31
451.324	750.31
451.545	746.31
451.766	747.31
451.986	756.31
452.207	747.31
452.428	728.31
452.648	731.31
452.869	725.31
453.089	706.31
453.31	747.31
453.53	709.31
453.751	710.31
453.971	714.31
454.192	717.31
454.412	714.31
454.633	704.31
454.853	708.31
455.073	702.31
455.294	681.31
455.514	677.31
455.734	711.31
455.955	717.31
456.175	707.31
456.395	718.31
456.616	693.31
456.836	716.31
457.056	701.31
457.276	680.31
457.497	727.31
457.717	700.31
457.937	722.31
458.157	717.31
458.377	721.31
458.598	733.31
458.818	726.31
459.038	776.31
459.258	824.31
459.478	813.31
459.698	850.31
459.918	841.31
460.138	856.31
460.358	868.31
460.578	903.31
460.798	922.31
461.018	916.31
461.238	919.31
461.458	894.31
461.678	894.31
461.898	948.31
462.118	933.31
462.338	972.31
462.558	1003.31
462.777	1081.31
462.997	1055.31
463.217	1119.31
463.437	1125.31
463.657	1090.31
463.876	1049.31
464.096	1044.31
464.316	1046.31
464.536	1045.31
464.755	1020.31
464.975	962.31
465.195	930.31
465.414	911.31
465.634	876.31
465.854	854.31
466.073	838.31
466.293	831.31
466.512	803.31
466.732	809.31
466.951	800.31
467.171	798.31
467.391	803.31
467.61	805.31
467.829	788.31
468.049	791.31
468.268	759.31
468.488	751.31
468.707	747.31
468.927	768.31
469.146	783.31
469.365	762.31
469.585	788.31
469.804	805.31
470.023	803.31
470.243	797.31
470.462	794.31
470.681	781.31
470.901	802.31
471.12	780.31
471.339	821.31
471.558	799.31
471.777	785.31
471.997	778.31
472.216	746.31
472.435	765.31
472.654	739.31
472.873	750.31
473.092	757.31
473.311	741.31
473.53	747.31
473.749	735.31
473.968	763.31
474.187	744.31
474.406	731.31
474.625	748.31
474.844	742.31
475.063	764.31
475.282	746.31
475.501	736.31
475.72	796.31
475.939	753.31
476.158	790.31
476.377	778.31
476.596	790.31
476.814	779.31
477.033	788.31
477.252	782.31
477.471	845.31
477.69	798.31
477.908	847.31
478.127	855.31
478.346	854.31
478.564	912.31
478.783	884.31
479.002	908.31
479.22	891.31
479.439	912.31
479.658	889.31
479.876	912.31
480.095	880.31
480.313	922.31
480.532	946.31
480.751	920.31
480.969	895.31
481.188	914.31
481.406	874.31
481.624	890.31
481.843	845.31
482.061	869.31
482.28	875.31
482.498	838.31
482.717	824.31
482.935	842.31
483.153	870.31
483.372	866.31
483.59	860.31
483.808	861.31
484.027	877.31
484.245	868.31
484.463	887.31
484.681	891.31
484.9	865.31
485.118	876.31
485.336	851.31
485.554	893.31
485.772	869.31
485.99	863.31
486.209	894.31
486.427	913.31
486.645	907.31
486.863	895.31
487.081	910.31
487.299	898.31
487.517	901.31
487.735	903.31
487.953	894.31
488.171	893.31
488.389	869.31
488.607	895.31
488.825	884.31
489.043	873.31
489.261	864.31
489.479	871.31
489.696	886.31
489.914	872.31
490.132	919.31
490.35	920.31
490.568	929.31
490.786	915.31
491.003	925.31
491.221	898.31
491.439	911.31
491.657	920.31
491.874	954.31
492.092	941.31
492.31	949.31
492.527	916.31
492.745	926.31
492.963	955.31
493.18	966.31
493.398	933.31
493.615	948.31
493.833	945.31
494.05	981.31
494.268	982.31
494.485	998.31
494.703	952.31
494.92	981.31
495.138	981.31
495.355	997.31
495.573	1023.31
495.79	988.31
496.008	971.31
496.225	1002.31
496.442	1012.31
496.66	1033.31
496.877	1008.31
497.094	1054.31
497.312	1047.31
497.529	1093.31
497.746	1124.31
497.963	1156.31
498.181	1202.31
498.398	1223.31
498.615	1270.31
498.832	1361.31
499.049	1446.31
499.267	1507.31
499.484	1620.31
499.701	1737.31
499.918	1819.31
500.135	2029.31
500.352	2153.31
500.569	2174.31
500.786	2197.31
501.003	2077.31
501.22	1998.31
501.437	1805.31
501.654	1692.31
501.871	1598.31
502.088	1480.31
502.305	1410.31
502.522	1321.31
502.739	1287.31
502.956	1232.31
503.172	1209.31
503.389	1178.31
503.606	1150.31
503.823	1109.31
504.04	1086.31
504.256	1105.31
504.473	1079.31
504.69	1075.31
504.907	1059.31
505.123	1018.31
505.34	993.31
505.557	952.31
505.773	933.31
505.99	945.31
506.207	907.31
506.423	899.31
506.64	885.31
506.856	899.31
507.073	864.31
507.289	866.31
507.506	850.31
507.722	824.31
507.939	858.31
508.155	842.31
508.372	828.31
508.588	811.31
508.805	798.31
509.021	850.31
509.238	804.31
509.454	794.31
509.67	804.31
509.887	807.31
510.103	803.31
510.319	781.31
510.536	784.31
510.752	790.31
510.968	784.31
511.184	788.31
511.401	776.31
511.617	739.31
511.833	774.31
512.049	803.31
512.265	770.31
512.481	763.31
512.698	783.31
512.914	764.31
513.13	759.31
513.346	778.31
513.562	780.31
513.778	748.31
513.994	775.31
514.21	794.31
514.426	808.31
514.642	775.31
514.858	808.31
515.074	795.31
515.29	821.31
515.506	803.31
515.721	835.31
515.937	844.31
516.153	843.31
516.369	851.31
516.585	875.31
516.801	898.31
517.016	914.31
517.232	926.31
517.448	990.31
517.664	973.31
517.879	954.31
518.095	958.31
518.311	946.31
518.527	921.31
518.742	926.31
518.958	909.31
519.173	869.31
519.389	836.31
519.605	834.31
519.82	809.31
520.036	804.31
520.251	811.31
520.467	793.31
520.682	785.31
520.898	779.31
521.113	783.31
521.329	734.31
521.544	727.31
521.76	742.31
521.975	729.31
522.19	731.31
522.406	728.31
522.621	740.31
522.836	712.31
523.052	720.31
523.267	702.31
523.482	739.31
523.698	739.31
523.913	717.31
524.128	717.31
524.343	743.31
524.559	730.31
524.774	725.31
524.989	739.31
525.204	723.31
525.419	709.31
525.634	724.31
525.849	702.31
526.064	694.31
526.28	680.31
526.495	697.31
526.71	700.31
526.925	720.31
527.14	667.31
527.355	706.31
527.57	685.31
527.785	717.31
527.999	681.31
528.214	713.31
528.429	691.31
528.644	693.31
528.859	722.31
529.074	687.31
529.289	732.31
529.503	707.31
529.718	696.31
529.933	665.31
530.148	673.31
530.363	698.31
530.577	657.31
530.792	692.31
531.007	696.31
531.221	690.31
531.436	699.31
531.651	694.31
531.865	685.31
532.08	692.31
532.295	662.31
532.509	664.31
532.724	685.31
532.938	682.31
533.153	703.31
533.367	718.31
533.582	690.31
533.796	696.31
534.011	703.31
534.225	698.31
534.44	672.31
534.654	680.31
534.868	637.31
535.083	662.31
535.297	671.31
535.511	661.31
535.726	673.31
535.94	661.31
536.154	648.31
536.369	668.31
536.583	656.31
536.797	663.31
537.011	641.31
537.225	648.31
537.44	624.31
537.654	631.31
537.868	626.31
538.082	637.31
538.296	620.31
538.51	634.31
538.724	664.31
538.938	607.31
539.153	644.31
539.367	625.31
539.581	630.31
539.795	613.31
540.009	614.31
540.222	633.31
540.436	628.31
540.65	638.31
540.864	634.31
541.078	634.31
541.292	642.31
541.506	647.31
541.72	650.31
541.934	648.31
542.147	651.31
542.361	648.31
542.575	648.31
542.789	612.31
543.002	610.31
543.216	631.31
543.43	614.31
543.644	637.31
543.857	636.31
544.071	644.31
544.285	642.31
544.498	665.31
544.712	635.31
544.925	646.31
545.139	643.31
545.352	637.31
545.566	646.31
545.779	662.31
545.993	651.31
546.206	654.31
546.42	654.31
546.633	667.31
546.847	657.31
547.06	669.31
547.274	662.31
547.487	640.31
547.7	675.31
547.914	663.31
548.127	668.31
548.34	652.31
548.554	636.31
548.767	660.31
548.98	662.31
549.193	659.31
549.407	645.31
549.62	663.31
549.833	656.31
550.046	657.31
550.259	640.31
550.473	654.31
550.686	649.31
550.899	648.31
551.112	638.31
551.325	612.31
551.538	606.31
551.751	631.31
551.964	618.31
552.177	627.31
552.39	640.31
552.603	683.31
552.816	695.31
553.029	676.31
553.242	709.31
553.455	694.31
553.667	673.31
553.88	684.31
554.093	650.31
554.306	652.31
554.519	660.31
554.732	635.31
554.944	648.31
555.157	621.31
555.37	585.31
555.583	635.31
555.795	605.31
556.008	598.31
556.221	586.31
556.433	561.31
556.646	607.31
556.859	593.31
557.071	567.31
557.284	532.31
557.496	567.31
557.709	543.31
557.921	563.31
558.134	565.31
558.346	534.31
558.559	558.31
558.771	541.31
558.984	556.31
559.196	561.31
559.409	575.31
559.621	548.31
559.833	542.31
560.046	563.31
560.258	549.31
560.47	543.31
560.683	536.31
560.895	541.31
561.107	548.31
561.32	526.31
561.532	537.31
561.744	549.31
561.956	536.31
562.168	549.31
562.381	531.31
562.593	536.31
562.805	532.31
563.017	542.31
563.229	541.31
563.441	560.31
563.653	545.31
563.865	554.31
564.077	559.31
564.289	566.31
564.501	578.31
564.713	569.31
564.925	583.31
565.137	595.31
565.349	593.31
565.561	621.31
565.773	651.31
565.985	639.31
566.197	669.31
566.408	679.31
566.62	723.31
566.832	745.31
567.044	786.31
567.255	761.31
567.467	795.31
567.679	788.31
567.891	836.31
568.102	794.31
568.314	780.31
568.526	765.31
568.737	725.31
568.949	685.31
569.161	639.31
569.372	609.31
569.584	607.31
569.795	583.31
570.007	546.31
570.218	556.31
570.43	544.31
570.641	519.31
570.853	542.31
571.064	530.31
571.276	488.31
571.487	517.31
571.698	498.31
571.91	503.31
572.121	493.31
572.333	457.31
572.544	473.31
572.755	478.31
572.966	476.31
573.178	452.31
573.389	454.31
573.6	442.31
573.811	442.31
574.023	446.31
574.234	435.31
574.445	435.31
574.656	450.31
574.867	442.31
575.078	441.31
575.289	429.31
575.501	414.31
575.712	427.31
575.923	420.31
576.134	434.31
576.345	418.31
576.556	411.31
576.767	397.31
576.978	424.31
577.188	398.31
577.399	419.31
577.61	392.31
577.821	404.31
578.032	426.31
578.243	383.31
578.454	409.31
578.665	392.31
578.875	399.31
579.086	373.31
579.297	392.31
579.508	388.31
579.718	394.31
579.929	394.31
580.14	380.31
580.35	394.31
580.561	397.31
580.772	389.31
580.982	378.31
581.193	362.31
581.403	386.31
581.614	384.31
581.825	371.31
582.035	358.31
582.246	378.31
582.456	379.31
582.667	382.31
582.877	392.31
583.087	377.31
583.298	355.31
583.508	357.31
583.719	365.31
583.929	364.31
584.139	356.31
584.35	365.31
584.56	364.31
584.77	346.31
584.981	352.31
585.191	364.31
585.401	362.31
585.611	362.31
585.821	361.31
586.032	372.31
586.242	354.31
586.452	382.31
586.662	359.31
586.872	354.31
587.082	355.31
587.292	376.31
587.502	381.31
587.713	372.31
587.923	355.31
588.133	365.31
588.343	350.31
588.553	356.31
588.762	340.31
588.972	339.31
589.182	386.31
589.392	377.31
589.602	372.31
589.812	363.31
590.022	351.31
590.232	363.31
590.441	357.31
590.651	368.31
590.861	361.31
591.071	349.31
591.281	350.31
591.49	368.31
591.7	375.31
591.91	379.31
592.119	373.31
592.329	370.31
592.539	380.31
592.748	389.31
592.958	411.31
593.167	416.31
593.377	392.31
593.587	426.31
593.796	424.31
594.006	400.31
594.215	405.31
594.424	400.31
594.634	410.31
594.843	391.31
595.053	406.31
595.262	391.31
595.472	365.31
595.681	358.31
595.89	373.31
596.1	348.31
596.309	354.31
596.518	338.31
596.727	332.31
596.937	332.31
597.146	336.31
597.355	329.31
597.564	327.31
597.774	332.31
597.983	336.31
598.192	299.31
598.401	314.31
598.61	319.31
598.819	317.31
599.028	304.31
599.237	295.31
599.446	304.31
599.655	322.31
599.864	287.31
600.073	302.31
600.282	320.31
600.491	297.31
600.7	308.31
600.909	308.31
601.118	305.31
601.327	299.31
601.536	292.31
601.745	285.31
601.953	300.31
602.162	304.31
602.371	318.31
602.58	299.31
602.789	310.31
602.997	285.31
603.206	290.31
603.415	279.31
603.623	301.31
603.832	291.31
604.041	283.31
604.249	296.31
604.458	291.31
604.666	307.31
604.875	295.31
605.084	258.31
605.292	278.31
605.501	272.31
605.709	288.31
605.918	282.31
606.126	290.31
606.334	290.31
606.543	272.31
606.751	283.31
606.96	278.31
607.168	284.31
607.376	266.31
607.585	281.31
607.793	272.31
608.001	270.31
608.21	278.31
608.418	279.31
608.626	272.31
608.834	287.31
609.043	282.31
609.251	286.31
609.459	264.31
609.667	274.31
609.875	273.31
610.083	273.31
610.291	274.31
610.499	271.31
610.707	268.31
610.916	288.31
611.124	263.31
611.332	264.31
611.54	278.31
611.748	284.31
611.955	274.31
612.163	277.31
612.371	266.31
612.579	262.31
612.787	275.31
612.995	282.31
613.203	272.31
613.411	265.31
613.618	268.31
613.826	277.31
614.034	264.31
614.242	274.31
614.449	267.31
614.657	259.31
614.865	261.31
615.072	277.31
615.28	256.31
615.488	272.31
615.695	246.31
615.903	242.31
616.111	250.31
616.318	238.31
616.526	251.31
616.733	256.31
616.941	248.31
617.148	248.31
617.356	273.31
617.563	276.31
617.771	247.31
617.978	253.31
618.185	242.31
618.393	252.31
618.6	244.31
618.807	273.31
619.015	257.31
619.222	263.31
619.429	236.31
619.637	244.31
619.844	255.31
620.051	244.31
620.258	263.31
620.466	263.31
620.673	240.31
620.88	226.31
621.087	232.31
621.294	243.31
621.501	256.31
621.708	254.31
621.915	232.31
622.122	230.31
622.329	234.31
622.536	248.31
622.743	232.31
622.95	233.31
623.157	240.31
623.364	244.31
623.571	226.31
623.778	225.31
623.985	224.31
624.192	235.31
624.399	230.31
624.606	247.31
624.812	237.31
625.019	221.31
625.226	237.31
625.433	241.31
625.639	220.31
625.846	234.31
626.053	199.31
626.259	219.31
626.466	216.31
626.673	223.31
626.879	230.31
627.086	218.31
627.293	223.31
627.499	230.31
627.706	231.31
627.912	224.31
628.119	230.31
628.325	227.31
628.532	216.31
628.738	218.31
628.945	218.31
629.151	210.31
629.357	211.31
629.564	230.31
629.77	212.31
629.976	195.31
630.183	204.31
630.389	216.31
630.595	232.31
630.802	192.31
631.008	194.31
631.214	212.31
631.42	216.31
631.627	214.31
631.833	215.31
632.039	214.31
632.245	200.31
632.451	222.31
632.657	205.31
632.863	202.31
633.069	210.31
633.275	221.31
633.481	206.31
633.688	206.31
633.893	216.31
634.099	207.31
634.305	201.31
634.511	191.31
634.717	198.31
634.923	207.31
635.129	196.31
635.335	203.31
635.541	177.31
635.747	198.31
635.952	195.31
636.158	197.31
636.364	203.31
636.57	206.31
636.775	202.31
636.981	208.31
637.187	191.31
637.392	192.31
637.598	201.31
637.804	186.31
638.009	208.31
638.215	196.31
638.421	187.31
638.626	207.31
638.832	209.31
639.037	174.31
639.243	180.31
639.448	178.31
639.654	183.31
639.859	184.31
640.065	181.31
640.27	190.31
640.475	189.31
640.681	172.31
640.886	180.31
641.091	191.31
641.297	182.31
641.502	186.31
641.707	182.31
641.913	174.31
642.118	176.31
642.323	197.31
642.528	178.31
642.733	180.31
642.939	186.31
643.144	190.31
643.349	176.31
643.554	175.31
643.759	162.31
643.964	176.31
644.169	179.31
644.374	182.31
644.579	172.31
644.784	186.31
644.989	182.31
645.194	166.31
645.399	186.31
645.604	170.31
645.809	164.31
646.014	168.31
646.219	171.31
646.423	171.31
646.628	181.31
646.833	183.31
647.038	156.31
647.243	186.31
647.447	173.31
647.652	166.31
647.857	184.31
648.062	179.31
648.266	177.31
648.471	193.31
648.676	189.31
648.88	212.31
649.085	173.31
649.289	170.31
649.494	181.31
649.698	168.31
649.903	175.31
650.107	159.31
650.312	169.31
650.516	173.31
650.721	180.31
650.925	163.31
651.13	157.31
651.334	150.31
651.539	145.31
651.743	155.31
651.947	160.31
652.152	173.31
652.356	154.31
652.56	159.31
652.764	153.31
652.969	158.31
653.173	154.31
653.377	154.31
653.581	142.31
653.785	141.31
653.99	165.31
654.194	150.31
654.398	144.31
654.602	140.31
654.806	138.31
655.01	141.31
655.214	148.31
655.418	124.31
655.622	134.31
655.826	144.31
656.03	129.31
656.234	137.31
656.438	130.31
656.642	134.31
656.846	134.31
657.049	135.31
657.253	139.31
657.457	135.31
657.661	134.31
657.865	122.31
658.068	114.31
658.272	135.31
658.476	128.31
658.68	121.31
658.883	120.31
659.087	101.31
659.291	94.31
659.494	116.31
659.698	101.31
659.901	116.31
660.105	96.31
660.309	97.31
660.512	91.31
660.716	115.31
660.919	99.31
661.123	106.31
661.326	98.31
661.53	86.31
661.733	83.31
661.936	103.31
662.14	91.31
662.343	94.31
662.546	103.31
662.75	106.31
662.953	90.31
663.156	80.31
663.36	84.31
663.563	88.31
663.766	80.31
663.969	86.31
664.173	85.31
664.376	97.31
664.579	100.31
664.782	88.31
664.985	94.31
665.188	88.31
665.391	82.31
665.594	75.31
665.797	70.31
666	77.31
666.203	80.31
666.406	92.31
666.609	80.31
666.812	80.31
667.015	95.31
667.218	90.31
667.421	97.31
667.624	76.31
667.827	90.31
668.03	70.31
668.232	86.31
668.435	95.31
668.638	90.31
668.841	88.31
669.043	70.31
669.246	85.31
669.449	86.31
669.651	79.31
669.854	93.31
670.057	86.31
670.259	66.31
670.462	88.31
670.665	66.31
670.867	79.31
671.07	84.31
671.272	87.31
671.475	77.31
671.677	64.31
671.88	92.31
672.082	83.31
672.284	76.31
672.487	89.31
672.689	74.31
672.892	84.31
