Data from Ni(NO3)2Standard.Agarose3%.GreenCap.LampEnergy5.5.E.O_HRD10591_14-39-59-187.txt Node
Date: Mon Jul 22 14:39:59 EDT 2019
User: cochatt
Spectrometer: HR+D1059
Trigger mode: 1
Integration Time (sec): 1.000000E-1
Scans to average: 1
Electric dark correction enabled: true
Nonlinearity correction enabled: false
Boxcar width: 0
XAxis mode: Wavelengths
Number of Pixels in Spectrum: 2048
>>>>>Begin Spectral Data<<<<<
223.165	-21.75
223.4	-21.75
223.635	-21.75
223.869	-32.75
224.104	-15.75
224.338	-5.75
224.573	-23.75
224.808	-22.75
225.042	-15.75
225.277	4.25
225.511	-15.75
225.746	22.25
225.98	3.25
226.215	10.25
226.449	13.25
226.683	31.25
226.918	33.25
227.152	36.25
227.387	32.25
227.621	40.25
227.856	60.25
228.09	54.25
228.324	41.25
228.559	64.25
228.793	51.25
229.027	61.25
229.262	60.25
229.496	69.25
229.73	73.25
229.964	61.25
230.199	68.25
230.433	62.25
230.667	88.25
230.901	58.25
231.136	74.25
231.37	85.25
231.604	82.25
231.838	77.25
232.072	74.25
232.306	74.25
232.541	72.25
232.775	82.25
233.009	81.25
233.243	77.25
233.477	72.25
233.711	71.25
233.945	73.25
234.179	89.25
234.413	78.25
234.647	84.25
234.881	83.25
235.115	65.25
235.349	81.25
235.583	85.25
235.817	86.25
236.051	69.25
236.285	77.25
236.519	72.25
236.753	77.25
236.987	85.25
237.221	76.25
237.455	74.25
237.689	76.25
237.922	70.25
238.156	84.25
238.39	84.25
238.624	65.25
238.858	78.25
239.091	72.25
239.325	71.25
239.559	82.25
239.793	57.25
240.027	68.25
240.26	70.25
240.494	87.25
240.728	72.25
240.961	66.25
241.195	83.25
241.429	66.25
241.662	69.25
241.896	84.25
242.13	67.25
242.363	76.25
242.597	68.25
242.83	74.25
243.064	82.25
243.298	73.25
243.531	61.25
243.765	65.25
243.998	78.25
244.232	78.25
244.465	64.25
244.699	58.25
244.932	82.25
245.166	67.25
245.399	74.25
245.633	85.25
245.866	82.25
246.099	79.25
246.333	81.25
246.566	81.25
246.8	87.25
247.033	89.25
247.266	76.25
247.5	83.25
247.733	74.25
247.966	68.25
248.2	75.25
248.433	91.25
248.666	65.25
248.899	91.25
249.133	66.25
249.366	80.25
249.599	71.25
249.832	76.25
250.066	86.25
250.299	90.25
250.532	78.25
250.765	67.25
250.998	72.25
251.231	75.25
251.465	69.25
251.698	82.25
251.931	69.25
252.164	99.25
252.397	84.25
252.63	72.25
252.863	80.25
253.096	92.25
253.329	73.25
253.562	84.25
253.795	70.25
254.028	77.25
254.261	67.25
254.494	85.25
254.727	76.25
254.96	99.25
255.193	90.25
255.426	74.25
255.659	83.25
255.892	78.25
256.124	79.25
256.357	84.25
256.59	79.25
256.823	84.25
257.056	70.25
257.289	91.25
257.521	76.25
257.754	86.25
257.987	62.25
258.22	86.25
258.452	68.25
258.685	96.25
258.918	82.25
259.151	89.25
259.383	95.25
259.616	89.25
259.849	71.25
260.081	85.25
260.314	97.25
260.547	81.25
260.779	92.25
261.012	82.25
261.244	86.25
261.477	87.25
261.71	90.25
261.942	60.25
262.175	81.25
262.407	85.25
262.64	75.25
262.872	81.25
263.105	70.25
263.337	58.25
263.57	93.25
263.802	86.25
264.035	83.25
264.267	85.25
264.499	77.25
264.732	79.25
264.964	86.25
265.197	73.25
265.429	77.25
265.661	77.25
265.894	88.25
266.126	81.25
266.358	92.25
266.591	84.25
266.823	82.25
267.055	87.25
267.287	72.25
267.52	80.25
267.752	88.25
267.984	83.25
268.216	92.25
268.448	82.25
268.681	79.25
268.913	84.25
269.145	76.25
269.377	82.25
269.609	82.25
269.841	96.25
270.073	87.25
270.306	85.25
270.538	77.25
270.77	77.25
271.002	83.25
271.234	84.25
271.466	87.25
271.698	76.25
271.93	74.25
272.162	76.25
272.394	98.25
272.626	91.25
272.858	75.25
273.09	96.25
273.322	95.25
273.553	96.25
273.785	82.25
274.017	70.25
274.249	74.25
274.481	81.25
274.713	81.25
274.945	83.25
275.176	83.25
275.408	87.25
275.64	100.25
275.872	92.25
276.104	83.25
276.335	73.25
276.567	66.25
276.799	74.25
277.031	82.25
277.262	84.25
277.494	103.25
277.726	83.25
277.957	82.25
278.189	76.25
278.421	91.25
278.652	90.25
278.884	74.25
279.115	76.25
279.347	98.25
279.579	84.25
279.81	77.25
280.042	93.25
280.273	78.25
280.505	92.25
280.736	82.25
280.968	101.25
281.199	78.25
281.431	75.25
281.662	90.25
281.894	77.25
282.125	86.25
282.356	74.25
282.588	77.25
282.819	81.25
283.051	86.25
283.282	97.25
283.513	91.25
283.745	91.25
283.976	78.25
284.207	92.25
284.439	73.25
284.67	80.25
284.901	93.25
285.132	103.25
285.364	85.25
285.595	81.25
285.826	90.25
286.057	100.25
286.288	75.25
286.52	83.25
286.751	78.25
286.982	87.25
287.213	93.25
287.444	72.25
287.675	82.25
287.906	81.25
288.138	93.25
288.369	86.25
288.6	75.25
288.831	89.25
289.062	85.25
289.293	71.25
289.524	90.25
289.755	91.25
289.986	78.25
290.217	84.25
290.448	77.25
290.679	91.25
290.91	88.25
291.141	88.25
291.371	101.25
291.602	86.25
291.833	97.25
292.064	89.25
292.295	97.25
292.526	87.25
292.757	74.25
292.987	79.25
293.218	79.25
293.449	75.25
293.68	101.25
293.91	95.25
294.141	77.25
294.372	87.25
294.603	89.25
294.833	78.25
295.064	72.25
295.295	84.25
295.525	85.25
295.756	90.25
295.987	79.25
296.217	94.25
296.448	89.25
296.679	83.25
296.909	75.25
297.14	94.25
297.37	88.25
297.601	90.25
297.831	98.25
298.062	78.25
298.292	81.25
298.523	89.25
298.753	93.25
298.984	76.25
299.214	83.25
299.445	94.25
299.675	99.25
299.905	86.25
300.136	80.25
300.366	79.25
300.597	83.25
300.827	85.25
301.057	96.25
301.288	86.25
301.518	78.25
301.748	93.25
301.979	77.25
302.209	88.25
302.439	84.25
302.669	72.25
302.9	93.25
303.13	80.25
303.36	84.25
303.59	83.25
303.82	89.25
304.051	81.25
304.281	86.25
304.511	93.25
304.741	88.25
304.971	88.25
305.201	87.25
305.431	77.25
305.661	97.25
305.891	71.25
306.121	89.25
306.352	78.25
306.582	82.25
306.812	81.25
307.042	82.25
307.272	78.25
307.502	88.25
307.731	78.25
307.961	86.25
308.191	80.25
308.421	93.25
308.651	83.25
308.881	82.25
309.111	83.25
309.341	75.25
309.571	88.25
309.8	85.25
310.03	89.25
310.26	94.25
310.49	83.25
310.72	75.25
310.949	94.25
311.179	90.25
311.409	87.25
311.639	88.25
311.868	94.25
312.098	75.25
312.328	86.25
312.557	90.25
312.787	78.25
313.017	91.25
313.246	82.25
313.476	86.25
313.706	84.25
313.935	85.25
314.165	75.25
314.394	83.25
314.624	78.25
314.853	70.25
315.083	98.25
315.312	101.25
315.542	72.25
315.771	76.25
316.001	78.25
316.23	81.25
316.46	77.25
316.689	90.25
316.919	89.25
317.148	74.25
317.377	74.25
317.607	91.25
317.836	90.25
318.065	99.25
318.295	86.25
318.524	76.25
318.753	80.25
318.983	82.25
319.212	86.25
319.441	83.25
319.67	84.25
319.9	87.25
320.129	106.25
320.358	86.25
320.587	83.25
320.816	85.25
321.046	86.25
321.275	88.25
321.504	84.25
321.733	85.25
321.962	90.25
322.191	90.25
322.42	82.25
322.649	96.25
322.878	91.25
323.108	86.25
323.337	85.25
323.566	89.25
323.795	96.25
324.024	93.25
324.253	72.25
324.482	73.25
324.71	77.25
324.939	105.25
325.168	92.25
325.397	84.25
325.626	82.25
325.855	69.25
326.084	86.25
326.313	87.25
326.542	89.25
326.77	85.25
326.999	70.25
327.228	89.25
327.457	83.25
327.686	84.25
327.914	89.25
328.143	89.25
328.372	93.25
328.6	90.25
328.829	86.25
329.058	87.25
329.287	80.25
329.515	64.25
329.744	83.25
329.972	85.25
330.201	91.25
330.43	98.25
330.658	84.25
330.887	82.25
331.115	87.25
331.344	83.25
331.572	83.25
331.801	92.25
332.03	94.25
332.258	85.25
332.486	77.25
332.715	88.25
332.943	88.25
333.172	88.25
333.4	74.25
333.629	72.25
333.857	73.25
334.085	77.25
334.314	97.25
334.542	76.25
334.771	93.25
334.999	88.25
335.227	76.25
335.455	85.25
335.684	95.25
335.912	81.25
336.14	84.25
336.369	82.25
336.597	83.25
336.825	79.25
337.053	88.25
337.281	77.25
337.51	97.25
337.738	103.25
337.966	87.25
338.194	86.25
338.422	88.25
338.65	91.25
338.878	96.25
339.106	72.25
339.334	92.25
339.562	77.25
339.79	87.25
340.018	81.25
340.246	99.25
340.474	74.25
340.702	92.25
340.93	104.25
341.158	85.25
341.386	74.25
341.614	78.25
341.842	96.25
342.07	84.25
342.298	90.25
342.526	77.25
342.754	80.25
342.981	95.25
343.209	91.25
343.437	99.25
343.665	87.25
343.893	97.25
344.12	85.25
344.348	84.25
344.576	97.25
344.804	88.25
345.031	75.25
345.259	90.25
345.487	78.25
345.714	103.25
345.942	91.25
346.17	97.25
346.397	87.25
346.625	93.25
346.853	73.25
347.08	88.25
347.308	79.25
347.535	82.25
347.763	85.25
347.99	108.25
348.218	94.25
348.445	84.25
348.673	83.25
348.9	91.25
349.128	93.25
349.355	86.25
349.583	74.25
349.81	92.25
350.037	82.25
350.265	88.25
350.492	88.25
350.72	74.25
350.947	77.25
351.174	91.25
351.402	89.25
351.629	86.25
351.856	75.25
352.083	79.25
352.311	92.25
352.538	88.25
352.765	86.25
352.992	82.25
353.22	78.25
353.447	84.25
353.674	82.25
353.901	86.25
354.128	78.25
354.355	96.25
354.583	80.25
354.81	78.25
355.037	80.25
355.264	78.25
355.491	85.25
355.718	91.25
355.945	95.25
356.172	85.25
356.399	88.25
356.626	101.25
356.853	86.25
357.08	89.25
357.307	89.25
357.534	89.25
357.761	81.25
357.988	81.25
358.215	87.25
358.441	82.25
358.668	99.25
358.895	94.25
359.122	86.25
359.349	89.25
359.576	85.25
359.802	88.25
360.029	93.25
360.256	77.25
360.483	103.25
360.709	78.25
360.936	82.25
361.163	101.25
361.39	94.25
361.616	106.25
361.843	81.25
362.07	91.25
362.296	76.25
362.523	87.25
362.749	93.25
362.976	78.25
363.203	97.25
363.429	88.25
363.656	86.25
363.882	73.25
364.109	73.25
364.335	84.25
364.562	95.25
364.788	91.25
365.015	105.25
365.241	82.25
365.468	86.25
365.694	91.25
365.92	88.25
366.147	92.25
366.373	81.25
366.599	73.25
366.826	84.25
367.052	90.25
367.278	77.25
367.505	86.25
367.731	92.25
367.957	84.25
368.184	77.25
368.41	72.25
368.636	70.25
368.862	87.25
369.089	88.25
369.315	97.25
369.541	74.25
369.767	86.25
369.993	88.25
370.219	80.25
370.445	71.25
370.672	69.25
370.898	84.25
371.124	76.25
371.35	84.25
371.576	83.25
371.802	90.25
372.028	82.25
372.254	84.25
372.48	92.25
372.706	78.25
372.932	89.25
373.158	93.25
373.384	85.25
373.61	90.25
373.835	76.25
374.061	90.25
374.287	80.25
374.513	83.25
374.739	81.25
374.965	89.25
375.191	84.25
375.416	101.25
375.642	89.25
375.868	98.25
376.094	82.25
376.319	94.25
376.545	85.25
376.771	80.25
376.997	83.25
377.222	86.25
377.448	76.25
377.674	75.25
377.899	87.25
378.125	86.25
378.35	93.25
378.576	87.25
378.802	76.25
379.027	84.25
379.253	87.25
379.478	74.25
379.704	89.25
379.929	90.25
380.155	93.25
380.38	77.25
380.606	97.25
380.831	90.25
381.057	97.25
381.282	83.25
381.507	66.25
381.733	84.25
381.958	85.25
382.184	83.25
382.409	83.25
382.634	81.25
382.86	80.25
383.085	96.25
383.31	84.25
383.535	83.25
383.761	81.25
383.986	91.25
384.211	88.25
384.436	87.25
384.662	81.25
384.887	91.25
385.112	84.25
385.337	91.25
385.562	94.25
385.787	74.25
386.013	91.25
386.238	80.25
386.463	72.25
386.688	92.25
386.913	83.25
387.138	84.25
387.363	88.25
387.588	86.25
387.813	77.25
388.038	90.25
388.263	87.25
388.488	82.25
388.713	77.25
388.938	74.25
389.163	96.25
389.387	82.25
389.612	84.25
389.837	74.25
390.062	91.25
390.287	92.25
390.512	91.25
390.736	84.25
390.961	81.25
391.186	92.25
391.411	82.25
391.636	80.25
391.86	72.25
392.085	83.25
392.31	82.25
392.534	84.25
392.759	85.25
392.984	85.25
393.208	85.25
393.433	77.25
393.658	82.25
393.882	97.25
394.107	89.25
394.331	85.25
394.556	78.25
394.78	71.25
395.005	81.25
395.229	83.25
395.454	80.25
395.678	83.25
395.903	89.25
396.127	86.25
396.352	91.25
396.576	102.25
396.801	89.25
397.025	88.25
397.249	91.25
397.474	94.25
397.698	86.25
397.922	67.25
398.147	96.25
398.371	85.25
398.595	80.25
398.82	95.25
399.044	83.25
399.268	89.25
399.492	84.25
399.717	82.25
399.941	95.25
400.165	96.25
400.389	86.25
400.613	89.25
400.837	83.25
401.062	97.25
401.286	97.25
401.51	85.25
401.734	77.25
401.958	90.25
402.182	72.25
402.406	76.25
402.63	79.25
402.854	73.25
403.078	79.25
403.302	81.25
403.526	78.25
403.75	60.25
403.974	86.25
404.198	91.25
404.422	92.25
404.645	77.25
404.869	84.25
405.093	90.25
405.317	81.25
405.541	74.25
405.765	96.25
405.988	74.25
406.212	74.25
406.436	84.25
406.66	91.25
406.883	73.25
407.107	85.25
407.331	65.25
407.555	98.25
407.778	77.25
408.002	79.25
408.226	88.25
408.449	97.25
408.673	79.25
408.896	92.25
409.12	102.25
409.344	85.25
409.567	93.25
409.791	94.25
410.014	92.25
410.238	82.25
410.461	89.25
410.685	94.25
410.908	83.25
411.132	102.25
411.355	85.25
411.578	89.25
411.802	82.25
412.025	79.25
412.249	93.25
412.472	86.25
412.695	83.25
412.919	91.25
413.142	76.25
413.365	81.25
413.589	90.25
413.812	86.25
414.035	100.25
414.258	81.25
414.482	68.25
414.705	86.25
414.928	91.25
415.151	84.25
415.374	78.25
415.597	84.25
415.821	88.25
416.044	112.25
416.267	93.25
416.49	80.25
416.713	82.25
416.936	82.25
417.159	86.25
417.382	85.25
417.605	82.25
417.828	93.25
418.051	84.25
418.274	95.25
418.497	88.25
418.72	84.25
418.943	96.25
419.166	90.25
419.389	81.25
419.611	90.25
419.834	80.25
420.057	83.25
420.28	82.25
420.503	96.25
420.726	76.25
420.948	89.25
421.171	87.25
421.394	84.25
421.617	93.25
421.839	83.25
422.062	79.25
422.285	78.25
422.507	79.25
422.73	83.25
422.953	87.25
423.175	89.25
423.398	89.25
423.621	90.25
423.843	91.25
424.066	89.25
424.288	76.25
424.511	90.25
424.733	101.25
424.956	81.25
425.178	88.25
425.401	94.25
425.623	89.25
425.846	84.25
426.068	82.25
426.291	87.25
426.513	90.25
426.735	91.25
426.958	91.25
427.18	78.25
427.402	96.25
427.625	77.25
427.847	78.25
428.069	90.25
428.292	101.25
428.514	88.25
428.736	87.25
428.958	88.25
429.181	85.25
429.403	84.25
429.625	86.25
429.847	84.25
430.069	78.25
430.292	82.25
430.514	85.25
430.736	99.25
430.958	75.25
431.18	73.25
431.402	94.25
431.624	82.25
431.846	82.25
432.068	85.25
432.29	74.25
432.512	84.25
432.734	89.25
432.956	78.25
433.178	97.25
433.4	96.25
433.622	75.25
433.844	90.25
434.066	72.25
434.287	74.25
434.509	88.25
434.731	85.25
434.953	88.25
435.175	83.25
435.397	88.25
435.618	77.25
435.84	96.25
436.062	79.25
436.284	96.25
436.505	94.25
436.727	90.25
436.949	100.25
437.17	80.25
437.392	79.25
437.614	103.25
437.835	93.25
438.057	85.25
438.278	77.25
438.5	84.25
438.721	77.25
438.943	82.25
439.165	89.25
439.386	86.25
439.608	66.25
439.829	87.25
440.05	88.25
440.272	92.25
440.493	72.25
440.715	73.25
440.936	73.25
441.158	90.25
441.379	92.25
441.6	94.25
441.822	91.25
442.043	78.25
442.264	88.25
442.486	86.25
442.707	88.25
442.928	92.25
443.149	85.25
443.371	99.25
443.592	91.25
443.813	91.25
444.034	83.25
444.255	80.25
444.476	102.25
444.698	93.25
444.919	87.25
445.14	202.25
445.361	147.25
445.582	92.25
445.803	78.25
446.024	91.25
446.245	88.25
446.466	82.25
446.687	104.25
446.908	77.25
447.129	89.25
447.35	92.25
447.571	83.25
447.792	86.25
448.013	80.25
448.234	88.25
448.455	89.25
448.675	78.25
448.896	78.25
449.117	90.25
449.338	81.25
449.559	85.25
449.779	98.25
450	92.25
450.221	83.25
450.442	92.25
450.662	94.25
450.883	87.25
451.104	83.25
451.324	90.25
451.545	92.25
451.766	91.25
451.986	88.25
452.207	99.25
452.428	86.25
452.648	90.25
452.869	77.25
453.089	82.25
453.31	77.25
453.53	77.25
453.751	91.25
453.971	94.25
454.192	83.25
454.412	85.25
454.633	87.25
454.853	101.25
455.073	91.25
455.294	80.25
455.514	95.25
455.734	74.25
455.955	87.25
456.175	89.25
456.395	83.25
456.616	74.25
456.836	87.25
457.056	73.25
457.276	75.25
457.497	76.25
457.717	88.25
457.937	62.25
458.157	88.25
458.377	84.25
458.598	76.25
458.818	76.25
459.038	91.25
459.258	100.25
459.478	76.25
459.698	84.25
459.918	96.25
460.138	88.25
460.358	100.25
460.578	89.25
460.798	78.25
461.018	90.25
461.238	75.25
461.458	83.25
461.678	91.25
461.898	100.25
462.118	76.25
462.338	97.25
462.558	104.25
462.777	84.25
462.997	90.25
463.217	78.25
463.437	80.25
463.657	89.25
463.876	101.25
464.096	90.25
464.316	84.25
464.536	85.25
464.755	87.25
464.975	83.25
465.195	94.25
465.414	95.25
465.634	93.25
465.854	88.25
466.073	92.25
466.293	89.25
466.512	92.25
466.732	83.25
466.951	83.25
467.171	77.25
467.391	84.25
467.61	85.25
467.829	96.25
468.049	85.25
468.268	84.25
468.488	92.25
468.707	79.25
468.927	92.25
469.146	84.25
469.365	85.25
469.585	88.25
469.804	84.25
470.023	81.25
470.243	88.25
470.462	83.25
470.681	99.25
470.901	83.25
471.12	81.25
471.339	91.25
471.558	92.25
471.777	93.25
471.997	88.25
472.216	81.25
472.435	102.25
472.654	94.25
472.873	85.25
473.092	93.25
473.311	82.25
473.53	85.25
473.749	94.25
473.968	89.25
474.187	81.25
474.406	99.25
474.625	80.25
474.844	67.25
475.063	79.25
475.282	101.25
475.501	86.25
475.72	97.25
475.939	101.25
476.158	83.25
476.377	89.25
476.596	96.25
476.814	81.25
477.033	70.25
477.252	80.25
477.471	72.25
477.69	82.25
477.908	74.25
478.127	79.25
478.346	102.25
478.564	92.25
478.783	101.25
479.002	85.25
479.22	81.25
479.439	97.25
479.658	96.25
479.876	84.25
480.095	86.25
480.313	90.25
480.532	80.25
480.751	83.25
480.969	86.25
481.188	86.25
481.406	88.25
481.624	92.25
481.843	91.25
482.061	92.25
482.28	93.25
482.498	97.25
482.717	87.25
482.935	101.25
483.153	86.25
483.372	87.25
483.59	95.25
483.808	96.25
484.027	88.25
484.245	76.25
484.463	82.25
484.681	98.25
484.9	66.25
485.118	81.25
485.336	106.25
485.554	84.25
485.772	96.25
485.99	84.25
486.209	93.25
486.427	93.25
486.645	84.25
486.863	94.25
487.081	99.25
487.299	93.25
487.517	102.25
487.735	95.25
487.953	92.25
488.171	98.25
488.389	91.25
488.607	89.25
488.825	77.25
489.043	82.25
489.261	91.25
489.479	75.25
489.696	89.25
489.914	89.25
490.132	93.25
490.35	85.25
490.568	77.25
490.786	93.25
491.003	78.25
491.221	97.25
491.439	94.25
491.657	96.25
491.874	98.25
492.092	102.25
492.31	98.25
492.527	94.25
492.745	104.25
492.963	102.25
493.18	96.25
493.398	84.25
493.615	83.25
493.833	86.25
494.05	104.25
494.268	97.25
494.485	101.25
494.703	93.25
494.92	97.25
495.138	90.25
495.355	97.25
495.573	96.25
495.79	97.25
496.008	99.25
496.225	78.25
496.442	93.25
496.66	99.25
496.877	83.25
497.094	103.25
497.312	102.25
497.529	103.25
497.746	95.25
497.963	89.25
498.181	97.25
498.398	103.25
498.615	104.25
498.832	95.25
499.049	94.25
499.267	103.25
499.484	112.25
499.701	106.25
499.918	116.25
500.135	124.25
500.352	111.25
500.569	115.25
500.786	121.25
501.003	131.25
501.22	106.25
501.437	108.25
501.654	103.25
501.871	95.25
502.088	103.25
502.305	99.25
502.522	105.25
502.739	93.25
502.956	95.25
503.172	96.25
503.389	109.25
503.606	89.25
503.823	91.25
504.04	94.25
504.256	98.25
504.473	88.25
504.69	106.25
504.907	93.25
505.123	80.25
505.34	87.25
505.557	99.25
505.773	95.25
505.99	91.25
506.207	94.25
506.423	97.25
506.64	100.25
506.856	105.25
507.073	89.25
507.289	92.25
507.506	90.25
507.722	73.25
507.939	103.25
508.155	104.25
508.372	91.25
508.588	99.25
508.805	95.25
509.021	96.25
509.238	93.25
509.454	85.25
509.67	72.25
509.887	91.25
510.103	90.25
510.319	91.25
510.536	96.25
510.752	95.25
510.968	92.25
511.184	92.25
511.401	94.25
511.617	105.25
511.833	90.25
512.049	92.25
512.265	82.25
512.481	76.25
512.698	96.25
512.914	79.25
513.13	92.25
513.346	88.25
513.562	91.25
513.778	85.25
513.994	79.25
514.21	80.25
514.426	97.25
514.642	94.25
514.858	92.25
515.074	82.25
515.29	91.25
515.506	87.25
515.721	101.25
515.937	95.25
516.153	91.25
516.369	86.25
516.585	97.25
516.801	87.25
517.016	98.25
517.232	95.25
517.448	96.25
517.664	94.25
517.879	102.25
518.095	98.25
518.311	95.25
518.527	94.25
518.742	83.25
518.958	89.25
519.173	96.25
519.389	95.25
519.605	88.25
519.82	97.25
520.036	94.25
520.251	82.25
520.467	97.25
520.682	99.25
520.898	92.25
521.113	97.25
521.329	98.25
521.544	88.25
521.76	91.25
521.975	90.25
522.19	88.25
522.406	80.25
522.621	93.25
522.836	87.25
523.052	87.25
523.267	90.25
523.482	97.25
523.698	86.25
523.913	91.25
524.128	83.25
524.343	101.25
524.559	93.25
524.774	84.25
524.989	99.25
525.204	84.25
525.419	82.25
525.634	88.25
525.849	93.25
526.064	97.25
526.28	89.25
526.495	93.25
526.71	101.25
526.925	91.25
527.14	89.25
527.355	86.25
527.57	98.25
527.785	109.25
527.999	82.25
528.214	78.25
528.429	94.25
528.644	90.25
528.859	98.25
529.074	83.25
529.289	104.25
529.503	101.25
529.718	95.25
529.933	96.25
530.148	90.25
530.363	101.25
530.577	90.25
530.792	84.25
531.007	81.25
531.221	99.25
531.436	86.25
531.651	98.25
531.865	85.25
532.08	87.25
532.295	76.25
532.509	82.25
532.724	96.25
532.938	76.25
533.153	72.25
533.367	74.25
533.582	98.25
533.796	105.25
534.011	79.25
534.225	77.25
534.44	92.25
534.654	96.25
534.868	98.25
535.083	71.25
535.297	88.25
535.511	85.25
535.726	98.25
535.94	93.25
536.154	92.25
536.369	79.25
536.583	82.25
536.797	99.25
537.011	88.25
537.225	88.25
537.44	96.25
537.654	85.25
537.868	78.25
538.082	101.25
538.296	96.25
538.51	89.25
538.724	102.25
538.938	99.25
539.153	90.25
539.367	90.25
539.581	91.25
539.795	92.25
540.009	95.25
540.222	76.25
540.436	97.25
540.65	83.25
540.864	96.25
541.078	90.25
541.292	108.25
541.506	115.25
541.72	92.25
541.934	98.25
542.147	84.25
542.361	100.25
542.575	86.25
542.789	105.25
543.002	86.25
543.216	101.25
543.43	92.25
543.644	84.25
543.857	82.25
544.071	93.25
544.285	100.25
544.498	102.25
544.712	90.25
544.925	86.25
545.139	92.25
545.352	88.25
545.566	86.25
545.779	98.25
545.993	83.25
546.206	93.25
546.42	98.25
546.633	89.25
546.847	90.25
547.06	93.25
547.274	88.25
547.487	96.25
547.7	87.25
547.914	96.25
548.127	88.25
548.34	87.25
548.554	97.25
548.767	102.25
548.98	103.25
549.193	90.25
549.407	100.25
549.62	86.25
549.833	92.25
550.046	83.25
550.259	88.25
550.473	88.25
550.686	103.25
550.899	113.25
551.112	89.25
551.325	98.25
551.538	95.25
551.751	99.25
551.964	107.25
552.177	86.25
552.39	92.25
552.603	92.25
552.816	88.25
553.029	99.25
553.242	90.25
553.455	81.25
553.667	103.25
553.88	89.25
554.093	94.25
554.306	98.25
554.519	79.25
554.732	69.25
554.944	86.25
555.157	78.25
555.37	90.25
555.583	90.25
555.795	77.25
556.008	79.25
556.221	82.25
556.433	66.25
556.646	98.25
556.859	82.25
557.071	90.25
557.284	81.25
557.496	90.25
557.709	82.25
557.921	89.25
558.134	92.25
558.346	93.25
558.559	104.25
558.771	91.25
558.984	78.25
559.196	90.25
559.409	86.25
559.621	83.25
559.833	90.25
560.046	83.25
560.258	94.25
560.47	91.25
560.683	97.25
560.895	96.25
561.107	94.25
561.32	88.25
561.532	85.25
561.744	95.25
561.956	98.25
562.168	85.25
562.381	90.25
562.593	92.25
562.805	83.25
563.017	73.25
563.229	83.25
563.441	90.25
563.653	81.25
563.865	84.25
564.077	78.25
564.289	100.25
564.501	68.25
564.713	83.25
564.925	90.25
565.137	89.25
565.349	88.25
565.561	75.25
565.773	89.25
565.985	87.25
566.197	94.25
566.408	89.25
566.62	94.25
566.832	84.25
567.044	83.25
567.255	85.25
567.467	97.25
567.679	101.25
567.891	87.25
568.102	82.25
568.314	86.25
568.526	94.25
568.737	85.25
568.949	88.25
569.161	89.25
569.372	89.25
569.584	93.25
569.795	95.25
570.007	104.25
570.218	93.25
570.43	90.25
570.641	85.25
570.853	80.25
571.064	82.25
571.276	101.25
571.487	76.25
571.698	89.25
571.91	87.25
572.121	90.25
572.333	77.25
572.544	90.25
572.755	75.25
572.966	88.25
573.178	97.25
573.389	90.25
573.6	88.25
573.811	85.25
574.023	93.25
574.234	100.25
574.445	85.25
574.656	90.25
574.867	92.25
575.078	91.25
575.289	85.25
575.501	89.25
575.712	85.25
575.923	76.25
576.134	72.25
576.345	86.25
576.556	91.25
576.767	91.25
576.978	79.25
577.188	83.25
577.399	84.25
577.61	90.25
577.821	90.25
578.032	76.25
578.243	83.25
578.454	78.25
578.665	92.25
578.875	79.25
579.086	85.25
579.297	84.25
579.508	90.25
579.718	96.25
579.929	93.25
580.14	77.25
580.35	71.25
580.561	89.25
580.772	85.25
580.982	86.25
581.193	102.25
581.403	84.25
581.614	94.25
581.825	84.25
582.035	97.25
582.246	84.25
582.456	90.25
582.667	101.25
582.877	99.25
583.087	81.25
583.298	82.25
583.508	89.25
583.719	87.25
583.929	89.25
584.139	87.25
584.35	93.25
584.56	91.25
584.77	94.25
584.981	92.25
585.191	94.25
585.401	91.25
585.611	79.25
585.821	88.25
586.032	83.25
586.242	84.25
586.452	91.25
586.662	74.25
586.872	76.25
587.082	91.25
587.292	80.25
587.502	67.25
587.713	87.25
587.923	85.25
588.133	102.25
588.343	80.25
588.553	83.25
588.762	90.25
588.972	90.25
589.182	90.25
589.392	85.25
589.602	79.25
589.812	83.25
590.022	93.25
590.232	94.25
590.441	93.25
590.651	87.25
590.861	77.25
591.071	70.25
591.281	74.25
591.49	79.25
591.7	87.25
591.91	91.25
592.119	86.25
592.329	78.25
592.539	89.25
592.748	75.25
592.958	88.25
593.167	89.25
593.377	75.25
593.587	105.25
593.796	91.25
594.006	93.25
594.215	92.25
594.424	89.25
594.634	85.25
594.843	78.25
595.053	86.25
595.262	89.25
595.472	91.25
595.681	96.25
595.89	75.25
596.1	91.25
596.309	86.25
596.518	88.25
596.727	86.25
596.937	86.25
597.146	81.25
597.355	84.25
597.564	86.25
597.774	86.25
597.983	97.25
598.192	90.25
598.401	99.25
598.61	82.25
598.819	72.25
599.028	86.25
599.237	89.25
599.446	79.25
599.655	79.25
599.864	84.25
600.073	85.25
600.282	85.25
600.491	82.25
600.7	86.25
600.909	81.25
601.118	89.25
601.327	96.25
601.536	75.25
601.745	85.25
601.953	92.25
602.162	91.25
602.371	83.25
602.58	86.25
602.789	95.25
602.997	88.25
603.206	88.25
603.415	81.25
603.623	94.25
603.832	89.25
604.041	85.25
604.249	85.25
604.458	76.25
604.666	93.25
604.875	90.25
605.084	95.25
605.292	92.25
605.501	88.25
605.709	89.25
605.918	79.25
606.126	89.25
606.334	76.25
606.543	85.25
606.751	88.25
606.96	91.25
607.168	70.25
607.376	91.25
607.585	86.25
607.793	78.25
608.001	76.25
608.21	85.25
608.418	87.25
608.626	89.25
608.834	81.25
609.043	90.25
609.251	69.25
609.459	89.25
609.667	77.25
609.875	88.25
610.083	80.25
610.291	89.25
610.499	81.25
610.707	73.25
610.916	85.25
611.124	86.25
611.332	82.25
611.54	73.25
611.748	71.25
611.955	81.25
612.163	91.25
612.371	92.25
612.579	88.25
612.787	87.25
612.995	97.25
613.203	88.25
613.411	80.25
613.618	69.25
613.826	77.25
614.034	97.25
614.242	92.25
614.449	88.25
614.657	76.25
614.865	77.25
615.072	84.25
615.28	88.25
615.488	85.25
615.695	78.25
615.903	84.25
616.111	91.25
616.318	88.25
616.526	93.25
616.733	89.25
616.941	75.25
617.148	91.25
617.356	82.25
617.563	89.25
617.771	85.25
617.978	94.25
618.185	85.25
618.393	82.25
618.6	74.25
618.807	87.25
619.015	69.25
619.222	81.25
619.429	90.25
619.637	86.25
619.844	80.25
620.051	85.25
620.258	78.25
620.466	91.25
620.673	84.25
620.88	87.25
621.087	72.25
621.294	76.25
621.501	85.25
621.708	78.25
621.915	92.25
622.122	74.25
622.329	73.25
622.536	85.25
622.743	64.25
622.95	86.25
623.157	93.25
623.364	86.25
623.571	75.25
623.778	70.25
623.985	77.25
624.192	96.25
624.399	93.25
624.606	91.25
624.812	72.25
625.019	101.25
625.226	80.25
625.433	75.25
625.639	84.25
625.846	87.25
626.053	91.25
626.259	92.25
626.466	91.25
626.673	78.25
626.879	75.25
627.086	77.25
627.293	87.25
627.499	93.25
627.706	79.25
627.912	84.25
628.119	74.25
628.325	84.25
628.532	87.25
628.738	85.25
628.945	80.25
629.151	76.25
629.357	78.25
629.564	97.25
629.77	93.25
629.976	91.25
630.183	82.25
630.389	82.25
630.595	78.25
630.802	95.25
631.008	94.25
631.214	90.25
631.42	93.25
631.627	89.25
631.833	88.25
632.039	73.25
632.245	94.25
632.451	86.25
632.657	78.25
632.863	86.25
633.069	96.25
633.275	91.25
633.481	79.25
633.688	78.25
633.893	86.25
634.099	91.25
634.305	78.25
634.511	85.25
634.717	87.25
634.923	86.25
635.129	87.25
635.335	80.25
635.541	88.25
635.747	78.25
635.952	89.25
636.158	88.25
636.364	98.25
636.57	90.25
636.775	93.25
636.981	89.25
637.187	77.25
637.392	84.25
637.598	94.25
637.804	86.25
638.009	88.25
638.215	85.25
638.421	88.25
638.626	93.25
638.832	83.25
639.037	92.25
639.243	97.25
639.448	99.25
639.654	100.25
639.859	77.25
640.065	82.25
640.27	90.25
640.475	83.25
640.681	85.25
640.886	73.25
641.091	86.25
641.297	93.25
641.502	75.25
641.707	102.25
641.913	98.25
642.118	89.25
642.323	86.25
642.528	82.25
642.733	86.25
642.939	91.25
643.144	87.25
643.349	77.25
643.554	84.25
643.759	80.25
643.964	75.25
644.169	84.25
644.374	102.25
644.579	83.25
644.784	90.25
644.989	68.25
645.194	92.25
645.399	88.25
645.604	85.25
645.809	90.25
646.014	86.25
646.219	82.25
646.423	77.25
646.628	80.25
646.833	86.25
647.038	86.25
647.243	99.25
647.447	84.25
647.652	81.25
647.857	85.25
648.062	89.25
648.266	87.25
648.471	90.25
648.676	79.25
648.88	83.25
649.085	97.25
649.289	86.25
649.494	78.25
649.698	89.25
649.903	88.25
650.107	73.25
650.312	87.25
650.516	82.25
650.721	86.25
650.925	83.25
651.13	80.25
651.334	75.25
651.539	89.25
651.743	81.25
651.947	96.25
652.152	86.25
652.356	73.25
652.56	84.25
652.764	78.25
652.969	82.25
653.173	94.25
653.377	74.25
653.581	71.25
653.785	88.25
653.99	77.25
654.194	76.25
654.398	83.25
654.602	72.25
654.806	72.25
655.01	84.25
655.214	82.25
655.418	95.25
655.622	89.25
655.826	78.25
656.03	88.25
656.234	87.25
656.438	82.25
656.642	80.25
656.846	87.25
657.049	74.25
657.253	88.25
657.457	85.25
657.661	95.25
657.865	88.25
658.068	84.25
658.272	81.25
658.476	90.25
658.68	79.25
658.883	74.25
659.087	75.25
659.291	74.25
659.494	83.25
659.698	84.25
659.901	75.25
660.105	82.25
660.309	87.25
660.512	68.25
660.716	80.25
660.919	85.25
661.123	82.25
661.326	86.25
661.53	81.25
661.733	84.25
661.936	76.25
662.14	89.25
662.343	73.25
662.546	88.25
662.75	87.25
662.953	80.25
663.156	76.25
663.36	73.25
663.563	93.25
663.766	81.25
663.969	86.25
664.173	78.25
664.376	82.25
664.579	88.25
664.782	91.25
664.985	90.25
665.188	69.25
665.391	84.25
665.594	84.25
665.797	73.25
666	78.25
666.203	82.25
666.406	81.25
666.609	76.25
666.812	83.25
667.015	85.25
667.218	87.25
667.421	88.25
667.624	84.25
667.827	96.25
668.03	62.25
668.232	86.25
668.435	91.25
668.638	86.25
668.841	74.25
669.043	80.25
669.246	87.25
669.449	70.25
669.651	74.25
669.854	69.25
670.057	83.25
670.259	82.25
670.462	76.25
670.665	86.25
670.867	86.25
671.07	90.25
671.272	79.25
671.475	86.25
671.677	74.25
671.88	73.25
672.082	75.25
672.284	82.25
672.487	86.25
672.689	74.25
672.892	73.25
