Data from Ni(NO3)2Standard.Agarose3%.GreenCap.LampEnergy5.5.E.O_HRD10591_14-42-11-188.txt Node
Date: Mon Jul 22 14:42:11 EDT 2019
User: cochatt
Spectrometer: HR+D1059
Trigger mode: 1
Integration Time (sec): 1.000000E-1
Scans to average: 1
Electric dark correction enabled: true
Nonlinearity correction enabled: false
Boxcar width: 0
XAxis mode: Wavelengths
Number of Pixels in Spectrum: 2048
>>>>>Begin Spectral Data<<<<<
223.165	-10.69
223.4	-10.69
223.635	-10.69
223.869	-22.69
224.104	-19.69
224.338	-24.69
224.573	-10.69
224.808	-14.69
225.042	-13.69
225.277	-11.69
225.511	8.31
225.746	5.31
225.98	5.31
226.215	12.31
226.449	20.31
226.683	31.31
226.918	18.31
227.152	27.31
227.387	25.31
227.621	34.31
227.856	53.31
228.09	38.31
228.324	53.31
228.559	67.31
228.793	64.31
229.027	61.31
229.262	58.31
229.496	70.31
229.73	71.31
229.964	66.31
230.199	67.31
230.433	80.31
230.667	66.31
230.901	76.31
231.136	64.31
231.37	73.31
231.604	73.31
231.838	72.31
232.072	87.31
232.306	70.31
232.541	87.31
232.775	76.31
233.009	78.31
233.243	69.31
233.477	81.31
233.711	74.31
233.945	85.31
234.179	80.31
234.413	69.31
234.647	69.31
234.881	79.31
235.115	84.31
235.349	81.31
235.583	84.31
235.817	74.31
236.051	74.31
236.285	80.31
236.519	84.31
236.753	75.31
236.987	80.31
237.221	91.31
237.455	73.31
237.689	82.31
237.922	70.31
238.156	76.31
238.39	97.31
238.624	79.31
238.858	79.31
239.091	68.31
239.325	80.31
239.559	66.31
239.793	68.31
240.027	68.31
240.26	66.31
240.494	81.31
240.728	73.31
240.961	65.31
241.195	78.31
241.429	55.31
241.662	73.31
241.896	74.31
242.13	55.31
242.363	65.31
242.597	67.31
242.83	76.31
243.064	75.31
243.298	69.31
243.531	75.31
243.765	83.31
243.998	86.31
244.232	93.31
244.465	72.31
244.699	81.31
244.932	72.31
245.166	77.31
245.399	85.31
245.633	70.31
245.866	76.31
246.099	71.31
246.333	76.31
246.566	70.31
246.8	79.31
247.033	76.31
247.266	68.31
247.5	69.31
247.733	73.31
247.966	69.31
248.2	76.31
248.433	62.31
248.666	88.31
248.899	72.31
249.133	79.31
249.366	87.31
249.599	78.31
249.832	82.31
250.066	75.31
250.299	75.31
250.532	70.31
250.765	68.31
250.998	93.31
251.231	82.31
251.465	74.31
251.698	73.31
251.931	75.31
252.164	75.31
252.397	79.31
252.63	81.31
252.863	87.31
253.096	69.31
253.329	77.31
253.562	73.31
253.795	86.31
254.028	89.31
254.261	78.31
254.494	70.31
254.727	89.31
254.96	86.31
255.193	61.31
255.426	71.31
255.659	82.31
255.892	80.31
256.124	78.31
256.357	84.31
256.59	72.31
256.823	76.31
257.056	72.31
257.289	76.31
257.521	69.31
257.754	72.31
257.987	80.31
258.22	76.31
258.452	78.31
258.685	77.31
258.918	73.31
259.151	76.31
259.383	84.31
259.616	75.31
259.849	81.31
260.081	69.31
260.314	84.31
260.547	82.31
260.779	86.31
261.012	84.31
261.244	76.31
261.477	69.31
261.71	82.31
261.942	84.31
262.175	97.31
262.407	76.31
262.64	87.31
262.872	85.31
263.105	76.31
263.337	78.31
263.57	80.31
263.802	75.31
264.035	74.31
264.267	75.31
264.499	84.31
264.732	86.31
264.964	73.31
265.197	75.31
265.429	81.31
265.661	73.31
265.894	83.31
266.126	72.31
266.358	81.31
266.591	84.31
266.823	83.31
267.055	83.31
267.287	83.31
267.52	67.31
267.752	89.31
267.984	85.31
268.216	80.31
268.448	91.31
268.681	77.31
268.913	74.31
269.145	76.31
269.377	106.31
269.609	78.31
269.841	82.31
270.073	86.31
270.306	70.31
270.538	69.31
270.77	91.31
271.002	88.31
271.234	88.31
271.466	71.31
271.698	82.31
271.93	89.31
272.162	75.31
272.394	86.31
272.626	85.31
272.858	99.31
273.09	80.31
273.322	92.31
273.553	89.31
273.785	84.31
274.017	77.31
274.249	95.31
274.481	94.31
274.713	72.31
274.945	75.31
275.176	83.31
275.408	99.31
275.64	83.31
275.872	92.31
276.104	76.31
276.335	76.31
276.567	81.31
276.799	65.31
277.031	82.31
277.262	82.31
277.494	91.31
277.726	77.31
277.957	77.31
278.189	75.31
278.421	75.31
278.652	64.31
278.884	67.31
279.115	77.31
279.347	75.31
279.579	85.31
279.81	85.31
280.042	72.31
280.273	79.31
280.505	87.31
280.736	81.31
280.968	82.31
281.199	90.31
281.431	93.31
281.662	90.31
281.894	83.31
282.125	91.31
282.356	87.31
282.588	74.31
282.819	79.31
283.051	81.31
283.282	95.31
283.513	86.31
283.745	77.31
283.976	77.31
284.207	91.31
284.439	84.31
284.67	91.31
284.901	88.31
285.132	85.31
285.364	95.31
285.595	86.31
285.826	69.31
286.057	89.31
286.288	79.31
286.52	95.31
286.751	90.31
286.982	86.31
287.213	84.31
287.444	88.31
287.675	81.31
287.906	85.31
288.138	87.31
288.369	95.31
288.6	69.31
288.831	89.31
289.062	85.31
289.293	82.31
289.524	70.31
289.755	86.31
289.986	80.31
290.217	85.31
290.448	74.31
290.679	80.31
290.91	86.31
291.141	80.31
291.371	102.31
291.602	85.31
291.833	80.31
292.064	80.31
292.295	86.31
292.526	80.31
292.757	89.31
292.987	80.31
293.218	67.31
293.449	80.31
293.68	80.31
293.91	89.31
294.141	77.31
294.372	92.31
294.603	84.31
294.833	71.31
295.064	93.31
295.295	84.31
295.525	80.31
295.756	84.31
295.987	83.31
296.217	89.31
296.448	85.31
296.679	90.31
296.909	84.31
297.14	84.31
297.37	77.31
297.601	82.31
297.831	100.31
298.062	89.31
298.292	79.31
298.523	87.31
298.753	83.31
298.984	85.31
299.214	80.31
299.445	84.31
299.675	76.31
299.905	85.31
300.136	83.31
300.366	68.31
300.597	91.31
300.827	90.31
301.057	80.31
301.288	93.31
301.518	86.31
301.748	83.31
301.979	84.31
302.209	82.31
302.439	83.31
302.669	83.31
302.9	83.31
303.13	80.31
303.36	80.31
303.59	78.31
303.82	83.31
304.051	66.31
304.281	90.31
304.511	80.31
304.741	80.31
304.971	92.31
305.201	90.31
305.431	84.31
305.661	78.31
305.891	84.31
306.121	85.31
306.352	87.31
306.582	90.31
306.812	71.31
307.042	101.31
307.272	78.31
307.502	77.31
307.731	84.31
307.961	107.31
308.191	88.31
308.421	87.31
308.651	81.31
308.881	85.31
309.111	88.31
309.341	84.31
309.571	83.31
309.8	87.31
310.03	72.31
310.26	80.31
310.49	104.31
310.72	84.31
310.949	87.31
311.179	85.31
311.409	88.31
311.639	103.31
311.868	88.31
312.098	84.31
312.328	71.31
312.557	91.31
312.787	76.31
313.017	104.31
313.246	91.31
313.476	75.31
313.706	76.31
313.935	82.31
314.165	76.31
314.394	83.31
314.624	88.31
314.853	86.31
315.083	78.31
315.312	90.31
315.542	89.31
315.771	93.31
316.001	82.31
316.23	69.31
316.46	76.31
316.689	85.31
316.919	76.31
317.148	92.31
317.377	78.31
317.607	83.31
317.836	90.31
318.065	93.31
318.295	71.31
318.524	82.31
318.753	80.31
318.983	93.31
319.212	86.31
319.441	87.31
319.67	84.31
319.9	86.31
320.129	88.31
320.358	90.31
320.587	92.31
320.816	80.31
321.046	74.31
321.275	82.31
321.504	88.31
321.733	93.31
321.962	76.31
322.191	91.31
322.42	84.31
322.649	87.31
322.878	90.31
323.108	88.31
323.337	82.31
323.566	85.31
323.795	80.31
324.024	88.31
324.253	76.31
324.482	85.31
324.71	80.31
324.939	85.31
325.168	82.31
325.397	100.31
325.626	92.31
325.855	71.31
326.084	87.31
326.313	85.31
326.542	86.31
326.77	88.31
326.999	91.31
327.228	82.31
327.457	88.31
327.686	104.31
327.914	94.31
328.143	83.31
328.372	91.31
328.6	84.31
328.829	61.31
329.058	97.31
329.287	77.31
329.515	88.31
329.744	91.31
329.972	81.31
330.201	82.31
330.43	71.31
330.658	85.31
330.887	79.31
331.115	85.31
331.344	75.31
331.572	87.31
331.801	75.31
332.03	78.31
332.258	74.31
332.486	91.31
332.715	98.31
332.943	77.31
333.172	92.31
333.4	90.31
333.629	83.31
333.857	82.31
334.085	89.31
334.314	85.31
334.542	81.31
334.771	93.31
334.999	86.31
335.227	93.31
335.455	74.31
335.684	97.31
335.912	81.31
336.14	90.31
336.369	92.31
336.597	92.31
336.825	90.31
337.053	81.31
337.281	69.31
337.51	88.31
337.738	91.31
337.966	87.31
338.194	94.31
338.422	85.31
338.65	87.31
338.878	77.31
339.106	88.31
339.334	82.31
339.562	77.31
339.79	83.31
340.018	75.31
340.246	96.31
340.474	84.31
340.702	73.31
340.93	104.31
341.158	90.31
341.386	89.31
341.614	75.31
341.842	87.31
342.07	76.31
342.298	85.31
342.526	85.31
342.754	91.31
342.981	84.31
343.209	83.31
343.437	97.31
343.665	83.31
343.893	90.31
344.12	86.31
344.348	92.31
344.576	88.31
344.804	85.31
345.031	92.31
345.259	83.31
345.487	87.31
345.714	86.31
345.942	94.31
346.17	87.31
346.397	90.31
346.625	89.31
346.853	92.31
347.08	89.31
347.308	96.31
347.535	82.31
347.763	85.31
347.99	82.31
348.218	76.31
348.445	81.31
348.673	74.31
348.9	73.31
349.128	77.31
349.355	83.31
349.583	105.31
349.81	94.31
350.037	80.31
350.265	76.31
350.492	90.31
350.72	83.31
350.947	76.31
351.174	93.31
351.402	78.31
351.629	79.31
351.856	92.31
352.083	87.31
352.311	84.31
352.538	81.31
352.765	96.31
352.992	82.31
353.22	74.31
353.447	87.31
353.674	84.31
353.901	91.31
354.128	87.31
354.355	91.31
354.583	75.31
354.81	87.31
355.037	87.31
355.264	90.31
355.491	91.31
355.718	96.31
355.945	95.31
356.172	93.31
356.399	67.31
356.626	86.31
356.853	90.31
357.08	104.31
357.307	103.31
357.534	103.31
357.761	100.31
357.988	100.31
358.215	91.31
358.441	95.31
358.668	88.31
358.895	93.31
359.122	72.31
359.349	77.31
359.576	87.31
359.802	81.31
360.029	83.31
360.256	85.31
360.483	83.31
360.709	67.31
360.936	96.31
361.163	74.31
361.39	88.31
361.616	89.31
361.843	99.31
362.07	100.31
362.296	76.31
362.523	84.31
362.749	92.31
362.976	74.31
363.203	84.31
363.429	73.31
363.656	81.31
363.882	92.31
364.109	88.31
364.335	90.31
364.562	85.31
364.788	82.31
365.015	93.31
365.241	82.31
365.468	94.31
365.694	94.31
365.92	83.31
366.147	78.31
366.373	82.31
366.599	88.31
366.826	85.31
367.052	82.31
367.278	65.31
367.505	94.31
367.731	89.31
367.957	89.31
368.184	89.31
368.41	86.31
368.636	92.31
368.862	85.31
369.089	79.31
369.315	81.31
369.541	83.31
369.767	83.31
369.993	74.31
370.219	86.31
370.445	87.31
370.672	95.31
370.898	83.31
371.124	80.31
371.35	77.31
371.576	86.31
371.802	88.31
372.028	90.31
372.254	93.31
372.48	104.31
372.706	81.31
372.932	84.31
373.158	90.31
373.384	80.31
373.61	82.31
373.835	92.31
374.061	72.31
374.287	87.31
374.513	75.31
374.739	91.31
374.965	89.31
375.191	80.31
375.416	84.31
375.642	90.31
375.868	93.31
376.094	87.31
376.319	88.31
376.545	88.31
376.771	92.31
376.997	86.31
377.222	96.31
377.448	88.31
377.674	83.31
377.899	87.31
378.125	81.31
378.35	80.31
378.576	90.31
378.802	82.31
379.027	96.31
379.253	92.31
379.478	87.31
379.704	79.31
379.929	95.31
380.155	91.31
380.38	88.31
380.606	83.31
380.831	89.31
381.057	76.31
381.282	85.31
381.507	83.31
381.733	88.31
381.958	88.31
382.184	79.31
382.409	92.31
382.634	87.31
382.86	91.31
383.085	90.31
383.31	86.31
383.535	79.31
383.761	81.31
383.986	70.31
384.211	82.31
384.436	80.31
384.662	89.31
384.887	84.31
385.112	94.31
385.337	70.31
385.562	79.31
385.787	82.31
386.013	96.31
386.238	77.31
386.463	89.31
386.688	73.31
386.913	97.31
387.138	86.31
387.363	92.31
387.588	86.31
387.813	87.31
388.038	86.31
388.263	89.31
388.488	80.31
388.713	91.31
388.938	76.31
389.163	81.31
389.387	75.31
389.612	80.31
389.837	83.31
390.062	75.31
390.287	96.31
390.512	76.31
390.736	84.31
390.961	94.31
391.186	93.31
391.411	101.31
391.636	74.31
391.86	90.31
392.085	89.31
392.31	73.31
392.534	81.31
392.759	84.31
392.984	74.31
393.208	91.31
393.433	99.31
393.658	72.31
393.882	69.31
394.107	87.31
394.331	85.31
394.556	90.31
394.78	90.31
395.005	88.31
395.229	95.31
395.454	81.31
395.678	88.31
395.903	88.31
396.127	80.31
396.352	86.31
396.576	85.31
396.801	79.31
397.025	75.31
397.249	71.31
397.474	84.31
397.698	74.31
397.922	83.31
398.147	86.31
398.371	94.31
398.595	93.31
398.82	98.31
399.044	81.31
399.268	82.31
399.492	87.31
399.717	94.31
399.941	93.31
400.165	81.31
400.389	90.31
400.613	88.31
400.837	98.31
401.062	83.31
401.286	84.31
401.51	85.31
401.734	87.31
401.958	88.31
402.182	83.31
402.406	88.31
402.63	85.31
402.854	83.31
403.078	91.31
403.302	80.31
403.526	75.31
403.75	83.31
403.974	94.31
404.198	84.31
404.422	95.31
404.645	78.31
404.869	92.31
405.093	92.31
405.317	86.31
405.541	83.31
405.765	85.31
405.988	87.31
406.212	91.31
406.436	97.31
406.66	100.31
406.883	90.31
407.107	81.31
407.331	82.31
407.555	97.31
407.778	83.31
408.002	92.31
408.226	76.31
408.449	84.31
408.673	95.31
408.896	87.31
409.12	70.31
409.344	78.31
409.567	83.31
409.791	89.31
410.014	91.31
410.238	81.31
410.461	76.31
410.685	85.31
410.908	90.31
411.132	80.31
411.355	86.31
411.578	81.31
411.802	88.31
412.025	64.31
412.249	76.31
412.472	76.31
412.695	84.31
412.919	90.31
413.142	84.31
413.365	82.31
413.589	81.31
413.812	81.31
414.035	86.31
414.258	82.31
414.482	100.31
414.705	90.31
414.928	78.31
415.151	82.31
415.374	92.31
415.597	90.31
415.821	75.31
416.044	81.31
416.267	89.31
416.49	79.31
416.713	95.31
416.936	80.31
417.159	89.31
417.382	80.31
417.605	91.31
417.828	76.31
418.051	95.31
418.274	82.31
418.497	96.31
418.72	85.31
418.943	83.31
419.166	89.31
419.389	86.31
419.611	68.31
419.834	86.31
420.057	91.31
420.28	87.31
420.503	84.31
420.726	84.31
420.948	72.31
421.171	108.31
421.394	88.31
421.617	73.31
421.839	93.31
422.062	85.31
422.285	82.31
422.507	89.31
422.73	96.31
422.953	74.31
423.175	97.31
423.398	83.31
423.621	92.31
423.843	85.31
424.066	82.31
424.288	82.31
424.511	84.31
424.733	105.31
424.956	83.31
425.178	84.31
425.401	92.31
425.623	93.31
425.846	95.31
426.068	78.31
426.291	85.31
426.513	92.31
426.735	99.31
426.958	81.31
427.18	92.31
427.402	94.31
427.625	91.31
427.847	98.31
428.069	84.31
428.292	90.31
428.514	87.31
428.736	81.31
428.958	74.31
429.181	84.31
429.403	88.31
429.625	83.31
429.847	91.31
430.069	92.31
430.292	66.31
430.514	76.31
430.736	78.31
430.958	72.31
431.18	85.31
431.402	91.31
431.624	95.31
431.846	89.31
432.068	95.31
432.29	82.31
432.512	80.31
432.734	94.31
432.956	87.31
433.178	80.31
433.4	87.31
433.622	68.31
433.844	94.31
434.066	87.31
434.287	92.31
434.509	86.31
434.731	95.31
434.953	82.31
435.175	93.31
435.397	84.31
435.618	99.31
435.84	81.31
436.062	101.31
436.284	82.31
436.505	84.31
436.727	91.31
436.949	81.31
437.17	83.31
437.392	90.31
437.614	93.31
437.835	85.31
438.057	74.31
438.278	84.31
438.5	83.31
438.721	94.31
438.943	90.31
439.165	78.31
439.386	75.31
439.608	97.31
439.829	93.31
440.05	106.31
440.272	81.31
440.493	83.31
440.715	92.31
440.936	91.31
441.158	96.31
441.379	96.31
441.6	73.31
441.822	99.31
442.043	89.31
442.264	91.31
442.486	90.31
442.707	73.31
442.928	77.31
443.149	90.31
443.371	80.31
443.592	80.31
443.813	86.31
444.034	90.31
444.255	81.31
444.476	88.31
444.698	92.31
444.919	85.31
445.14	231.31
445.361	147.31
445.582	92.31
445.803	90.31
446.024	91.31
446.245	110.31
446.466	85.31
446.687	85.31
446.908	81.31
447.129	84.31
447.35	81.31
447.571	72.31
447.792	77.31
448.013	100.31
448.234	73.31
448.455	95.31
448.675	74.31
448.896	79.31
449.117	77.31
449.338	91.31
449.559	85.31
449.779	90.31
450	82.31
450.221	93.31
450.442	74.31
450.662	84.31
450.883	63.31
451.104	80.31
451.324	69.31
451.545	77.31
451.766	89.31
451.986	93.31
452.207	80.31
452.428	75.31
452.648	97.31
452.869	83.31
453.089	90.31
453.31	67.31
453.53	93.31
453.751	76.31
453.971	75.31
454.192	80.31
454.412	76.31
454.633	79.31
454.853	92.31
455.073	90.31
455.294	66.31
455.514	86.31
455.734	100.31
455.955	87.31
456.175	67.31
456.395	91.31
456.616	66.31
456.836	83.31
457.056	98.31
457.276	76.31
457.497	83.31
457.717	78.31
457.937	85.31
458.157	79.31
458.377	80.31
458.598	83.31
458.818	84.31
459.038	85.31
459.258	94.31
459.478	85.31
459.698	84.31
459.918	81.31
460.138	90.31
460.358	84.31
460.578	89.31
460.798	91.31
461.018	86.31
461.238	91.31
461.458	76.31
461.678	85.31
461.898	91.31
462.118	80.31
462.338	77.31
462.558	74.31
462.777	84.31
462.997	88.31
463.217	74.31
463.437	85.31
463.657	87.31
463.876	104.31
464.096	97.31
464.316	83.31
464.536	91.31
464.755	98.31
464.975	80.31
465.195	94.31
465.414	93.31
465.634	89.31
465.854	84.31
466.073	93.31
466.293	79.31
466.512	83.31
466.732	80.31
466.951	77.31
467.171	91.31
467.391	84.31
467.61	95.31
467.829	77.31
468.049	85.31
468.268	93.31
468.488	84.31
468.707	97.31
468.927	82.31
469.146	81.31
469.365	88.31
469.585	100.31
469.804	84.31
470.023	96.31
470.243	77.31
470.462	86.31
470.681	82.31
470.901	86.31
471.12	75.31
471.339	99.31
471.558	89.31
471.777	94.31
471.997	83.31
472.216	73.31
472.435	87.31
472.654	82.31
472.873	99.31
473.092	77.31
473.311	95.31
473.53	96.31
473.749	100.31
473.968	88.31
474.187	88.31
474.406	81.31
474.625	85.31
474.844	85.31
475.063	79.31
475.282	82.31
475.501	107.31
475.72	97.31
475.939	97.31
476.158	105.31
476.377	92.31
476.596	96.31
476.814	97.31
477.033	95.31
477.252	89.31
477.471	92.31
477.69	82.31
477.908	95.31
478.127	86.31
478.346	90.31
478.564	91.31
478.783	94.31
479.002	96.31
479.22	104.31
479.439	86.31
479.658	88.31
479.876	96.31
480.095	95.31
480.313	87.31
480.532	101.31
480.751	88.31
480.969	85.31
481.188	102.31
481.406	95.31
481.624	84.31
481.843	90.31
482.061	79.31
482.28	90.31
482.498	83.31
482.717	89.31
482.935	97.31
483.153	95.31
483.372	97.31
483.59	78.31
483.808	84.31
484.027	94.31
484.245	89.31
484.463	90.31
484.681	92.31
484.9	90.31
485.118	98.31
485.336	84.31
485.554	97.31
485.772	83.31
485.99	88.31
486.209	98.31
486.427	102.31
486.645	83.31
486.863	79.31
487.081	84.31
487.299	92.31
487.517	83.31
487.735	97.31
487.953	81.31
488.171	99.31
488.389	94.31
488.607	97.31
488.825	101.31
489.043	95.31
489.261	89.31
489.479	97.31
489.696	96.31
489.914	103.31
490.132	87.31
490.35	95.31
490.568	86.31
490.786	91.31
491.003	101.31
491.221	88.31
491.439	87.31
491.657	105.31
491.874	112.31
492.092	92.31
492.31	86.31
492.527	82.31
492.745	97.31
492.963	97.31
493.18	87.31
493.398	102.31
493.615	88.31
493.833	92.31
494.05	78.31
494.268	93.31
494.485	95.31
494.703	84.31
494.92	81.31
495.138	85.31
495.355	109.31
495.573	95.31
495.79	104.31
496.008	108.31
496.225	81.31
496.442	91.31
496.66	107.31
496.877	92.31
497.094	87.31
497.312	107.31
497.529	91.31
497.746	103.31
497.963	92.31
498.181	104.31
498.398	77.31
498.615	88.31
498.832	87.31
499.049	91.31
499.267	104.31
499.484	87.31
499.701	112.31
499.918	104.31
500.135	109.31
500.352	104.31
500.569	122.31
500.786	113.31
501.003	115.31
501.22	111.31
501.437	115.31
501.654	101.31
501.871	98.31
502.088	96.31
502.305	97.31
502.522	95.31
502.739	105.31
502.956	79.31
503.172	85.31
503.389	99.31
503.606	69.31
503.823	81.31
504.04	102.31
504.256	111.31
504.473	84.31
504.69	103.31
504.907	85.31
505.123	97.31
505.34	96.31
505.557	93.31
505.773	100.31
505.99	86.31
506.207	84.31
506.423	98.31
506.64	86.31
506.856	99.31
507.073	84.31
507.289	84.31
507.506	97.31
507.722	80.31
507.939	73.31
508.155	99.31
508.372	99.31
508.588	88.31
508.805	87.31
509.021	89.31
509.238	103.31
509.454	89.31
509.67	76.31
509.887	85.31
510.103	81.31
510.319	76.31
510.536	78.31
510.752	89.31
510.968	88.31
511.184	79.31
511.401	95.31
511.617	81.31
511.833	96.31
512.049	89.31
512.265	80.31
512.481	82.31
512.698	96.31
512.914	88.31
513.13	80.31
513.346	80.31
513.562	93.31
513.778	80.31
513.994	81.31
514.21	80.31
514.426	88.31
514.642	96.31
514.858	91.31
515.074	81.31
515.29	95.31
515.506	90.31
515.721	77.31
515.937	89.31
516.153	85.31
516.369	94.31
516.585	80.31
516.801	92.31
517.016	95.31
517.232	87.31
517.448	80.31
517.664	100.31
517.879	97.31
518.095	92.31
518.311	94.31
518.527	84.31
518.742	77.31
518.958	91.31
519.173	100.31
519.389	103.31
519.605	101.31
519.82	85.31
520.036	95.31
520.251	85.31
520.467	94.31
520.682	92.31
520.898	94.31
521.113	98.31
521.329	98.31
521.544	90.31
521.76	86.31
521.975	78.31
522.19	84.31
522.406	89.31
522.621	95.31
522.836	82.31
523.052	98.31
523.267	86.31
523.482	95.31
523.698	92.31
523.913	96.31
524.128	91.31
524.343	89.31
524.559	89.31
524.774	91.31
524.989	94.31
525.204	91.31
525.419	74.31
525.634	92.31
525.849	77.31
526.064	76.31
526.28	79.31
526.495	88.31
526.71	93.31
526.925	96.31
527.14	90.31
527.355	79.31
527.57	93.31
527.785	77.31
527.999	79.31
528.214	89.31
528.429	83.31
528.644	84.31
528.859	104.31
529.074	101.31
529.289	89.31
529.503	89.31
529.718	99.31
529.933	81.31
530.148	68.31
530.363	83.31
530.577	88.31
530.792	86.31
531.007	71.31
531.221	80.31
531.436	93.31
531.651	96.31
531.865	92.31
532.08	80.31
532.295	97.31
532.509	79.31
532.724	86.31
532.938	80.31
533.153	98.31
533.367	77.31
533.582	90.31
533.796	91.31
534.011	88.31
534.225	79.31
534.44	73.31
534.654	83.31
534.868	100.31
535.083	92.31
535.297	85.31
535.511	97.31
535.726	78.31
535.94	97.31
536.154	83.31
536.369	79.31
536.583	94.31
536.797	91.31
537.011	82.31
537.225	91.31
537.44	99.31
537.654	83.31
537.868	87.31
538.082	76.31
538.296	81.31
538.51	78.31
538.724	85.31
538.938	88.31
539.153	98.31
539.367	100.31
539.581	91.31
539.795	89.31
540.009	99.31
540.222	72.31
540.436	93.31
540.65	92.31
540.864	94.31
541.078	88.31
541.292	83.31
541.506	81.31
541.72	92.31
541.934	92.31
542.147	94.31
542.361	101.31
542.575	95.31
542.789	84.31
543.002	81.31
543.216	96.31
543.43	80.31
543.644	76.31
543.857	100.31
544.071	100.31
544.285	99.31
544.498	94.31
544.712	91.31
544.925	89.31
545.139	92.31
545.352	78.31
545.566	107.31
545.779	81.31
545.993	89.31
546.206	92.31
546.42	91.31
546.633	85.31
546.847	95.31
547.06	95.31
547.274	92.31
547.487	95.31
547.7	96.31
547.914	82.31
548.127	70.31
548.34	90.31
548.554	77.31
548.767	89.31
548.98	88.31
549.193	90.31
549.407	83.31
549.62	95.31
549.833	85.31
550.046	95.31
550.259	82.31
550.473	94.31
550.686	93.31
550.899	98.31
551.112	90.31
551.325	93.31
551.538	81.31
551.751	83.31
551.964	73.31
552.177	90.31
552.39	87.31
552.603	75.31
552.816	87.31
553.029	80.31
553.242	85.31
553.455	89.31
553.667	83.31
553.88	89.31
554.093	77.31
554.306	104.31
554.519	98.31
554.732	89.31
554.944	92.31
555.157	81.31
555.37	84.31
555.583	95.31
555.795	87.31
556.008	88.31
556.221	79.31
556.433	79.31
556.646	91.31
556.859	89.31
557.071	92.31
557.284	95.31
557.496	88.31
557.709	105.31
557.921	88.31
558.134	89.31
558.346	99.31
558.559	98.31
558.771	82.31
558.984	83.31
559.196	85.31
559.409	88.31
559.621	89.31
559.833	87.31
560.046	80.31
560.258	81.31
560.47	88.31
560.683	79.31
560.895	93.31
561.107	92.31
561.32	84.31
561.532	86.31
561.744	101.31
561.956	79.31
562.168	81.31
562.381	78.31
562.593	82.31
562.805	97.31
563.017	85.31
563.229	80.31
563.441	83.31
563.653	82.31
563.865	86.31
564.077	85.31
564.289	80.31
564.501	93.31
564.713	88.31
564.925	91.31
565.137	91.31
565.349	87.31
565.561	94.31
565.773	83.31
565.985	90.31
566.197	83.31
566.408	70.31
566.62	83.31
566.832	94.31
567.044	82.31
567.255	67.31
567.467	82.31
567.679	82.31
567.891	94.31
568.102	91.31
568.314	86.31
568.526	85.31
568.737	100.31
568.949	98.31
569.161	97.31
569.372	101.31
569.584	82.31
569.795	77.31
570.007	86.31
570.218	91.31
570.43	88.31
570.641	83.31
570.853	83.31
571.064	81.31
571.276	85.31
571.487	92.31
571.698	85.31
571.91	88.31
572.121	85.31
572.333	85.31
572.544	97.31
572.755	81.31
572.966	86.31
573.178	87.31
573.389	89.31
573.6	83.31
573.811	83.31
574.023	85.31
574.234	92.31
574.445	78.31
574.656	94.31
574.867	89.31
575.078	79.31
575.289	80.31
575.501	90.31
575.712	90.31
575.923	98.31
576.134	88.31
576.345	77.31
576.556	91.31
576.767	76.31
576.978	92.31
577.188	85.31
577.399	96.31
577.61	76.31
577.821	74.31
578.032	88.31
578.243	87.31
578.454	90.31
578.665	80.31
578.875	75.31
579.086	75.31
579.297	76.31
579.508	81.31
579.718	73.31
579.929	93.31
580.14	75.31
580.35	82.31
580.561	82.31
580.772	65.31
580.982	91.31
581.193	86.31
581.403	89.31
581.614	98.31
581.825	86.31
582.035	87.31
582.246	80.31
582.456	77.31
582.667	70.31
582.877	92.31
583.087	83.31
583.298	81.31
583.508	81.31
583.719	92.31
583.929	73.31
584.139	72.31
584.35	80.31
584.56	75.31
584.77	70.31
584.981	105.31
585.191	101.31
585.401	98.31
585.611	81.31
585.821	99.31
586.032	83.31
586.242	87.31
586.452	80.31
586.662	89.31
586.872	76.31
587.082	83.31
587.292	75.31
587.502	89.31
587.713	81.31
587.923	96.31
588.133	90.31
588.343	87.31
588.553	81.31
588.762	103.31
588.972	91.31
589.182	91.31
589.392	86.31
589.602	81.31
589.812	83.31
590.022	73.31
590.232	76.31
590.441	93.31
590.651	85.31
590.861	91.31
591.071	92.31
591.281	86.31
591.49	77.31
591.7	90.31
591.91	85.31
592.119	103.31
592.329	83.31
592.539	84.31
592.748	86.31
592.958	78.31
593.167	81.31
593.377	80.31
593.587	101.31
593.796	95.31
594.006	88.31
594.215	69.31
594.424	82.31
594.634	81.31
594.843	85.31
595.053	84.31
595.262	85.31
595.472	84.31
595.681	83.31
595.89	94.31
596.1	84.31
596.309	96.31
596.518	85.31
596.727	84.31
596.937	90.31
597.146	84.31
597.355	75.31
597.564	87.31
597.774	70.31
597.983	80.31
598.192	88.31
598.401	85.31
598.61	80.31
598.819	91.31
599.028	99.31
599.237	98.31
599.446	80.31
599.655	83.31
599.864	101.31
600.073	74.31
600.282	87.31
600.491	90.31
600.7	90.31
600.909	83.31
601.118	91.31
601.327	89.31
601.536	79.31
601.745	70.31
601.953	77.31
602.162	83.31
602.371	94.31
602.58	88.31
602.789	65.31
602.997	77.31
603.206	90.31
603.415	76.31
603.623	87.31
603.832	97.31
604.041	79.31
604.249	83.31
604.458	74.31
604.666	79.31
604.875	71.31
605.084	75.31
605.292	69.31
605.501	75.31
605.709	74.31
605.918	81.31
606.126	82.31
606.334	88.31
606.543	85.31
606.751	77.31
606.96	88.31
607.168	71.31
607.376	71.31
607.585	76.31
607.793	88.31
608.001	96.31
608.21	72.31
608.418	70.31
608.626	85.31
608.834	97.31
609.043	76.31
609.251	91.31
609.459	80.31
609.667	85.31
609.875	87.31
610.083	83.31
610.291	98.31
610.499	93.31
610.707	90.31
610.916	98.31
611.124	107.31
611.332	82.31
611.54	82.31
611.748	75.31
611.955	79.31
612.163	77.31
612.371	73.31
612.579	71.31
612.787	86.31
612.995	75.31
613.203	84.31
613.411	66.31
613.618	77.31
613.826	62.31
614.034	88.31
614.242	81.31
614.449	91.31
614.657	85.31
614.865	91.31
615.072	83.31
615.28	85.31
615.488	89.31
615.695	86.31
615.903	83.31
616.111	90.31
616.318	84.31
616.526	84.31
616.733	86.31
616.941	76.31
617.148	87.31
617.356	100.31
617.563	82.31
617.771	82.31
617.978	92.31
618.185	84.31
618.393	82.31
618.6	93.31
618.807	93.31
619.015	73.31
619.222	75.31
619.429	79.31
619.637	87.31
619.844	92.31
620.051	88.31
620.258	89.31
620.466	89.31
620.673	80.31
620.88	86.31
621.087	82.31
621.294	84.31
621.501	86.31
621.708	83.31
621.915	79.31
622.122	80.31
622.329	78.31
622.536	86.31
622.743	90.31
622.95	78.31
623.157	81.31
623.364	91.31
623.571	89.31
623.778	69.31
623.985	76.31
624.192	89.31
624.399	90.31
624.606	87.31
624.812	76.31
625.019	83.31
625.226	82.31
625.433	99.31
625.639	73.31
625.846	80.31
626.053	78.31
626.259	82.31
626.466	86.31
626.673	80.31
626.879	95.31
627.086	90.31
627.293	93.31
627.499	82.31
627.706	81.31
627.912	80.31
628.119	81.31
628.325	87.31
628.532	98.31
628.738	87.31
628.945	88.31
629.151	86.31
629.357	72.31
629.564	91.31
629.77	73.31
629.976	83.31
630.183	83.31
630.389	76.31
630.595	91.31
630.802	69.31
631.008	73.31
631.214	75.31
631.42	92.31
631.627	88.31
631.833	80.31
632.039	89.31
632.245	80.31
632.451	75.31
632.657	81.31
632.863	77.31
633.069	87.31
633.275	81.31
633.481	80.31
633.688	85.31
633.893	70.31
634.099	84.31
634.305	86.31
634.511	82.31
634.717	91.31
634.923	71.31
635.129	65.31
635.335	76.31
635.541	89.31
635.747	90.31
635.952	82.31
636.158	76.31
636.364	87.31
636.57	70.31
636.775	78.31
636.981	81.31
637.187	82.31
637.392	91.31
637.598	94.31
637.804	99.31
638.009	85.31
638.215	81.31
638.421	86.31
638.626	82.31
638.832	88.31
639.037	58.31
639.243	84.31
639.448	77.31
639.654	83.31
639.859	68.31
640.065	79.31
640.27	76.31
640.475	87.31
640.681	87.31
640.886	80.31
641.091	89.31
641.297	78.31
641.502	73.31
641.707	88.31
641.913	83.31
642.118	79.31
642.323	64.31
642.528	80.31
642.733	88.31
642.939	81.31
643.144	75.31
643.349	88.31
643.554	91.31
643.759	68.31
643.964	78.31
644.169	90.31
644.374	86.31
644.579	69.31
644.784	78.31
644.989	83.31
645.194	84.31
645.399	85.31
645.604	93.31
645.809	82.31
646.014	82.31
646.219	91.31
646.423	84.31
646.628	88.31
646.833	93.31
647.038	88.31
647.243	77.31
647.447	84.31
647.652	103.31
647.857	79.31
648.062	81.31
648.266	93.31
648.471	86.31
648.676	77.31
648.88	79.31
649.085	96.31
649.289	79.31
649.494	74.31
649.698	83.31
649.903	93.31
650.107	79.31
650.312	77.31
650.516	75.31
650.721	72.31
650.925	73.31
651.13	77.31
651.334	90.31
651.539	77.31
651.743	62.31
651.947	93.31
652.152	68.31
652.356	91.31
652.56	82.31
652.764	89.31
652.969	88.31
653.173	74.31
653.377	92.31
653.581	90.31
653.785	74.31
653.99	90.31
654.194	84.31
654.398	77.31
654.602	69.31
654.806	87.31
655.01	82.31
655.214	78.31
655.418	80.31
655.622	85.31
655.826	88.31
656.03	83.31
656.234	87.31
656.438	74.31
656.642	93.31
656.846	86.31
657.049	87.31
657.253	85.31
657.457	82.31
657.661	77.31
657.865	94.31
658.068	76.31
658.272	79.31
658.476	80.31
658.68	79.31
658.883	72.31
659.087	89.31
659.291	77.31
659.494	73.31
659.698	75.31
659.901	75.31
660.105	76.31
660.309	81.31
660.512	70.31
660.716	80.31
660.919	69.31
661.123	94.31
661.326	81.31
661.53	79.31
661.733	85.31
661.936	104.31
662.14	85.31
662.343	89.31
662.546	80.31
662.75	68.31
662.953	81.31
663.156	88.31
663.36	96.31
663.563	87.31
663.766	76.31
663.969	79.31
664.173	83.31
664.376	79.31
664.579	80.31
664.782	88.31
664.985	79.31
665.188	78.31
665.391	74.31
665.594	91.31
665.797	85.31
666	80.31
666.203	92.31
666.406	87.31
666.609	86.31
666.812	86.31
667.015	78.31
667.218	78.31
667.421	63.31
667.624	97.31
667.827	75.31
668.03	76.31
668.232	81.31
668.435	74.31
668.638	83.31
668.841	79.31
669.043	76.31
669.246	75.31
669.449	75.31
669.651	79.31
669.854	84.31
670.057	78.31
670.259	99.31
670.462	77.31
670.665	76.31
670.867	81.31
671.07	77.31
671.272	68.31
671.475	97.31
671.677	77.31
671.88	87.31
672.082	74.31
672.284	65.31
672.487	83.31
672.689	77.31
672.892	78.31
