Data from Ni(NO3)2@0.25M.TitratingCurve.Agarose3%dH2O.NegLispCup.LampEnergy10.LIBS07252019_HRD10591_18-02-52-566.txt Node
Date: Thu Jul 25 18:02:52 EDT 2019
User: cochatt
Spectrometer: HR+D1059
Trigger mode: 1
Integration Time (sec): 1.000000E-1
Scans to average: 1
Electric dark correction enabled: true
Nonlinearity correction enabled: false
Boxcar width: 0
XAxis mode: Wavelengths
Number of Pixels in Spectrum: 2048
>>>>>Begin Spectral Data<<<<<
223.165	-13.69
223.4	-13.69
223.635	-13.69
223.869	-16.69
224.104	-22.69
224.338	-20.69
224.573	-15.69
224.808	-8.69
225.042	-4.69
225.277	3.31
225.511	-4.69
225.746	5.31
225.98	13.31
226.215	13.31
226.449	23.31
226.683	20.31
226.918	8.31
227.152	20.31
227.387	38.31
227.621	44.31
227.856	49.31
228.09	56.31
228.324	56.31
228.559	46.31
228.793	67.31
229.027	104.31
229.262	102.31
229.496	98.31
229.73	125.31
229.964	122.31
230.199	131.31
230.433	152.31
230.667	139.31
230.901	146.31
231.136	124.31
231.37	123.31
231.604	125.31
231.838	145.31
232.072	147.31
232.306	141.31
232.541	111.31
232.775	135.31
233.009	131.31
233.243	149.31
233.477	151.31
233.711	133.31
233.945	149.31
234.179	131.31
234.413	138.31
234.647	132.31
234.881	142.31
235.115	147.31
235.349	130.31
235.583	139.31
235.817	120.31
236.051	137.31
236.285	132.31
236.519	148.31
236.753	129.31
236.987	137.31
237.221	137.31
237.455	143.31
237.689	147.31
237.922	146.31
238.156	134.31
238.39	135.31
238.624	140.31
238.858	156.31
239.091	144.31
239.325	149.31
239.559	162.31
239.793	164.31
240.027	157.31
240.26	156.31
240.494	158.31
240.728	147.31
240.961	165.31
241.195	165.31
241.429	164.31
241.662	160.31
241.896	179.31
242.13	180.31
242.363	181.31
242.597	150.31
242.83	157.31
243.064	158.31
243.298	161.31
243.531	169.31
243.765	184.31
243.998	167.31
244.232	183.31
244.465	173.31
244.699	166.31
244.932	180.31
245.166	183.31
245.399	179.31
245.633	181.31
245.866	180.31
246.099	186.31
246.333	192.31
246.566	201.31
246.8	209.31
247.033	211.31
247.266	209.31
247.5	211.31
247.733	215.31
247.966	223.31
248.2	217.31
248.433	242.31
248.666	232.31
248.899	235.31
249.133	257.31
249.366	255.31
249.599	256.31
249.832	254.31
250.066	274.31
250.299	269.31
250.532	264.31
250.765	283.31
250.998	289.31
251.231	305.31
251.465	316.31
251.698	324.31
251.931	317.31
252.164	311.31
252.397	307.31
252.63	330.31
252.863	343.31
253.096	341.31
253.329	320.31
253.562	343.31
253.795	355.31
254.028	347.31
254.261	350.31
254.494	357.31
254.727	392.31
254.96	373.31
255.193	377.31
255.426	387.31
255.659	384.31
255.892	401.31
256.124	407.31
256.357	411.31
256.59	413.31
256.823	409.31
257.056	411.31
257.289	428.31
257.521	428.31
257.754	409.31
257.987	440.31
258.22	435.31
258.452	445.31
258.685	452.31
258.918	455.31
259.151	477.31
259.383	469.31
259.616	434.31
259.849	462.31
260.081	468.31
260.314	460.31
260.547	480.31
260.779	496.31
261.012	461.31
261.244	485.31
261.477	478.31
261.71	496.31
261.942	497.31
262.175	493.31
262.407	495.31
262.64	511.31
262.872	511.31
263.105	517.31
263.337	504.31
263.57	505.31
263.802	523.31
264.035	537.31
264.267	524.31
264.499	549.31
264.732	527.31
264.964	528.31
265.197	523.31
265.429	532.31
265.661	540.31
265.894	539.31
266.126	553.31
266.358	555.31
266.591	538.31
266.823	567.31
267.055	543.31
267.287	546.31
267.52	561.31
267.752	532.31
267.984	550.31
268.216	557.31
268.448	571.31
268.681	559.31
268.913	556.31
269.145	579.31
269.377	549.31
269.609	569.31
269.841	579.31
270.073	561.31
270.306	549.31
270.538	584.31
270.77	565.31
271.002	583.31
271.234	569.31
271.466	583.31
271.698	587.31
271.93	579.31
272.162	581.31
272.394	572.31
272.626	595.31
272.858	575.31
273.09	612.31
273.322	594.31
273.553	607.31
273.785	620.31
274.017	598.31
274.249	588.31
274.481	612.31
274.713	563.31
274.945	596.31
275.176	599.31
275.408	612.31
275.64	604.31
275.872	629.31
276.104	610.31
276.335	608.31
276.567	613.31
276.799	610.31
277.031	611.31
277.262	600.31
277.494	601.31
277.726	577.31
277.957	599.31
278.189	615.31
278.421	599.31
278.652	609.31
278.884	591.31
279.115	589.31
279.347	603.31
279.579	632.31
279.81	604.31
280.042	597.31
280.273	619.31
280.505	608.31
280.736	597.31
280.968	604.31
281.199	614.31
281.431	628.31
281.662	620.31
281.894	600.31
282.125	608.31
282.356	614.31
282.588	607.31
282.819	621.31
283.051	614.31
283.282	604.31
283.513	624.31
283.745	639.31
283.976	620.31
284.207	625.31
284.439	620.31
284.67	623.31
284.901	623.31
285.132	627.31
285.364	612.31
285.595	638.31
285.826	634.31
286.057	626.31
286.288	613.31
286.52	651.31
286.751	625.31
286.982	632.31
287.213	651.31
287.444	633.31
287.675	639.31
287.906	649.31
288.138	637.31
288.369	636.31
288.6	625.31
288.831	637.31
289.062	625.31
289.293	642.31
289.524	632.31
289.755	615.31
289.986	618.31
290.217	605.31
290.448	651.31
290.679	650.31
290.91	629.31
291.141	647.31
291.371	629.31
291.602	625.31
291.833	640.31
292.064	613.31
292.295	626.31
292.526	631.31
292.757	628.31
292.987	613.31
293.218	620.31
293.449	636.31
293.68	639.31
293.91	634.31
294.141	616.31
294.372	627.31
294.603	612.31
294.833	631.31
295.064	645.31
295.295	635.31
295.525	634.31
295.756	631.31
295.987	642.31
296.217	652.31
296.448	626.31
296.679	639.31
296.909	647.31
297.14	644.31
297.37	634.31
297.601	633.31
297.831	627.31
298.062	659.31
298.292	662.31
298.523	673.31
298.753	648.31
298.984	642.31
299.214	651.31
299.445	634.31
299.675	663.31
299.905	645.31
300.136	661.31
300.366	680.31
300.597	677.31
300.827	675.31
301.057	651.31
301.288	679.31
301.518	688.31
301.748	670.31
301.979	693.31
302.209	712.31
302.439	699.31
302.669	697.31
302.9	694.31
303.13	679.31
303.36	687.31
303.59	698.31
303.82	727.31
304.051	677.31
304.281	714.31
304.511	709.31
304.741	713.31
304.971	716.31
305.201	722.31
305.431	718.31
305.661	737.31
305.891	722.31
306.121	687.31
306.352	699.31
306.582	729.31
306.812	709.31
307.042	735.31
307.272	713.31
307.502	745.31
307.731	744.31
307.961	729.31
308.191	764.31
308.421	732.31
308.651	746.31
308.881	737.31
309.111	755.31
309.341	754.31
309.571	751.31
309.8	760.31
310.03	735.31
310.26	761.31
310.49	777.31
310.72	776.31
310.949	771.31
311.179	780.31
311.409	793.31
311.639	799.31
311.868	817.31
312.098	804.31
312.328	845.31
312.557	816.31
312.787	841.31
313.017	851.31
313.246	834.31
313.476	860.31
313.706	871.31
313.935	824.31
314.165	889.31
314.394	897.31
314.624	887.31
314.853	875.31
315.083	883.31
315.312	885.31
315.542	906.31
315.771	913.31
316.001	931.31
316.23	931.31
316.46	921.31
316.689	937.31
316.919	944.31
317.148	922.31
317.377	970.31
317.607	969.31
317.836	997.31
318.065	977.31
318.295	973.31
318.524	1017.31
318.753	986.31
318.983	996.31
319.212	1000.31
319.441	1011.31
319.67	1060.31
319.9	1053.31
320.129	1035.31
320.358	1063.31
320.587	1061.31
320.816	1059.31
321.046	1056.31
321.275	1087.31
321.504	1130.31
321.733	1116.31
321.962	1112.31
322.191	1112.31
322.42	1123.31
322.649	1141.31
322.878	1118.31
323.108	1148.31
323.337	1162.31
323.566	1152.31
323.795	1164.31
324.024	1180.31
324.253	1204.31
324.482	1209.31
324.71	1213.31
324.939	1195.31
325.168	1220.31
325.397	1205.31
325.626	1226.31
325.855	1222.31
326.084	1250.31
326.313	1280.31
326.542	1249.31
326.77	1285.31
326.999	1268.31
327.228	1269.31
327.457	1283.31
327.686	1272.31
327.914	1313.31
328.143	1322.31
328.372	1340.31
328.6	1308.31
328.829	1298.31
329.058	1325.31
329.287	1352.31
329.515	1357.31
329.744	1376.31
329.972	1354.31
330.201	1388.31
330.43	1382.31
330.658	1381.31
330.887	1388.31
331.115	1377.31
331.344	1382.31
331.572	1410.31
331.801	1397.31
332.03	1427.31
332.258	1445.31
332.486	1444.31
332.715	1441.31
332.943	1463.31
333.172	1448.31
333.4	1462.31
333.629	1452.31
333.857	1461.31
334.085	1468.31
334.314	1462.31
334.542	1484.31
334.771	1486.31
334.999	1480.31
335.227	1471.31
335.455	1506.31
335.684	1493.31
335.912	1506.31
336.14	1506.31
336.369	1532.31
336.597	1520.31
336.825	1512.31
337.053	1563.31
337.281	1583.31
337.51	1512.31
337.738	1548.31
337.966	1488.31
338.194	1539.31
338.422	1499.31
338.65	1534.31
338.878	1507.31
339.106	1542.31
339.334	1565.31
339.562	1533.31
339.79	1484.31
340.018	1536.31
340.246	1517.31
340.474	1541.31
340.702	1520.31
340.93	1509.31
341.158	1521.31
341.386	1533.31
341.614	1553.31
341.842	1524.31
342.07	1511.31
342.298	1519.31
342.526	1569.31
342.754	1547.31
342.981	1524.31
343.209	1479.31
343.437	1561.31
343.665	1555.31
343.893	1565.31
344.12	1568.31
344.348	1544.31
344.576	1553.31
344.804	1541.31
345.031	1511.31
345.259	1523.31
345.487	1548.31
345.714	1527.31
345.942	1513.31
346.17	1524.31
346.397	1516.31
346.625	1521.31
346.853	1475.31
347.08	1488.31
347.308	1528.31
347.535	1538.31
347.763	1514.31
347.99	1464.31
348.218	1493.31
348.445	1495.31
348.673	1495.31
348.9	1498.31
349.128	1482.31
349.355	1512.31
349.583	1532.31
349.81	1505.31
350.037	1508.31
350.265	1488.31
350.492	1484.31
350.72	1509.31
350.947	1514.31
351.174	1474.31
351.402	1505.31
351.629	1510.31
351.856	1473.31
352.083	1471.31
352.311	1446.31
352.538	1487.31
352.765	1484.31
352.992	1464.31
353.22	1440.31
353.447	1474.31
353.674	1467.31
353.901	1462.31
354.128	1490.31
354.355	1450.31
354.583	1475.31
354.81	1478.31
355.037	1467.31
355.264	1483.31
355.491	1453.31
355.718	1479.31
355.945	1478.31
356.172	1452.31
356.399	1467.31
356.626	1500.31
356.853	1455.31
357.08	1432.31
357.307	1497.31
357.534	1457.31
357.761	1470.31
357.988	1496.31
358.215	1461.31
358.441	1462.31
358.668	1458.31
358.895	1450.31
359.122	1450.31
359.349	1443.31
359.576	1471.31
359.802	1462.31
360.029	1475.31
360.256	1476.31
360.483	1469.31
360.709	1462.31
360.936	1462.31
361.163	1464.31
361.39	1459.31
361.616	1474.31
361.843	1457.31
362.07	1448.31
362.296	1482.31
362.523	1459.31
362.749	1485.31
362.976	1447.31
363.203	1447.31
363.429	1467.31
363.656	1456.31
363.882	1442.31
364.109	1455.31
364.335	1448.31
364.562	1449.31
364.788	1457.31
365.015	1489.31
365.241	1440.31
365.468	1442.31
365.694	1481.31
365.92	1479.31
366.147	1404.31
366.373	1443.31
366.599	1489.31
366.826	1429.31
367.052	1412.31
367.278	1425.31
367.505	1470.31
367.731	1435.31
367.957	1456.31
368.184	1452.31
368.41	1388.31
368.636	1424.31
368.862	1457.31
369.089	1469.31
369.315	1491.31
369.541	1424.31
369.767	1458.31
369.993	1411.31
370.219	1432.31
370.445	1440.31
370.672	1420.31
370.898	1429.31
371.124	1468.31
371.35	1422.31
371.576	1429.31
371.802	1416.31
372.028	1430.31
372.254	1429.31
372.48	1409.31
372.706	1412.31
372.932	1436.31
373.158	1402.31
373.384	1412.31
373.61	1443.31
373.835	1443.31
374.061	1415.31
374.287	1421.31
374.513	1388.31
374.739	1415.31
374.965	1435.31
375.191	1407.31
375.416	1405.31
375.642	1360.31
375.868	1405.31
376.094	1403.31
376.319	1375.31
376.545	1393.31
376.771	1400.31
376.997	1378.31
377.222	1393.31
377.448	1355.31
377.674	1382.31
377.899	1374.31
378.125	1397.31
378.35	1347.31
378.576	1353.31
378.802	1330.31
379.027	1355.31
379.253	1342.31
379.478	1343.31
379.704	1339.31
379.929	1345.31
380.155	1327.31
380.38	1336.31
380.606	1365.31
380.831	1321.31
381.057	1304.31
381.282	1324.31
381.507	1327.31
381.733	1331.31
381.958	1328.31
382.184	1322.31
382.409	1347.31
382.634	1318.31
382.86	1330.31
383.085	1372.31
383.31	1339.31
383.535	1319.31
383.761	1327.31
383.986	1329.31
384.211	1357.31
384.436	1365.31
384.662	1343.31
384.887	1364.31
385.112	1334.31
385.337	1341.31
385.562	1380.31
385.787	1348.31
386.013	1371.31
386.238	1345.31
386.463	1396.31
386.688	1388.31
386.913	1337.31
387.138	1372.31
387.363	1380.31
387.588	1371.31
387.813	1384.31
388.038	1363.31
388.263	1368.31
388.488	1335.31
388.713	1383.31
388.938	1384.31
389.163	1361.31
389.387	1391.31
389.612	1369.31
389.837	1417.31
390.062	1411.31
390.287	1350.31
390.512	1375.31
390.736	1371.31
390.961	1371.31
391.186	1372.31
391.411	1396.31
391.636	1395.31
391.86	1386.31
392.085	1375.31
392.31	1408.31
392.534	1369.31
392.759	1371.31
392.984	1357.31
393.208	1374.31
393.433	1416.31
393.658	1411.31
393.882	1366.31
394.107	1390.31
394.331	1353.31
394.556	1346.31
394.78	1359.31
395.005	1367.31
395.229	1375.31
395.454	1400.31
395.678	1396.31
395.903	1414.31
396.127	1373.31
396.352	1389.31
396.576	1395.31
396.801	1365.31
397.025	1422.31
397.249	1413.31
397.474	1435.31
397.698	1424.31
397.922	1408.31
398.147	1415.31
398.371	1432.31
398.595	1421.31
398.82	1485.31
399.044	1456.31
399.268	1476.31
399.492	1523.31
399.717	1522.31
399.941	1513.31
400.165	1485.31
400.389	1508.31
400.613	1503.31
400.837	1507.31
401.062	1500.31
401.286	1507.31
401.51	1498.31
401.734	1500.31
401.958	1477.31
402.182	1444.31
402.406	1480.31
402.63	1471.31
402.854	1453.31
403.078	1460.31
403.302	1467.31
403.526	1473.31
403.75	1447.31
403.974	1476.31
404.198	1522.31
404.422	1506.31
404.645	1496.31
404.869	1463.31
405.093	1506.31
405.317	1530.31
405.541	1515.31
405.765	1540.31
405.988	1529.31
406.212	1519.31
406.436	1499.31
406.66	1541.31
406.883	1543.31
407.107	1514.31
407.331	1570.31
407.555	1592.31
407.778	1598.31
408.002	1585.31
408.226	1573.31
408.449	1594.31
408.673	1568.31
408.896	1549.31
409.12	1572.31
409.344	1587.31
409.567	1571.31
409.791	1570.31
410.014	1593.31
410.238	1555.31
410.461	1575.31
410.685	1574.31
410.908	1567.31
411.132	1551.31
411.355	1570.31
411.578	1552.31
411.802	1537.31
412.025	1527.31
412.249	1566.31
412.472	1508.31
412.695	1509.31
412.919	1515.31
413.142	1548.31
413.365	1546.31
413.589	1584.31
413.812	1506.31
414.035	1532.31
414.258	1544.31
414.482	1524.31
414.705	1515.31
414.928	1496.31
415.151	1550.31
415.374	1544.31
415.597	1539.31
415.821	1482.31
416.044	1500.31
416.267	1526.31
416.49	1533.31
416.713	1502.31
416.936	1536.31
417.159	1504.31
417.382	1483.31
417.605	1522.31
417.828	1502.31
418.051	1472.31
418.274	1503.31
418.497	1480.31
418.72	1487.31
418.943	1473.31
419.166	1562.31
419.389	1671.31
419.611	1662.31
419.834	1605.31
420.057	1573.31
420.28	1549.31
420.503	1508.31
420.726	1464.31
420.948	1483.31
421.171	1541.31
421.394	1513.31
421.617	1511.31
421.839	1548.31
422.062	1530.31
422.285	1520.31
422.507	1558.31
422.73	1519.31
422.953	1519.31
423.175	1522.31
423.398	1578.31
423.621	1525.31
423.843	1576.31
424.066	1561.31
424.288	1549.31
424.511	1573.31
424.733	1544.31
424.956	1559.31
425.178	1534.31
425.401	1527.31
425.623	1554.31
425.846	1529.31
426.068	1567.31
426.291	1538.31
426.513	1526.31
426.735	1571.31
426.958	1583.31
427.18	1529.31
427.402	1582.31
427.625	1543.31
427.847	1570.31
428.069	1541.31
428.292	1617.31
428.514	1562.31
428.736	1552.31
428.958	1581.31
429.181	1562.31
429.403	1588.31
429.625	1574.31
429.847	1562.31
430.069	1584.31
430.292	1579.31
430.514	1568.31
430.736	1583.31
430.958	1620.31
431.18	1580.31
431.402	1550.31
431.624	1537.31
431.846	1561.31
432.068	1519.31
432.29	1571.31
432.512	1575.31
432.734	1613.31
432.956	1574.31
433.178	1578.31
433.4	1579.31
433.622	1621.31
433.844	1650.31
434.066	1587.31
434.287	1593.31
434.509	1613.31
434.731	1578.31
434.953	1608.31
435.175	1580.31
435.397	1640.31
435.618	1604.31
435.84	1577.31
436.062	1569.31
436.284	1627.31
436.505	1583.31
436.727	1596.31
436.949	1589.31
437.17	1591.31
437.392	1604.31
437.614	1574.31
437.835	1520.31
438.057	1560.31
438.278	1550.31
438.5	1546.31
438.721	1561.31
438.943	1579.31
439.165	1574.31
439.386	1555.31
439.608	1601.31
439.829	1588.31
440.05	1567.31
440.272	1579.31
440.493	1594.31
440.715	1583.31
440.936	1575.31
441.158	1576.31
441.379	1609.31
441.6	1628.31
441.822	1617.31
442.043	1626.31
442.264	1585.31
442.486	1566.31
442.707	1625.31
442.928	1576.31
443.149	1624.31
443.371	1567.31
443.592	1645.31
443.813	1627.31
444.034	1584.31
444.255	1576.31
444.476	1645.31
444.698	1633.31
444.919	1662.31
445.14	1715.31
445.361	1646.31
445.582	1593.31
445.803	1560.31
446.024	1606.31
446.245	1596.31
446.466	1577.31
446.687	1522.31
446.908	1569.31
447.129	1535.31
447.35	1521.31
447.571	1523.31
447.792	1489.31
448.013	1510.31
448.234	1483.31
448.455	1499.31
448.675	1507.31
448.896	1499.31
449.117	1503.31
449.338	1481.31
449.559	1457.31
449.779	1461.31
450	1473.31
450.221	1455.31
450.442	1497.31
450.662	1467.31
450.883	1489.31
451.104	1497.31
451.324	1444.31
451.545	1489.31
451.766	1474.31
451.986	1448.31
452.207	1450.31
452.428	1470.31
452.648	1468.31
452.869	1410.31
453.089	1408.31
453.31	1451.31
453.53	1413.31
453.751	1427.31
453.971	1461.31
454.192	1462.31
454.412	1441.31
454.633	1417.31
454.853	1496.31
455.073	1435.31
455.294	1475.31
455.514	1429.31
455.734	1443.31
455.955	1466.31
456.175	1448.31
456.395	1449.31
456.616	1416.31
456.836	1417.31
457.056	1457.31
457.276	1439.31
457.497	1427.31
457.717	1413.31
457.937	1443.31
458.157	1474.31
458.377	1431.31
458.598	1404.31
458.818	1436.31
459.038	1434.31
459.258	1441.31
459.478	1488.31
459.698	1550.31
459.918	1550.31
460.138	1520.31
460.358	1527.31
460.578	1540.31
460.798	1567.31
461.018	1566.31
461.238	1578.31
461.458	1563.31
461.678	1517.31
461.898	1528.31
462.118	1526.31
462.338	1549.31
462.558	1580.31
462.777	1578.31
462.997	1611.31
463.217	1635.31
463.437	1664.31
463.657	1612.31
463.876	1619.31
464.096	1612.31
464.316	1620.31
464.536	1616.31
464.755	1624.31
464.975	1587.31
465.195	1583.31
465.414	1573.31
465.634	1529.31
465.854	1522.31
466.073	1545.31
466.293	1514.31
466.512	1515.31
466.732	1503.31
466.951	1512.31
467.171	1494.31
467.391	1552.31
467.61	1515.31
467.829	1493.31
468.049	1555.31
468.268	1546.31
468.488	1542.31
468.707	1539.31
468.927	1551.31
469.146	1539.31
469.365	1579.31
469.585	1536.31
469.804	1549.31
470.023	1540.31
470.243	1547.31
470.462	1554.31
470.681	1571.31
470.901	1560.31
471.12	1572.31
471.339	1580.31
471.558	1542.31
471.777	1612.31
471.997	1558.31
472.216	1619.31
472.435	1594.31
472.654	1545.31
472.873	1558.31
473.092	1584.31
473.311	1606.31
473.53	1608.31
473.749	1592.31
473.968	1634.31
474.187	1610.31
474.406	1596.31
474.625	1638.31
474.844	1652.31
475.063	1667.31
475.282	1713.31
475.501	1666.31
475.72	1704.31
475.939	1693.31
476.158	1700.31
476.377	1698.31
476.596	1724.31
476.814	1726.31
477.033	1731.31
477.252	1713.31
477.471	1720.31
477.69	1738.31
477.908	1766.31
478.127	1783.31
478.346	1813.31
478.564	1787.31
478.783	1786.31
479.002	1851.31
479.22	1857.31
479.439	1876.31
479.658	1904.31
479.876	1850.31
480.095	1887.31
480.313	1843.31
480.532	1902.31
480.751	1869.31
480.969	1809.31
481.188	1848.31
481.406	1855.31
481.624	1914.31
481.843	1909.31
482.061	1859.31
482.28	1898.31
482.498	1890.31
482.717	1909.31
482.935	1931.31
483.153	1921.31
483.372	2014.31
483.59	1999.31
483.808	1967.31
484.027	1976.31
484.245	1978.31
484.463	1957.31
484.681	2001.31
484.9	1974.31
485.118	2015.31
485.336	1955.31
485.554	1997.31
485.772	1971.31
485.99	1993.31
486.209	2010.31
486.427	1994.31
486.645	1967.31
486.863	1996.31
487.081	2026.31
487.299	2037.31
487.517	2016.31
487.735	2072.31
487.953	2048.31
488.171	2049.31
488.389	2023.31
488.607	2059.31
488.825	2005.31
489.043	2059.31
489.261	2039.31
489.479	2065.31
489.696	2011.31
489.914	2055.31
490.132	2023.31
490.35	2024.31
490.568	2049.31
490.786	2071.31
491.003	2065.31
491.221	2079.31
491.439	2080.31
491.657	2026.31
491.874	2067.31
492.092	2131.31
492.31	2145.31
492.527	2116.31
492.745	2076.31
492.963	2112.31
493.18	2082.31
493.398	2105.31
493.615	2065.31
493.833	2111.31
494.05	2083.31
494.268	2086.31
494.485	2092.31
494.703	2109.31
494.92	2133.31
495.138	2118.31
495.355	2138.31
495.573	2115.31
495.79	2123.31
496.008	2134.31
496.225	2146.31
496.442	2098.31
496.66	2152.31
496.877	2159.31
497.094	2179.31
497.312	2169.31
497.529	2166.31
497.746	2213.31
497.963	2194.31
498.181	2232.31
498.398	2235.31
498.615	2246.31
498.832	2235.31
499.049	2232.31
499.267	2296.31
499.484	2329.31
499.701	2377.31
499.918	2327.31
500.135	2364.31
500.352	2463.31
500.569	2405.31
500.786	2397.31
501.003	2410.31
501.22	2378.31
501.437	2388.31
501.654	2332.31
501.871	2297.31
502.088	2288.31
502.305	2207.31
502.522	2214.31
502.739	2215.31
502.956	2184.31
503.172	2195.31
503.389	2149.31
503.606	2127.31
503.823	2121.31
504.04	2092.31
504.256	2073.31
504.473	2074.31
504.69	2044.31
504.907	2074.31
505.123	2044.31
505.34	2028.31
505.557	1994.31
505.773	2004.31
505.99	1960.31
506.207	1973.31
506.423	1985.31
506.64	1948.31
506.856	1960.31
507.073	1975.31
507.289	1933.31
507.506	1931.31
507.722	1914.31
507.939	1919.31
508.155	1902.31
508.372	1904.31
508.588	1939.31
508.805	1862.31
509.021	1845.31
509.238	1881.31
509.454	1853.31
509.67	1807.31
509.887	1789.31
510.103	1812.31
510.319	1800.31
510.536	1810.31
510.752	1776.31
510.968	1796.31
511.184	1795.31
511.401	1798.31
511.617	1770.31
511.833	1763.31
512.049	1783.31
512.265	1815.31
512.481	1797.31
512.698	1809.31
512.914	1779.31
513.13	1785.31
513.346	1777.31
513.562	1784.31
513.778	1733.31
513.994	1751.31
514.21	1793.31
514.426	1744.31
514.642	1752.31
514.858	1772.31
515.074	1765.31
515.29	1772.31
515.506	1794.31
515.721	1781.31
515.937	1752.31
516.153	1772.31
516.369	1771.31
516.585	1748.31
516.801	1763.31
517.016	1800.31
517.232	1767.31
517.448	1749.31
517.664	1759.31
517.879	1757.31
518.095	1785.31
518.311	1752.31
518.527	1743.31
518.742	1775.31
518.958	1747.31
519.173	1747.31
519.389	1767.31
519.605	1711.31
519.82	1722.31
520.036	1726.31
520.251	1698.31
520.467	1699.31
520.682	1712.31
520.898	1670.31
521.113	1714.31
521.329	1683.31
521.544	1707.31
521.76	1683.31
521.975	1675.31
522.19	1682.31
522.406	1667.31
522.621	1665.31
522.836	1668.31
523.052	1639.31
523.267	1621.31
523.482	1617.31
523.698	1637.31
523.913	1641.31
524.128	1663.31
524.343	1653.31
524.559	1637.31
524.774	1655.31
524.989	1675.31
525.204	1636.31
525.419	1647.31
525.634	1636.31
525.849	1653.31
526.064	1604.31
526.28	1585.31
526.495	1564.31
526.71	1589.31
526.925	1612.31
527.14	1575.31
527.355	1526.31
527.57	1620.31
527.785	1607.31
527.999	1578.31
528.214	1595.31
528.429	1610.31
528.644	1600.31
528.859	1599.31
529.074	1593.31
529.289	1591.31
529.503	1589.31
529.718	1587.31
529.933	1587.31
530.148	1548.31
530.363	1558.31
530.577	1528.31
530.792	1533.31
531.007	1540.31
531.221	1565.31
531.436	1564.31
531.651	1540.31
531.865	1519.31
532.08	1505.31
532.295	1519.31
532.509	1526.31
532.724	1476.31
532.938	1503.31
533.153	1504.31
533.367	1554.31
533.582	1525.31
533.796	1503.31
534.011	1504.31
534.225	1506.31
534.44	1493.31
534.654	1498.31
534.868	1467.31
535.083	1472.31
535.297	1490.31
535.511	1516.31
535.726	1447.31
535.94	1476.31
536.154	1457.31
536.369	1466.31
536.583	1457.31
536.797	1407.31
537.011	1446.31
537.225	1481.31
537.44	1448.31
537.654	1427.31
537.868	1431.31
538.082	1396.31
538.296	1421.31
538.51	1396.31
538.724	1440.31
538.938	1451.31
539.153	1436.31
539.367	1433.31
539.581	1427.31
539.795	1404.31
540.009	1410.31
540.222	1391.31
540.436	1405.31
540.65	1388.31
540.864	1436.31
541.078	1397.31
541.292	1401.31
541.506	1401.31
541.72	1409.31
541.934	1433.31
542.147	1424.31
542.361	1363.31
542.575	1380.31
542.789	1394.31
543.002	1375.31
543.216	1379.31
543.43	1352.31
543.644	1380.31
543.857	1343.31
544.071	1338.31
544.285	1392.31
544.498	1361.31
544.712	1366.31
544.925	1416.31
545.139	1349.31
545.352	1378.31
545.566	1411.31
545.779	1351.31
545.993	1351.31
546.206	1364.31
546.42	1355.31
546.633	1348.31
546.847	1340.31
547.06	1317.31
547.274	1319.31
547.487	1339.31
547.7	1331.31
547.914	1345.31
548.127	1331.31
548.34	1347.31
548.554	1297.31
548.767	1311.31
548.98	1332.31
549.193	1322.31
549.407	1306.31
549.62	1299.31
549.833	1296.31
550.046	1306.31
550.259	1317.31
550.473	1281.31
550.686	1328.31
550.899	1304.31
551.112	1320.31
551.325	1264.31
551.538	1294.31
551.751	1244.31
551.964	1263.31
552.177	1243.31
552.39	1243.31
552.603	1252.31
552.816	1273.31
553.029	1279.31
553.242	1265.31
553.455	1260.31
553.667	1297.31
553.88	1231.31
554.093	1225.31
554.306	1265.31
554.519	1213.31
554.732	1236.31
554.944	1210.31
555.157	1196.31
555.37	1200.31
555.583	1174.31
555.795	1176.31
556.008	1189.31
556.221	1179.31
556.433	1201.31
556.646	1169.31
556.859	1194.31
557.071	1175.31
557.284	1166.31
557.496	1169.31
557.709	1177.31
557.921	1116.31
558.134	1147.31
558.346	1140.31
558.559	1161.31
558.771	1134.31
558.984	1142.31
559.196	1108.31
559.409	1145.31
559.621	1137.31
559.833	1121.31
560.046	1160.31
560.258	1134.31
560.47	1112.31
560.683	1111.31
560.895	1116.31
561.107	1122.31
561.32	1111.31
561.532	1088.31
561.744	1098.31
561.956	1083.31
562.168	1110.31
562.381	1119.31
562.593	1115.31
562.805	1124.31
563.017	1100.31
563.229	1101.31
563.441	1071.31
563.653	1087.31
563.865	1104.31
564.077	1107.31
564.289	1077.31
564.501	1086.31
564.713	1064.31
564.925	1100.31
565.137	1096.31
565.349	1069.31
565.561	1068.31
565.773	1086.31
565.985	1111.31
566.197	1067.31
566.408	1090.31
566.62	1097.31
566.832	1117.31
567.044	1093.31
567.255	1092.31
567.467	1098.31
567.679	1121.31
567.891	1082.31
568.102	1058.31
568.314	1048.31
568.526	1069.31
568.737	1035.31
568.949	1014.31
569.161	1028.31
569.372	1027.31
569.584	1015.31
569.795	994.31
570.007	976.31
570.218	999.31
570.43	975.31
570.641	977.31
570.853	973.31
571.064	959.31
571.276	969.31
571.487	934.31
571.698	944.31
571.91	947.31
572.121	935.31
572.333	955.31
572.544	918.31
572.755	903.31
572.966	925.31
573.178	911.31
573.389	906.31
573.6	894.31
573.811	876.31
574.023	885.31
574.234	879.31
574.445	863.31
574.656	863.31
574.867	865.31
575.078	862.31
575.289	858.31
575.501	857.31
575.712	848.31
575.923	831.31
576.134	825.31
576.345	816.31
576.556	843.31
576.767	816.31
576.978	801.31
577.188	822.31
577.399	822.31
577.61	803.31
577.821	792.31
578.032	811.31
578.243	791.31
578.454	803.31
578.665	815.31
578.875	781.31
579.086	780.31
579.297	790.31
579.508	797.31
579.718	776.31
579.929	815.31
580.14	758.31
580.35	777.31
580.561	772.31
580.772	776.31
580.982	767.31
581.193	752.31
581.403	791.31
581.614	716.31
581.825	728.31
582.035	743.31
582.246	770.31
582.456	755.31
582.667	742.31
582.877	740.31
583.087	726.31
583.298	717.31
583.508	723.31
583.719	742.31
583.929	726.31
584.139	720.31
584.35	706.31
584.56	700.31
584.77	708.31
584.981	741.31
585.191	699.31
585.401	689.31
585.611	707.31
585.821	706.31
586.032	723.31
586.242	697.31
586.452	703.31
586.662	689.31
586.872	688.31
587.082	672.31
587.292	669.31
587.502	682.31
587.713	695.31
587.923	679.31
588.133	691.31
588.343	683.31
588.553	682.31
588.762	674.31
588.972	674.31
589.182	697.31
589.392	680.31
589.602	676.31
589.812	714.31
590.022	673.31
590.232	639.31
590.441	691.31
590.651	676.31
590.861	669.31
591.071	649.31
591.281	641.31
591.49	665.31
591.7	646.31
591.91	658.31
592.119	670.31
592.329	635.31
592.539	652.31
592.748	665.31
592.958	642.31
593.167	644.31
593.377	640.31
593.587	667.31
593.796	636.31
594.006	647.31
594.215	626.31
594.424	648.31
594.634	658.31
594.843	625.31
595.053	608.31
595.262	620.31
595.472	607.31
595.681	606.31
595.89	626.31
596.1	594.31
596.309	599.31
596.518	594.31
596.727	607.31
596.937	617.31
597.146	607.31
597.355	602.31
597.564	599.31
597.774	614.31
597.983	604.31
598.192	588.31
598.401	592.31
598.61	591.31
598.819	590.31
599.028	567.31
599.237	567.31
599.446	577.31
599.655	552.31
599.864	548.31
600.073	565.31
600.282	567.31
600.491	570.31
600.7	541.31
600.909	537.31
601.118	530.31
601.327	542.31
601.536	529.31
601.745	557.31
601.953	545.31
602.162	556.31
602.371	539.31
602.58	539.31
602.789	536.31
602.997	552.31
603.206	538.31
603.415	552.31
603.623	524.31
603.832	551.31
604.041	530.31
604.249	513.31
604.458	538.31
604.666	515.31
604.875	534.31
605.084	516.31
605.292	521.31
605.501	528.31
605.709	520.31
605.918	517.31
606.126	519.31
606.334	502.31
606.543	513.31
606.751	515.31
606.96	524.31
607.168	525.31
607.376	501.31
607.585	492.31
607.793	505.31
608.001	513.31
608.21	494.31
608.418	519.31
608.626	502.31
608.834	468.31
609.043	492.31
609.251	493.31
609.459	524.31
609.667	500.31
609.875	478.31
610.083	492.31
610.291	500.31
610.499	483.31
610.707	491.31
610.916	489.31
611.124	486.31
611.332	483.31
611.54	482.31
611.748	465.31
611.955	490.31
612.163	469.31
612.371	471.31
612.579	464.31
612.787	499.31
612.995	479.31
613.203	486.31
613.411	473.31
613.618	474.31
613.826	465.31
614.034	473.31
614.242	482.31
614.449	462.31
614.657	482.31
614.865	460.31
615.072	466.31
615.28	454.31
615.488	458.31
615.695	456.31
615.903	459.31
616.111	447.31
616.318	465.31
616.526	474.31
616.733	473.31
616.941	449.31
617.148	465.31
617.356	434.31
617.563	456.31
617.771	423.31
617.978	443.31
618.185	434.31
618.393	438.31
618.6	418.31
618.807	425.31
619.015	448.31
619.222	464.31
619.429	440.31
619.637	433.31
619.844	414.31
620.051	414.31
620.258	428.31
620.466	430.31
620.673	415.31
620.88	418.31
621.087	421.31
621.294	414.31
621.501	424.31
621.708	431.31
621.915	415.31
622.122	411.31
622.329	431.31
622.536	438.31
622.743	403.31
622.95	405.31
623.157	412.31
623.364	413.31
623.571	415.31
623.778	429.31
623.985	413.31
624.192	397.31
624.399	404.31
624.606	383.31
624.812	401.31
625.019	403.31
625.226	379.31
625.433	389.31
625.639	397.31
625.846	374.31
626.053	383.31
626.259	391.31
626.466	383.31
626.673	401.31
626.879	378.31
627.086	365.31
627.293	396.31
627.499	378.31
627.706	394.31
627.912	404.31
628.119	395.31
628.325	379.31
628.532	370.31
628.738	372.31
628.945	384.31
629.151	379.31
629.357	371.31
629.564	355.31
629.77	376.31
629.976	375.31
630.183	359.31
630.389	373.31
630.595	368.31
630.802	343.31
631.008	354.31
631.214	352.31
631.42	367.31
631.627	330.31
631.833	363.31
632.039	352.31
632.245	346.31
632.451	346.31
632.657	346.31
632.863	341.31
633.069	351.31
633.275	337.31
633.481	351.31
633.688	346.31
633.893	345.31
634.099	343.31
634.305	332.31
634.511	343.31
634.717	340.31
634.923	333.31
635.129	331.31
635.335	327.31
635.541	335.31
635.747	343.31
635.952	339.31
636.158	320.31
636.364	322.31
636.57	334.31
636.775	333.31
636.981	325.31
637.187	332.31
637.392	337.31
637.598	316.31
637.804	316.31
638.009	340.31
638.215	328.31
638.421	336.31
638.626	337.31
638.832	299.31
639.037	311.31
639.243	326.31
639.448	329.31
639.654	327.31
639.859	300.31
640.065	318.31
640.27	309.31
640.475	313.31
640.681	296.31
640.886	337.31
641.091	319.31
641.297	337.31
641.502	310.31
641.707	296.31
641.913	318.31
642.118	323.31
642.323	323.31
642.528	306.31
642.733	307.31
642.939	295.31
643.144	313.31
643.349	323.31
643.554	320.31
643.759	301.31
643.964	297.31
644.169	294.31
644.374	275.31
644.579	301.31
644.784	284.31
644.989	304.31
645.194	290.31
645.399	324.31
645.604	295.31
645.809	314.31
646.014	293.31
646.219	323.31
646.423	304.31
646.628	309.31
646.833	317.31
647.038	283.31
647.243	306.31
647.447	283.31
647.652	304.31
647.857	316.31
648.062	290.31
648.266	300.31
648.471	305.31
648.676	287.31
648.88	312.31
649.085	299.31
649.289	295.31
649.494	298.31
649.698	294.31
649.903	310.31
650.107	296.31
650.312	291.31
650.516	288.31
650.721	288.31
650.925	281.31
651.13	276.31
651.334	274.31
651.539	266.31
651.743	278.31
651.947	298.31
652.152	275.31
652.356	264.31
652.56	284.31
652.764	285.31
652.969	277.31
653.173	242.31
653.377	257.31
653.581	241.31
653.785	257.31
653.99	257.31
654.194	253.31
654.398	264.31
654.602	245.31
654.806	242.31
655.01	252.31
655.214	228.31
655.418	244.31
655.622	251.31
655.826	230.31
656.03	241.31
656.234	239.31
656.438	235.31
656.642	227.31
656.846	232.31
657.049	221.31
657.253	218.31
657.457	211.31
657.661	211.31
657.865	184.31
658.068	172.31
658.272	176.31
658.476	176.31
658.68	148.31
658.883	170.31
659.087	148.31
659.291	154.31
659.494	140.31
659.698	151.31
659.901	131.31
660.105	133.31
660.309	124.31
660.512	120.31
660.716	108.31
660.919	118.31
661.123	127.31
661.326	103.31
661.53	115.31
661.733	113.31
661.936	112.31
662.14	104.31
662.343	83.31
662.546	100.31
662.75	106.31
662.953	89.31
663.156	89.31
663.36	93.31
663.563	92.31
663.766	88.31
663.969	102.31
664.173	92.31
664.376	91.31
664.579	84.31
664.782	87.31
664.985	88.31
665.188	84.31
665.391	77.31
665.594	87.31
665.797	81.31
666	71.31
666.203	105.31
666.406	93.31
666.609	91.31
666.812	75.31
667.015	72.31
667.218	81.31
667.421	70.31
667.624	78.31
667.827	94.31
668.03	84.31
668.232	78.31
668.435	80.31
668.638	71.31
668.841	67.31
669.043	66.31
669.246	74.31
669.449	90.31
669.651	78.31
669.854	82.31
670.057	85.31
670.259	77.31
670.462	98.31
670.665	85.31
670.867	79.31
671.07	72.31
671.272	99.31
671.475	77.31
671.677	78.31
671.88	82.31
672.082	74.31
672.284	71.31
672.487	81.31
672.689	70.31
672.892	80.31
