Data from Ni(NO3)2@0.0625M.TitratingCurve.Agarose3%dH2O.NegLispCup.LampEnergy10.LIBS07252019_HRD10591_18-13-12-570.txt Node
Date: Thu Jul 25 18:13:12 EDT 2019
User: cochatt
Spectrometer: HR+D1059
Trigger mode: 1
Integration Time (sec): 1.000000E-1
Scans to average: 1
Electric dark correction enabled: true
Nonlinearity correction enabled: false
Boxcar width: 0
XAxis mode: Wavelengths
Number of Pixels in Spectrum: 2048
>>>>>Begin Spectral Data<<<<<
223.165	-5.69
223.4	-5.69
223.635	-5.69
223.869	-15.69
224.104	-17.69
224.338	-28.69
224.573	-13.69
224.808	-6.69
225.042	-15.69
225.277	-5.69
225.511	-0.69
225.746	8.31
225.98	4.31
226.215	0.31
226.449	18.31
226.683	9.31
226.918	27.31
227.152	42.31
227.387	31.31
227.621	37.31
227.856	39.31
228.09	44.31
228.324	32.31
228.559	43.31
228.793	72.31
229.027	73.31
229.262	93.31
229.496	93.31
229.73	101.31
229.964	102.31
230.199	106.31
230.433	102.31
230.667	99.31
230.901	108.31
231.136	124.31
231.37	119.31
231.604	100.31
231.838	116.31
232.072	128.31
232.306	128.31
232.541	107.31
232.775	126.31
233.009	124.31
233.243	118.31
233.477	131.31
233.711	114.31
233.945	114.31
234.179	119.31
234.413	132.31
234.647	126.31
234.881	114.31
235.115	121.31
235.349	125.31
235.583	124.31
235.817	118.31
236.051	115.31
236.285	126.31
236.519	120.31
236.753	125.31
236.987	126.31
237.221	116.31
237.455	131.31
237.689	130.31
237.922	111.31
238.156	118.31
238.39	108.31
238.624	138.31
238.858	139.31
239.091	148.31
239.325	125.31
239.559	115.31
239.793	124.31
240.027	134.31
240.26	128.31
240.494	134.31
240.728	136.31
240.961	160.31
241.195	140.31
241.429	147.31
241.662	141.31
241.896	143.31
242.13	142.31
242.363	143.31
242.597	144.31
242.83	139.31
243.064	147.31
243.298	147.31
243.531	143.31
243.765	152.31
243.998	163.31
244.232	157.31
244.465	162.31
244.699	149.31
244.932	160.31
245.166	177.31
245.399	148.31
245.633	159.31
245.866	161.31
246.099	156.31
246.333	175.31
246.566	163.31
246.8	162.31
247.033	179.31
247.266	161.31
247.5	150.31
247.733	158.31
247.966	162.31
248.2	178.31
248.433	163.31
248.666	165.31
248.899	179.31
249.133	193.31
249.366	189.31
249.599	176.31
249.832	174.31
250.066	193.31
250.299	176.31
250.532	187.31
250.765	192.31
250.998	187.31
251.231	192.31
251.465	194.31
251.698	197.31
251.931	185.31
252.164	188.31
252.397	184.31
252.63	196.31
252.863	188.31
253.096	213.31
253.329	204.31
253.562	204.31
253.795	210.31
254.028	207.31
254.261	178.31
254.494	204.31
254.727	199.31
254.96	195.31
255.193	206.31
255.426	189.31
255.659	210.31
255.892	231.31
256.124	217.31
256.357	192.31
256.59	216.31
256.823	214.31
257.056	223.31
257.289	220.31
257.521	237.31
257.754	196.31
257.987	222.31
258.22	206.31
258.452	210.31
258.685	212.31
258.918	222.31
259.151	222.31
259.383	218.31
259.616	228.31
259.849	213.31
260.081	231.31
260.314	226.31
260.547	221.31
260.779	224.31
261.012	211.31
261.244	211.31
261.477	250.31
261.71	234.31
261.942	225.31
262.175	238.31
262.407	229.31
262.64	218.31
262.872	225.31
263.105	248.31
263.337	251.31
263.57	249.31
263.802	243.31
264.035	230.31
264.267	241.31
264.499	242.31
264.732	241.31
264.964	248.31
265.197	229.31
265.429	260.31
265.661	255.31
265.894	267.31
266.126	252.31
266.358	260.31
266.591	262.31
266.823	263.31
267.055	272.31
267.287	262.31
267.52	260.31
267.752	254.31
267.984	264.31
268.216	263.31
268.448	257.31
268.681	257.31
268.913	254.31
269.145	262.31
269.377	275.31
269.609	254.31
269.841	273.31
270.073	284.31
270.306	267.31
270.538	282.31
270.77	286.31
271.002	276.31
271.234	264.31
271.466	264.31
271.698	282.31
271.93	279.31
272.162	273.31
272.394	276.31
272.626	278.31
272.858	286.31
273.09	272.31
273.322	286.31
273.553	264.31
273.785	283.31
274.017	282.31
274.249	295.31
274.481	291.31
274.713	283.31
274.945	271.31
275.176	291.31
275.408	295.31
275.64	282.31
275.872	282.31
276.104	302.31
276.335	310.31
276.567	289.31
276.799	290.31
277.031	291.31
277.262	296.31
277.494	310.31
277.726	315.31
277.957	303.31
278.189	300.31
278.421	289.31
278.652	291.31
278.884	298.31
279.115	303.31
279.347	312.31
279.579	302.31
279.81	321.31
280.042	322.31
280.273	309.31
280.505	327.31
280.736	323.31
280.968	327.31
281.199	319.31
281.431	345.31
281.662	324.31
281.894	322.31
282.125	319.31
282.356	337.31
282.588	338.31
282.819	332.31
283.051	349.31
283.282	339.31
283.513	330.31
283.745	336.31
283.976	338.31
284.207	322.31
284.439	336.31
284.67	338.31
284.901	360.31
285.132	343.31
285.364	338.31
285.595	346.31
285.826	330.31
286.057	363.31
286.288	332.31
286.52	339.31
286.751	355.31
286.982	366.31
287.213	380.31
287.444	354.31
287.675	368.31
287.906	349.31
288.138	359.31
288.369	369.31
288.6	373.31
288.831	353.31
289.062	372.31
289.293	364.31
289.524	371.31
289.755	370.31
289.986	354.31
290.217	365.31
290.448	360.31
290.679	347.31
290.91	366.31
291.141	384.31
291.371	357.31
291.602	369.31
291.833	369.31
292.064	369.31
292.295	371.31
292.526	393.31
292.757	374.31
292.987	365.31
293.218	359.31
293.449	401.31
293.68	382.31
293.91	366.31
294.141	385.31
294.372	372.31
294.603	373.31
294.833	380.31
295.064	382.31
295.295	369.31
295.525	371.31
295.756	387.31
295.987	387.31
296.217	418.31
296.448	381.31
296.679	380.31
296.909	387.31
297.14	398.31
297.37	409.31
297.601	397.31
297.831	412.31
298.062	402.31
298.292	405.31
298.523	417.31
298.753	427.31
298.984	398.31
299.214	401.31
299.445	392.31
299.675	412.31
299.905	404.31
300.136	392.31
300.366	405.31
300.597	403.31
300.827	414.31
301.057	447.31
301.288	424.31
301.518	431.31
301.748	410.31
301.979	417.31
302.209	436.31
302.439	407.31
302.669	414.31
302.9	423.31
303.13	407.31
303.36	430.31
303.59	413.31
303.82	412.31
304.051	393.31
304.281	410.31
304.511	411.31
304.741	416.31
304.971	436.31
305.201	428.31
305.431	418.31
305.661	417.31
305.891	408.31
306.121	418.31
306.352	411.31
306.582	410.31
306.812	414.31
307.042	408.31
307.272	417.31
307.502	402.31
307.731	396.31
307.961	394.31
308.191	419.31
308.421	398.31
308.651	392.31
308.881	414.31
309.111	396.31
309.341	405.31
309.571	413.31
309.8	413.31
310.03	417.31
310.26	398.31
310.49	405.31
310.72	389.31
310.949	396.31
311.179	410.31
311.409	399.31
311.639	412.31
311.868	432.31
312.098	426.31
312.328	407.31
312.557	407.31
312.787	424.31
313.017	429.31
313.246	432.31
313.476	431.31
313.706	438.31
313.935	435.31
314.165	440.31
314.394	440.31
314.624	448.31
314.853	440.31
315.083	443.31
315.312	444.31
315.542	453.31
315.771	430.31
316.001	420.31
316.23	423.31
316.46	419.31
316.689	416.31
316.919	427.31
317.148	439.31
317.377	434.31
317.607	419.31
317.836	406.31
318.065	428.31
318.295	424.31
318.524	426.31
318.753	426.31
318.983	438.31
319.212	423.31
319.441	443.31
319.67	432.31
319.9	431.31
320.129	438.31
320.358	448.31
320.587	433.31
320.816	428.31
321.046	412.31
321.275	433.31
321.504	444.31
321.733	437.31
321.962	442.31
322.191	411.31
322.42	415.31
322.649	441.31
322.878	420.31
323.108	436.31
323.337	446.31
323.566	422.31
323.795	442.31
324.024	467.31
324.253	450.31
324.482	438.31
324.71	433.31
324.939	434.31
325.168	457.31
325.397	439.31
325.626	451.31
325.855	457.31
326.084	461.31
326.313	474.31
326.542	485.31
326.77	483.31
326.999	490.31
327.228	455.31
327.457	467.31
327.686	445.31
327.914	479.31
328.143	445.31
328.372	466.31
328.6	458.31
328.829	485.31
329.058	480.31
329.287	485.31
329.515	487.31
329.744	453.31
329.972	486.31
330.201	471.31
330.43	474.31
330.658	490.31
330.887	500.31
331.115	483.31
331.344	490.31
331.572	502.31
331.801	517.31
332.03	527.31
332.258	535.31
332.486	559.31
332.715	572.31
332.943	573.31
333.172	614.31
333.4	642.31
333.629	656.31
333.857	678.31
334.085	641.31
334.314	612.31
334.542	630.31
334.771	583.31
334.999	592.31
335.227	592.31
335.455	589.31
335.684	596.31
335.912	590.31
336.14	572.31
336.369	552.31
336.597	592.31
336.825	592.31
337.053	574.31
337.281	551.31
337.51	543.31
337.738	534.31
337.966	540.31
338.194	532.31
338.422	523.31
338.65	518.31
338.878	507.31
339.106	526.31
339.334	512.31
339.562	501.31
339.79	495.31
340.018	478.31
340.246	483.31
340.474	495.31
340.702	506.31
340.93	480.31
341.158	490.31
341.386	512.31
341.614	501.31
341.842	492.31
342.07	492.31
342.298	476.31
342.526	494.31
342.754	479.31
342.981	504.31
343.209	472.31
343.437	520.31
343.665	571.31
343.893	598.31
344.12	632.31
344.348	621.31
344.576	569.31
344.804	549.31
345.031	517.31
345.259	531.31
345.487	483.31
345.714	509.31
345.942	502.31
346.17	499.31
346.397	500.31
346.625	492.31
346.853	481.31
347.08	490.31
347.308	493.31
347.535	511.31
347.763	522.31
347.99	503.31
348.218	513.31
348.445	506.31
348.673	499.31
348.9	491.31
349.128	479.31
349.355	480.31
349.583	485.31
349.81	467.31
350.037	469.31
350.265	502.31
350.492	475.31
350.72	450.31
350.947	476.31
351.174	471.31
351.402	461.31
351.629	454.31
351.856	454.31
352.083	479.31
352.311	446.31
352.538	457.31
352.765	469.31
352.992	468.31
353.22	449.31
353.447	464.31
353.674	490.31
353.901	475.31
354.128	467.31
354.355	471.31
354.583	456.31
354.81	467.31
355.037	463.31
355.264	456.31
355.491	442.31
355.718	475.31
355.945	462.31
356.172	488.31
356.399	486.31
356.626	457.31
356.853	464.31
357.08	462.31
357.307	477.31
357.534	459.31
357.761	461.31
357.988	485.31
358.215	483.31
358.441	487.31
358.668	476.31
358.895	462.31
359.122	457.31
359.349	485.31
359.576	461.31
359.802	478.31
360.029	455.31
360.256	481.31
360.483	480.31
360.709	455.31
360.936	475.31
361.163	471.31
361.39	486.31
361.616	493.31
361.843	486.31
362.07	462.31
362.296	467.31
362.523	458.31
362.749	455.31
362.976	478.31
363.203	476.31
363.429	466.31
363.656	466.31
363.882	460.31
364.109	484.31
364.335	454.31
364.562	446.31
364.788	477.31
365.015	483.31
365.241	463.31
365.468	460.31
365.694	477.31
365.92	460.31
366.147	464.31
366.373	471.31
366.599	450.31
366.826	444.31
367.052	466.31
367.278	460.31
367.505	461.31
367.731	477.31
367.957	457.31
368.184	463.31
368.41	469.31
368.636	490.31
368.862	478.31
369.089	478.31
369.315	464.31
369.541	481.31
369.767	487.31
369.993	492.31
370.219	480.31
370.445	498.31
370.672	504.31
370.898	495.31
371.124	517.31
371.35	512.31
371.576	490.31
371.802	508.31
372.028	514.31
372.254	521.31
372.48	499.31
372.706	513.31
372.932	548.31
373.158	542.31
373.384	509.31
373.61	510.31
373.835	503.31
374.061	532.31
374.287	525.31
374.513	554.31
374.739	558.31
374.965	561.31
375.191	571.31
375.416	567.31
375.642	548.31
375.868	576.31
376.094	520.31
376.319	527.31
376.545	532.31
376.771	511.31
376.997	531.31
377.222	532.31
377.448	535.31
377.674	501.31
377.899	523.31
378.125	515.31
378.35	510.31
378.576	513.31
378.802	498.31
379.027	500.31
379.253	526.31
379.478	500.31
379.704	487.31
379.929	495.31
380.155	506.31
380.38	521.31
380.606	515.31
380.831	522.31
381.057	510.31
381.282	479.31
381.507	508.31
381.733	524.31
381.958	487.31
382.184	513.31
382.409	550.31
382.634	538.31
382.86	528.31
383.085	521.31
383.31	545.31
383.535	574.31
383.761	596.31
383.986	590.31
384.211	583.31
384.436	589.31
384.662	622.31
384.887	626.31
385.112	622.31
385.337	636.31
385.562	606.31
385.787	610.31
386.013	646.31
386.238	615.31
386.463	626.31
386.688	600.31
386.913	588.31
387.138	603.31
387.363	594.31
387.588	594.31
387.813	605.31
388.038	596.31
388.263	598.31
388.488	590.31
388.713	583.31
388.938	608.31
389.163	581.31
389.387	584.31
389.612	578.31
389.837	595.31
390.062	597.31
390.287	598.31
390.512	592.31
390.736	608.31
390.961	598.31
391.186	638.31
391.411	631.31
391.636	669.31
391.86	666.31
392.085	691.31
392.31	693.31
392.534	667.31
392.759	648.31
392.984	629.31
393.208	624.31
393.433	652.31
393.658	631.31
393.882	634.31
394.107	646.31
394.331	639.31
394.556	654.31
394.78	664.31
395.005	648.31
395.229	648.31
395.454	669.31
395.678	710.31
395.903	690.31
396.127	667.31
396.352	634.31
396.576	615.31
396.801	625.31
397.025	636.31
397.249	645.31
397.474	684.31
397.698	675.31
397.922	685.31
398.147	676.31
398.371	692.31
398.595	716.31
398.82	760.31
399.044	779.31
399.268	906.31
399.492	1037.31
399.717	1191.31
399.941	1178.31
400.165	1002.31
400.389	909.31
400.613	824.31
400.837	780.31
401.062	759.31
401.286	751.31
401.51	771.31
401.734	738.31
401.958	796.31
402.182	791.31
402.406	790.31
402.63	786.31
402.854	827.31
403.078	817.31
403.302	826.31
403.526	856.31
403.75	866.31
403.974	888.31
404.198	902.31
404.422	904.31
404.645	903.31
404.869	915.31
405.093	878.31
405.317	868.31
405.541	848.31
405.765	839.31
405.988	806.31
406.212	860.31
406.436	808.31
406.66	852.31
406.883	852.31
407.107	934.31
407.331	968.31
407.555	1009.31
407.778	1015.31
408.002	932.31
408.226	935.31
408.449	898.31
408.673	889.31
408.896	888.31
409.12	865.31
409.344	892.31
409.567	890.31
409.791	894.31
410.014	882.31
410.238	868.31
410.461	844.31
410.685	863.31
410.908	826.31
411.132	816.31
411.355	799.31
411.578	808.31
411.802	822.31
412.025	783.31
412.249	824.31
412.472	787.31
412.695	788.31
412.919	746.31
413.142	771.31
413.365	735.31
413.589	781.31
413.812	758.31
414.035	741.31
414.258	714.31
414.482	762.31
414.705	810.31
414.928	788.31
415.151	787.31
415.374	767.31
415.597	768.31
415.821	758.31
416.044	725.31
416.267	733.31
416.49	731.31
416.713	747.31
416.936	741.31
417.159	760.31
417.382	768.31
417.605	751.31
417.828	777.31
418.051	789.31
418.274	770.31
418.497	752.31
418.72	755.31
418.943	800.31
419.166	822.31
419.389	885.31
419.611	850.31
419.834	806.31
420.057	800.31
420.28	774.31
420.503	762.31
420.726	720.31
420.948	762.31
421.171	762.31
421.394	770.31
421.617	741.31
421.839	741.31
422.062	752.31
422.285	762.31
422.507	775.31
422.73	774.31
422.953	804.31
423.175	797.31
423.398	847.31
423.621	806.31
423.843	817.31
424.066	824.31
424.288	826.31
424.511	828.31
424.733	800.31
424.956	780.31
425.178	776.31
425.401	755.31
425.623	756.31
425.846	710.31
426.068	722.31
426.291	724.31
426.513	725.31
426.735	713.31
426.958	728.31
427.18	710.31
427.402	675.31
427.625	693.31
427.847	682.31
428.069	695.31
428.292	682.31
428.514	674.31
428.736	680.31
428.958	685.31
429.181	658.31
429.403	654.31
429.625	661.31
429.847	655.31
430.069	669.31
430.292	664.31
430.514	656.31
430.736	655.31
430.958	654.31
431.18	662.31
431.402	663.31
431.624	658.31
431.846	689.31
432.068	655.31
432.29	687.31
432.512	677.31
432.734	676.31
432.956	677.31
433.178	687.31
433.4	687.31
433.622	671.31
433.844	700.31
434.066	689.31
434.287	714.31
434.509	728.31
434.731	740.31
434.953	779.31
435.175	799.31
435.397	777.31
435.618	749.31
435.84	706.31
436.062	692.31
436.284	686.31
436.505	673.31
436.727	688.31
436.949	699.31
437.17	702.31
437.392	665.31
437.614	677.31
437.835	647.31
438.057	629.31
438.278	641.31
438.5	615.31
438.721	639.31
438.943	671.31
439.165	650.31
439.386	641.31
439.608	678.31
439.829	680.31
440.05	675.31
440.272	687.31
440.493	691.31
440.715	716.31
440.936	693.31
441.158	731.31
441.379	729.31
441.6	769.31
441.822	803.31
442.043	808.31
442.264	775.31
442.486	764.31
442.707	784.31
442.928	762.31
443.149	762.31
443.371	796.31
443.592	782.31
443.813	785.31
444.034	810.31
444.255	834.31
444.476	848.31
444.698	915.31
444.919	936.31
445.14	979.31
445.361	887.31
445.582	805.31
445.803	755.31
446.024	726.31
446.245	723.31
446.466	723.31
446.687	696.31
446.908	696.31
447.129	694.31
447.35	675.31
447.571	658.31
447.792	675.31
448.013	656.31
448.234	646.31
448.455	640.31
448.675	630.31
448.896	638.31
449.117	610.31
449.338	634.31
449.559	616.31
449.779	641.31
450	607.31
450.221	634.31
450.442	648.31
450.662	640.31
450.883	684.31
451.104	663.31
451.324	663.31
451.545	669.31
451.766	652.31
451.986	632.31
452.207	664.31
452.428	636.31
452.648	630.31
452.869	627.31
453.089	616.31
453.31	648.31
453.53	647.31
453.751	618.31
453.971	596.31
454.192	622.31
454.412	599.31
454.633	622.31
454.853	603.31
455.073	604.31
455.294	583.31
455.514	596.31
455.734	603.31
455.955	600.31
456.175	568.31
456.395	588.31
456.616	576.31
456.836	582.31
457.056	589.31
457.276	604.31
457.497	580.31
457.717	612.31
457.937	600.31
458.157	620.31
458.377	626.31
458.598	640.31
458.818	649.31
459.038	676.31
459.258	686.31
459.478	714.31
459.698	700.31
459.918	714.31
460.138	751.31
460.358	825.31
460.578	810.31
460.798	816.31
461.018	840.31
461.238	837.31
461.458	813.31
461.678	819.31
461.898	814.31
462.118	808.31
462.338	901.31
462.558	926.31
462.777	926.31
462.997	1045.31
463.217	1132.31
463.437	1112.31
463.657	1038.31
463.876	967.31
464.096	960.31
464.316	983.31
464.536	1001.31
464.755	942.31
464.975	892.31
465.195	867.31
465.414	806.31
465.634	775.31
465.854	707.31
466.073	715.31
466.293	715.31
466.512	677.31
466.732	668.31
466.951	663.31
467.171	666.31
467.391	669.31
467.61	686.31
467.829	662.31
468.049	659.31
468.268	654.31
468.488	652.31
468.707	644.31
468.927	639.31
469.146	643.31
469.365	642.31
469.585	654.31
469.804	666.31
470.023	689.31
470.243	685.31
470.462	678.31
470.681	686.31
470.901	676.31
471.12	680.31
471.339	674.31
471.558	673.31
471.777	641.31
471.997	653.31
472.216	636.31
472.435	638.31
472.654	622.31
472.873	604.31
473.092	625.31
473.311	614.31
473.53	609.31
473.749	621.31
473.968	606.31
474.187	627.31
474.406	612.31
474.625	616.31
474.844	624.31
475.063	640.31
475.282	651.31
475.501	629.31
475.72	637.31
475.939	629.31
476.158	650.31
476.377	633.31
476.596	657.31
476.814	668.31
477.033	656.31
477.252	693.31
477.471	677.31
477.69	686.31
477.908	716.31
478.127	743.31
478.346	746.31
478.564	766.31
478.783	776.31
479.002	759.31
479.22	783.31
479.439	764.31
479.658	750.31
479.876	768.31
480.095	790.31
480.313	810.31
480.532	836.31
480.751	877.31
480.969	832.31
481.188	766.31
481.406	764.31
481.624	735.31
481.843	714.31
482.061	701.31
482.28	718.31
482.498	706.31
482.717	694.31
482.935	673.31
483.153	703.31
483.372	708.31
483.59	713.31
483.808	710.31
484.027	695.31
484.245	717.31
484.463	718.31
484.681	711.31
484.9	728.31
485.118	768.31
485.336	726.31
485.554	731.31
485.772	739.31
485.99	786.31
486.209	758.31
486.427	767.31
486.645	786.31
486.863	769.31
487.081	750.31
487.299	734.31
487.517	732.31
487.735	723.31
487.953	740.31
488.171	722.31
488.389	742.31
488.607	728.31
488.825	724.31
489.043	725.31
489.261	727.31
489.479	738.31
489.696	717.31
489.914	727.31
490.132	736.31
490.35	736.31
490.568	743.31
490.786	744.31
491.003	739.31
491.221	732.31
491.439	732.31
491.657	779.31
491.874	750.31
492.092	755.31
492.31	752.31
492.527	752.31
492.745	765.31
492.963	724.31
493.18	746.31
493.398	784.31
493.615	794.31
493.833	801.31
494.05	784.31
494.268	772.31
494.485	799.31
494.703	785.31
494.92	794.31
495.138	788.31
495.355	794.31
495.573	782.31
495.79	782.31
496.008	773.31
496.225	796.31
496.442	812.31
496.66	800.31
496.877	827.31
497.094	846.31
497.312	843.31
497.529	846.31
497.746	890.31
497.963	860.31
498.181	924.31
498.398	961.31
498.615	1032.31
498.832	1084.31
499.049	1188.31
499.267	1302.31
499.484	1409.31
499.701	1607.31
499.918	1776.31
500.135	2081.31
500.352	2440.31
500.569	2518.31
500.786	2494.31
501.003	2259.31
501.22	1996.31
501.437	1718.31
501.654	1503.31
501.871	1335.31
502.088	1258.31
502.305	1195.31
502.522	1135.31
502.739	1062.31
502.956	1004.31
503.172	930.31
503.389	929.31
503.606	865.31
503.823	886.31
504.04	888.31
504.256	895.31
504.473	926.31
504.69	940.31
504.907	908.31
505.123	856.31
505.34	817.31
505.557	798.31
505.773	779.31
505.99	749.31
506.207	718.31
506.423	711.31
506.64	726.31
506.856	713.31
507.073	698.31
507.289	700.31
507.506	685.31
507.722	696.31
507.939	684.31
508.155	677.31
508.372	685.31
508.588	686.31
508.805	674.31
509.021	650.31
509.238	657.31
509.454	667.31
509.67	654.31
509.887	651.31
510.103	638.31
510.319	648.31
510.536	648.31
510.752	650.31
510.968	638.31
511.184	657.31
511.401	659.31
511.617	651.31
511.833	642.31
512.049	652.31
512.265	641.31
512.481	647.31
512.698	614.31
512.914	652.31
513.13	632.31
513.346	624.31
513.562	626.31
513.778	638.31
513.994	626.31
514.21	645.31
514.426	642.31
514.642	662.31
514.858	647.31
515.074	663.31
515.29	666.31
515.506	669.31
515.721	682.31
515.937	710.31
516.153	704.31
516.369	712.31
516.585	719.31
516.801	749.31
517.016	787.31
517.232	833.31
517.448	878.31
517.664	894.31
517.879	919.31
518.095	924.31
518.311	916.31
518.527	853.31
518.742	798.31
518.958	768.31
519.173	735.31
519.389	709.31
519.605	690.31
519.82	683.31
520.036	667.31
520.251	662.31
520.467	668.31
520.682	653.31
520.898	662.31
521.113	642.31
521.329	649.31
521.544	634.31
521.76	628.31
521.975	618.31
522.19	601.31
522.406	622.31
522.621	624.31
522.836	606.31
523.052	634.31
523.267	605.31
523.482	612.31
523.698	572.31
523.913	583.31
524.128	585.31
524.343	582.31
524.559	630.31
524.774	597.31
524.989	612.31
525.204	613.31
525.419	599.31
525.634	605.31
525.849	599.31
526.064	591.31
526.28	619.31
526.495	611.31
526.71	588.31
526.925	581.31
527.14	593.31
527.355	599.31
527.57	582.31
527.785	586.31
527.999	594.31
528.214	585.31
528.429	612.31
528.644	579.31
528.859	573.31
529.074	586.31
529.289	577.31
529.503	603.31
529.718	631.31
529.933	591.31
530.148	597.31
530.363	609.31
530.577	598.31
530.792	588.31
531.007	581.31
531.221	575.31
531.436	607.31
531.651	578.31
531.865	570.31
532.08	592.31
532.295	581.31
532.509	587.31
532.724	586.31
532.938	597.31
533.153	607.31
533.367	587.31
533.582	579.31
533.796	576.31
534.011	595.31
534.225	592.31
534.44	565.31
534.654	579.31
534.868	590.31
535.083	573.31
535.297	582.31
535.511	577.31
535.726	591.31
535.94	568.31
536.154	555.31
536.369	559.31
536.583	563.31
536.797	538.31
537.011	544.31
537.225	548.31
537.44	542.31
537.654	551.31
537.868	535.31
538.082	541.31
538.296	535.31
538.51	558.31
538.724	556.31
538.938	534.31
539.153	560.31
539.367	541.31
539.581	550.31
539.795	564.31
540.009	534.31
540.222	533.31
540.436	550.31
540.65	520.31
540.864	536.31
541.078	516.31
541.292	522.31
541.506	554.31
541.72	515.31
541.934	516.31
542.147	539.31
542.361	525.31
542.575	526.31
542.789	547.31
543.002	502.31
543.216	524.31
543.43	529.31
543.644	523.31
543.857	525.31
544.071	540.31
544.285	549.31
544.498	547.31
544.712	554.31
544.925	522.31
545.139	543.31
545.352	540.31
545.566	547.31
545.779	555.31
545.993	560.31
546.206	542.31
546.42	566.31
546.633	532.31
546.847	556.31
547.06	556.31
547.274	529.31
547.487	530.31
547.7	525.31
547.914	554.31
548.127	552.31
548.34	552.31
548.554	532.31
548.767	546.31
548.98	536.31
549.193	555.31
549.407	533.31
549.62	565.31
549.833	567.31
550.046	543.31
550.259	541.31
550.473	542.31
550.686	544.31
550.899	513.31
551.112	514.31
551.325	519.31
551.538	534.31
551.751	520.31
551.964	532.31
552.177	547.31
552.39	534.31
552.603	574.31
552.816	574.31
553.029	570.31
553.242	587.31
553.455	610.31
553.667	595.31
553.88	579.31
554.093	549.31
554.306	548.31
554.519	556.31
554.732	551.31
554.944	527.31
555.157	507.31
555.37	507.31
555.583	526.31
555.795	493.31
556.008	487.31
556.221	494.31
556.433	484.31
556.646	500.31
556.859	474.31
557.071	469.31
557.284	458.31
557.496	450.31
557.709	461.31
557.921	470.31
558.134	461.31
558.346	453.31
558.559	458.31
558.771	458.31
558.984	475.31
559.196	447.31
559.409	455.31
559.621	464.31
559.833	463.31
560.046	459.31
560.258	449.31
560.47	456.31
560.683	470.31
560.895	477.31
561.107	456.31
561.32	456.31
561.532	474.31
561.744	459.31
561.956	470.31
562.168	444.31
562.381	422.31
562.593	455.31
562.805	448.31
563.017	449.31
563.229	459.31
563.441	447.31
563.653	448.31
563.865	450.31
564.077	462.31
564.289	464.31
564.501	455.31
564.713	466.31
564.925	476.31
565.137	480.31
565.349	492.31
565.561	520.31
565.773	505.31
565.985	530.31
566.197	559.31
566.408	611.31
566.62	677.31
566.832	753.31
567.044	739.31
567.255	746.31
567.467	762.31
567.679	823.31
567.891	870.31
568.102	921.31
568.314	871.31
568.526	773.31
568.737	680.31
568.949	632.31
569.161	580.31
569.372	521.31
569.584	506.31
569.795	498.31
570.007	475.31
570.218	464.31
570.43	463.31
570.641	475.31
570.853	468.31
571.064	478.31
571.276	467.31
571.487	488.31
571.698	441.31
571.91	433.31
572.121	412.31
572.333	382.31
572.544	398.31
572.755	388.31
572.966	397.31
573.178	404.31
573.389	416.31
573.6	402.31
573.811	394.31
574.023	390.31
574.234	378.31
574.445	396.31
574.656	388.31
574.867	374.31
575.078	369.31
575.289	393.31
575.501	391.31
575.712	349.31
575.923	348.31
576.134	358.31
576.345	360.31
576.556	367.31
576.767	364.31
576.978	352.31
577.188	360.31
577.399	350.31
577.61	352.31
577.821	357.31
578.032	326.31
578.243	360.31
578.454	348.31
578.665	337.31
578.875	349.31
579.086	357.31
579.297	344.31
579.508	332.31
579.718	342.31
579.929	330.31
580.14	331.31
580.35	346.31
580.561	332.31
580.772	326.31
580.982	325.31
581.193	333.31
581.403	336.31
581.614	331.31
581.825	331.31
582.035	318.31
582.246	320.31
582.456	326.31
582.667	311.31
582.877	324.31
583.087	320.31
583.298	313.31
583.508	322.31
583.719	316.31
583.929	318.31
584.139	331.31
584.35	335.31
584.56	308.31
584.77	323.31
584.981	328.31
585.191	306.31
585.401	329.31
585.611	304.31
585.821	315.31
586.032	318.31
586.242	314.31
586.452	314.31
586.662	325.31
586.872	315.31
587.082	322.31
587.292	326.31
587.502	324.31
587.713	308.31
587.923	318.31
588.133	320.31
588.343	320.31
588.553	323.31
588.762	308.31
588.972	307.31
589.182	307.31
589.392	314.31
589.602	328.31
589.812	308.31
590.022	303.31
590.232	317.31
590.441	328.31
590.651	325.31
590.861	296.31
591.071	322.31
591.281	315.31
591.49	308.31
591.7	321.31
591.91	332.31
592.119	338.31
592.329	347.31
592.539	355.31
592.748	373.31
592.958	386.31
593.167	381.31
593.377	403.31
593.587	396.31
593.796	399.31
594.006	403.31
594.215	399.31
594.424	372.31
594.634	386.31
594.843	355.31
595.053	353.31
595.262	353.31
595.472	335.31
595.681	319.31
595.89	329.31
596.1	320.31
596.309	299.31
596.518	288.31
596.727	293.31
596.937	283.31
597.146	278.31
597.355	304.31
597.564	284.31
597.774	304.31
597.983	287.31
598.192	279.31
598.401	286.31
598.61	278.31
598.819	288.31
599.028	274.31
599.237	290.31
599.446	270.31
599.655	270.31
599.864	259.31
600.073	270.31
600.282	278.31
600.491	262.31
600.7	265.31
600.909	246.31
601.118	250.31
601.327	256.31
601.536	267.31
601.745	268.31
601.953	263.31
602.162	254.31
602.371	262.31
602.58	244.31
602.789	249.31
602.997	275.31
603.206	260.31
603.415	255.31
603.623	253.31
603.832	247.31
604.041	226.31
604.249	250.31
604.458	252.31
604.666	257.31
604.875	250.31
605.084	256.31
605.292	256.31
605.501	253.31
605.709	245.31
605.918	243.31
606.126	254.31
606.334	269.31
606.543	244.31
606.751	244.31
606.96	240.31
607.168	244.31
607.376	254.31
607.585	235.31
607.793	245.31
608.001	253.31
608.21	249.31
608.418	250.31
608.626	253.31
608.834	249.31
609.043	232.31
609.251	241.31
609.459	265.31
609.667	251.31
609.875	248.31
610.083	238.31
610.291	230.31
610.499	243.31
610.707	236.31
610.916	229.31
611.124	219.31
611.332	234.31
611.54	246.31
611.748	232.31
611.955	250.31
612.163	215.31
612.371	242.31
612.579	230.31
612.787	237.31
612.995	248.31
613.203	237.31
613.411	228.31
613.618	224.31
613.826	235.31
614.034	230.31
614.242	243.31
614.449	227.31
614.657	243.31
614.865	222.31
615.072	242.31
615.28	238.31
615.488	244.31
615.695	227.31
615.903	225.31
616.111	222.31
616.318	237.31
616.526	232.31
616.733	229.31
616.941	232.31
617.148	241.31
617.356	237.31
617.563	232.31
617.771	229.31
617.978	223.31
618.185	220.31
618.393	221.31
618.6	239.31
618.807	236.31
619.015	225.31
619.222	234.31
619.429	222.31
619.637	222.31
619.844	227.31
620.051	235.31
620.258	230.31
620.466	215.31
620.673	224.31
620.88	212.31
621.087	219.31
621.294	202.31
621.501	211.31
621.708	224.31
621.915	221.31
622.122	219.31
622.329	215.31
622.536	206.31
622.743	205.31
622.95	215.31
623.157	204.31
623.364	191.31
623.571	201.31
623.778	213.31
623.985	223.31
624.192	207.31
624.399	220.31
624.606	219.31
624.812	183.31
625.019	199.31
625.226	206.31
625.433	223.31
625.639	207.31
625.846	200.31
626.053	177.31
626.259	205.31
626.466	205.31
626.673	206.31
626.879	193.31
627.086	197.31
627.293	185.31
627.499	194.31
627.706	198.31
627.912	203.31
628.119	177.31
628.325	212.31
628.532	191.31
628.738	194.31
628.945	194.31
629.151	186.31
629.357	194.31
629.564	194.31
629.77	178.31
629.976	183.31
630.183	188.31
630.389	173.31
630.595	194.31
630.802	180.31
631.008	179.31
631.214	194.31
631.42	193.31
631.627	190.31
631.833	173.31
632.039	186.31
632.245	177.31
632.451	187.31
632.657	188.31
632.863	174.31
633.069	172.31
633.275	182.31
633.481	174.31
633.688	178.31
633.893	182.31
634.099	180.31
634.305	170.31
634.511	164.31
634.717	164.31
634.923	176.31
635.129	170.31
635.335	168.31
635.541	179.31
635.747	174.31
635.952	190.31
636.158	176.31
636.364	191.31
636.57	167.31
636.775	177.31
636.981	186.31
637.187	156.31
637.392	177.31
637.598	170.31
637.804	167.31
638.009	178.31
638.215	173.31
638.421	155.31
638.626	153.31
638.832	167.31
639.037	172.31
639.243	167.31
639.448	162.31
639.654	168.31
639.859	175.31
640.065	168.31
640.27	164.31
640.475	151.31
640.681	178.31
640.886	164.31
641.091	160.31
641.297	152.31
641.502	140.31
641.707	167.31
641.913	172.31
642.118	179.31
642.323	166.31
642.528	167.31
642.733	171.31
642.939	158.31
643.144	159.31
643.349	144.31
643.554	159.31
643.759	163.31
643.964	151.31
644.169	156.31
644.374	164.31
644.579	160.31
644.784	153.31
644.989	156.31
645.194	143.31
645.399	158.31
645.604	168.31
645.809	154.31
646.014	148.31
646.219	162.31
646.423	168.31
646.628	159.31
646.833	167.31
647.038	161.31
647.243	171.31
647.447	163.31
647.652	169.31
647.857	140.31
648.062	170.31
648.266	165.31
648.471	150.31
648.676	180.31
648.88	174.31
649.085	166.31
649.289	165.31
649.494	151.31
649.698	146.31
649.903	173.31
650.107	160.31
650.312	161.31
650.516	140.31
650.721	154.31
650.925	148.31
651.13	158.31
651.334	127.31
651.539	149.31
651.743	128.31
651.947	142.31
652.152	133.31
652.356	147.31
652.56	136.31
652.764	129.31
652.969	135.31
653.173	127.31
653.377	143.31
653.581	119.31
653.785	122.31
653.99	116.31
654.194	121.31
654.398	134.31
654.602	135.31
654.806	125.31
655.01	115.31
655.214	108.31
655.418	118.31
655.622	115.31
655.826	94.31
656.03	119.31
656.234	121.31
656.438	131.31
656.642	116.31
656.846	108.31
657.049	119.31
657.253	112.31
657.457	104.31
657.661	100.31
657.865	101.31
658.068	97.31
658.272	89.31
658.476	96.31
658.68	89.31
658.883	82.31
659.087	95.31
659.291	99.31
659.494	89.31
659.698	99.31
659.901	75.31
660.105	84.31
660.309	90.31
660.512	90.31
660.716	92.31
660.919	77.31
661.123	87.31
661.326	88.31
661.53	95.31
661.733	70.31
661.936	78.31
662.14	82.31
662.343	70.31
662.546	86.31
662.75	80.31
662.953	92.31
663.156	83.31
663.36	78.31
663.563	80.31
663.766	77.31
663.969	83.31
664.173	71.31
664.376	78.31
664.579	70.31
664.782	70.31
664.985	98.31
665.188	82.31
665.391	77.31
665.594	69.31
665.797	70.31
666	79.31
666.203	84.31
666.406	71.31
666.609	80.31
666.812	65.31
667.015	68.31
667.218	80.31
667.421	84.31
667.624	70.31
667.827	64.31
668.03	62.31
668.232	71.31
668.435	72.31
668.638	75.31
668.841	85.31
669.043	84.31
669.246	80.31
669.449	74.31
669.651	82.31
669.854	78.31
670.057	68.31
670.259	74.31
670.462	87.31
670.665	80.31
670.867	69.31
671.07	69.31
671.272	60.31
671.475	70.31
671.677	85.31
671.88	72.31
672.082	75.31
672.284	84.31
672.487	69.31
672.689	71.31
672.892	74.31
