Data from Ni(NO3)2@0.0625M.TitratingCurve.Agarose3%dH2O.NegLispCup.LampEnergy10.LIBS07252019_HRD10591_18-15-03-572.txt Node
Date: Thu Jul 25 18:15:03 EDT 2019
User: cochatt
Spectrometer: HR+D1059
Trigger mode: 1
Integration Time (sec): 1.000000E-1
Scans to average: 1
Electric dark correction enabled: true
Nonlinearity correction enabled: false
Boxcar width: 0
XAxis mode: Wavelengths
Number of Pixels in Spectrum: 2048
>>>>>Begin Spectral Data<<<<<
223.165	-19.44
223.4	-19.44
223.635	-19.44
223.869	-26.44
224.104	-16.44
224.338	-14.44
224.573	-22.44
224.808	1.56
225.042	-3.44
225.277	-12.44
225.511	-4.44
225.746	10.56
225.98	6.56
226.215	10.56
226.449	14.56
226.683	21.56
226.918	25.56
227.152	28.56
227.387	41.56
227.621	41.56
227.856	42.56
228.09	59.56
228.324	53.56
228.559	59.56
228.793	69.56
229.027	116.56
229.262	97.56
229.496	98.56
229.73	98.56
229.964	108.56
230.199	108.56
230.433	105.56
230.667	120.56
230.901	123.56
231.136	126.56
231.37	120.56
231.604	120.56
231.838	129.56
232.072	134.56
232.306	119.56
232.541	113.56
232.775	130.56
233.009	133.56
233.243	122.56
233.477	132.56
233.711	119.56
233.945	136.56
234.179	132.56
234.413	139.56
234.647	126.56
234.881	133.56
235.115	131.56
235.349	127.56
235.583	134.56
235.817	124.56
236.051	131.56
236.285	131.56
236.519	140.56
236.753	133.56
236.987	137.56
237.221	141.56
237.455	134.56
237.689	141.56
237.922	137.56
238.156	140.56
238.39	134.56
238.624	135.56
238.858	134.56
239.091	134.56
239.325	157.56
239.559	141.56
239.793	140.56
240.027	145.56
240.26	143.56
240.494	155.56
240.728	150.56
240.961	156.56
241.195	148.56
241.429	154.56
241.662	167.56
241.896	151.56
242.13	165.56
242.363	152.56
242.597	155.56
242.83	166.56
243.064	165.56
243.298	167.56
243.531	153.56
243.765	170.56
243.998	167.56
244.232	157.56
244.465	162.56
244.699	172.56
244.932	151.56
245.166	173.56
245.399	163.56
245.633	183.56
245.866	170.56
246.099	175.56
246.333	170.56
246.566	190.56
246.8	175.56
247.033	175.56
247.266	181.56
247.5	184.56
247.733	179.56
247.966	176.56
248.2	201.56
248.433	184.56
248.666	170.56
248.899	197.56
249.133	189.56
249.366	178.56
249.599	187.56
249.832	210.56
250.066	183.56
250.299	198.56
250.532	206.56
250.765	202.56
250.998	195.56
251.231	174.56
251.465	201.56
251.698	213.56
251.931	205.56
252.164	215.56
252.397	229.56
252.63	196.56
252.863	204.56
253.096	201.56
253.329	208.56
253.562	206.56
253.795	228.56
254.028	219.56
254.261	222.56
254.494	218.56
254.727	214.56
254.96	226.56
255.193	220.56
255.426	221.56
255.659	207.56
255.892	221.56
256.124	226.56
256.357	211.56
256.59	230.56
256.823	215.56
257.056	231.56
257.289	222.56
257.521	206.56
257.754	231.56
257.987	222.56
258.22	238.56
258.452	226.56
258.685	229.56
258.918	209.56
259.151	227.56
259.383	237.56
259.616	244.56
259.849	239.56
260.081	244.56
260.314	227.56
260.547	230.56
260.779	245.56
261.012	251.56
261.244	230.56
261.477	245.56
261.71	259.56
261.942	243.56
262.175	250.56
262.407	249.56
262.64	235.56
262.872	258.56
263.105	243.56
263.337	271.56
263.57	265.56
263.802	247.56
264.035	250.56
264.267	252.56
264.499	265.56
264.732	258.56
264.964	263.56
265.197	279.56
265.429	266.56
265.661	271.56
265.894	282.56
266.126	271.56
266.358	257.56
266.591	279.56
266.823	264.56
267.055	268.56
267.287	273.56
267.52	246.56
267.752	259.56
267.984	300.56
268.216	265.56
268.448	262.56
268.681	280.56
268.913	263.56
269.145	261.56
269.377	270.56
269.609	270.56
269.841	284.56
270.073	273.56
270.306	287.56
270.538	278.56
270.77	292.56
271.002	277.56
271.234	290.56
271.466	291.56
271.698	289.56
271.93	286.56
272.162	291.56
272.394	292.56
272.626	309.56
272.858	296.56
273.09	297.56
273.322	296.56
273.553	297.56
273.785	297.56
274.017	311.56
274.249	294.56
274.481	313.56
274.713	301.56
274.945	322.56
275.176	309.56
275.408	299.56
275.64	306.56
275.872	319.56
276.104	313.56
276.335	305.56
276.567	319.56
276.799	303.56
277.031	311.56
277.262	318.56
277.494	331.56
277.726	309.56
277.957	325.56
278.189	313.56
278.421	313.56
278.652	329.56
278.884	329.56
279.115	329.56
279.347	335.56
279.579	333.56
279.81	338.56
280.042	324.56
280.273	333.56
280.505	324.56
280.736	336.56
280.968	339.56
281.199	340.56
281.431	346.56
281.662	359.56
281.894	336.56
282.125	350.56
282.356	345.56
282.588	334.56
282.819	334.56
283.051	333.56
283.282	331.56
283.513	353.56
283.745	352.56
283.976	349.56
284.207	364.56
284.439	339.56
284.67	366.56
284.901	339.56
285.132	367.56
285.364	364.56
285.595	366.56
285.826	359.56
286.057	366.56
286.288	370.56
286.52	363.56
286.751	354.56
286.982	369.56
287.213	399.56
287.444	374.56
287.675	390.56
287.906	373.56
288.138	383.56
288.369	384.56
288.6	397.56
288.831	391.56
289.062	402.56
289.293	390.56
289.524	386.56
289.755	393.56
289.986	386.56
290.217	371.56
290.448	398.56
290.679	388.56
290.91	391.56
291.141	394.56
291.371	371.56
291.602	409.56
291.833	376.56
292.064	376.56
292.295	387.56
292.526	379.56
292.757	374.56
292.987	381.56
293.218	405.56
293.449	387.56
293.68	380.56
293.91	388.56
294.141	378.56
294.372	394.56
294.603	398.56
294.833	393.56
295.064	407.56
295.295	390.56
295.525	390.56
295.756	404.56
295.987	382.56
296.217	399.56
296.448	413.56
296.679	408.56
296.909	409.56
297.14	394.56
297.37	413.56
297.601	410.56
297.831	428.56
298.062	419.56
298.292	402.56
298.523	425.56
298.753	453.56
298.984	410.56
299.214	445.56
299.445	428.56
299.675	420.56
299.905	422.56
300.136	435.56
300.366	440.56
300.597	446.56
300.827	449.56
301.057	458.56
301.288	453.56
301.518	452.56
301.748	439.56
301.979	454.56
302.209	437.56
302.439	418.56
302.669	458.56
302.9	450.56
303.13	439.56
303.36	437.56
303.59	436.56
303.82	422.56
304.051	431.56
304.281	444.56
304.511	437.56
304.741	435.56
304.971	458.56
305.201	437.56
305.431	437.56
305.661	448.56
305.891	438.56
306.121	449.56
306.352	431.56
306.582	429.56
306.812	418.56
307.042	441.56
307.272	422.56
307.502	409.56
307.731	413.56
307.961	433.56
308.191	422.56
308.421	431.56
308.651	428.56
308.881	430.56
309.111	424.56
309.341	419.56
309.571	446.56
309.8	437.56
310.03	441.56
310.26	427.56
310.49	427.56
310.72	427.56
310.949	416.56
311.179	438.56
311.409	445.56
311.639	431.56
311.868	444.56
312.098	439.56
312.328	447.56
312.557	450.56
312.787	449.56
313.017	434.56
313.246	449.56
313.476	475.56
313.706	480.56
313.935	455.56
314.165	457.56
314.394	438.56
314.624	485.56
314.853	463.56
315.083	450.56
315.312	466.56
315.542	434.56
315.771	480.56
316.001	470.56
316.23	462.56
316.46	445.56
316.689	453.56
316.919	439.56
317.148	453.56
317.377	442.56
317.607	432.56
317.836	451.56
318.065	443.56
318.295	436.56
318.524	451.56
318.753	450.56
318.983	430.56
319.212	454.56
319.441	428.56
319.67	454.56
319.9	440.56
320.129	446.56
320.358	449.56
320.587	447.56
320.816	448.56
321.046	455.56
321.275	470.56
321.504	445.56
321.733	443.56
321.962	460.56
322.191	452.56
322.42	462.56
322.649	459.56
322.878	457.56
323.108	461.56
323.337	446.56
323.566	468.56
323.795	466.56
324.024	456.56
324.253	472.56
324.482	447.56
324.71	482.56
324.939	484.56
325.168	462.56
325.397	475.56
325.626	464.56
325.855	484.56
326.084	486.56
326.313	480.56
326.542	506.56
326.77	498.56
326.999	478.56
327.228	475.56
327.457	496.56
327.686	494.56
327.914	495.56
328.143	482.56
328.372	471.56
328.6	479.56
328.829	501.56
329.058	475.56
329.287	498.56
329.515	486.56
329.744	490.56
329.972	521.56
330.201	505.56
330.43	518.56
330.658	510.56
330.887	513.56
331.115	511.56
331.344	501.56
331.572	518.56
331.801	533.56
332.03	539.56
332.258	559.56
332.486	584.56
332.715	591.56
332.943	603.56
333.172	625.56
333.4	668.56
333.629	679.56
333.857	674.56
334.085	639.56
334.314	659.56
334.542	654.56
334.771	638.56
334.999	597.56
335.227	605.56
335.455	622.56
335.684	591.56
335.912	618.56
336.14	613.56
336.369	609.56
336.597	605.56
336.825	605.56
337.053	577.56
337.281	596.56
337.51	572.56
337.738	586.56
337.966	571.56
338.194	563.56
338.422	534.56
338.65	543.56
338.878	539.56
339.106	533.56
339.334	542.56
339.562	522.56
339.79	526.56
340.018	517.56
340.246	498.56
340.474	515.56
340.702	514.56
340.93	520.56
341.158	542.56
341.386	536.56
341.614	539.56
341.842	534.56
342.07	526.56
342.298	514.56
342.526	532.56
342.754	522.56
342.981	541.56
343.209	534.56
343.437	541.56
343.665	599.56
343.893	654.56
344.12	644.56
344.348	621.56
344.576	581.56
344.804	558.56
345.031	563.56
345.259	551.56
345.487	551.56
345.714	534.56
345.942	535.56
346.17	553.56
346.397	527.56
346.625	503.56
346.853	517.56
347.08	513.56
347.308	525.56
347.535	502.56
347.763	524.56
347.99	536.56
348.218	529.56
348.445	512.56
348.673	494.56
348.9	497.56
349.128	528.56
349.355	507.56
349.583	524.56
349.81	511.56
350.037	494.56
350.265	497.56
350.492	484.56
350.72	480.56
350.947	503.56
351.174	494.56
351.402	512.56
351.629	519.56
351.856	477.56
352.083	483.56
352.311	501.56
352.538	474.56
352.765	508.56
352.992	477.56
353.22	483.56
353.447	469.56
353.674	464.56
353.901	495.56
354.128	488.56
354.355	492.56
354.583	492.56
354.81	469.56
355.037	503.56
355.264	526.56
355.491	488.56
355.718	474.56
355.945	493.56
356.172	472.56
356.399	483.56
356.626	490.56
356.853	503.56
357.08	492.56
357.307	489.56
357.534	500.56
357.761	513.56
357.988	492.56
358.215	474.56
358.441	500.56
358.668	508.56
358.895	517.56
359.122	473.56
359.349	501.56
359.576	485.56
359.802	487.56
360.029	490.56
360.256	523.56
360.483	499.56
360.709	485.56
360.936	490.56
361.163	486.56
361.39	478.56
361.616	505.56
361.843	499.56
362.07	511.56
362.296	499.56
362.523	493.56
362.749	487.56
362.976	490.56
363.203	492.56
363.429	471.56
363.656	481.56
363.882	492.56
364.109	497.56
364.335	490.56
364.562	480.56
364.788	512.56
365.015	490.56
365.241	472.56
365.468	471.56
365.694	505.56
365.92	498.56
366.147	498.56
366.373	479.56
366.599	497.56
366.826	483.56
367.052	481.56
367.278	455.56
367.505	489.56
367.731	467.56
367.957	482.56
368.184	493.56
368.41	475.56
368.636	477.56
368.862	480.56
369.089	504.56
369.315	500.56
369.541	486.56
369.767	513.56
369.993	508.56
370.219	519.56
370.445	518.56
370.672	515.56
370.898	520.56
371.124	532.56
371.35	542.56
371.576	534.56
371.802	527.56
372.028	528.56
372.254	532.56
372.48	537.56
372.706	563.56
372.932	571.56
373.158	547.56
373.384	525.56
373.61	515.56
373.835	527.56
374.061	530.56
374.287	533.56
374.513	534.56
374.739	561.56
374.965	583.56
375.191	583.56
375.416	581.56
375.642	590.56
375.868	568.56
376.094	558.56
376.319	531.56
376.545	543.56
376.771	551.56
376.997	552.56
377.222	559.56
377.448	541.56
377.674	541.56
377.899	543.56
378.125	510.56
378.35	532.56
378.576	517.56
378.802	501.56
379.027	516.56
379.253	527.56
379.478	521.56
379.704	531.56
379.929	524.56
380.155	524.56
380.38	520.56
380.606	539.56
380.831	545.56
381.057	536.56
381.282	513.56
381.507	521.56
381.733	538.56
381.958	552.56
382.184	533.56
382.409	569.56
382.634	544.56
382.86	545.56
383.085	566.56
383.31	549.56
383.535	578.56
383.761	589.56
383.986	592.56
384.211	589.56
384.436	606.56
384.662	622.56
384.887	633.56
385.112	636.56
385.337	652.56
385.562	640.56
385.787	645.56
386.013	646.56
386.238	643.56
386.463	637.56
386.688	634.56
386.913	603.56
387.138	612.56
387.363	612.56
387.588	611.56
387.813	606.56
388.038	604.56
388.263	615.56
388.488	649.56
388.713	638.56
388.938	627.56
389.163	626.56
389.387	619.56
389.612	597.56
389.837	641.56
390.062	612.56
390.287	611.56
390.512	605.56
390.736	638.56
390.961	635.56
391.186	657.56
391.411	673.56
391.636	686.56
391.86	702.56
392.085	698.56
392.31	695.56
392.534	681.56
392.759	695.56
392.984	664.56
393.208	695.56
393.433	661.56
393.658	675.56
393.882	682.56
394.107	691.56
394.331	683.56
394.556	670.56
394.78	687.56
395.005	681.56
395.229	674.56
395.454	681.56
395.678	718.56
395.903	713.56
396.127	696.56
396.352	663.56
396.576	677.56
396.801	651.56
397.025	689.56
397.249	677.56
397.474	726.56
397.698	695.56
397.922	739.56
398.147	702.56
398.371	695.56
398.595	724.56
398.82	773.56
399.044	823.56
399.268	898.56
399.492	1058.56
399.717	1198.56
399.941	1189.56
400.165	1070.56
400.389	939.56
400.613	866.56
400.837	788.56
401.062	774.56
401.286	767.56
401.51	766.56
401.734	761.56
401.958	795.56
402.182	782.56
402.406	823.56
402.63	847.56
402.854	856.56
403.078	845.56
403.302	865.56
403.526	895.56
403.75	889.56
403.974	951.56
404.198	947.56
404.422	961.56
404.645	891.56
404.869	919.56
405.093	913.56
405.317	880.56
405.541	885.56
405.765	877.56
405.988	866.56
406.212	871.56
406.436	890.56
406.66	868.56
406.883	890.56
407.107	926.56
407.331	966.56
407.555	1021.56
407.778	1038.56
408.002	990.56
408.226	972.56
408.449	948.56
408.673	928.56
408.896	901.56
409.12	885.56
409.344	900.56
409.567	894.56
409.791	915.56
410.014	909.56
410.238	889.56
410.461	912.56
410.685	896.56
410.908	876.56
411.132	824.56
411.355	813.56
411.578	821.56
411.802	834.56
412.025	814.56
412.249	845.56
412.472	837.56
412.695	795.56
412.919	777.56
413.142	754.56
413.365	788.56
413.589	794.56
413.812	783.56
414.035	779.56
414.258	749.56
414.482	787.56
414.705	822.56
414.928	806.56
415.151	809.56
415.374	795.56
415.597	790.56
415.821	782.56
416.044	758.56
416.267	797.56
416.49	761.56
416.713	753.56
416.936	779.56
417.159	770.56
417.382	782.56
417.605	779.56
417.828	787.56
418.051	782.56
418.274	759.56
418.497	794.56
418.72	821.56
418.943	803.56
419.166	832.56
419.389	900.56
419.611	865.56
419.834	859.56
420.057	819.56
420.28	819.56
420.503	789.56
420.726	791.56
420.948	761.56
421.171	787.56
421.394	817.56
421.617	776.56
421.839	777.56
422.062	800.56
422.285	803.56
422.507	799.56
422.73	829.56
422.953	807.56
423.175	819.56
423.398	835.56
423.621	831.56
423.843	833.56
424.066	831.56
424.288	820.56
424.511	815.56
424.733	813.56
424.956	807.56
425.178	814.56
425.401	797.56
425.623	812.56
425.846	783.56
426.068	783.56
426.291	776.56
426.513	734.56
426.735	739.56
426.958	725.56
427.18	731.56
427.402	720.56
427.625	713.56
427.847	705.56
428.069	706.56
428.292	724.56
428.514	696.56
428.736	713.56
428.958	693.56
429.181	690.56
429.403	699.56
429.625	653.56
429.847	689.56
430.069	687.56
430.292	710.56
430.514	673.56
430.736	669.56
430.958	675.56
431.18	689.56
431.402	680.56
431.624	695.56
431.846	704.56
432.068	709.56
432.29	717.56
432.512	713.56
432.734	718.56
432.956	690.56
433.178	730.56
433.4	724.56
433.622	703.56
433.844	717.56
434.066	741.56
434.287	744.56
434.509	773.56
434.731	793.56
434.953	749.56
435.175	810.56
435.397	793.56
435.618	756.56
435.84	733.56
436.062	732.56
436.284	726.56
436.505	721.56
436.727	724.56
436.949	716.56
437.17	701.56
437.392	702.56
437.614	720.56
437.835	689.56
438.057	718.56
438.278	677.56
438.5	664.56
438.721	672.56
438.943	674.56
439.165	684.56
439.386	713.56
439.608	697.56
439.829	718.56
440.05	720.56
440.272	701.56
440.493	714.56
440.715	702.56
440.936	726.56
441.158	738.56
441.379	743.56
441.6	791.56
441.822	814.56
442.043	806.56
442.264	809.56
442.486	777.56
442.707	782.56
442.928	773.56
443.149	784.56
443.371	807.56
443.592	801.56
443.813	804.56
444.034	813.56
444.255	818.56
444.476	862.56
444.698	902.56
444.919	939.56
445.14	1031.56
445.361	916.56
445.582	823.56
445.803	771.56
446.024	760.56
446.245	737.56
446.466	716.56
446.687	723.56
446.908	735.56
447.129	712.56
447.35	697.56
447.571	693.56
447.792	676.56
448.013	678.56
448.234	676.56
448.455	647.56
448.675	681.56
448.896	670.56
449.117	653.56
449.338	641.56
449.559	651.56
449.779	620.56
450	627.56
450.221	665.56
450.442	657.56
450.662	668.56
450.883	672.56
451.104	683.56
451.324	679.56
451.545	655.56
451.766	674.56
451.986	649.56
452.207	661.56
452.428	679.56
452.648	658.56
452.869	646.56
453.089	673.56
453.31	666.56
453.53	649.56
453.751	626.56
453.971	635.56
454.192	681.56
454.412	622.56
454.633	633.56
454.853	634.56
455.073	637.56
455.294	633.56
455.514	617.56
455.734	626.56
455.955	613.56
456.175	587.56
456.395	620.56
456.616	612.56
456.836	612.56
457.056	621.56
457.276	593.56
457.497	613.56
457.717	610.56
457.937	630.56
458.157	637.56
458.377	638.56
458.598	666.56
458.818	655.56
459.038	686.56
459.258	701.56
459.478	697.56
459.698	752.56
459.918	773.56
460.138	777.56
460.358	814.56
460.578	850.56
460.798	872.56
461.018	865.56
461.238	847.56
461.458	837.56
461.678	829.56
461.898	833.56
462.118	845.56
462.338	876.56
462.558	923.56
462.777	948.56
462.997	1056.56
463.217	1134.56
463.437	1142.56
463.657	1028.56
463.876	993.56
464.096	1023.56
464.316	969.56
464.536	979.56
464.755	967.56
464.975	894.56
465.195	874.56
465.414	828.56
465.634	775.56
465.854	735.56
466.073	718.56
466.293	705.56
466.512	697.56
466.732	695.56
466.951	699.56
467.171	691.56
467.391	686.56
467.61	683.56
467.829	693.56
468.049	697.56
468.268	661.56
468.488	689.56
468.707	642.56
468.927	641.56
469.146	661.56
469.365	656.56
469.585	682.56
469.804	704.56
470.023	718.56
470.243	683.56
470.462	722.56
470.681	707.56
470.901	716.56
471.12	699.56
471.339	715.56
471.558	679.56
471.777	664.56
471.997	682.56
472.216	682.56
472.435	662.56
472.654	641.56
472.873	654.56
473.092	623.56
473.311	633.56
473.53	639.56
473.749	650.56
473.968	664.56
474.187	620.56
474.406	619.56
474.625	652.56
474.844	665.56
475.063	649.56
475.282	653.56
475.501	671.56
475.72	662.56
475.939	655.56
476.158	644.56
476.377	654.56
476.596	667.56
476.814	710.56
477.033	681.56
477.252	708.56
477.471	724.56
477.69	728.56
477.908	733.56
478.127	773.56
478.346	797.56
478.564	786.56
478.783	793.56
479.002	805.56
479.22	799.56
479.439	780.56
479.658	789.56
479.876	818.56
480.095	824.56
480.313	838.56
480.532	849.56
480.751	863.56
480.969	844.56
481.188	791.56
481.406	769.56
481.624	776.56
481.843	759.56
482.061	735.56
482.28	738.56
482.498	731.56
482.717	720.56
482.935	745.56
483.153	724.56
483.372	740.56
483.59	735.56
483.808	729.56
484.027	748.56
484.245	765.56
484.463	762.56
484.681	792.56
484.9	785.56
485.118	767.56
485.336	797.56
485.554	787.56
485.772	797.56
485.99	782.56
486.209	820.56
486.427	813.56
486.645	789.56
486.863	802.56
487.081	792.56
487.299	800.56
487.517	782.56
487.735	803.56
487.953	771.56
488.171	797.56
488.389	799.56
488.607	765.56
488.825	763.56
489.043	780.56
489.261	763.56
489.479	757.56
489.696	803.56
489.914	757.56
490.132	762.56
490.35	757.56
490.568	779.56
490.786	776.56
491.003	775.56
491.221	791.56
491.439	778.56
491.657	783.56
491.874	783.56
492.092	775.56
492.31	792.56
492.527	779.56
492.745	799.56
492.963	777.56
493.18	811.56
493.398	805.56
493.615	817.56
493.833	794.56
494.05	823.56
494.268	839.56
494.485	812.56
494.703	795.56
494.92	811.56
495.138	805.56
495.355	826.56
495.573	825.56
495.79	807.56
496.008	830.56
496.225	847.56
496.442	833.56
496.66	832.56
496.877	838.56
497.094	878.56
497.312	882.56
497.529	893.56
497.746	930.56
497.963	922.56
498.181	967.56
498.398	1005.56
498.615	1050.56
498.832	1133.56
499.049	1209.56
499.267	1293.56
499.484	1426.56
499.701	1619.56
499.918	1764.56
500.135	2049.56
500.352	2325.56
500.569	2484.56
500.786	2450.56
501.003	2251.56
501.22	2007.56
501.437	1759.56
501.654	1553.56
501.871	1406.56
502.088	1263.56
502.305	1219.56
502.522	1126.56
502.739	1084.56
502.956	1043.56
503.172	990.56
503.389	965.56
503.606	937.56
503.823	917.56
504.04	912.56
504.256	933.56
504.473	949.56
504.69	983.56
504.907	947.56
505.123	874.56
505.34	837.56
505.557	797.56
505.773	768.56
505.99	798.56
506.207	783.56
506.423	737.56
506.64	741.56
506.856	737.56
507.073	726.56
507.289	723.56
507.506	732.56
507.722	715.56
507.939	715.56
508.155	686.56
508.372	699.56
508.588	706.56
508.805	704.56
509.021	674.56
509.238	710.56
509.454	678.56
509.67	653.56
509.887	669.56
510.103	682.56
510.319	663.56
510.536	665.56
510.752	663.56
510.968	676.56
511.184	667.56
511.401	669.56
511.617	668.56
511.833	653.56
512.049	652.56
512.265	662.56
512.481	641.56
512.698	665.56
512.914	671.56
513.13	655.56
513.346	664.56
513.562	690.56
513.778	690.56
513.994	655.56
514.21	678.56
514.426	697.56
514.642	689.56
514.858	670.56
515.074	691.56
515.29	669.56
515.506	661.56
515.721	708.56
515.937	692.56
516.153	719.56
516.369	718.56
516.585	734.56
516.801	803.56
517.016	810.56
517.232	834.56
517.448	862.56
517.664	935.56
517.879	905.56
518.095	921.56
518.311	911.56
518.527	875.56
518.742	842.56
518.958	794.56
519.173	766.56
519.389	753.56
519.605	733.56
519.82	699.56
520.036	692.56
520.251	663.56
520.467	676.56
520.682	683.56
520.898	683.56
521.113	667.56
521.329	653.56
521.544	664.56
521.76	647.56
521.975	647.56
522.19	653.56
522.406	637.56
522.621	627.56
522.836	617.56
523.052	636.56
523.267	637.56
523.482	649.56
523.698	617.56
523.913	612.56
524.128	633.56
524.343	627.56
524.559	639.56
524.774	616.56
524.989	620.56
525.204	616.56
525.419	631.56
525.634	603.56
525.849	615.56
526.064	605.56
526.28	616.56
526.495	585.56
526.71	587.56
526.925	615.56
527.14	584.56
527.355	623.56
527.57	606.56
527.785	610.56
527.999	600.56
528.214	611.56
528.429	608.56
528.644	619.56
528.859	614.56
529.074	622.56
529.289	589.56
529.503	590.56
529.718	611.56
529.933	597.56
530.148	602.56
530.363	612.56
530.577	589.56
530.792	613.56
531.007	602.56
531.221	602.56
531.436	610.56
531.651	616.56
531.865	614.56
532.08	618.56
532.295	617.56
532.509	597.56
532.724	617.56
532.938	629.56
533.153	634.56
533.367	607.56
533.582	607.56
533.796	607.56
534.011	608.56
534.225	596.56
534.44	583.56
534.654	591.56
534.868	607.56
535.083	600.56
535.297	571.56
535.511	567.56
535.726	584.56
535.94	603.56
536.154	577.56
536.369	584.56
536.583	566.56
536.797	575.56
537.011	570.56
537.225	569.56
537.44	559.56
537.654	549.56
537.868	573.56
538.082	553.56
538.296	576.56
538.51	540.56
538.724	551.56
538.938	548.56
539.153	568.56
539.367	558.56
539.581	563.56
539.795	544.56
540.009	579.56
540.222	575.56
540.436	545.56
540.65	535.56
540.864	558.56
541.078	530.56
541.292	552.56
541.506	539.56
541.72	568.56
541.934	558.56
542.147	553.56
542.361	562.56
542.575	541.56
542.789	541.56
543.002	546.56
543.216	525.56
543.43	538.56
543.644	543.56
543.857	537.56
544.071	541.56
544.285	537.56
544.498	538.56
544.712	524.56
544.925	558.56
545.139	537.56
545.352	527.56
545.566	570.56
545.779	559.56
545.993	570.56
546.206	559.56
546.42	554.56
546.633	555.56
546.847	545.56
547.06	554.56
547.274	547.56
547.487	549.56
547.7	539.56
547.914	556.56
548.127	563.56
548.34	569.56
548.554	557.56
548.767	559.56
548.98	559.56
549.193	565.56
549.407	568.56
549.62	581.56
549.833	583.56
550.046	567.56
550.259	543.56
550.473	565.56
550.686	548.56
550.899	528.56
551.112	560.56
551.325	538.56
551.538	545.56
551.751	530.56
551.964	541.56
552.177	560.56
552.39	565.56
552.603	573.56
552.816	593.56
553.029	604.56
553.242	630.56
553.455	616.56
553.667	621.56
553.88	611.56
554.093	585.56
554.306	586.56
554.519	555.56
554.732	554.56
554.944	536.56
555.157	543.56
555.37	534.56
555.583	508.56
555.795	505.56
556.008	522.56
556.221	504.56
556.433	493.56
556.646	502.56
556.859	478.56
557.071	478.56
557.284	491.56
557.496	469.56
557.709	475.56
557.921	494.56
558.134	497.56
558.346	475.56
558.559	472.56
558.771	467.56
558.984	501.56
559.196	471.56
559.409	463.56
559.621	469.56
559.833	470.56
560.046	477.56
560.258	459.56
560.47	474.56
560.683	467.56
560.895	457.56
561.107	468.56
561.32	455.56
561.532	478.56
561.744	457.56
561.956	457.56
562.168	471.56
562.381	472.56
562.593	460.56
562.805	475.56
563.017	461.56
563.229	466.56
563.441	455.56
563.653	474.56
563.865	467.56
564.077	502.56
564.289	487.56
564.501	470.56
564.713	502.56
564.925	504.56
565.137	490.56
565.349	509.56
565.561	525.56
565.773	554.56
565.985	569.56
566.197	595.56
566.408	603.56
566.62	672.56
566.832	722.56
567.044	775.56
567.255	735.56
567.467	759.56
567.679	793.56
567.891	877.56
568.102	892.56
568.314	862.56
568.526	773.56
568.737	683.56
568.949	621.56
569.161	569.56
569.372	539.56
569.584	505.56
569.795	493.56
570.007	506.56
570.218	482.56
570.43	473.56
570.641	466.56
570.853	467.56
571.064	456.56
571.276	492.56
571.487	455.56
571.698	442.56
571.91	441.56
572.121	416.56
572.333	422.56
572.544	419.56
572.755	429.56
572.966	398.56
573.178	395.56
573.389	423.56
573.6	400.56
573.811	375.56
574.023	396.56
574.234	399.56
574.445	398.56
574.656	410.56
574.867	404.56
575.078	381.56
575.289	390.56
575.501	379.56
575.712	377.56
575.923	383.56
576.134	376.56
576.345	378.56
576.556	377.56
576.767	379.56
576.978	379.56
577.188	368.56
577.399	375.56
577.61	362.56
577.821	353.56
578.032	344.56
578.243	371.56
578.454	343.56
578.665	340.56
578.875	336.56
579.086	344.56
579.297	349.56
579.508	349.56
579.718	361.56
579.929	342.56
580.14	350.56
580.35	348.56
580.561	353.56
580.772	341.56
580.982	356.56
581.193	352.56
581.403	340.56
581.614	338.56
581.825	334.56
582.035	333.56
582.246	354.56
582.456	322.56
582.667	339.56
582.877	339.56
583.087	326.56
583.298	330.56
583.508	318.56
583.719	334.56
583.929	330.56
584.139	321.56
584.35	335.56
584.56	338.56
584.77	338.56
584.981	333.56
585.191	334.56
585.401	326.56
585.611	321.56
585.821	320.56
586.032	323.56
586.242	343.56
586.452	332.56
586.662	319.56
586.872	312.56
587.082	313.56
587.292	337.56
587.502	329.56
587.713	317.56
587.923	324.56
588.133	315.56
588.343	319.56
588.553	319.56
588.762	315.56
588.972	333.56
589.182	313.56
589.392	324.56
589.602	321.56
589.812	322.56
590.022	310.56
590.232	302.56
590.441	330.56
590.651	329.56
590.861	334.56
591.071	325.56
591.281	330.56
591.49	323.56
591.7	349.56
591.91	342.56
592.119	334.56
592.329	348.56
592.539	349.56
592.748	373.56
592.958	394.56
593.167	385.56
593.377	407.56
593.587	415.56
593.796	405.56
594.006	405.56
594.215	400.56
594.424	400.56
594.634	393.56
594.843	406.56
595.053	375.56
595.262	353.56
595.472	343.56
595.681	350.56
595.89	341.56
596.1	328.56
596.309	318.56
596.518	323.56
596.727	314.56
596.937	317.56
597.146	303.56
597.355	297.56
597.564	289.56
597.774	289.56
597.983	282.56
598.192	266.56
598.401	290.56
598.61	280.56
598.819	275.56
599.028	286.56
599.237	263.56
599.446	277.56
599.655	275.56
599.864	278.56
600.073	270.56
600.282	299.56
600.491	281.56
600.7	281.56
600.909	278.56
601.118	294.56
601.327	277.56
601.536	270.56
601.745	272.56
601.953	278.56
602.162	266.56
602.371	283.56
602.58	259.56
602.789	277.56
602.997	263.56
603.206	269.56
603.415	257.56
603.623	275.56
603.832	261.56
604.041	278.56
604.249	261.56
604.458	265.56
604.666	282.56
604.875	265.56
605.084	251.56
605.292	258.56
605.501	273.56
605.709	253.56
605.918	247.56
606.126	261.56
606.334	271.56
606.543	268.56
606.751	268.56
606.96	267.56
607.168	244.56
607.376	265.56
607.585	277.56
607.793	245.56
608.001	262.56
608.21	253.56
608.418	244.56
608.626	237.56
608.834	234.56
609.043	245.56
609.251	253.56
609.459	252.56
609.667	230.56
609.875	243.56
610.083	242.56
610.291	238.56
610.499	230.56
610.707	249.56
610.916	240.56
611.124	251.56
611.332	241.56
611.54	240.56
611.748	230.56
611.955	232.56
612.163	245.56
612.371	239.56
612.579	231.56
612.787	245.56
612.995	247.56
613.203	230.56
613.411	252.56
613.618	241.56
613.826	245.56
614.034	242.56
614.242	234.56
614.449	230.56
614.657	236.56
614.865	237.56
615.072	230.56
615.28	243.56
615.488	238.56
615.695	249.56
615.903	225.56
616.111	237.56
616.318	247.56
616.526	253.56
616.733	257.56
616.941	253.56
617.148	249.56
617.356	248.56
617.563	252.56
617.771	231.56
617.978	224.56
618.185	247.56
618.393	233.56
618.6	256.56
618.807	247.56
619.015	233.56
619.222	249.56
619.429	251.56
619.637	244.56
619.844	234.56
620.051	236.56
620.258	239.56
620.466	239.56
620.673	237.56
620.88	224.56
621.087	220.56
621.294	218.56
621.501	225.56
621.708	214.56
621.915	207.56
622.122	226.56
622.329	223.56
622.536	217.56
622.743	224.56
622.95	197.56
623.157	216.56
623.364	220.56
623.571	230.56
623.778	214.56
623.985	218.56
624.192	217.56
624.399	199.56
624.606	205.56
624.812	206.56
625.019	211.56
625.226	184.56
625.433	205.56
625.639	205.56
625.846	212.56
626.053	225.56
626.259	207.56
626.466	213.56
626.673	206.56
626.879	202.56
627.086	204.56
627.293	220.56
627.499	221.56
627.706	208.56
627.912	228.56
628.119	202.56
628.325	212.56
628.532	211.56
628.738	200.56
628.945	188.56
629.151	205.56
629.357	210.56
629.564	203.56
629.77	197.56
629.976	194.56
630.183	189.56
630.389	192.56
630.595	204.56
630.802	194.56
631.008	194.56
631.214	187.56
631.42	165.56
631.627	187.56
631.833	213.56
632.039	181.56
632.245	197.56
632.451	197.56
632.657	197.56
632.863	180.56
633.069	172.56
633.275	179.56
633.481	201.56
633.688	186.56
633.893	184.56
634.099	191.56
634.305	187.56
634.511	190.56
634.717	185.56
634.923	194.56
635.129	181.56
635.335	184.56
635.541	189.56
635.747	189.56
635.952	202.56
636.158	187.56
636.364	209.56
636.57	179.56
636.775	180.56
636.981	184.56
637.187	191.56
637.392	191.56
637.598	186.56
637.804	188.56
638.009	189.56
638.215	193.56
638.421	182.56
638.626	172.56
638.832	169.56
639.037	177.56
639.243	176.56
639.448	175.56
639.654	169.56
639.859	169.56
640.065	178.56
640.27	161.56
640.475	173.56
640.681	161.56
640.886	163.56
641.091	154.56
641.297	159.56
641.502	174.56
641.707	163.56
641.913	182.56
642.118	171.56
642.323	175.56
642.528	167.56
642.733	165.56
642.939	162.56
643.144	177.56
643.349	172.56
643.554	158.56
643.759	177.56
643.964	170.56
644.169	173.56
644.374	161.56
644.579	154.56
644.784	173.56
644.989	165.56
645.194	157.56
645.399	154.56
645.604	173.56
645.809	161.56
646.014	166.56
646.219	169.56
646.423	164.56
646.628	173.56
646.833	173.56
647.038	175.56
647.243	179.56
647.447	178.56
647.652	177.56
647.857	164.56
648.062	170.56
648.266	164.56
648.471	169.56
648.676	188.56
648.88	183.56
649.085	153.56
649.289	160.56
649.494	169.56
649.698	156.56
649.903	169.56
650.107	189.56
650.312	177.56
650.516	158.56
650.721	167.56
650.925	159.56
651.13	165.56
651.334	158.56
651.539	149.56
651.743	160.56
651.947	157.56
652.152	140.56
652.356	150.56
652.56	131.56
652.764	150.56
652.969	149.56
653.173	148.56
653.377	137.56
653.581	126.56
653.785	136.56
653.99	129.56
654.194	148.56
654.398	142.56
654.602	129.56
654.806	143.56
655.01	143.56
655.214	132.56
655.418	147.56
655.622	122.56
655.826	143.56
656.03	144.56
656.234	125.56
656.438	144.56
656.642	142.56
656.846	133.56
657.049	133.56
657.253	138.56
657.457	115.56
657.661	125.56
657.865	138.56
658.068	111.56
658.272	109.56
658.476	112.56
658.68	117.56
658.883	107.56
659.087	105.56
659.291	94.56
659.494	106.56
659.698	106.56
659.901	93.56
660.105	94.56
660.309	102.56
660.512	102.56
660.716	91.56
660.919	98.56
661.123	88.56
661.326	87.56
661.53	83.56
661.733	92.56
661.936	82.56
662.14	90.56
662.343	92.56
662.546	88.56
662.75	89.56
662.953	83.56
663.156	76.56
663.36	77.56
663.563	83.56
663.766	79.56
663.969	66.56
664.173	88.56
664.376	84.56
664.579	73.56
664.782	79.56
664.985	87.56
665.188	80.56
665.391	88.56
665.594	72.56
665.797	80.56
666	74.56
666.203	94.56
666.406	97.56
666.609	86.56
666.812	106.56
667.015	86.56
667.218	73.56
667.421	91.56
667.624	84.56
667.827	85.56
668.03	89.56
668.232	89.56
668.435	86.56
668.638	90.56
668.841	89.56
669.043	92.56
669.246	81.56
669.449	79.56
669.651	79.56
669.854	91.56
670.057	96.56
670.259	84.56
670.462	89.56
670.665	74.56
670.867	73.56
671.07	79.56
671.272	74.56
671.475	83.56
671.677	78.56
671.88	102.56
672.082	76.56
672.284	85.56
672.487	86.56
672.689	87.56
672.892	81.56
