Data from Ni(NO3)2@0.0625M.TitratingCurve.Agarose3%dH2O.NegLispCup.LampEnergy10.LIBS07252019_HRD10591_18-13-30-573.txt Node
Date: Thu Jul 25 18:13:30 EDT 2019
User: cochatt
Spectrometer: HR+D1059
Trigger mode: 1
Integration Time (sec): 1.000000E-1
Scans to average: 1
Electric dark correction enabled: true
Nonlinearity correction enabled: false
Boxcar width: 0
XAxis mode: Wavelengths
Number of Pixels in Spectrum: 2048
>>>>>Begin Spectral Data<<<<<
223.165	-17.81
223.4	-17.81
223.635	-17.81
223.869	-19.81
224.104	-24.81
224.338	-15.81
224.573	-18.81
224.808	-0.81
225.042	-1.81
225.277	-7.81
225.511	-3.81
225.746	2.19
225.98	7.19
226.215	2.19
226.449	17.19
226.683	28.19
226.918	23.19
227.152	31.19
227.387	25.19
227.621	27.19
227.856	43.19
228.09	47.19
228.324	41.19
228.559	58.19
228.793	55.19
229.027	92.19
229.262	101.19
229.496	95.19
229.73	97.19
229.964	109.19
230.199	112.19
230.433	117.19
230.667	103.19
230.901	107.19
231.136	117.19
231.37	114.19
231.604	124.19
231.838	120.19
232.072	119.19
232.306	120.19
232.541	114.19
232.775	133.19
233.009	129.19
233.243	120.19
233.477	122.19
233.711	130.19
233.945	114.19
234.179	127.19
234.413	131.19
234.647	123.19
234.881	122.19
235.115	122.19
235.349	126.19
235.583	126.19
235.817	114.19
236.051	115.19
236.285	126.19
236.519	124.19
236.753	124.19
236.987	125.19
237.221	134.19
237.455	130.19
237.689	138.19
237.922	117.19
238.156	131.19
238.39	119.19
238.624	126.19
238.858	124.19
239.091	113.19
239.325	133.19
239.559	136.19
239.793	137.19
240.027	118.19
240.26	131.19
240.494	139.19
240.728	133.19
240.961	139.19
241.195	138.19
241.429	136.19
241.662	152.19
241.896	152.19
242.13	137.19
242.363	137.19
242.597	149.19
242.83	155.19
243.064	148.19
243.298	144.19
243.531	150.19
243.765	154.19
243.998	142.19
244.232	163.19
244.465	147.19
244.699	158.19
244.932	142.19
245.166	160.19
245.399	157.19
245.633	164.19
245.866	160.19
246.099	157.19
246.333	160.19
246.566	160.19
246.8	158.19
247.033	164.19
247.266	156.19
247.5	166.19
247.733	183.19
247.966	161.19
248.2	183.19
248.433	171.19
248.666	172.19
248.899	172.19
249.133	153.19
249.366	176.19
249.599	173.19
249.832	168.19
250.066	181.19
250.299	184.19
250.532	180.19
250.765	185.19
250.998	184.19
251.231	166.19
251.465	184.19
251.698	201.19
251.931	189.19
252.164	197.19
252.397	194.19
252.63	163.19
252.863	182.19
253.096	178.19
253.329	194.19
253.562	193.19
253.795	183.19
254.028	200.19
254.261	190.19
254.494	186.19
254.727	205.19
254.96	201.19
255.193	203.19
255.426	208.19
255.659	187.19
255.892	209.19
256.124	187.19
256.357	200.19
256.59	206.19
256.823	195.19
257.056	210.19
257.289	188.19
257.521	215.19
257.754	209.19
257.987	223.19
258.22	208.19
258.452	196.19
258.685	199.19
258.918	206.19
259.151	199.19
259.383	208.19
259.616	210.19
259.849	216.19
260.081	220.19
260.314	226.19
260.547	222.19
260.779	243.19
261.012	211.19
261.244	218.19
261.477	232.19
261.71	234.19
261.942	239.19
262.175	239.19
262.407	208.19
262.64	236.19
262.872	226.19
263.105	228.19
263.337	232.19
263.57	219.19
263.802	236.19
264.035	239.19
264.267	236.19
264.499	228.19
264.732	239.19
264.964	229.19
265.197	230.19
265.429	247.19
265.661	238.19
265.894	222.19
266.126	228.19
266.358	252.19
266.591	228.19
266.823	244.19
267.055	251.19
267.287	241.19
267.52	250.19
267.752	229.19
267.984	246.19
268.216	238.19
268.448	255.19
268.681	242.19
268.913	252.19
269.145	259.19
269.377	243.19
269.609	270.19
269.841	246.19
270.073	248.19
270.306	271.19
270.538	262.19
270.77	268.19
271.002	255.19
271.234	258.19
271.466	267.19
271.698	251.19
271.93	263.19
272.162	262.19
272.394	252.19
272.626	275.19
272.858	254.19
273.09	248.19
273.322	261.19
273.553	261.19
273.785	259.19
274.017	251.19
274.249	271.19
274.481	264.19
274.713	275.19
274.945	262.19
275.176	262.19
275.408	283.19
275.64	278.19
275.872	278.19
276.104	278.19
276.335	269.19
276.567	273.19
276.799	269.19
277.031	272.19
277.262	275.19
277.494	285.19
277.726	278.19
277.957	281.19
278.189	282.19
278.421	276.19
278.652	303.19
278.884	311.19
279.115	282.19
279.347	286.19
279.579	306.19
279.81	296.19
280.042	287.19
280.273	295.19
280.505	284.19
280.736	298.19
280.968	303.19
281.199	300.19
281.431	303.19
281.662	286.19
281.894	277.19
282.125	305.19
282.356	299.19
282.588	290.19
282.819	311.19
283.051	321.19
283.282	306.19
283.513	305.19
283.745	320.19
283.976	320.19
284.207	316.19
284.439	322.19
284.67	326.19
284.901	306.19
285.132	303.19
285.364	326.19
285.595	338.19
285.826	310.19
286.057	307.19
286.288	313.19
286.52	336.19
286.751	324.19
286.982	324.19
287.213	354.19
287.444	334.19
287.675	324.19
287.906	324.19
288.138	330.19
288.369	334.19
288.6	339.19
288.831	352.19
289.062	336.19
289.293	334.19
289.524	341.19
289.755	342.19
289.986	316.19
290.217	335.19
290.448	355.19
290.679	350.19
290.91	368.19
291.141	351.19
291.371	358.19
291.602	343.19
291.833	345.19
292.064	330.19
292.295	348.19
292.526	336.19
292.757	331.19
292.987	351.19
293.218	331.19
293.449	348.19
293.68	348.19
293.91	340.19
294.141	349.19
294.372	347.19
294.603	355.19
294.833	345.19
295.064	350.19
295.295	341.19
295.525	339.19
295.756	366.19
295.987	362.19
296.217	381.19
296.448	358.19
296.679	372.19
296.909	367.19
297.14	360.19
297.37	373.19
297.601	362.19
297.831	387.19
298.062	378.19
298.292	365.19
298.523	398.19
298.753	382.19
298.984	369.19
299.214	387.19
299.445	370.19
299.675	370.19
299.905	379.19
300.136	371.19
300.366	395.19
300.597	374.19
300.827	392.19
301.057	393.19
301.288	412.19
301.518	371.19
301.748	384.19
301.979	391.19
302.209	377.19
302.439	375.19
302.669	379.19
302.9	395.19
303.13	380.19
303.36	394.19
303.59	390.19
303.82	404.19
304.051	389.19
304.281	391.19
304.511	399.19
304.741	382.19
304.971	414.19
305.201	405.19
305.431	387.19
305.661	386.19
305.891	385.19
306.121	348.19
306.352	381.19
306.582	378.19
306.812	401.19
307.042	383.19
307.272	371.19
307.502	393.19
307.731	382.19
307.961	386.19
308.191	368.19
308.421	386.19
308.651	386.19
308.881	371.19
309.111	396.19
309.341	387.19
309.571	386.19
309.8	374.19
310.03	395.19
310.26	390.19
310.49	400.19
310.72	383.19
310.949	378.19
311.179	380.19
311.409	389.19
311.639	394.19
311.868	381.19
312.098	409.19
312.328	404.19
312.557	392.19
312.787	386.19
313.017	386.19
313.246	419.19
313.476	396.19
313.706	418.19
313.935	402.19
314.165	419.19
314.394	412.19
314.624	414.19
314.853	411.19
315.083	401.19
315.312	406.19
315.542	390.19
315.771	412.19
316.001	399.19
316.23	382.19
316.46	403.19
316.689	406.19
316.919	380.19
317.148	398.19
317.377	406.19
317.607	382.19
317.836	357.19
318.065	374.19
318.295	398.19
318.524	416.19
318.753	402.19
318.983	392.19
319.212	399.19
319.441	392.19
319.67	392.19
319.9	398.19
320.129	393.19
320.358	397.19
320.587	391.19
320.816	415.19
321.046	390.19
321.275	396.19
321.504	417.19
321.733	413.19
321.962	384.19
322.191	389.19
322.42	404.19
322.649	413.19
322.878	416.19
323.108	398.19
323.337	407.19
323.566	418.19
323.795	442.19
324.024	402.19
324.253	412.19
324.482	408.19
324.71	415.19
324.939	414.19
325.168	440.19
325.397	411.19
325.626	412.19
325.855	422.19
326.084	440.19
326.313	434.19
326.542	448.19
326.77	442.19
326.999	427.19
327.228	419.19
327.457	421.19
327.686	448.19
327.914	418.19
328.143	438.19
328.372	468.19
328.6	433.19
328.829	451.19
329.058	429.19
329.287	431.19
329.515	451.19
329.744	429.19
329.972	456.19
330.201	452.19
330.43	440.19
330.658	425.19
330.887	455.19
331.115	476.19
331.344	455.19
331.572	463.19
331.801	491.19
332.03	488.19
332.258	487.19
332.486	487.19
332.715	530.19
332.943	563.19
333.172	557.19
333.4	574.19
333.629	588.19
333.857	598.19
334.085	584.19
334.314	573.19
334.542	573.19
334.771	567.19
334.999	551.19
335.227	528.19
335.455	553.19
335.684	556.19
335.912	538.19
336.14	533.19
336.369	531.19
336.597	551.19
336.825	518.19
337.053	550.19
337.281	498.19
337.51	520.19
337.738	505.19
337.966	505.19
338.194	489.19
338.422	480.19
338.65	464.19
338.878	485.19
339.106	464.19
339.334	484.19
339.562	468.19
339.79	457.19
340.018	444.19
340.246	452.19
340.474	467.19
340.702	485.19
340.93	466.19
341.158	467.19
341.386	472.19
341.614	463.19
341.842	464.19
342.07	447.19
342.298	456.19
342.526	448.19
342.754	467.19
342.981	473.19
343.209	472.19
343.437	488.19
343.665	514.19
343.893	554.19
344.12	579.19
344.348	551.19
344.576	526.19
344.804	520.19
345.031	502.19
345.259	480.19
345.487	456.19
345.714	462.19
345.942	448.19
346.17	464.19
346.397	454.19
346.625	457.19
346.853	439.19
347.08	459.19
347.308	477.19
347.535	483.19
347.763	471.19
347.99	474.19
348.218	463.19
348.445	462.19
348.673	444.19
348.9	437.19
349.128	442.19
349.355	453.19
349.583	434.19
349.81	441.19
350.037	438.19
350.265	456.19
350.492	462.19
350.72	431.19
350.947	451.19
351.174	472.19
351.402	441.19
351.629	443.19
351.856	462.19
352.083	463.19
352.311	431.19
352.538	423.19
352.765	449.19
352.992	419.19
353.22	444.19
353.447	434.19
353.674	435.19
353.901	439.19
354.128	416.19
354.355	432.19
354.583	440.19
354.81	447.19
355.037	437.19
355.264	431.19
355.491	428.19
355.718	429.19
355.945	438.19
356.172	454.19
356.399	445.19
356.626	443.19
356.853	455.19
357.08	415.19
357.307	457.19
357.534	438.19
357.761	456.19
357.988	449.19
358.215	419.19
358.441	454.19
358.668	434.19
358.895	444.19
359.122	438.19
359.349	438.19
359.576	453.19
359.802	451.19
360.029	442.19
360.256	450.19
360.483	457.19
360.709	446.19
360.936	441.19
361.163	448.19
361.39	445.19
361.616	446.19
361.843	423.19
362.07	450.19
362.296	432.19
362.523	436.19
362.749	448.19
362.976	428.19
363.203	431.19
363.429	431.19
363.656	434.19
363.882	424.19
364.109	450.19
364.335	442.19
364.562	427.19
364.788	422.19
365.015	422.19
365.241	428.19
365.468	445.19
365.694	426.19
365.92	423.19
366.147	440.19
366.373	453.19
366.599	440.19
366.826	427.19
367.052	418.19
367.278	444.19
367.505	442.19
367.731	445.19
367.957	439.19
368.184	447.19
368.41	454.19
368.636	454.19
368.862	436.19
369.089	445.19
369.315	466.19
369.541	454.19
369.767	453.19
369.993	469.19
370.219	457.19
370.445	449.19
370.672	465.19
370.898	465.19
371.124	482.19
371.35	460.19
371.576	492.19
371.802	485.19
372.028	462.19
372.254	468.19
372.48	500.19
372.706	495.19
372.932	505.19
373.158	495.19
373.384	504.19
373.61	478.19
373.835	495.19
374.061	486.19
374.287	495.19
374.513	488.19
374.739	515.19
374.965	510.19
375.191	535.19
375.416	552.19
375.642	513.19
375.868	504.19
376.094	516.19
376.319	494.19
376.545	502.19
376.771	500.19
376.997	494.19
377.222	498.19
377.448	474.19
377.674	465.19
377.899	459.19
378.125	476.19
378.35	464.19
378.576	466.19
378.802	468.19
379.027	482.19
379.253	462.19
379.478	458.19
379.704	467.19
379.929	473.19
380.155	459.19
380.38	463.19
380.606	468.19
380.831	468.19
381.057	491.19
381.282	473.19
381.507	461.19
381.733	476.19
381.958	478.19
382.184	501.19
382.409	495.19
382.634	492.19
382.86	512.19
383.085	507.19
383.31	512.19
383.535	511.19
383.761	531.19
383.986	536.19
384.211	551.19
384.436	548.19
384.662	574.19
384.887	566.19
385.112	567.19
385.337	598.19
385.562	582.19
385.787	572.19
386.013	591.19
386.238	558.19
386.463	566.19
386.688	592.19
386.913	554.19
387.138	538.19
387.363	571.19
387.588	554.19
387.813	558.19
388.038	575.19
388.263	562.19
388.488	534.19
388.713	556.19
388.938	546.19
389.163	542.19
389.387	533.19
389.612	543.19
389.837	538.19
390.062	558.19
390.287	567.19
390.512	540.19
390.736	547.19
390.961	557.19
391.186	597.19
391.411	597.19
391.636	589.19
391.86	632.19
392.085	664.19
392.31	636.19
392.534	605.19
392.759	612.19
392.984	608.19
393.208	599.19
393.433	588.19
393.658	612.19
393.882	616.19
394.107	607.19
394.331	593.19
394.556	629.19
394.78	619.19
395.005	600.19
395.229	590.19
395.454	615.19
395.678	606.19
395.903	618.19
396.127	619.19
396.352	603.19
396.576	563.19
396.801	586.19
397.025	606.19
397.249	608.19
397.474	602.19
397.698	616.19
397.922	629.19
398.147	620.19
398.371	636.19
398.595	655.19
398.82	662.19
399.044	715.19
399.268	812.19
399.492	946.19
399.717	1058.19
399.941	1043.19
400.165	931.19
400.389	827.19
400.613	740.19
400.837	715.19
401.062	693.19
401.286	702.19
401.51	699.19
401.734	707.19
401.958	692.19
402.182	710.19
402.406	711.19
402.63	722.19
402.854	772.19
403.078	750.19
403.302	788.19
403.526	769.19
403.75	810.19
403.974	806.19
404.198	812.19
404.422	857.19
404.645	811.19
404.869	791.19
405.093	798.19
405.317	782.19
405.541	781.19
405.765	774.19
405.988	777.19
406.212	756.19
406.436	737.19
406.66	780.19
406.883	792.19
407.107	857.19
407.331	887.19
407.555	896.19
407.778	865.19
408.002	911.19
408.226	855.19
408.449	828.19
408.673	811.19
408.896	797.19
409.12	764.19
409.344	794.19
409.567	800.19
409.791	826.19
410.014	836.19
410.238	796.19
410.461	809.19
410.685	762.19
410.908	776.19
411.132	739.19
411.355	737.19
411.578	710.19
411.802	716.19
412.025	723.19
412.249	754.19
412.472	721.19
412.695	733.19
412.919	688.19
413.142	697.19
413.365	687.19
413.589	703.19
413.812	685.19
414.035	682.19
414.258	714.19
414.482	719.19
414.705	737.19
414.928	697.19
415.151	694.19
415.374	694.19
415.597	723.19
415.821	674.19
416.044	708.19
416.267	717.19
416.49	678.19
416.713	672.19
416.936	695.19
417.159	695.19
417.382	700.19
417.605	678.19
417.828	656.19
418.051	699.19
418.274	700.19
418.497	711.19
418.72	723.19
418.943	740.19
419.166	762.19
419.389	818.19
419.611	773.19
419.834	747.19
420.057	746.19
420.28	734.19
420.503	688.19
420.726	693.19
420.948	680.19
421.171	679.19
421.394	687.19
421.617	683.19
421.839	710.19
422.062	682.19
422.285	715.19
422.507	721.19
422.73	733.19
422.953	716.19
423.175	756.19
423.398	732.19
423.621	729.19
423.843	758.19
424.066	728.19
424.288	753.19
424.511	711.19
424.733	727.19
424.956	719.19
425.178	714.19
425.401	720.19
425.623	721.19
425.846	703.19
426.068	671.19
426.291	690.19
426.513	658.19
426.735	634.19
426.958	663.19
427.18	642.19
427.402	645.19
427.625	628.19
427.847	642.19
428.069	629.19
428.292	628.19
428.514	650.19
428.736	603.19
428.958	626.19
429.181	614.19
429.403	599.19
429.625	611.19
429.847	610.19
430.069	626.19
430.292	615.19
430.514	603.19
430.736	605.19
430.958	612.19
431.18	609.19
431.402	622.19
431.624	601.19
431.846	623.19
432.068	646.19
432.29	639.19
432.512	623.19
432.734	634.19
432.956	637.19
433.178	652.19
433.4	648.19
433.622	638.19
433.844	642.19
434.066	672.19
434.287	626.19
434.509	682.19
434.731	678.19
434.953	718.19
435.175	735.19
435.397	720.19
435.618	694.19
435.84	684.19
436.062	658.19
436.284	650.19
436.505	635.19
436.727	648.19
436.949	655.19
437.17	650.19
437.392	615.19
437.614	628.19
437.835	621.19
438.057	613.19
438.278	619.19
438.5	601.19
438.721	620.19
438.943	621.19
439.165	632.19
439.386	622.19
439.608	609.19
439.829	631.19
440.05	644.19
440.272	631.19
440.493	645.19
440.715	661.19
440.936	649.19
441.158	670.19
441.379	687.19
441.6	718.19
441.822	741.19
442.043	740.19
442.264	710.19
442.486	694.19
442.707	705.19
442.928	710.19
443.149	703.19
443.371	703.19
443.592	719.19
443.813	732.19
444.034	723.19
444.255	743.19
444.476	774.19
444.698	813.19
444.919	874.19
445.14	931.19
445.361	811.19
445.582	732.19
445.803	687.19
446.024	670.19
446.245	699.19
446.466	668.19
446.687	650.19
446.908	645.19
447.129	634.19
447.35	644.19
447.571	614.19
447.792	607.19
448.013	586.19
448.234	608.19
448.455	615.19
448.675	606.19
448.896	596.19
449.117	591.19
449.338	592.19
449.559	599.19
449.779	597.19
450	578.19
450.221	623.19
450.442	616.19
450.662	612.19
450.883	609.19
451.104	638.19
451.324	613.19
451.545	652.19
451.766	633.19
451.986	597.19
452.207	606.19
452.428	602.19
452.648	592.19
452.869	600.19
453.089	580.19
453.31	601.19
453.53	566.19
453.751	567.19
453.971	580.19
454.192	586.19
454.412	590.19
454.633	597.19
454.853	574.19
455.073	561.19
455.294	572.19
455.514	572.19
455.734	571.19
455.955	557.19
456.175	560.19
456.395	551.19
456.616	548.19
456.836	544.19
457.056	541.19
457.276	553.19
457.497	564.19
457.717	546.19
457.937	539.19
458.157	550.19
458.377	582.19
458.598	585.19
458.818	598.19
459.038	615.19
459.258	620.19
459.478	656.19
459.698	666.19
459.918	676.19
460.138	705.19
460.358	735.19
460.578	742.19
460.798	772.19
461.018	788.19
461.238	770.19
461.458	743.19
461.678	748.19
461.898	775.19
462.118	743.19
462.338	783.19
462.558	813.19
462.777	849.19
462.997	930.19
463.217	998.19
463.437	1020.19
463.657	930.19
463.876	887.19
464.096	906.19
464.316	882.19
464.536	886.19
464.755	844.19
464.975	814.19
465.195	777.19
465.414	766.19
465.634	675.19
465.854	665.19
466.073	652.19
466.293	649.19
466.512	646.19
466.732	622.19
466.951	640.19
467.171	623.19
467.391	612.19
467.61	632.19
467.829	608.19
468.049	626.19
468.268	606.19
468.488	613.19
468.707	587.19
468.927	591.19
469.146	575.19
469.365	623.19
469.585	587.19
469.804	626.19
470.023	628.19
470.243	657.19
470.462	636.19
470.681	634.19
470.901	623.19
471.12	633.19
471.339	617.19
471.558	632.19
471.777	602.19
471.997	580.19
472.216	618.19
472.435	600.19
472.654	600.19
472.873	565.19
473.092	570.19
473.311	594.19
473.53	584.19
473.749	568.19
473.968	571.19
474.187	582.19
474.406	582.19
474.625	581.19
474.844	595.19
475.063	578.19
475.282	569.19
475.501	596.19
475.72	586.19
475.939	603.19
476.158	599.19
476.377	605.19
476.596	603.19
476.814	585.19
477.033	615.19
477.252	624.19
477.471	611.19
477.69	644.19
477.908	665.19
478.127	661.19
478.346	672.19
478.564	723.19
478.783	718.19
479.002	739.19
479.22	734.19
479.439	693.19
479.658	704.19
479.876	691.19
480.095	723.19
480.313	753.19
480.532	793.19
480.751	783.19
480.969	717.19
481.188	720.19
481.406	705.19
481.624	680.19
481.843	636.19
482.061	666.19
482.28	663.19
482.498	660.19
482.717	674.19
482.935	651.19
483.153	686.19
483.372	650.19
483.59	663.19
483.808	660.19
484.027	653.19
484.245	674.19
484.463	630.19
484.681	675.19
484.9	676.19
485.118	710.19
485.336	694.19
485.554	724.19
485.772	716.19
485.99	720.19
486.209	701.19
486.427	728.19
486.645	713.19
486.863	703.19
487.081	706.19
487.299	715.19
487.517	707.19
487.735	700.19
487.953	715.19
488.171	715.19
488.389	689.19
488.607	680.19
488.825	685.19
489.043	691.19
489.261	684.19
489.479	686.19
489.696	683.19
489.914	700.19
490.132	708.19
490.35	702.19
490.568	684.19
490.786	694.19
491.003	675.19
491.221	700.19
491.439	698.19
491.657	692.19
491.874	668.19
492.092	710.19
492.31	694.19
492.527	717.19
492.745	735.19
492.963	722.19
493.18	707.19
493.398	707.19
493.615	739.19
493.833	744.19
494.05	742.19
494.268	738.19
494.485	736.19
494.703	748.19
494.92	750.19
495.138	723.19
495.355	750.19
495.573	744.19
495.79	738.19
496.008	738.19
496.225	755.19
496.442	749.19
496.66	759.19
496.877	749.19
497.094	762.19
497.312	785.19
497.529	807.19
497.746	838.19
497.963	878.19
498.181	863.19
498.398	917.19
498.615	958.19
498.832	1007.19
499.049	1082.19
499.267	1174.19
499.484	1274.19
499.701	1449.19
499.918	1562.19
500.135	1853.19
500.352	2127.19
500.569	2214.19
500.786	2204.19
501.003	2017.19
501.22	1791.19
501.437	1565.19
501.654	1363.19
501.871	1236.19
502.088	1147.19
502.305	1074.19
502.522	995.19
502.739	980.19
502.956	932.19
503.172	891.19
503.389	848.19
503.606	847.19
503.823	844.19
504.04	813.19
504.256	845.19
504.473	885.19
504.69	871.19
504.907	862.19
505.123	803.19
505.34	735.19
505.557	751.19
505.773	712.19
505.99	682.19
506.207	659.19
506.423	672.19
506.64	667.19
506.856	667.19
507.073	643.19
507.289	660.19
507.506	668.19
507.722	665.19
507.939	648.19
508.155	652.19
508.372	618.19
508.588	628.19
508.805	628.19
509.021	643.19
509.238	644.19
509.454	617.19
509.67	623.19
509.887	604.19
510.103	623.19
510.319	589.19
510.536	606.19
510.752	622.19
510.968	595.19
511.184	589.19
511.401	610.19
511.617	609.19
511.833	588.19
512.049	608.19
512.265	601.19
512.481	595.19
512.698	607.19
512.914	604.19
513.13	613.19
513.346	607.19
513.562	601.19
513.778	626.19
513.994	598.19
514.21	593.19
514.426	605.19
514.642	604.19
514.858	611.19
515.074	613.19
515.29	584.19
515.506	612.19
515.721	646.19
515.937	636.19
516.153	672.19
516.369	649.19
516.585	672.19
516.801	709.19
517.016	741.19
517.232	773.19
517.448	808.19
517.664	825.19
517.879	827.19
518.095	837.19
518.311	818.19
518.527	756.19
518.742	761.19
518.958	706.19
519.173	688.19
519.389	666.19
519.605	644.19
519.82	649.19
520.036	638.19
520.251	635.19
520.467	596.19
520.682	605.19
520.898	595.19
521.113	605.19
521.329	596.19
521.544	578.19
521.76	602.19
521.975	578.19
522.19	576.19
522.406	575.19
522.621	578.19
522.836	603.19
523.052	581.19
523.267	571.19
523.482	568.19
523.698	584.19
523.913	573.19
524.128	568.19
524.343	563.19
524.559	568.19
524.774	595.19
524.989	547.19
525.204	553.19
525.419	558.19
525.634	557.19
525.849	567.19
526.064	567.19
526.28	534.19
526.495	548.19
526.71	559.19
526.925	549.19
527.14	543.19
527.355	550.19
527.57	543.19
527.785	546.19
527.999	557.19
528.214	569.19
528.429	563.19
528.644	564.19
528.859	555.19
529.074	568.19
529.289	544.19
529.503	551.19
529.718	575.19
529.933	548.19
530.148	554.19
530.363	517.19
530.577	546.19
530.792	558.19
531.007	551.19
531.221	559.19
531.436	575.19
531.651	559.19
531.865	567.19
532.08	554.19
532.295	567.19
532.509	566.19
532.724	550.19
532.938	570.19
533.153	540.19
533.367	548.19
533.582	567.19
533.796	548.19
534.011	572.19
534.225	552.19
534.44	550.19
534.654	548.19
534.868	543.19
535.083	549.19
535.297	549.19
535.511	562.19
535.726	541.19
535.94	543.19
536.154	536.19
536.369	527.19
536.583	546.19
536.797	516.19
537.011	519.19
537.225	526.19
537.44	507.19
537.654	525.19
537.868	520.19
538.082	504.19
538.296	523.19
538.51	511.19
538.724	525.19
538.938	526.19
539.153	519.19
539.367	508.19
539.581	501.19
539.795	516.19
540.009	508.19
540.222	515.19
540.436	518.19
540.65	505.19
540.864	504.19
541.078	513.19
541.292	521.19
541.506	505.19
541.72	506.19
541.934	504.19
542.147	507.19
542.361	508.19
542.575	504.19
542.789	494.19
543.002	473.19
543.216	491.19
543.43	474.19
543.644	465.19
543.857	482.19
544.071	469.19
544.285	491.19
544.498	515.19
544.712	511.19
544.925	501.19
545.139	482.19
545.352	492.19
545.566	524.19
545.779	517.19
545.993	516.19
546.206	522.19
546.42	506.19
546.633	518.19
546.847	517.19
547.06	494.19
547.274	500.19
547.487	508.19
547.7	507.19
547.914	520.19
548.127	512.19
548.34	538.19
548.554	501.19
548.767	504.19
548.98	502.19
549.193	494.19
549.407	491.19
549.62	506.19
549.833	526.19
550.046	511.19
550.259	495.19
550.473	525.19
550.686	491.19
550.899	483.19
551.112	510.19
551.325	491.19
551.538	518.19
551.751	502.19
551.964	477.19
552.177	491.19
552.39	478.19
552.603	509.19
552.816	515.19
553.029	536.19
553.242	550.19
553.455	528.19
553.667	574.19
553.88	558.19
554.093	537.19
554.306	507.19
554.519	515.19
554.732	501.19
554.944	493.19
555.157	501.19
555.37	484.19
555.583	484.19
555.795	483.19
556.008	461.19
556.221	440.19
556.433	461.19
556.646	443.19
556.859	450.19
557.071	467.19
557.284	454.19
557.496	441.19
557.709	422.19
557.921	455.19
558.134	431.19
558.346	443.19
558.559	424.19
558.771	438.19
558.984	428.19
559.196	434.19
559.409	422.19
559.621	424.19
559.833	428.19
560.046	421.19
560.258	430.19
560.47	421.19
560.683	422.19
560.895	445.19
561.107	439.19
561.32	405.19
561.532	426.19
561.744	436.19
561.956	431.19
562.168	428.19
562.381	424.19
562.593	443.19
562.805	436.19
563.017	441.19
563.229	430.19
563.441	438.19
563.653	450.19
563.865	429.19
564.077	420.19
564.289	440.19
564.501	431.19
564.713	446.19
564.925	445.19
565.137	455.19
565.349	463.19
565.561	484.19
565.773	512.19
565.985	537.19
566.197	539.19
566.408	575.19
566.62	608.19
566.832	681.19
567.044	687.19
567.255	663.19
567.467	703.19
567.679	730.19
567.891	784.19
568.102	819.19
568.314	776.19
568.526	682.19
568.737	643.19
568.949	586.19
569.161	527.19
569.372	488.19
569.584	488.19
569.795	441.19
570.007	457.19
570.218	435.19
570.43	436.19
570.641	425.19
570.853	411.19
571.064	449.19
571.276	451.19
571.487	412.19
571.698	418.19
571.91	387.19
572.121	389.19
572.333	393.19
572.544	392.19
572.755	386.19
572.966	372.19
573.178	370.19
573.389	372.19
573.6	365.19
573.811	370.19
574.023	357.19
574.234	340.19
574.445	346.19
574.656	351.19
574.867	361.19
575.078	345.19
575.289	376.19
575.501	346.19
575.712	335.19
575.923	352.19
576.134	327.19
576.345	354.19
576.556	327.19
576.767	350.19
576.978	348.19
577.188	346.19
577.399	346.19
577.61	347.19
577.821	336.19
578.032	327.19
578.243	335.19
578.454	342.19
578.665	325.19
578.875	328.19
579.086	344.19
579.297	332.19
579.508	319.19
579.718	324.19
579.929	337.19
580.14	315.19
580.35	349.19
580.561	331.19
580.772	307.19
580.982	320.19
581.193	314.19
581.403	315.19
581.614	298.19
581.825	308.19
582.035	322.19
582.246	300.19
582.456	312.19
582.667	311.19
582.877	304.19
583.087	300.19
583.298	306.19
583.508	310.19
583.719	307.19
583.929	327.19
584.139	284.19
584.35	304.19
584.56	326.19
584.77	297.19
584.981	312.19
585.191	321.19
585.401	298.19
585.611	283.19
585.821	293.19
586.032	282.19
586.242	286.19
586.452	300.19
586.662	279.19
586.872	263.19
587.082	299.19
587.292	276.19
587.502	297.19
587.713	317.19
587.923	293.19
588.133	294.19
588.343	287.19
588.553	294.19
588.762	292.19
588.972	311.19
589.182	286.19
589.392	299.19
589.602	293.19
589.812	297.19
590.022	270.19
590.232	311.19
590.441	300.19
590.651	292.19
590.861	298.19
591.071	312.19
591.281	324.19
591.49	320.19
591.7	307.19
591.91	318.19
592.119	324.19
592.329	331.19
592.539	320.19
592.748	362.19
592.958	379.19
593.167	362.19
593.377	369.19
593.587	378.19
593.796	381.19
594.006	353.19
594.215	367.19
594.424	368.19
594.634	365.19
594.843	351.19
595.053	335.19
595.262	340.19
595.472	322.19
595.681	320.19
595.89	322.19
596.1	294.19
596.309	287.19
596.518	306.19
596.727	272.19
596.937	275.19
597.146	286.19
597.355	268.19
597.564	286.19
597.774	271.19
597.983	261.19
598.192	274.19
598.401	269.19
598.61	271.19
598.819	264.19
599.028	259.19
599.237	251.19
599.446	261.19
599.655	263.19
599.864	258.19
600.073	262.19
600.282	268.19
600.491	257.19
600.7	252.19
600.909	254.19
601.118	242.19
601.327	245.19
601.536	252.19
601.745	261.19
601.953	266.19
602.162	256.19
602.371	242.19
602.58	242.19
602.789	252.19
602.997	248.19
603.206	231.19
603.415	234.19
603.623	256.19
603.832	264.19
604.041	239.19
604.249	232.19
604.458	243.19
604.666	235.19
604.875	225.19
605.084	247.19
605.292	231.19
605.501	248.19
605.709	254.19
605.918	244.19
606.126	244.19
606.334	220.19
606.543	254.19
606.751	243.19
606.96	244.19
607.168	226.19
607.376	228.19
607.585	243.19
607.793	251.19
608.001	245.19
608.21	248.19
608.418	232.19
608.626	236.19
608.834	247.19
609.043	231.19
609.251	234.19
609.459	229.19
609.667	244.19
609.875	248.19
610.083	248.19
610.291	224.19
610.499	223.19
610.707	243.19
610.916	244.19
611.124	223.19
611.332	231.19
611.54	229.19
611.748	222.19
611.955	219.19
612.163	223.19
612.371	235.19
612.579	223.19
612.787	210.19
612.995	223.19
613.203	238.19
613.411	217.19
613.618	224.19
613.826	217.19
614.034	227.19
614.242	254.19
614.449	220.19
614.657	221.19
614.865	218.19
615.072	214.19
615.28	227.19
615.488	224.19
615.695	233.19
615.903	229.19
616.111	227.19
616.318	236.19
616.526	227.19
616.733	233.19
616.941	238.19
617.148	224.19
617.356	227.19
617.563	221.19
617.771	247.19
617.978	222.19
618.185	244.19
618.393	243.19
618.6	221.19
618.807	229.19
619.015	216.19
619.222	223.19
619.429	241.19
619.637	235.19
619.844	214.19
620.051	224.19
620.258	212.19
620.466	196.19
620.673	217.19
620.88	209.19
621.087	229.19
621.294	219.19
621.501	204.19
621.708	198.19
621.915	204.19
622.122	205.19
622.329	221.19
622.536	209.19
622.743	206.19
622.95	215.19
623.157	200.19
623.364	201.19
623.571	199.19
623.778	196.19
623.985	205.19
624.192	210.19
624.399	210.19
624.606	206.19
624.812	195.19
625.019	189.19
625.226	214.19
625.433	207.19
625.639	189.19
625.846	193.19
626.053	213.19
626.259	198.19
626.466	196.19
626.673	201.19
626.879	203.19
627.086	179.19
627.293	186.19
627.499	190.19
627.706	202.19
627.912	204.19
628.119	182.19
628.325	191.19
628.532	205.19
628.738	189.19
628.945	189.19
629.151	186.19
629.357	198.19
629.564	207.19
629.77	209.19
629.976	186.19
630.183	180.19
630.389	199.19
630.595	193.19
630.802	170.19
631.008	188.19
631.214	189.19
631.42	185.19
631.627	175.19
631.833	192.19
632.039	198.19
632.245	190.19
632.451	167.19
632.657	164.19
632.863	172.19
633.069	161.19
633.275	165.19
633.481	152.19
633.688	174.19
633.893	180.19
634.099	151.19
634.305	173.19
634.511	182.19
634.717	175.19
634.923	170.19
635.129	161.19
635.335	168.19
635.541	173.19
635.747	165.19
635.952	190.19
636.158	180.19
636.364	164.19
636.57	172.19
636.775	171.19
636.981	166.19
637.187	170.19
637.392	168.19
637.598	194.19
637.804	169.19
638.009	160.19
638.215	170.19
638.421	155.19
638.626	159.19
638.832	171.19
639.037	170.19
639.243	166.19
639.448	169.19
639.654	166.19
639.859	172.19
640.065	160.19
640.27	179.19
640.475	163.19
640.681	144.19
640.886	164.19
641.091	138.19
641.297	174.19
641.502	163.19
641.707	142.19
641.913	148.19
642.118	160.19
642.323	169.19
642.528	167.19
642.733	167.19
642.939	166.19
643.144	167.19
643.349	167.19
643.554	176.19
643.759	160.19
643.964	152.19
644.169	161.19
644.374	159.19
644.579	153.19
644.784	154.19
644.989	159.19
645.194	151.19
645.399	163.19
645.604	150.19
645.809	167.19
646.014	171.19
646.219	165.19
646.423	164.19
646.628	161.19
646.833	170.19
647.038	159.19
647.243	157.19
647.447	149.19
647.652	154.19
647.857	171.19
648.062	164.19
648.266	166.19
648.471	180.19
648.676	174.19
648.88	166.19
649.085	172.19
649.289	154.19
649.494	158.19
649.698	161.19
649.903	145.19
650.107	155.19
650.312	178.19
650.516	148.19
650.721	143.19
650.925	138.19
651.13	134.19
651.334	148.19
651.539	150.19
651.743	142.19
651.947	133.19
652.152	156.19
652.356	165.19
652.56	149.19
652.764	150.19
652.969	139.19
653.173	134.19
653.377	146.19
653.581	123.19
653.785	126.19
653.99	131.19
654.194	133.19
654.398	126.19
654.602	130.19
654.806	133.19
655.01	135.19
655.214	141.19
655.418	132.19
655.622	134.19
655.826	125.19
656.03	128.19
656.234	131.19
656.438	132.19
656.642	134.19
656.846	122.19
657.049	118.19
657.253	117.19
657.457	115.19
657.661	119.19
657.865	115.19
658.068	104.19
658.272	108.19
658.476	123.19
658.68	114.19
658.883	107.19
659.087	111.19
659.291	96.19
659.494	98.19
659.698	90.19
659.901	84.19
660.105	100.19
660.309	95.19
660.512	92.19
660.716	106.19
660.919	100.19
661.123	93.19
661.326	93.19
661.53	99.19
661.733	70.19
661.936	82.19
662.14	99.19
662.343	84.19
662.546	89.19
662.75	94.19
662.953	84.19
663.156	98.19
663.36	85.19
663.563	88.19
663.766	81.19
663.969	98.19
664.173	78.19
664.376	83.19
664.579	94.19
664.782	96.19
664.985	92.19
665.188	85.19
665.391	86.19
665.594	86.19
665.797	74.19
666	83.19
666.203	80.19
666.406	87.19
666.609	78.19
666.812	81.19
667.015	77.19
667.218	78.19
667.421	97.19
667.624	87.19
667.827	72.19
668.03	79.19
668.232	80.19
668.435	72.19
668.638	67.19
668.841	80.19
669.043	85.19
669.246	84.19
669.449	81.19
669.651	79.19
669.854	84.19
670.057	77.19
670.259	74.19
670.462	82.19
670.665	93.19
670.867	100.19
671.07	81.19
671.272	88.19
671.475	97.19
671.677	87.19
671.88	91.19
672.082	83.19
672.284	80.19
672.487	85.19
672.689	81.19
672.892	83.19
