Data from NickelSpatula_HRD10591_16-34-49-126.txt Node
Date: Mon Jul 22 16:34:49 EDT 2019
User: cochatt
Spectrometer: HR+D1059
Trigger mode: 1
Integration Time (sec): 1.000000E-1
Scans to average: 1
Electric dark correction enabled: true
Nonlinearity correction enabled: false
Boxcar width: 0
XAxis mode: Wavelengths
Number of Pixels in Spectrum: 2048
>>>>>Begin Spectral Data<<<<<
223.165	-8.31
223.4	-8.31
223.635	-8.31
223.869	-11.31
224.104	-12.31
224.338	-27.31
224.573	-13.31
224.808	-13.31
225.042	-23.31
225.277	0.69
225.511	-10.31
225.746	3.69
225.98	9.69
226.215	17.69
226.449	8.69
226.683	16.69
226.918	30.69
227.152	31.69
227.387	31.69
227.621	23.69
227.856	31.69
228.09	45.69
228.324	56.69
228.559	66.69
228.793	61.69
229.027	70.69
229.262	70.69
229.496	82.69
229.73	66.69
229.964	92.69
230.199	96.69
230.433	101.69
230.667	90.69
230.901	91.69
231.136	100.69
231.37	114.69
231.604	99.69
231.838	104.69
232.072	96.69
232.306	99.69
232.541	105.69
232.775	105.69
233.009	95.69
233.243	104.69
233.477	111.69
233.711	113.69
233.945	116.69
234.179	112.69
234.413	134.69
234.647	120.69
234.881	136.69
235.115	124.69
235.349	139.69
235.583	126.69
235.817	116.69
236.051	122.69
236.285	129.69
236.519	145.69
236.753	121.69
236.987	126.69
237.221	141.69
237.455	124.69
237.689	134.69
237.922	131.69
238.156	137.69
238.39	138.69
238.624	150.69
238.858	147.69
239.091	134.69
239.325	138.69
239.559	127.69
239.793	163.69
240.027	148.69
240.26	162.69
240.494	146.69
240.728	146.69
240.961	161.69
241.195	138.69
241.429	148.69
241.662	143.69
241.896	146.69
242.13	132.69
242.363	135.69
242.597	130.69
242.83	144.69
243.064	154.69
243.298	155.69
243.531	159.69
243.765	175.69
243.998	168.69
244.232	159.69
244.465	160.69
244.699	157.69
244.932	170.69
245.166	169.69
245.399	159.69
245.633	144.69
245.866	146.69
246.099	168.69
246.333	170.69
246.566	186.69
246.8	176.69
247.033	185.69
247.266	173.69
247.5	167.69
247.733	166.69
247.966	163.69
248.2	178.69
248.433	183.69
248.666	194.69
248.899	187.69
249.133	194.69
249.366	197.69
249.599	228.69
249.832	218.69
250.066	192.69
250.299	212.69
250.532	202.69
250.765	192.69
250.998	172.69
251.231	169.69
251.465	197.69
251.698	200.69
251.931	180.69
252.164	193.69
252.397	204.69
252.63	237.69
252.863	257.69
253.096	267.69
253.329	230.69
253.562	246.69
253.795	260.69
254.028	291.69
254.261	310.69
254.494	252.69
254.727	250.69
254.96	231.69
255.193	267.69
255.426	239.69
255.659	203.69
255.892	188.69
256.124	192.69
256.357	220.69
256.59	264.69
256.823	254.69
257.056	228.69
257.289	204.69
257.521	233.69
257.754	246.69
257.987	271.69
258.22	248.69
258.452	211.69
258.685	222.69
258.918	265.69
259.151	259.69
259.383	268.69
259.616	318.69
259.849	312.69
260.081	314.69
260.314	342.69
260.547	307.69
260.779	296.69
261.012	334.69
261.244	318.69
261.477	300.69
261.71	286.69
261.942	262.69
262.175	256.69
262.407	260.69
262.64	279.69
262.872	304.69
263.105	315.69
263.337	328.69
263.57	316.69
263.802	227.69
264.035	210.69
264.267	210.69
264.499	178.69
264.732	175.69
264.964	164.69
265.197	181.69
265.429	176.69
265.661	198.69
265.894	195.69
266.126	212.69
266.358	207.69
266.591	272.69
266.823	300.69
267.055	290.69
267.287	260.69
267.52	250.69
267.752	275.69
267.984	303.69
268.216	267.69
268.448	251.69
268.681	262.69
268.913	272.69
269.145	272.69
269.377	279.69
269.609	270.69
269.841	253.69
270.073	286.69
270.306	282.69
270.538	301.69
270.77	308.69
271.002	293.69
271.234	302.69
271.466	293.69
271.698	295.69
271.93	267.69
272.162	284.69
272.394	279.69
272.626	286.69
272.858	280.69
273.09	288.69
273.322	265.69
273.553	264.69
273.785	280.69
274.017	358.69
274.249	426.69
274.481	460.69
274.713	461.69
274.945	530.69
275.176	561.69
275.408	517.69
275.64	482.69
275.872	473.69
276.104	407.69
276.335	368.69
276.567	370.69
276.799	363.69
277.031	388.69
277.262	325.69
277.494	276.69
277.726	235.69
277.957	265.69
278.189	295.69
278.421	320.69
278.652	283.69
278.884	274.69
279.115	236.69
279.347	240.69
279.579	248.69
279.81	256.69
280.042	258.69
280.273	244.69
280.505	235.69
280.736	203.69
280.968	215.69
281.199	215.69
281.431	259.69
281.662	266.69
281.894	242.69
282.125	262.69
282.356	266.69
282.588	282.69
282.819	260.69
283.051	265.69
283.282	332.69
283.513	347.69
283.745	410.69
283.976	399.69
284.207	358.69
284.439	376.69
284.67	359.69
284.901	341.69
285.132	366.69
285.364	375.69
285.595	350.69
285.826	376.69
286.057	374.69
286.288	386.69
286.52	373.69
286.751	382.69
286.982	383.69
287.213	347.69
287.444	338.69
287.675	355.69
287.906	366.69
288.138	306.69
288.369	283.69
288.6	258.69
288.831	271.69
289.062	300.69
289.293	327.69
289.524	314.69
289.755	300.69
289.986	311.69
290.217	299.69
290.448	236.69
290.679	203.69
290.91	193.69
291.141	206.69
291.371	209.69
291.602	217.69
291.833	207.69
292.064	225.69
292.295	242.69
292.526	255.69
292.757	295.69
292.987	306.69
293.218	313.69
293.449	324.69
293.68	339.69
293.91	298.69
294.141	332.69
294.372	305.69
294.603	288.69
294.833	307.69
295.064	327.69
295.295	335.69
295.525	276.69
295.756	243.69
295.987	225.69
296.217	208.69
296.448	227.69
296.679	207.69
296.909	215.69
297.14	261.69
297.37	283.69
297.601	269.69
297.831	227.69
298.062	255.69
298.292	269.69
298.523	289.69
298.753	318.69
298.984	284.69
299.214	241.69
299.445	219.69
299.675	227.69
299.905	230.69
300.136	210.69
300.366	227.69
300.597	223.69
300.827	201.69
301.057	193.69
301.288	210.69
301.518	227.69
301.748	245.69
301.979	242.69
302.209	249.69
302.439	247.69
302.669	238.69
302.9	237.69
303.13	238.69
303.36	222.69
303.59	217.69
303.82	218.69
304.051	244.69
304.281	256.69
304.511	264.69
304.741	223.69
304.971	230.69
305.201	265.69
305.431	225.69
305.661	199.69
305.891	205.69
306.121	224.69
306.352	195.69
306.582	194.69
306.812	178.69
307.042	172.69
307.272	176.69
307.502	180.69
307.731	176.69
307.961	185.69
308.191	183.69
308.421	176.69
308.651	148.69
308.881	163.69
309.111	167.69
309.341	176.69
309.571	168.69
309.8	200.69
310.03	190.69
310.26	208.69
310.49	193.69
310.72	186.69
310.949	193.69
311.179	182.69
311.409	191.69
311.639	208.69
311.868	270.69
312.098	331.69
312.328	346.69
312.557	334.69
312.787	338.69
313.017	295.69
313.246	328.69
313.476	356.69
313.706	303.69
313.935	257.69
314.165	218.69
314.394	221.69
314.624	201.69
314.853	184.69
315.083	209.69
315.312	192.69
315.542	205.69
315.771	191.69
316.001	184.69
316.23	175.69
316.46	191.69
316.689	169.69
316.919	167.69
317.148	182.69
317.377	196.69
317.607	193.69
317.836	201.69
318.065	223.69
318.295	228.69
318.524	223.69
318.753	186.69
318.983	194.69
319.212	195.69
319.441	214.69
319.67	217.69
319.9	248.69
320.129	222.69
320.358	195.69
320.587	199.69
320.816	193.69
321.046	227.69
321.275	250.69
321.504	215.69
321.733	248.69
321.962	227.69
322.191	211.69
322.42	213.69
322.649	225.69
322.878	212.69
323.108	231.69
323.337	207.69
323.566	208.69
323.795	215.69
324.024	185.69
324.253	198.69
324.482	184.69
324.71	214.69
324.939	222.69
325.168	211.69
325.397	187.69
325.626	196.69
325.855	177.69
326.084	194.69
326.313	176.69
326.542	183.69
326.77	164.69
326.999	170.69
327.228	174.69
327.457	199.69
327.686	193.69
327.914	180.69
328.143	177.69
328.372	180.69
328.6	155.69
328.829	167.69
329.058	179.69
329.287	166.69
329.515	183.69
329.744	179.69
329.972	178.69
330.201	176.69
330.43	170.69
330.658	184.69
330.887	220.69
331.115	204.69
331.344	194.69
331.572	210.69
331.801	179.69
332.03	170.69
332.258	167.69
332.486	194.69
332.715	211.69
332.943	198.69
333.172	191.69
333.4	176.69
333.629	207.69
333.857	214.69
334.085	208.69
334.314	223.69
334.542	192.69
334.771	216.69
334.999	197.69
335.227	186.69
335.455	193.69
335.684	195.69
335.912	222.69
336.14	252.69
336.369	227.69
336.597	231.69
336.825	262.69
337.053	280.69
337.281	244.69
337.51	196.69
337.738	202.69
337.966	216.69
338.194	230.69
338.422	225.69
338.65	182.69
338.878	175.69
339.106	180.69
339.334	207.69
339.562	204.69
339.79	197.69
340.018	193.69
340.246	209.69
340.474	229.69
340.702	231.69
340.93	231.69
341.158	240.69
341.386	221.69
341.614	209.69
341.842	215.69
342.07	215.69
342.298	240.69
342.526	241.69
342.754	224.69
342.981	224.69
343.209	211.69
343.437	234.69
343.665	225.69
343.893	229.69
344.12	251.69
344.348	291.69
344.576	264.69
344.804	236.69
345.031	197.69
345.259	182.69
345.487	192.69
345.714	185.69
345.942	184.69
346.17	230.69
346.397	219.69
346.625	195.69
346.853	172.69
347.08	190.69
347.308	187.69
347.535	198.69
347.763	210.69
347.99	195.69
348.218	184.69
348.445	172.69
348.673	192.69
348.9	195.69
349.128	186.69
349.355	188.69
349.583	184.69
349.81	206.69
350.037	197.69
350.265	176.69
350.492	155.69
350.72	166.69
350.947	168.69
351.174	187.69
351.402	195.69
351.629	185.69
351.856	167.69
352.083	180.69
352.311	192.69
352.538	198.69
352.765	210.69
352.992	214.69
353.22	191.69
353.447	186.69
353.674	195.69
353.901	174.69
354.128	190.69
354.355	215.69
354.583	186.69
354.81	197.69
355.037	231.69
355.264	210.69
355.491	219.69
355.718	219.69
355.945	209.69
356.172	203.69
356.399	209.69
356.626	241.69
356.853	290.69
357.08	280.69
357.307	315.69
357.534	250.69
357.761	254.69
357.988	307.69
358.215	324.69
358.441	307.69
358.668	278.69
358.895	283.69
359.122	238.69
359.349	226.69
359.576	248.69
359.802	214.69
360.029	183.69
360.256	187.69
360.483	228.69
360.709	272.69
360.936	318.69
361.163	275.69
361.39	218.69
361.616	186.69
361.843	212.69
362.07	261.69
362.296	240.69
362.523	211.69
362.749	189.69
362.976	191.69
363.203	210.69
363.429	231.69
363.656	206.69
363.882	193.69
364.109	183.69
364.335	207.69
364.562	185.69
364.788	196.69
365.015	242.69
365.241	194.69
365.468	203.69
365.694	170.69
365.92	168.69
366.147	161.69
366.373	158.69
366.599	163.69
366.826	170.69
367.052	178.69
367.278	178.69
367.505	172.69
367.731	174.69
367.957	200.69
368.184	205.69
368.41	209.69
368.636	204.69
368.862	204.69
369.089	208.69
369.315	187.69
369.541	186.69
369.767	159.69
369.993	178.69
370.219	168.69
370.445	174.69
370.672	191.69
370.898	205.69
371.124	201.69
371.35	176.69
371.576	166.69
371.802	182.69
372.028	218.69
372.254	243.69
372.48	194.69
372.706	204.69
372.932	215.69
373.158	216.69
373.384	231.69
373.61	313.69
373.835	290.69
374.061	241.69
374.287	221.69
374.513	255.69
374.739	283.69
374.965	302.69
375.191	272.69
375.416	209.69
375.642	191.69
375.868	209.69
376.094	236.69
376.319	216.69
376.545	216.69
376.771	234.69
376.997	226.69
377.222	192.69
377.448	161.69
377.674	153.69
377.899	147.69
378.125	154.69
378.35	161.69
378.576	169.69
378.802	172.69
379.027	187.69
379.253	176.69
379.478	184.69
379.704	202.69
379.929	202.69
380.155	197.69
380.38	195.69
380.606	199.69
380.831	210.69
381.057	200.69
381.282	191.69
381.507	192.69
381.733	247.69
381.958	261.69
382.184	274.69
382.409	279.69
382.634	293.69
382.86	287.69
383.085	258.69
383.31	211.69
383.535	202.69
383.761	219.69
383.986	221.69
384.211	255.69
384.436	249.69
384.662	190.69
384.887	208.69
385.112	198.69
385.337	202.69
385.562	185.69
385.787	224.69
386.013	254.69
386.238	222.69
386.463	204.69
386.688	204.69
386.913	185.69
387.138	179.69
387.363	184.69
387.588	215.69
387.813	189.69
388.038	200.69
388.263	210.69
388.488	192.69
388.713	216.69
388.938	229.69
389.163	200.69
389.387	197.69
389.612	197.69
389.837	193.69
390.062	194.69
390.287	195.69
390.512	199.69
390.736	183.69
390.961	180.69
391.186	186.69
391.411	184.69
391.636	176.69
391.86	202.69
392.085	214.69
392.31	203.69
392.534	204.69
392.759	199.69
392.984	196.69
393.208	190.69
393.433	166.69
393.658	179.69
393.882	169.69
394.107	176.69
394.331	160.69
394.556	174.69
394.78	182.69
395.005	168.69
395.229	170.69
395.454	169.69
395.678	171.69
395.903	189.69
396.127	188.69
396.352	184.69
396.576	194.69
396.801	199.69
397.025	214.69
397.249	235.69
397.474	187.69
397.698	178.69
397.922	207.69
398.147	195.69
398.371	186.69
398.595	210.69
398.82	204.69
399.044	200.69
399.268	218.69
399.492	198.69
399.717	204.69
399.941	218.69
400.165	191.69
400.389	215.69
400.613	204.69
400.837	207.69
401.062	187.69
401.286	175.69
401.51	175.69
401.734	178.69
401.958	182.69
402.182	191.69
402.406	188.69
402.63	176.69
402.854	191.69
403.078	206.69
403.302	268.69
403.526	266.69
403.75	259.69
403.974	219.69
404.198	211.69
404.422	247.69
404.645	254.69
404.869	281.69
405.093	231.69
405.317	195.69
405.541	207.69
405.765	216.69
405.988	196.69
406.212	215.69
406.436	221.69
406.66	246.69
406.883	217.69
407.107	212.69
407.331	241.69
407.555	246.69
407.778	223.69
408.002	212.69
408.226	227.69
408.449	217.69
408.673	207.69
408.896	197.69
409.12	188.69
409.344	201.69
409.567	185.69
409.791	178.69
410.014	183.69
410.238	190.69
410.461	186.69
410.685	202.69
410.908	190.69
411.132	209.69
411.355	186.69
411.578	195.69
411.802	187.69
412.025	200.69
412.249	199.69
412.472	188.69
412.695	201.69
412.919	179.69
413.142	183.69
413.365	205.69
413.589	211.69
413.812	193.69
414.035	187.69
414.258	193.69
414.482	188.69
414.705	194.69
414.928	176.69
415.151	185.69
415.374	177.69
415.597	198.69
415.821	190.69
416.044	178.69
416.267	181.69
416.49	173.69
416.713	177.69
416.936	189.69
417.159	180.69
417.382	174.69
417.605	191.69
417.828	183.69
418.051	190.69
418.274	191.69
418.497	201.69
418.72	209.69
418.943	195.69
419.166	199.69
419.389	215.69
419.611	198.69
419.834	202.69
420.057	227.69
420.28	219.69
420.503	215.69
420.726	190.69
420.948	193.69
421.171	194.69
421.394	177.69
421.617	180.69
421.839	180.69
422.062	195.69
422.285	179.69
422.507	191.69
422.73	198.69
422.953	207.69
423.175	213.69
423.398	188.69
423.621	199.69
423.843	229.69
424.066	203.69
424.288	196.69
424.511	194.69
424.733	192.69
424.956	196.69
425.178	211.69
425.401	250.69
425.623	281.69
425.846	223.69
426.068	200.69
426.291	225.69
426.513	216.69
426.735	188.69
426.958	193.69
427.18	218.69
427.402	270.69
427.625	275.69
427.847	240.69
428.069	204.69
428.292	191.69
428.514	186.69
428.736	188.69
428.958	182.69
429.181	227.69
429.403	198.69
429.625	191.69
429.847	185.69
430.069	193.69
430.292	216.69
430.514	165.69
430.736	189.69
430.958	222.69
431.18	218.69
431.402	174.69
431.624	162.69
431.846	168.69
432.068	166.69
432.29	176.69
432.512	198.69
432.734	227.69
432.956	220.69
433.178	178.69
433.4	170.69
433.622	182.69
433.844	180.69
434.066	201.69
434.287	202.69
434.509	200.69
434.731	201.69
434.953	178.69
435.175	210.69
435.397	217.69
435.618	208.69
435.84	174.69
436.062	188.69
436.284	176.69
436.505	170.69
436.727	163.69
436.949	178.69
437.17	183.69
437.392	162.69
437.614	174.69
437.835	163.69
438.057	180.69
438.278	182.69
438.5	254.69
438.721	263.69
438.943	192.69
439.165	169.69
439.386	157.69
439.608	164.69
439.829	164.69
440.05	176.69
440.272	167.69
440.493	188.69
440.715	228.69
440.936	219.69
441.158	174.69
441.379	164.69
441.6	191.69
441.822	215.69
442.043	195.69
442.264	201.69
442.486	170.69
442.707	176.69
442.928	175.69
443.149	195.69
443.371	194.69
443.592	199.69
443.813	189.69
444.034	182.69
444.255	186.69
444.476	203.69
444.698	195.69
444.919	199.69
445.14	345.69
445.361	258.69
445.582	193.69
445.803	196.69
446.024	208.69
446.245	197.69
446.466	207.69
446.687	177.69
446.908	177.69
447.129	156.69
447.35	167.69
447.571	181.69
447.792	177.69
448.013	170.69
448.234	172.69
448.455	180.69
448.675	177.69
448.896	176.69
449.117	167.69
449.338	173.69
449.559	172.69
449.779	193.69
450	191.69
450.221	190.69
450.442	192.69
450.662	158.69
450.883	170.69
451.104	187.69
451.324	170.69
451.545	187.69
451.766	190.69
451.986	183.69
452.207	159.69
452.428	172.69
452.648	166.69
452.869	181.69
453.089	169.69
453.31	185.69
453.53	175.69
453.751	163.69
453.971	170.69
454.192	180.69
454.412	163.69
454.633	152.69
454.853	167.69
455.073	175.69
455.294	167.69
455.514	170.69
455.734	179.69
455.955	182.69
456.175	174.69
456.395	154.69
456.616	150.69
456.836	145.69
457.056	148.69
457.276	161.69
457.497	146.69
457.717	170.69
457.937	169.69
458.157	159.69
458.377	159.69
458.598	169.69
458.818	157.69
459.038	169.69
459.258	181.69
459.478	175.69
459.698	196.69
459.918	192.69
460.138	190.69
460.358	183.69
460.578	185.69
460.798	196.69
461.018	188.69
461.238	176.69
461.458	171.69
461.678	185.69
461.898	213.69
462.118	185.69
462.338	187.69
462.558	202.69
462.777	196.69
462.997	217.69
463.217	205.69
463.437	201.69
463.657	214.69
463.876	204.69
464.096	207.69
464.316	215.69
464.536	215.69
464.755	214.69
464.975	205.69
465.195	200.69
465.414	208.69
465.634	217.69
465.854	216.69
466.073	190.69
466.293	177.69
466.512	188.69
466.732	209.69
466.951	207.69
467.171	189.69
467.391	172.69
467.61	176.69
467.829	192.69
468.049	221.69
468.268	186.69
468.488	187.69
468.707	168.69
468.927	198.69
469.146	228.69
469.365	196.69
469.585	194.69
469.804	205.69
470.023	214.69
470.243	212.69
470.462	197.69
470.681	181.69
470.901	192.69
471.12	218.69
471.339	192.69
471.558	196.69
471.777	185.69
471.997	207.69
472.216	229.69
472.435	206.69
472.654	194.69
472.873	186.69
473.092	232.69
473.311	224.69
473.53	191.69
473.749	199.69
473.968	216.69
474.187	199.69
474.406	185.69
474.625	202.69
474.844	194.69
475.063	214.69
475.282	200.69
475.501	223.69
475.72	259.69
475.939	232.69
476.158	222.69
476.377	253.69
476.596	276.69
476.814	303.69
477.033	258.69
477.252	214.69
477.471	215.69
477.69	197.69
477.908	217.69
478.127	229.69
478.346	230.69
478.564	243.69
478.783	228.69
479.002	222.69
479.22	264.69
479.439	266.69
479.658	223.69
479.876	211.69
480.095	215.69
480.313	254.69
480.532	227.69
480.751	220.69
480.969	221.69
481.188	234.69
481.406	243.69
481.624	252.69
481.843	222.69
482.061	224.69
482.28	234.69
482.498	276.69
482.717	292.69
482.935	234.69
483.153	230.69
483.372	216.69
483.59	199.69
483.808	211.69
484.027	223.69
484.245	210.69
484.463	184.69
484.681	199.69
484.9	207.69
485.118	231.69
485.336	217.69
485.554	205.69
485.772	204.69
485.99	227.69
486.209	238.69
486.427	249.69
486.645	222.69
486.863	232.69
487.081	245.69
487.299	251.69
487.517	267.69
487.735	227.69
487.953	227.69
488.171	243.69
488.389	220.69
488.607	199.69
488.825	252.69
489.043	254.69
489.261	290.69
489.479	288.69
489.696	244.69
489.914	219.69
490.132	214.69
490.35	206.69
490.568	223.69
490.786	211.69
491.003	218.69
491.221	214.69
491.439	226.69
491.657	225.69
491.874	232.69
492.092	266.69
492.31	327.69
492.527	306.69
492.745	274.69
492.963	233.69
493.18	240.69
493.398	238.69
493.615	263.69
493.833	230.69
494.05	250.69
494.268	231.69
494.485	250.69
494.703	235.69
494.92	238.69
495.138	240.69
495.355	241.69
495.573	240.69
495.79	263.69
496.008	343.69
496.225	276.69
496.442	243.69
496.66	254.69
496.877	255.69
497.094	243.69
497.312	242.69
497.529	255.69
497.746	255.69
497.963	245.69
498.181	269.69
498.398	282.69
498.615	308.69
498.832	306.69
499.049	305.69
499.267	297.69
499.484	289.69
499.701	294.69
499.918	337.69
500.135	350.69
500.352	350.69
500.569	380.69
500.786	396.69
501.003	380.69
501.22	350.69
501.437	326.69
501.654	315.69
501.871	294.69
502.088	299.69
502.305	275.69
502.522	278.69
502.739	271.69
502.956	260.69
503.172	280.69
503.389	236.69
503.606	254.69
503.823	232.69
504.04	233.69
504.256	258.69
504.473	258.69
504.69	278.69
504.907	270.69
505.123	268.69
505.34	267.69
505.557	274.69
505.773	246.69
505.99	245.69
506.207	253.69
506.423	238.69
506.64	255.69
506.856	228.69
507.073	251.69
507.289	267.69
507.506	250.69
507.722	280.69
507.939	267.69
508.155	268.69
508.372	245.69
508.588	243.69
508.805	220.69
509.021	225.69
509.238	226.69
509.454	220.69
509.67	230.69
509.887	234.69
510.103	260.69
510.319	246.69
510.536	234.69
510.752	219.69
510.968	188.69
511.184	209.69
511.401	215.69
511.617	206.69
511.833	206.69
512.049	218.69
512.265	202.69
512.481	220.69
512.698	225.69
512.914	261.69
513.13	252.69
513.346	230.69
513.562	206.69
513.778	217.69
513.994	227.69
514.21	237.69
514.426	231.69
514.642	218.69
514.858	209.69
515.074	234.69
515.29	240.69
515.506	259.69
515.721	256.69
515.937	246.69
516.153	220.69
516.369	225.69
516.585	235.69
516.801	269.69
517.016	318.69
517.232	283.69
517.448	272.69
517.664	256.69
517.879	273.69
518.095	256.69
518.311	267.69
518.527	256.69
518.742	275.69
518.958	278.69
519.173	267.69
519.389	262.69
519.605	278.69
519.82	284.69
520.036	299.69
520.251	299.69
520.467	321.69
520.682	490.69
520.898	579.69
521.113	546.69
521.329	351.69
521.544	310.69
521.76	288.69
521.975	255.69
522.19	246.69
522.406	272.69
522.621	272.69
522.836	288.69
523.052	323.69
523.267	245.69
523.482	240.69
523.698	277.69
523.913	244.69
524.128	243.69
524.343	247.69
524.559	236.69
524.774	225.69
524.989	233.69
525.204	247.69
525.419	254.69
525.634	246.69
525.849	266.69
526.064	242.69
526.28	239.69
526.495	278.69
526.71	300.69
526.925	282.69
527.14	285.69
527.355	257.69
527.57	204.69
527.785	244.69
527.999	221.69
528.214	213.69
528.429	180.69
528.644	221.69
528.859	205.69
529.074	200.69
529.289	196.69
529.503	194.69
529.718	210.69
529.933	280.69
530.148	266.69
530.363	226.69
530.577	217.69
530.792	202.69
531.007	215.69
531.221	197.69
531.436	193.69
531.651	202.69
531.865	189.69
532.08	195.69
532.295	196.69
532.509	207.69
532.724	243.69
532.938	268.69
533.153	354.69
533.367	248.69
533.582	251.69
533.796	223.69
534.011	224.69
534.225	214.69
534.44	214.69
534.654	246.69
534.868	276.69
535.083	254.69
535.297	214.69
535.511	223.69
535.726	219.69
535.94	209.69
536.154	205.69
536.369	201.69
536.583	199.69
536.797	209.69
537.011	217.69
537.225	220.69
537.44	241.69
537.654	210.69
537.868	219.69
538.082	222.69
538.296	218.69
538.51	230.69
538.724	233.69
538.938	220.69
539.153	203.69
539.367	210.69
539.581	203.69
539.795	201.69
540.009	239.69
540.222	226.69
540.436	194.69
540.65	236.69
540.864	244.69
541.078	260.69
541.292	313.69
541.506	209.69
541.72	210.69
541.934	219.69
542.147	199.69
542.361	202.69
542.575	215.69
542.789	212.69
543.002	207.69
543.216	227.69
543.43	214.69
543.644	191.69
543.857	199.69
544.071	206.69
544.285	202.69
544.498	191.69
544.712	206.69
544.925	207.69
545.139	179.69
545.352	175.69
545.566	191.69
545.779	220.69
545.993	218.69
546.206	188.69
546.42	188.69
546.633	184.69
546.847	188.69
547.06	190.69
547.274	197.69
547.487	192.69
547.7	200.69
547.914	206.69
548.127	220.69
548.34	214.69
548.554	187.69
548.767	209.69
548.98	218.69
549.193	215.69
549.407	209.69
549.62	226.69
549.833	235.69
550.046	232.69
550.259	229.69
550.473	196.69
550.686	224.69
550.899	226.69
551.112	203.69
551.325	207.69
551.538	210.69
551.751	201.69
551.964	194.69
552.177	180.69
552.39	178.69
552.603	202.69
552.816	202.69
553.029	196.69
553.242	186.69
553.455	204.69
553.667	217.69
553.88	206.69
554.093	181.69
554.306	166.69
554.519	180.69
554.732	184.69
554.944	189.69
555.157	173.69
555.37	169.69
555.583	166.69
555.795	181.69
556.008	175.69
556.221	189.69
556.433	167.69
556.646	162.69
556.859	161.69
557.071	184.69
557.284	190.69
557.496	181.69
557.709	184.69
557.921	188.69
558.134	167.69
558.346	171.69
558.559	161.69
558.771	164.69
558.984	193.69
559.196	164.69
559.409	154.69
559.621	159.69
559.833	169.69
560.046	160.69
560.258	155.69
560.47	178.69
560.683	164.69
560.895	160.69
561.107	154.69
561.32	158.69
561.532	158.69
561.744	191.69
561.956	185.69
562.168	174.69
562.381	151.69
562.593	156.69
562.805	169.69
563.017	166.69
563.229	163.69
563.441	177.69
563.653	174.69
563.865	153.69
564.077	158.69
564.289	150.69
564.501	153.69
564.713	174.69
564.925	184.69
565.137	170.69
565.349	160.69
565.561	166.69
565.773	166.69
565.985	180.69
566.197	204.69
566.408	189.69
566.62	208.69
566.832	202.69
567.044	188.69
567.255	172.69
567.467	220.69
567.679	205.69
567.891	203.69
568.102	198.69
568.314	212.69
568.526	189.69
568.737	183.69
568.949	200.69
569.161	175.69
569.372	156.69
569.584	176.69
569.795	158.69
570.007	171.69
570.218	181.69
570.43	164.69
570.641	176.69
570.853	157.69
571.064	161.69
571.276	175.69
571.487	180.69
571.698	161.69
571.91	162.69
572.121	179.69
572.333	159.69
572.544	156.69
572.755	160.69
572.966	147.69
573.178	143.69
573.389	160.69
573.6	149.69
573.811	154.69
574.023	151.69
574.234	134.69
574.445	134.69
574.656	141.69
574.867	160.69
575.078	146.69
575.289	143.69
575.501	154.69
575.712	158.69
575.923	135.69
576.134	155.69
576.345	147.69
576.556	137.69
576.767	150.69
576.978	148.69
577.188	141.69
577.399	150.69
577.61	135.69
577.821	134.69
578.032	133.69
578.243	158.69
578.454	149.69
578.665	150.69
578.875	154.69
579.086	147.69
579.297	154.69
579.508	165.69
579.718	156.69
579.929	153.69
580.14	137.69
580.35	127.69
580.561	127.69
580.772	136.69
580.982	131.69
581.193	136.69
581.403	130.69
581.614	137.69
581.825	126.69
582.035	129.69
582.246	131.69
582.456	124.69
582.667	132.69
582.877	126.69
583.087	133.69
583.298	126.69
583.508	118.69
583.719	128.69
583.929	133.69
584.139	120.69
584.35	130.69
584.56	138.69
584.77	129.69
584.981	124.69
585.191	145.69
585.401	119.69
585.611	138.69
585.821	138.69
586.032	145.69
586.242	130.69
586.452	131.69
586.662	126.69
586.872	134.69
587.082	134.69
587.292	135.69
587.502	138.69
587.713	145.69
587.923	148.69
588.133	136.69
588.343	154.69
588.553	140.69
588.762	118.69
588.972	135.69
589.182	151.69
589.392	135.69
589.602	127.69
589.812	139.69
590.022	138.69
590.232	136.69
590.441	145.69
590.651	156.69
590.861	147.69
591.071	148.69
591.281	133.69
591.49	148.69
591.7	148.69
591.91	131.69
592.119	129.69
592.329	132.69
592.539	128.69
592.748	132.69
592.958	127.69
593.167	144.69
593.377	130.69
593.587	132.69
593.796	138.69
594.006	141.69
594.215	134.69
594.424	141.69
594.634	148.69
594.843	147.69
595.053	137.69
595.262	144.69
595.472	137.69
595.681	138.69
595.89	126.69
596.1	148.69
596.309	120.69
596.518	125.69
596.727	126.69
596.937	138.69
597.146	126.69
597.355	143.69
597.564	136.69
597.774	133.69
597.983	135.69
598.192	127.69
598.401	126.69
598.61	112.69
598.819	114.69
599.028	119.69
599.237	128.69
599.446	125.69
599.655	128.69
599.864	110.69
600.073	104.69
600.282	117.69
600.491	110.69
600.7	114.69
600.909	125.69
601.118	131.69
601.327	123.69
601.536	125.69
601.745	122.69
601.953	130.69
602.162	128.69
602.371	131.69
602.58	146.69
602.789	119.69
602.997	116.69
603.206	148.69
603.415	112.69
603.623	106.69
603.832	118.69
604.041	101.69
604.249	112.69
604.458	117.69
604.666	120.69
604.875	119.69
605.084	118.69
605.292	122.69
605.501	126.69
605.709	125.69
605.918	118.69
606.126	119.69
606.334	119.69
606.543	110.69
606.751	126.69
606.96	103.69
607.168	119.69
607.376	125.69
607.585	118.69
607.793	128.69
608.001	120.69
608.21	115.69
608.418	126.69
608.626	120.69
608.834	122.69
609.043	121.69
609.251	124.69
609.459	133.69
609.667	116.69
609.875	117.69
610.083	104.69
610.291	127.69
610.499	112.69
610.707	113.69
610.916	113.69
611.124	116.69
611.332	119.69
611.54	121.69
611.748	119.69
611.955	111.69
612.163	113.69
612.371	118.69
612.579	124.69
612.787	110.69
612.995	108.69
613.203	115.69
613.411	120.69
613.618	122.69
613.826	125.69
614.034	118.69
614.242	94.69
614.449	116.69
614.657	126.69
614.865	125.69
615.072	120.69
615.28	128.69
615.488	116.69
615.695	126.69
615.903	122.69
616.111	131.69
616.318	124.69
616.526	112.69
616.733	117.69
616.941	118.69
617.148	112.69
617.356	118.69
617.563	121.69
617.771	96.69
617.978	110.69
618.185	102.69
618.393	110.69
618.6	116.69
618.807	120.69
619.015	119.69
619.222	111.69
619.429	117.69
619.637	116.69
619.844	110.69
620.051	107.69
620.258	114.69
620.466	119.69
620.673	108.69
620.88	109.69
621.087	110.69
621.294	102.69
621.501	98.69
621.708	97.69
621.915	104.69
622.122	103.69
622.329	128.69
622.536	105.69
622.743	122.69
622.95	117.69
623.157	119.69
623.364	101.69
623.571	108.69
623.778	112.69
623.985	118.69
624.192	109.69
624.399	100.69
624.606	112.69
624.812	105.69
625.019	121.69
625.226	114.69
625.433	114.69
625.639	107.69
625.846	112.69
626.053	99.69
626.259	111.69
626.466	110.69
626.673	108.69
626.879	115.69
627.086	106.69
627.293	110.69
627.499	107.69
627.706	89.69
627.912	107.69
628.119	108.69
628.325	103.69
628.532	111.69
628.738	105.69
628.945	101.69
629.151	113.69
629.357	106.69
629.564	114.69
629.77	95.69
629.976	119.69
630.183	102.69
630.389	106.69
630.595	120.69
630.802	98.69
631.008	114.69
631.214	110.69
631.42	101.69
631.627	112.69
631.833	114.69
632.039	115.69
632.245	112.69
632.451	100.69
632.657	94.69
632.863	98.69
633.069	97.69
633.275	111.69
633.481	100.69
633.688	104.69
633.893	106.69
634.099	100.69
634.305	94.69
634.511	100.69
634.717	124.69
634.923	113.69
635.129	99.69
635.335	91.69
635.541	88.69
635.747	108.69
635.952	102.69
636.158	99.69
636.364	97.69
636.57	105.69
636.775	102.69
636.981	95.69
637.187	107.69
637.392	110.69
637.598	95.69
637.804	99.69
638.009	95.69
638.215	93.69
638.421	103.69
638.626	110.69
638.832	100.69
639.037	99.69
639.243	96.69
639.448	101.69
639.654	100.69
639.859	106.69
640.065	93.69
640.27	98.69
640.475	97.69
640.681	112.69
640.886	92.69
641.091	110.69
641.297	105.69
641.502	93.69
641.707	88.69
641.913	103.69
642.118	106.69
642.323	112.69
642.528	96.69
642.733	102.69
642.939	98.69
643.144	101.69
643.349	110.69
643.554	96.69
643.759	111.69
643.964	95.69
644.169	106.69
644.374	83.69
644.579	104.69
644.784	96.69
644.989	102.69
645.194	104.69
645.399	107.69
645.604	97.69
645.809	107.69
646.014	102.69
646.219	96.69
646.423	88.69
646.628	94.69
646.833	98.69
647.038	102.69
647.243	104.69
647.447	91.69
647.652	100.69
647.857	111.69
648.062	94.69
648.266	94.69
648.471	100.69
648.676	101.69
648.88	91.69
649.085	105.69
649.289	106.69
649.494	95.69
649.698	97.69
649.903	103.69
650.107	89.69
650.312	102.69
650.516	102.69
650.721	96.69
650.925	105.69
651.13	91.69
651.334	87.69
651.539	99.69
651.743	87.69
651.947	102.69
652.152	111.69
652.356	102.69
652.56	91.69
652.764	93.69
652.969	89.69
653.173	83.69
653.377	96.69
653.581	93.69
653.785	90.69
653.99	93.69
654.194	99.69
654.398	74.69
654.602	96.69
654.806	90.69
655.01	87.69
655.214	104.69
655.418	89.69
655.622	90.69
655.826	95.69
656.03	97.69
656.234	90.69
656.438	90.69
656.642	91.69
656.846	80.69
657.049	97.69
657.253	91.69
657.457	93.69
657.661	72.69
657.865	95.69
658.068	78.69
658.272	76.69
658.476	77.69
658.68	79.69
658.883	76.69
659.087	78.69
659.291	80.69
659.494	81.69
659.698	88.69
659.901	80.69
660.105	88.69
660.309	82.69
660.512	76.69
660.716	88.69
660.919	90.69
661.123	89.69
661.326	91.69
661.53	87.69
661.733	78.69
661.936	77.69
662.14	80.69
662.343	76.69
662.546	71.69
662.75	84.69
662.953	88.69
663.156	90.69
663.36	73.69
663.563	82.69
663.766	71.69
663.969	76.69
664.173	82.69
664.376	91.69
664.579	82.69
664.782	87.69
664.985	73.69
665.188	82.69
665.391	86.69
665.594	79.69
665.797	87.69
666	75.69
666.203	81.69
666.406	86.69
666.609	85.69
666.812	95.69
667.015	85.69
667.218	94.69
667.421	70.69
667.624	106.69
667.827	98.69
668.03	83.69
668.232	71.69
668.435	92.69
668.638	80.69
668.841	73.69
669.043	74.69
669.246	89.69
669.449	83.69
669.651	85.69
669.854	91.69
670.057	83.69
670.259	87.69
670.462	87.69
670.665	75.69
670.867	76.69
671.07	91.69
671.272	91.69
671.475	81.69
671.677	84.69
671.88	69.69
672.082	82.69
672.284	90.69
672.487	76.69
672.689	74.69
672.892	86.69
