Data from NickelSpatula.Lamp.E5.5.P2_HRD10591_11-53-21-549.txt Node
Date: Tue Jul 23 11:53:21 EDT 2019
User: cochatt
Spectrometer: HR+D1059
Trigger mode: 1
Integration Time (sec): 1.000000E-1
Scans to average: 1
Electric dark correction enabled: true
Nonlinearity correction enabled: false
Boxcar width: 0
XAxis mode: Wavelengths
Number of Pixels in Spectrum: 2048
>>>>>Begin Spectral Data<<<<<
223.165	-18.56
223.4	-18.56
223.635	-18.56
223.869	-19.56
224.104	-27.56
224.338	-3.56
224.573	-13.56
224.808	-14.56
225.042	-1.56
225.277	-6.56
225.511	-7.56
225.746	5.44
225.98	4.44
226.215	21.44
226.449	13.44
226.683	22.44
226.918	22.44
227.152	23.44
227.387	35.44
227.621	53.44
227.856	44.44
228.09	48.44
228.324	60.44
228.559	58.44
228.793	68.44
229.027	65.44
229.262	80.44
229.496	91.44
229.73	77.44
229.964	74.44
230.199	96.44
230.433	92.44
230.667	85.44
230.901	96.44
231.136	98.44
231.37	104.44
231.604	86.44
231.838	95.44
232.072	102.44
232.306	98.44
232.541	104.44
232.775	99.44
233.009	94.44
233.243	103.44
233.477	112.44
233.711	107.44
233.945	113.44
234.179	128.44
234.413	128.44
234.647	123.44
234.881	158.44
235.115	124.44
235.349	112.44
235.583	131.44
235.817	117.44
236.051	120.44
236.285	122.44
236.519	137.44
236.753	121.44
236.987	147.44
237.221	121.44
237.455	122.44
237.689	135.44
237.922	143.44
238.156	132.44
238.39	160.44
238.624	157.44
238.858	172.44
239.091	139.44
239.325	140.44
239.559	137.44
239.793	158.44
240.027	165.44
240.26	176.44
240.494	149.44
240.728	165.44
240.961	167.44
241.195	168.44
241.429	160.44
241.662	174.44
241.896	137.44
242.13	138.44
242.363	133.44
242.597	146.44
242.83	135.44
243.064	148.44
243.298	167.44
243.531	162.44
243.765	181.44
243.998	166.44
244.232	177.44
244.465	171.44
244.699	153.44
244.932	169.44
245.166	173.44
245.399	141.44
245.633	164.44
245.866	165.44
246.099	173.44
246.333	176.44
246.566	213.44
246.8	188.44
247.033	193.44
247.266	169.44
247.5	177.44
247.733	156.44
247.966	154.44
248.2	183.44
248.433	180.44
248.666	201.44
248.899	203.44
249.133	205.44
249.366	235.44
249.599	240.44
249.832	216.44
250.066	199.44
250.299	200.44
250.532	195.44
250.765	182.44
250.998	170.44
251.231	170.44
251.465	192.44
251.698	194.44
251.931	185.44
252.164	191.44
252.397	223.44
252.63	253.44
252.863	269.44
253.096	265.44
253.329	268.44
253.562	242.44
253.795	268.44
254.028	302.44
254.261	302.44
254.494	284.44
254.727	258.44
254.96	237.44
255.193	265.44
255.426	250.44
255.659	201.44
255.892	192.44
256.124	196.44
256.357	233.44
256.59	268.44
256.823	277.44
257.056	221.44
257.289	208.44
257.521	218.44
257.754	265.44
257.987	289.44
258.22	269.44
258.452	238.44
258.685	257.44
258.918	286.44
259.151	272.44
259.383	311.44
259.616	328.44
259.849	350.44
260.081	352.44
260.314	408.44
260.547	325.44
260.779	336.44
261.012	388.44
261.244	365.44
261.477	344.44
261.71	324.44
261.942	294.44
262.175	280.44
262.407	272.44
262.64	277.44
262.872	322.44
263.105	361.44
263.337	371.44
263.57	329.44
263.802	244.44
264.035	217.44
264.267	221.44
264.499	180.44
264.732	167.44
264.964	178.44
265.197	190.44
265.429	189.44
265.661	189.44
265.894	194.44
266.126	216.44
266.358	233.44
266.591	281.44
266.823	330.44
267.055	311.44
267.287	261.44
267.52	269.44
267.752	299.44
267.984	326.44
268.216	300.44
268.448	266.44
268.681	230.44
268.913	256.44
269.145	279.44
269.377	294.44
269.609	293.44
269.841	262.44
270.073	275.44
270.306	302.44
270.538	291.44
270.77	288.44
271.002	307.44
271.234	308.44
271.466	321.44
271.698	313.44
271.93	296.44
272.162	295.44
272.394	304.44
272.626	282.44
272.858	310.44
273.09	316.44
273.322	274.44
273.553	249.44
273.785	296.44
274.017	370.44
274.249	452.44
274.481	468.44
274.713	516.44
274.945	592.44
275.176	631.44
275.408	540.44
275.64	507.44
275.872	510.44
276.104	439.44
276.335	382.44
276.567	383.44
276.799	387.44
277.031	428.44
277.262	338.44
277.494	271.44
277.726	237.44
277.957	271.44
278.189	325.44
278.421	312.44
278.652	300.44
278.884	284.44
279.115	267.44
279.347	264.44
279.579	276.44
279.81	260.44
280.042	257.44
280.273	282.44
280.505	268.44
280.736	234.44
280.968	218.44
281.199	240.44
281.431	260.44
281.662	276.44
281.894	264.44
282.125	281.44
282.356	302.44
282.588	302.44
282.819	257.44
283.051	271.44
283.282	340.44
283.513	389.44
283.745	428.44
283.976	447.44
284.207	399.44
284.439	433.44
284.67	389.44
284.901	364.44
285.132	377.44
285.364	393.44
285.595	380.44
285.826	404.44
286.057	407.44
286.288	399.44
286.52	388.44
286.751	416.44
286.982	410.44
287.213	364.44
287.444	372.44
287.675	377.44
287.906	369.44
288.138	326.44
288.369	291.44
288.6	265.44
288.831	288.44
289.062	346.44
289.293	373.44
289.524	351.44
289.755	322.44
289.986	355.44
290.217	326.44
290.448	243.44
290.679	237.44
290.91	207.44
291.141	224.44
291.371	230.44
291.602	228.44
291.833	219.44
292.064	227.44
292.295	243.44
292.526	300.44
292.757	292.44
292.987	315.44
293.218	341.44
293.449	349.44
293.68	370.44
293.91	347.44
294.141	374.44
294.372	341.44
294.603	308.44
294.833	323.44
295.064	406.44
295.295	385.44
295.525	300.44
295.756	266.44
295.987	220.44
296.217	230.44
296.448	242.44
296.679	231.44
296.909	257.44
297.14	267.44
297.37	291.44
297.601	294.44
297.831	241.44
298.062	279.44
298.292	311.44
298.523	331.44
298.753	366.44
298.984	323.44
299.214	284.44
299.445	250.44
299.675	240.44
299.905	225.44
300.136	236.44
300.366	254.44
300.597	257.44
300.827	222.44
301.057	221.44
301.288	234.44
301.518	249.44
301.748	275.44
301.979	290.44
302.209	308.44
302.439	312.44
302.669	268.44
302.9	280.44
303.13	269.44
303.36	233.44
303.59	236.44
303.82	240.44
304.051	263.44
304.281	291.44
304.511	290.44
304.741	242.44
304.971	244.44
305.201	285.44
305.431	271.44
305.661	217.44
305.891	225.44
306.121	248.44
306.352	223.44
306.582	204.44
306.812	197.44
307.042	200.44
307.272	202.44
307.502	190.44
307.731	204.44
307.961	231.44
308.191	211.44
308.421	196.44
308.651	202.44
308.881	169.44
309.111	174.44
309.341	192.44
309.571	208.44
309.8	193.44
310.03	202.44
310.26	225.44
310.49	210.44
310.72	208.44
310.949	196.44
311.179	205.44
311.409	215.44
311.639	231.44
311.868	288.44
312.098	359.44
312.328	384.44
312.557	372.44
312.787	376.44
313.017	334.44
313.246	363.44
313.476	400.44
313.706	325.44
313.935	288.44
314.165	261.44
314.394	232.44
314.624	213.44
314.853	224.44
315.083	229.44
315.312	219.44
315.542	217.44
315.771	221.44
316.001	196.44
316.23	188.44
316.46	209.44
316.689	181.44
316.919	198.44
317.148	198.44
317.377	211.44
317.607	204.44
317.836	198.44
318.065	219.44
318.295	255.44
318.524	248.44
318.753	227.44
318.983	213.44
319.212	207.44
319.441	202.44
319.67	240.44
319.9	261.44
320.129	244.44
320.358	208.44
320.587	207.44
320.816	225.44
321.046	242.44
321.275	262.44
321.504	260.44
321.733	262.44
321.962	248.44
322.191	244.44
322.42	224.44
322.649	238.44
322.878	257.44
323.108	266.44
323.337	244.44
323.566	241.44
323.795	228.44
324.024	224.44
324.253	232.44
324.482	215.44
324.71	213.44
324.939	249.44
325.168	252.44
325.397	226.44
325.626	214.44
325.855	189.44
326.084	210.44
326.313	206.44
326.542	199.44
326.77	196.44
326.999	204.44
327.228	213.44
327.457	222.44
327.686	228.44
327.914	196.44
328.143	200.44
328.372	185.44
328.6	183.44
328.829	197.44
329.058	204.44
329.287	202.44
329.515	206.44
329.744	213.44
329.972	204.44
330.201	198.44
330.43	184.44
330.658	205.44
330.887	218.44
331.115	225.44
331.344	218.44
331.572	219.44
331.801	206.44
332.03	211.44
332.258	196.44
332.486	214.44
332.715	214.44
332.943	205.44
333.172	202.44
333.4	203.44
333.629	240.44
333.857	238.44
334.085	243.44
334.314	256.44
334.542	244.44
334.771	233.44
334.999	238.44
335.227	224.44
335.455	206.44
335.684	232.44
335.912	248.44
336.14	291.44
336.369	256.44
336.597	275.44
336.825	275.44
337.053	321.44
337.281	252.44
337.51	214.44
337.738	230.44
337.966	220.44
338.194	257.44
338.422	224.44
338.65	219.44
338.878	219.44
339.106	202.44
339.334	217.44
339.562	226.44
339.79	224.44
340.018	218.44
340.246	225.44
340.474	247.44
340.702	257.44
340.93	257.44
341.158	265.44
341.386	229.44
341.614	218.44
341.842	240.44
342.07	233.44
342.298	254.44
342.526	274.44
342.754	239.44
342.981	221.44
343.209	233.44
343.437	236.44
343.665	265.44
343.893	266.44
344.12	302.44
344.348	348.44
344.576	338.44
344.804	263.44
345.031	229.44
345.259	227.44
345.487	218.44
345.714	229.44
345.942	256.44
346.17	271.44
346.397	256.44
346.625	223.44
346.853	215.44
347.08	208.44
347.308	235.44
347.535	258.44
347.763	259.44
347.99	252.44
348.218	213.44
348.445	222.44
348.673	247.44
348.9	246.44
349.128	231.44
349.355	225.44
349.583	239.44
349.81	229.44
350.037	210.44
350.265	208.44
350.492	201.44
350.72	192.44
350.947	197.44
351.174	219.44
351.402	198.44
351.629	216.44
351.856	224.44
352.083	210.44
352.311	205.44
352.538	246.44
352.765	248.44
352.992	229.44
353.22	230.44
353.447	238.44
353.674	221.44
353.901	211.44
354.128	221.44
354.355	222.44
354.583	211.44
354.81	227.44
355.037	231.44
355.264	220.44
355.491	228.44
355.718	253.44
355.945	242.44
356.172	226.44
356.399	227.44
356.626	281.44
356.853	340.44
357.08	347.44
357.307	330.44
357.534	288.44
357.761	293.44
357.988	341.44
358.215	407.44
358.441	358.44
358.668	312.44
358.895	309.44
359.122	263.44
359.349	276.44
359.576	306.44
359.802	264.44
360.029	223.44
360.256	238.44
360.483	266.44
360.709	341.44
360.936	323.44
361.163	304.44
361.39	225.44
361.616	226.44
361.843	237.44
362.07	300.44
362.296	276.44
362.523	242.44
362.749	226.44
362.976	224.44
363.203	262.44
363.429	276.44
363.656	239.44
363.882	224.44
364.109	232.44
364.335	224.44
364.562	219.44
364.788	241.44
365.015	265.44
365.241	244.44
365.468	206.44
365.694	200.44
365.92	186.44
366.147	190.44
366.373	195.44
366.599	192.44
366.826	203.44
367.052	190.44
367.278	201.44
367.505	182.44
367.731	213.44
367.957	220.44
368.184	223.44
368.41	224.44
368.636	240.44
368.862	260.44
369.089	233.44
369.315	215.44
369.541	191.44
369.767	199.44
369.993	192.44
370.219	210.44
370.445	207.44
370.672	227.44
370.898	231.44
371.124	245.44
371.35	218.44
371.576	218.44
371.802	223.44
372.028	253.44
372.254	286.44
372.48	263.44
372.706	221.44
372.932	245.44
373.158	238.44
373.384	277.44
373.61	373.44
373.835	370.44
374.061	293.44
374.287	265.44
374.513	307.44
374.739	334.44
374.965	343.44
375.191	347.44
375.416	257.44
375.642	257.44
375.868	266.44
376.094	275.44
376.319	248.44
376.545	259.44
376.771	273.44
376.997	255.44
377.222	216.44
377.448	198.44
377.674	192.44
377.899	190.44
378.125	198.44
378.35	169.44
378.576	197.44
378.802	197.44
379.027	216.44
379.253	222.44
379.478	228.44
379.704	233.44
379.929	268.44
380.155	240.44
380.38	225.44
380.606	238.44
380.831	249.44
381.057	232.44
381.282	218.44
381.507	252.44
381.733	292.44
381.958	305.44
382.184	316.44
382.409	344.44
382.634	348.44
382.86	345.44
383.085	301.44
383.31	241.44
383.535	268.44
383.761	274.44
383.986	264.44
384.211	302.44
384.436	293.44
384.662	221.44
384.887	260.44
385.112	253.44
385.337	226.44
385.562	236.44
385.787	252.44
386.013	284.44
386.238	269.44
386.463	264.44
386.688	238.44
386.913	222.44
387.138	212.44
387.363	229.44
387.588	232.44
387.813	228.44
388.038	256.44
388.263	236.44
388.488	230.44
388.713	259.44
388.938	267.44
389.163	243.44
389.387	213.44
389.612	215.44
389.837	224.44
390.062	214.44
390.287	212.44
390.512	233.44
390.736	232.44
390.961	229.44
391.186	208.44
391.411	213.44
391.636	197.44
391.86	222.44
392.085	218.44
392.31	227.44
392.534	225.44
392.759	231.44
392.984	242.44
393.208	227.44
393.433	224.44
393.658	203.44
393.882	210.44
394.107	199.44
394.331	200.44
394.556	201.44
394.78	215.44
395.005	209.44
395.229	205.44
395.454	209.44
395.678	208.44
395.903	203.44
396.127	201.44
396.352	229.44
396.576	230.44
396.801	253.44
397.025	232.44
397.249	264.44
397.474	245.44
397.698	228.44
397.922	227.44
398.147	220.44
398.371	223.44
398.595	232.44
398.82	242.44
399.044	223.44
399.268	257.44
399.492	272.44
399.717	284.44
399.941	280.44
400.165	268.44
400.389	236.44
400.613	250.44
400.837	265.44
401.062	239.44
401.286	219.44
401.51	218.44
401.734	226.44
401.958	223.44
402.182	246.44
402.406	233.44
402.63	241.44
402.854	242.44
403.078	276.44
403.302	345.44
403.526	370.44
403.75	347.44
403.974	292.44
404.198	264.44
404.422	302.44
404.645	312.44
404.869	378.44
405.093	272.44
405.317	273.44
405.541	249.44
405.765	260.44
405.988	256.44
406.212	260.44
406.436	288.44
406.66	310.44
406.883	272.44
407.107	272.44
407.331	330.44
407.555	306.44
407.778	278.44
408.002	295.44
408.226	277.44
408.449	247.44
408.673	253.44
408.896	241.44
409.12	234.44
409.344	234.44
409.567	236.44
409.791	220.44
410.014	241.44
410.238	231.44
410.461	217.44
410.685	224.44
410.908	248.44
411.132	216.44
411.355	239.44
411.578	241.44
411.802	219.44
412.025	227.44
412.249	236.44
412.472	255.44
412.695	244.44
412.919	216.44
413.142	247.44
413.365	253.44
413.589	252.44
413.812	225.44
414.035	238.44
414.258	232.44
414.482	238.44
414.705	269.44
414.928	238.44
415.151	207.44
415.374	228.44
415.597	221.44
415.821	233.44
416.044	245.44
416.267	223.44
416.49	218.44
416.713	220.44
416.936	218.44
417.159	220.44
417.382	221.44
417.605	244.44
417.828	219.44
418.051	221.44
418.274	237.44
418.497	237.44
418.72	239.44
418.943	233.44
419.166	225.44
419.389	255.44
419.611	240.44
419.834	256.44
420.057	261.44
420.28	252.44
420.503	257.44
420.726	224.44
420.948	214.44
421.171	218.44
421.394	200.44
421.617	207.44
421.839	229.44
422.062	211.44
422.285	224.44
422.507	230.44
422.73	230.44
422.953	239.44
423.175	231.44
423.398	232.44
423.621	257.44
423.843	272.44
424.066	242.44
424.288	235.44
424.511	233.44
424.733	239.44
424.956	229.44
425.178	256.44
425.401	303.44
425.623	361.44
425.846	299.44
426.068	256.44
426.291	244.44
426.513	224.44
426.735	229.44
426.958	237.44
427.18	268.44
427.402	329.44
427.625	336.44
427.847	318.44
428.069	242.44
428.292	240.44
428.514	222.44
428.736	215.44
428.958	244.44
429.181	304.44
429.403	262.44
429.625	217.44
429.847	213.44
430.069	228.44
430.292	237.44
430.514	217.44
430.736	217.44
430.958	275.44
431.18	257.44
431.402	212.44
431.624	196.44
431.846	193.44
432.068	223.44
432.29	211.44
432.512	228.44
432.734	274.44
432.956	272.44
433.178	224.44
433.4	232.44
433.622	210.44
433.844	225.44
434.066	247.44
434.287	233.44
434.509	240.44
434.731	244.44
434.953	241.44
435.175	242.44
435.397	270.44
435.618	230.44
435.84	232.44
436.062	223.44
436.284	232.44
436.505	211.44
436.727	208.44
436.949	216.44
437.17	204.44
437.392	228.44
437.614	226.44
437.835	214.44
438.057	210.44
438.278	247.44
438.5	302.44
438.721	318.44
438.943	256.44
439.165	209.44
439.386	213.44
439.608	205.44
439.829	214.44
440.05	204.44
440.272	211.44
440.493	242.44
440.715	293.44
440.936	244.44
441.158	203.44
441.379	225.44
441.6	240.44
441.822	252.44
442.043	252.44
442.264	219.44
442.486	229.44
442.707	237.44
442.928	223.44
443.149	232.44
443.371	217.44
443.592	239.44
443.813	235.44
444.034	216.44
444.255	243.44
444.476	242.44
444.698	241.44
444.919	262.44
445.14	356.44
445.361	298.44
445.582	243.44
445.803	233.44
446.024	232.44
446.245	225.44
446.466	231.44
446.687	215.44
446.908	191.44
447.129	209.44
447.35	202.44
447.571	203.44
447.792	175.44
448.013	212.44
448.234	207.44
448.455	192.44
448.675	194.44
448.896	202.44
449.117	197.44
449.338	207.44
449.559	206.44
449.779	221.44
450	236.44
450.221	215.44
450.442	196.44
450.662	205.44
450.883	201.44
451.104	229.44
451.324	210.44
451.545	207.44
451.766	207.44
451.986	220.44
452.207	200.44
452.428	202.44
452.648	197.44
452.869	215.44
453.089	234.44
453.31	212.44
453.53	217.44
453.751	198.44
453.971	209.44
454.192	200.44
454.412	206.44
454.633	197.44
454.853	202.44
455.073	194.44
455.294	187.44
455.514	198.44
455.734	218.44
455.955	193.44
456.175	202.44
456.395	188.44
456.616	185.44
456.836	200.44
457.056	197.44
457.276	182.44
457.497	192.44
457.717	194.44
457.937	193.44
458.157	199.44
458.377	190.44
458.598	203.44
458.818	198.44
459.038	213.44
459.258	214.44
459.478	244.44
459.698	241.44
459.918	231.44
460.138	228.44
460.358	230.44
460.578	233.44
460.798	232.44
461.018	242.44
461.238	227.44
461.458	224.44
461.678	218.44
461.898	251.44
462.118	244.44
462.338	246.44
462.558	248.44
462.777	261.44
462.997	266.44
463.217	272.44
463.437	275.44
463.657	264.44
463.876	264.44
464.096	261.44
464.316	264.44
464.536	271.44
464.755	260.44
464.975	266.44
465.195	255.44
465.414	271.44
465.634	253.44
465.854	233.44
466.073	223.44
466.293	224.44
466.512	216.44
466.732	227.44
466.951	260.44
467.171	231.44
467.391	213.44
467.61	229.44
467.829	222.44
468.049	236.44
468.268	208.44
468.488	220.44
468.707	210.44
468.927	243.44
469.146	279.44
469.365	265.44
469.585	225.44
469.804	231.44
470.023	271.44
470.243	242.44
470.462	227.44
470.681	230.44
470.901	228.44
471.12	237.44
471.339	237.44
471.558	234.44
471.777	228.44
471.997	236.44
472.216	234.44
472.435	237.44
472.654	236.44
472.873	224.44
473.092	252.44
473.311	264.44
473.53	224.44
473.749	218.44
473.968	240.44
474.187	242.44
474.406	230.44
474.625	223.44
474.844	229.44
475.063	230.44
475.282	243.44
475.501	258.44
475.72	278.44
475.939	253.44
476.158	257.44
476.377	295.44
476.596	343.44
476.814	344.44
477.033	292.44
477.252	258.44
477.471	231.44
477.69	242.44
477.908	262.44
478.127	274.44
478.346	270.44
478.564	286.44
478.783	273.44
479.002	285.44
479.22	301.44
479.439	331.44
479.658	268.44
479.876	263.44
480.095	283.44
480.313	278.44
480.532	280.44
480.751	285.44
480.969	270.44
481.188	278.44
481.406	283.44
481.624	298.44
481.843	264.44
482.061	253.44
482.28	269.44
482.498	330.44
482.717	316.44
482.935	285.44
483.153	276.44
483.372	254.44
483.59	227.44
483.808	240.44
484.027	233.44
484.245	236.44
484.463	232.44
484.681	237.44
484.9	291.44
485.118	288.44
485.336	238.44
485.554	254.44
485.772	253.44
485.99	274.44
486.209	293.44
486.427	276.44
486.645	271.44
486.863	283.44
487.081	293.44
487.299	312.44
487.517	273.44
487.735	256.44
487.953	284.44
488.171	307.44
488.389	270.44
488.607	270.44
488.825	251.44
489.043	275.44
489.261	300.44
489.479	328.44
489.696	304.44
489.914	289.44
490.132	256.44
490.35	245.44
490.568	248.44
490.786	257.44
491.003	259.44
491.221	262.44
491.439	265.44
491.657	282.44
491.874	268.44
492.092	304.44
492.31	375.44
492.527	366.44
492.745	326.44
492.963	291.44
493.18	284.44
493.398	287.44
493.615	289.44
493.833	291.44
494.05	272.44
494.268	280.44
494.485	283.44
494.703	274.44
494.92	274.44
495.138	269.44
495.355	266.44
495.573	278.44
495.79	297.44
496.008	360.44
496.225	327.44
496.442	310.44
496.66	276.44
496.877	300.44
497.094	297.44
497.312	284.44
497.529	290.44
497.746	294.44
497.963	312.44
498.181	322.44
498.398	337.44
498.615	365.44
498.832	382.44
499.049	391.44
499.267	339.44
499.484	364.44
499.701	400.44
499.918	438.44
500.135	475.44
500.352	514.44
500.569	531.44
500.786	534.44
501.003	523.44
501.22	454.44
501.437	403.44
501.654	386.44
501.871	371.44
502.088	369.44
502.305	336.44
502.522	345.44
502.739	339.44
502.956	304.44
503.172	322.44
503.389	302.44
503.606	306.44
503.823	282.44
504.04	305.44
504.256	308.44
504.473	311.44
504.69	290.44
504.907	332.44
505.123	309.44
505.34	287.44
505.557	297.44
505.773	295.44
505.99	290.44
506.207	318.44
506.423	285.44
506.64	264.44
506.856	269.44
507.073	303.44
507.289	275.44
507.506	270.44
507.722	310.44
507.939	294.44
508.155	323.44
508.372	278.44
508.588	298.44
508.805	274.44
509.021	264.44
509.238	276.44
509.454	253.44
509.67	274.44
509.887	274.44
510.103	298.44
510.319	290.44
510.536	295.44
510.752	232.44
510.968	242.44
511.184	239.44
511.401	248.44
511.617	250.44
511.833	237.44
512.049	243.44
512.265	244.44
512.481	255.44
512.698	286.44
512.914	305.44
513.13	292.44
513.346	266.44
513.562	243.44
513.778	253.44
513.994	268.44
514.21	277.44
514.426	260.44
514.642	267.44
514.858	262.44
515.074	260.44
515.29	285.44
515.506	320.44
515.721	295.44
515.937	290.44
516.153	286.44
516.369	271.44
516.585	280.44
516.801	304.44
517.016	329.44
517.232	336.44
517.448	351.44
517.664	308.44
517.879	316.44
518.095	306.44
518.311	309.44
518.527	311.44
518.742	307.44
518.958	342.44
519.173	334.44
519.389	310.44
519.605	301.44
519.82	339.44
520.036	365.44
520.251	382.44
520.467	374.44
520.682	583.44
520.898	718.44
521.113	658.44
521.329	419.44
521.544	327.44
521.76	350.44
521.975	282.44
522.19	270.44
522.406	302.44
522.621	344.44
522.836	321.44
523.052	323.44
523.267	294.44
523.482	274.44
523.698	317.44
523.913	294.44
524.128	289.44
524.343	262.44
524.559	274.44
524.774	254.44
524.989	276.44
525.204	300.44
525.419	294.44
525.634	287.44
525.849	279.44
526.064	281.44
526.28	288.44
526.495	338.44
526.71	341.44
526.925	315.44
527.14	300.44
527.355	311.44
527.57	285.44
527.785	281.44
527.999	249.44
528.214	269.44
528.429	244.44
528.644	252.44
528.859	239.44
529.074	230.44
529.289	239.44
529.503	256.44
529.718	261.44
529.933	291.44
530.148	306.44
530.363	276.44
530.577	240.44
530.792	241.44
531.007	250.44
531.221	249.44
531.436	231.44
531.651	248.44
531.865	253.44
532.08	258.44
532.295	245.44
532.509	252.44
532.724	262.44
532.938	308.44
533.153	340.44
533.367	265.44
533.582	288.44
533.796	268.44
534.011	241.44
534.225	255.44
534.44	259.44
534.654	261.44
534.868	326.44
535.083	290.44
535.297	247.44
535.511	239.44
535.726	265.44
535.94	252.44
536.154	236.44
536.369	243.44
536.583	224.44
536.797	240.44
537.011	256.44
537.225	257.44
537.44	260.44
537.654	223.44
537.868	244.44
538.082	254.44
538.296	220.44
538.51	243.44
538.724	253.44
538.938	253.44
539.153	227.44
539.367	227.44
539.581	219.44
539.795	231.44
540.009	258.44
540.222	241.44
540.436	238.44
540.65	250.44
540.864	271.44
541.078	286.44
541.292	312.44
541.506	269.44
541.72	252.44
541.934	242.44
542.147	233.44
542.361	229.44
542.575	265.44
542.789	251.44
543.002	240.44
543.216	247.44
543.43	233.44
543.644	215.44
543.857	223.44
544.071	206.44
544.285	231.44
544.498	228.44
544.712	226.44
544.925	235.44
545.139	238.44
545.352	226.44
545.566	227.44
545.779	245.44
545.993	224.44
546.206	217.44
546.42	231.44
546.633	212.44
546.847	202.44
547.06	215.44
547.274	207.44
547.487	228.44
547.7	238.44
547.914	238.44
548.127	263.44
548.34	270.44
548.554	228.44
548.767	231.44
548.98	250.44
549.193	224.44
549.407	262.44
549.62	302.44
549.833	279.44
550.046	275.44
550.259	293.44
550.473	267.44
550.686	234.44
550.899	240.44
551.112	237.44
551.325	245.44
551.538	258.44
551.751	245.44
551.964	215.44
552.177	231.44
552.39	222.44
552.603	227.44
552.816	244.44
553.029	214.44
553.242	213.44
553.455	250.44
553.667	261.44
553.88	259.44
554.093	222.44
554.306	230.44
554.519	198.44
554.732	206.44
554.944	219.44
555.157	214.44
555.37	214.44
555.583	201.44
555.795	199.44
556.008	207.44
556.221	206.44
556.433	218.44
556.646	205.44
556.859	202.44
557.071	201.44
557.284	203.44
557.496	213.44
557.709	213.44
557.921	201.44
558.134	192.44
558.346	193.44
558.559	201.44
558.771	205.44
558.984	211.44
559.196	210.44
559.409	197.44
559.621	198.44
559.833	192.44
560.046	200.44
560.258	173.44
560.47	181.44
560.683	203.44
560.895	192.44
561.107	192.44
561.32	187.44
561.532	184.44
561.744	207.44
561.956	191.44
562.168	196.44
562.381	185.44
562.593	193.44
562.805	201.44
563.017	197.44
563.229	197.44
563.441	190.44
563.653	180.44
563.865	180.44
564.077	192.44
564.289	200.44
564.501	199.44
564.713	193.44
564.925	202.44
565.137	198.44
565.349	196.44
565.561	205.44
565.773	194.44
565.985	203.44
566.197	211.44
566.408	232.44
566.62	246.44
566.832	241.44
567.044	263.44
567.255	252.44
567.467	282.44
567.679	261.44
567.891	268.44
568.102	279.44
568.314	281.44
568.526	232.44
568.737	222.44
568.949	244.44
569.161	217.44
569.372	208.44
569.584	210.44
569.795	192.44
570.007	191.44
570.218	205.44
570.43	205.44
570.641	195.44
570.853	193.44
571.064	193.44
571.276	202.44
571.487	204.44
571.698	187.44
571.91	205.44
572.121	202.44
572.333	183.44
572.544	195.44
572.755	184.44
572.966	194.44
573.178	197.44
573.389	204.44
573.6	184.44
573.811	188.44
574.023	165.44
574.234	177.44
574.445	167.44
574.656	180.44
574.867	174.44
575.078	172.44
575.289	188.44
575.501	181.44
575.712	181.44
575.923	157.44
576.134	172.44
576.345	160.44
576.556	164.44
576.767	167.44
576.978	166.44
577.188	143.44
577.399	168.44
577.61	159.44
577.821	165.44
578.032	169.44
578.243	183.44
578.454	196.44
578.665	161.44
578.875	169.44
579.086	162.44
579.297	164.44
579.508	190.44
579.718	177.44
579.929	177.44
580.14	181.44
580.35	160.44
580.561	162.44
580.772	175.44
580.982	152.44
581.193	154.44
581.403	158.44
581.614	160.44
581.825	150.44
582.035	161.44
582.246	151.44
582.456	144.44
582.667	148.44
582.877	161.44
583.087	151.44
583.298	160.44
583.508	158.44
583.719	166.44
583.929	160.44
584.139	148.44
584.35	153.44
584.56	163.44
584.77	158.44
584.981	169.44
585.191	169.44
585.401	165.44
585.611	165.44
585.821	159.44
586.032	153.44
586.242	147.44
586.452	159.44
586.662	152.44
586.872	155.44
587.082	161.44
587.292	154.44
587.502	150.44
587.713	164.44
587.923	152.44
588.133	176.44
588.343	157.44
588.553	152.44
588.762	152.44
588.972	141.44
589.182	136.44
589.392	156.44
589.602	157.44
589.812	145.44
590.022	185.44
590.232	181.44
590.441	158.44
590.651	166.44
590.861	163.44
591.071	162.44
591.281	166.44
591.49	150.44
591.7	151.44
591.91	147.44
592.119	147.44
592.329	163.44
592.539	170.44
592.748	145.44
592.958	164.44
593.167	161.44
593.377	164.44
593.587	180.44
593.796	168.44
594.006	166.44
594.215	170.44
594.424	177.44
594.634	177.44
594.843	161.44
595.053	179.44
595.262	148.44
595.472	173.44
595.681	171.44
595.89	137.44
596.1	164.44
596.309	155.44
596.518	150.44
596.727	148.44
596.937	155.44
597.146	153.44
597.355	166.44
597.564	152.44
597.774	150.44
597.983	152.44
598.192	143.44
598.401	146.44
598.61	152.44
598.819	137.44
599.028	140.44
599.237	149.44
599.446	144.44
599.655	142.44
599.864	132.44
600.073	146.44
600.282	148.44
600.491	129.44
600.7	138.44
600.909	119.44
601.118	133.44
601.327	135.44
601.536	139.44
601.745	128.44
601.953	139.44
602.162	164.44
602.371	137.44
602.58	164.44
602.789	146.44
602.997	139.44
603.206	138.44
603.415	132.44
603.623	121.44
603.832	142.44
604.041	141.44
604.249	147.44
604.458	144.44
604.666	133.44
604.875	118.44
605.084	149.44
605.292	129.44
605.501	146.44
605.709	136.44
605.918	132.44
606.126	139.44
606.334	140.44
606.543	142.44
606.751	145.44
606.96	126.44
607.168	150.44
607.376	137.44
607.585	145.44
607.793	147.44
608.001	128.44
608.21	148.44
608.418	136.44
608.626	137.44
608.834	142.44
609.043	137.44
609.251	123.44
609.459	135.44
609.667	136.44
609.875	135.44
610.083	126.44
610.291	140.44
610.499	128.44
610.707	133.44
610.916	132.44
611.124	137.44
611.332	126.44
611.54	148.44
611.748	137.44
611.955	122.44
612.163	127.44
612.371	120.44
612.579	137.44
612.787	120.44
612.995	128.44
613.203	129.44
613.411	153.44
613.618	141.44
613.826	134.44
614.034	140.44
614.242	136.44
614.449	124.44
614.657	125.44
614.865	138.44
615.072	125.44
615.28	136.44
615.488	126.44
615.695	118.44
615.903	132.44
616.111	148.44
616.318	121.44
616.526	128.44
616.733	130.44
616.941	122.44
617.148	128.44
617.356	122.44
617.563	130.44
617.771	132.44
617.978	134.44
618.185	127.44
618.393	120.44
618.6	146.44
618.807	126.44
619.015	126.44
619.222	130.44
619.429	119.44
619.637	146.44
619.844	142.44
620.051	120.44
620.258	128.44
620.466	120.44
620.673	122.44
620.88	138.44
621.087	130.44
621.294	124.44
621.501	125.44
621.708	130.44
621.915	121.44
622.122	120.44
622.329	126.44
622.536	131.44
622.743	124.44
622.95	124.44
623.157	115.44
623.364	140.44
623.571	118.44
623.778	130.44
623.985	132.44
624.192	132.44
624.399	131.44
624.606	130.44
624.812	114.44
625.019	111.44
625.226	117.44
625.433	132.44
625.639	117.44
625.846	134.44
626.053	128.44
626.259	113.44
626.466	130.44
626.673	127.44
626.879	122.44
627.086	124.44
627.293	125.44
627.499	108.44
627.706	128.44
627.912	120.44
628.119	118.44
628.325	126.44
628.532	97.44
628.738	115.44
628.945	122.44
629.151	122.44
629.357	128.44
629.564	119.44
629.77	149.44
629.976	123.44
630.183	122.44
630.389	116.44
630.595	94.44
630.802	108.44
631.008	124.44
631.214	122.44
631.42	120.44
631.627	119.44
631.833	105.44
632.039	116.44
632.245	122.44
632.451	106.44
632.657	124.44
632.863	119.44
633.069	113.44
633.275	121.44
633.481	103.44
633.688	119.44
633.893	117.44
634.099	121.44
634.305	103.44
634.511	120.44
634.717	114.44
634.923	111.44
635.129	91.44
635.335	108.44
635.541	108.44
635.747	106.44
635.952	112.44
636.158	111.44
636.364	117.44
636.57	108.44
636.775	120.44
636.981	114.44
637.187	110.44
637.392	124.44
637.598	106.44
637.804	117.44
638.009	101.44
638.215	117.44
638.421	110.44
638.626	105.44
638.832	114.44
639.037	114.44
639.243	114.44
639.448	113.44
639.654	121.44
639.859	110.44
640.065	111.44
640.27	120.44
640.475	111.44
640.681	121.44
640.886	124.44
641.091	113.44
641.297	113.44
641.502	107.44
641.707	104.44
641.913	110.44
642.118	116.44
642.323	94.44
642.528	103.44
642.733	101.44
642.939	95.44
643.144	86.44
643.349	101.44
643.554	110.44
643.759	108.44
643.964	113.44
644.169	117.44
644.374	102.44
644.579	108.44
644.784	106.44
644.989	108.44
645.194	107.44
645.399	122.44
645.604	111.44
645.809	116.44
646.014	112.44
646.219	100.44
646.423	105.44
646.628	108.44
646.833	110.44
647.038	117.44
647.243	102.44
647.447	115.44
647.652	116.44
647.857	105.44
648.062	118.44
648.266	108.44
648.471	106.44
648.676	117.44
648.88	125.44
649.085	116.44
649.289	112.44
649.494	101.44
649.698	124.44
649.903	110.44
650.107	106.44
650.312	132.44
650.516	119.44
650.721	97.44
650.925	106.44
651.13	116.44
651.334	114.44
651.539	112.44
651.743	114.44
651.947	119.44
652.152	111.44
652.356	93.44
652.56	112.44
652.764	100.44
652.969	106.44
653.173	90.44
653.377	98.44
653.581	96.44
653.785	91.44
653.99	85.44
654.194	105.44
654.398	89.44
654.602	103.44
654.806	102.44
655.01	92.44
655.214	88.44
655.418	88.44
655.622	103.44
655.826	89.44
656.03	86.44
656.234	98.44
656.438	103.44
656.642	93.44
656.846	123.44
657.049	105.44
657.253	94.44
657.457	97.44
657.661	96.44
657.865	83.44
658.068	85.44
658.272	94.44
658.476	95.44
658.68	94.44
658.883	89.44
659.087	88.44
659.291	95.44
659.494	104.44
659.698	95.44
659.901	98.44
660.105	88.44
660.309	83.44
660.512	87.44
660.716	91.44
660.919	88.44
661.123	97.44
661.326	84.44
661.53	87.44
661.733	95.44
661.936	88.44
662.14	79.44
662.343	83.44
662.546	78.44
662.75	76.44
662.953	85.44
663.156	81.44
663.36	80.44
663.563	80.44
663.766	82.44
663.969	93.44
664.173	101.44
664.376	79.44
664.579	91.44
664.782	94.44
664.985	88.44
665.188	88.44
665.391	82.44
665.594	89.44
665.797	81.44
666	83.44
666.203	95.44
666.406	74.44
666.609	88.44
666.812	81.44
667.015	86.44
667.218	85.44
667.421	90.44
667.624	88.44
667.827	83.44
668.03	74.44
668.232	82.44
668.435	91.44
668.638	79.44
668.841	78.44
669.043	74.44
669.246	84.44
669.449	82.44
669.651	87.44
669.854	80.44
670.057	88.44
670.259	69.44
670.462	80.44
670.665	80.44
670.867	84.44
671.07	84.44
671.272	99.44
671.475	87.44
671.677	78.44
671.88	87.44
672.082	80.44
672.284	80.44
672.487	73.44
672.689	71.44
672.892	76.44
