Data from NickelSpatula_HRD10591_16-34-07-126.txt Node
Date: Mon Jul 22 16:34:07 EDT 2019
User: cochatt
Spectrometer: HR+D1059
Trigger mode: 1
Integration Time (sec): 1.000000E-1
Scans to average: 1
Electric dark correction enabled: true
Nonlinearity correction enabled: false
Boxcar width: 0
XAxis mode: Wavelengths
Number of Pixels in Spectrum: 2048
>>>>>Begin Spectral Data<<<<<
223.165	-20.31
223.4	-20.31
223.635	-20.31
223.869	-13.31
224.104	-10.31
224.338	-15.31
224.573	-13.31
224.808	-2.31
225.042	-11.31
225.277	-19.31
225.511	7.69
225.746	-14.31
225.98	2.69
226.215	8.69
226.449	28.69
226.683	17.69
226.918	28.69
227.152	25.69
227.387	30.69
227.621	29.69
227.856	49.69
228.09	30.69
228.324	47.69
228.559	50.69
228.793	54.69
229.027	60.69
229.262	63.69
229.496	72.69
229.73	74.69
229.964	87.69
230.199	86.69
230.433	86.69
230.667	92.69
230.901	83.69
231.136	97.69
231.37	76.69
231.604	101.69
231.838	103.69
232.072	89.69
232.306	107.69
232.541	104.69
232.775	87.69
233.009	95.69
233.243	94.69
233.477	105.69
233.711	113.69
233.945	118.69
234.179	122.69
234.413	113.69
234.647	111.69
234.881	129.69
235.115	122.69
235.349	135.69
235.583	128.69
235.817	124.69
236.051	133.69
236.285	121.69
236.519	144.69
236.753	123.69
236.987	120.69
237.221	116.69
237.455	117.69
237.689	137.69
237.922	132.69
238.156	133.69
238.39	150.69
238.624	153.69
238.858	145.69
239.091	133.69
239.325	137.69
239.559	144.69
239.793	152.69
240.027	168.69
240.26	153.69
240.494	158.69
240.728	136.69
240.961	166.69
241.195	153.69
241.429	161.69
241.662	160.69
241.896	151.69
242.13	118.69
242.363	136.69
242.597	130.69
242.83	159.69
243.064	156.69
243.298	166.69
243.531	181.69
243.765	149.69
243.998	176.69
244.232	152.69
244.465	147.69
244.699	158.69
244.932	188.69
245.166	173.69
245.399	165.69
245.633	149.69
245.866	148.69
246.099	166.69
246.333	178.69
246.566	193.69
246.8	198.69
247.033	192.69
247.266	189.69
247.5	173.69
247.733	170.69
247.966	175.69
248.2	169.69
248.433	188.69
248.666	186.69
248.899	185.69
249.133	205.69
249.366	248.69
249.599	250.69
249.832	231.69
250.066	204.69
250.299	209.69
250.532	193.69
250.765	211.69
250.998	200.69
251.231	177.69
251.465	196.69
251.698	182.69
251.931	205.69
252.164	195.69
252.397	220.69
252.63	248.69
252.863	249.69
253.096	260.69
253.329	261.69
253.562	242.69
253.795	278.69
254.028	302.69
254.261	305.69
254.494	283.69
254.727	258.69
254.96	271.69
255.193	293.69
255.426	269.69
255.659	215.69
255.892	217.69
256.124	217.69
256.357	229.69
256.59	286.69
256.823	264.69
257.056	208.69
257.289	208.69
257.521	249.69
257.754	264.69
257.987	293.69
258.22	257.69
258.452	229.69
258.685	285.69
258.918	277.69
259.151	288.69
259.383	310.69
259.616	335.69
259.849	348.69
260.081	351.69
260.314	398.69
260.547	327.69
260.779	326.69
261.012	356.69
261.244	338.69
261.477	352.69
261.71	322.69
261.942	289.69
262.175	292.69
262.407	281.69
262.64	281.69
262.872	321.69
263.105	346.69
263.337	370.69
263.57	330.69
263.802	266.69
264.035	230.69
264.267	224.69
264.499	189.69
264.732	188.69
264.964	181.69
265.197	195.69
265.429	194.69
265.661	202.69
265.894	210.69
266.126	232.69
266.358	244.69
266.591	281.69
266.823	335.69
267.055	330.69
267.287	290.69
267.52	297.69
267.752	325.69
267.984	333.69
268.216	348.69
268.448	282.69
268.681	263.69
268.913	265.69
269.145	306.69
269.377	306.69
269.609	306.69
269.841	282.69
270.073	325.69
270.306	330.69
270.538	332.69
270.77	322.69
271.002	349.69
271.234	362.69
271.466	343.69
271.698	328.69
271.93	332.69
272.162	326.69
272.394	320.69
272.626	307.69
272.858	326.69
273.09	322.69
273.322	297.69
273.553	274.69
273.785	304.69
274.017	395.69
274.249	464.69
274.481	492.69
274.713	536.69
274.945	594.69
275.176	609.69
275.408	577.69
275.64	521.69
275.872	529.69
276.104	487.69
276.335	415.69
276.567	413.69
276.799	394.69
277.031	445.69
277.262	355.69
277.494	287.69
277.726	274.69
277.957	288.69
278.189	327.69
278.421	321.69
278.652	319.69
278.884	304.69
279.115	292.69
279.347	267.69
279.579	276.69
279.81	286.69
280.042	297.69
280.273	296.69
280.505	270.69
280.736	254.69
280.968	244.69
281.199	245.69
281.431	293.69
281.662	287.69
281.894	282.69
282.125	291.69
282.356	316.69
282.588	341.69
282.819	302.69
283.051	305.69
283.282	374.69
283.513	374.69
283.745	446.69
283.976	454.69
284.207	430.69
284.439	443.69
284.67	420.69
284.901	369.69
285.132	398.69
285.364	419.69
285.595	408.69
285.826	424.69
286.057	449.69
286.288	442.69
286.52	437.69
286.751	471.69
286.982	451.69
287.213	383.69
287.444	384.69
287.675	404.69
287.906	404.69
288.138	344.69
288.369	313.69
288.6	302.69
288.831	305.69
289.062	356.69
289.293	387.69
289.524	363.69
289.755	340.69
289.986	368.69
290.217	332.69
290.448	267.69
290.679	225.69
290.91	227.69
291.141	238.69
291.371	228.69
291.602	229.69
291.833	226.69
292.064	242.69
292.295	278.69
292.526	323.69
292.757	326.69
292.987	342.69
293.218	358.69
293.449	387.69
293.68	387.69
293.91	377.69
294.141	392.69
294.372	370.69
294.603	312.69
294.833	340.69
295.064	417.69
295.295	408.69
295.525	294.69
295.756	283.69
295.987	237.69
296.217	224.69
296.448	227.69
296.679	265.69
296.909	272.69
297.14	282.69
297.37	325.69
297.601	289.69
297.831	272.69
298.062	258.69
298.292	318.69
298.523	343.69
298.753	370.69
298.984	356.69
299.214	308.69
299.445	250.69
299.675	260.69
299.905	241.69
300.136	238.69
300.366	274.69
300.597	263.69
300.827	233.69
301.057	244.69
301.288	234.69
301.518	254.69
301.748	302.69
301.979	308.69
302.209	330.69
302.439	315.69
302.669	289.69
302.9	288.69
303.13	280.69
303.36	273.69
303.59	257.69
303.82	254.69
304.051	297.69
304.281	302.69
304.511	304.69
304.741	274.69
304.971	274.69
305.201	309.69
305.431	286.69
305.661	268.69
305.891	254.69
306.121	238.69
306.352	235.69
306.582	206.69
306.812	205.69
307.042	199.69
307.272	197.69
307.502	198.69
307.731	198.69
307.961	204.69
308.191	196.69
308.421	205.69
308.651	184.69
308.881	204.69
309.111	171.69
309.341	195.69
309.571	215.69
309.8	229.69
310.03	227.69
310.26	232.69
310.49	224.69
310.72	196.69
310.949	189.69
311.179	200.69
311.409	230.69
311.639	224.69
311.868	298.69
312.098	381.69
312.328	397.69
312.557	410.69
312.787	405.69
313.017	351.69
313.246	384.69
313.476	417.69
313.706	375.69
313.935	291.69
314.165	221.69
314.394	233.69
314.624	210.69
314.853	235.69
315.083	259.69
315.312	243.69
315.542	224.69
315.771	218.69
316.001	186.69
316.23	199.69
316.46	205.69
316.689	189.69
316.919	202.69
317.148	195.69
317.377	180.69
317.607	196.69
317.836	213.69
318.065	249.69
318.295	276.69
318.524	264.69
318.753	231.69
318.983	214.69
319.212	211.69
319.441	218.69
319.67	244.69
319.9	273.69
320.129	266.69
320.358	221.69
320.587	199.69
320.816	224.69
321.046	254.69
321.275	292.69
321.504	307.69
321.733	295.69
321.962	274.69
322.191	262.69
322.42	252.69
322.649	244.69
322.878	273.69
323.108	272.69
323.337	240.69
323.566	246.69
323.795	249.69
324.024	247.69
324.253	234.69
324.482	221.69
324.71	236.69
324.939	265.69
325.168	262.69
325.397	221.69
325.626	215.69
325.855	205.69
326.084	220.69
326.313	227.69
326.542	210.69
326.77	205.69
326.999	201.69
327.228	211.69
327.457	221.69
327.686	226.69
327.914	208.69
328.143	172.69
328.372	194.69
328.6	168.69
328.829	192.69
329.058	206.69
329.287	202.69
329.515	199.69
329.744	200.69
329.972	178.69
330.201	181.69
330.43	179.69
330.658	206.69
330.887	246.69
331.115	249.69
331.344	219.69
331.572	217.69
331.801	201.69
332.03	182.69
332.258	203.69
332.486	236.69
332.715	218.69
332.943	208.69
333.172	211.69
333.4	213.69
333.629	238.69
333.857	259.69
334.085	242.69
334.314	237.69
334.542	244.69
334.771	230.69
334.999	218.69
335.227	200.69
335.455	218.69
335.684	228.69
335.912	260.69
336.14	285.69
336.369	281.69
336.597	258.69
336.825	280.69
337.053	343.69
337.281	280.69
337.51	238.69
337.738	231.69
337.966	230.69
338.194	246.69
338.422	265.69
338.65	217.69
338.878	192.69
339.106	201.69
339.334	252.69
339.562	248.69
339.79	227.69
340.018	228.69
340.246	232.69
340.474	257.69
340.702	269.69
340.93	279.69
341.158	286.69
341.386	258.69
341.614	248.69
341.842	224.69
342.07	241.69
342.298	279.69
342.526	300.69
342.754	256.69
342.981	259.69
343.209	235.69
343.437	269.69
343.665	271.69
343.893	260.69
344.12	305.69
344.348	353.69
344.576	313.69
344.804	279.69
345.031	252.69
345.259	234.69
345.487	222.69
345.714	224.69
345.942	229.69
346.17	276.69
346.397	245.69
346.625	228.69
346.853	212.69
347.08	206.69
347.308	214.69
347.535	244.69
347.763	253.69
347.99	248.69
348.218	215.69
348.445	215.69
348.673	222.69
348.9	226.69
349.128	223.69
349.355	219.69
349.583	238.69
349.81	244.69
350.037	225.69
350.265	204.69
350.492	182.69
350.72	181.69
350.947	179.69
351.174	201.69
351.402	201.69
351.629	204.69
351.856	215.69
352.083	192.69
352.311	231.69
352.538	237.69
352.765	262.69
352.992	253.69
353.22	222.69
353.447	237.69
353.674	228.69
353.901	251.69
354.128	219.69
354.355	228.69
354.583	226.69
354.81	228.69
355.037	256.69
355.264	244.69
355.491	248.69
355.718	261.69
355.945	259.69
356.172	231.69
356.399	240.69
356.626	288.69
356.853	357.69
357.08	384.69
357.307	386.69
357.534	304.69
357.761	326.69
357.988	369.69
358.215	417.69
358.441	401.69
358.668	365.69
358.895	351.69
359.122	268.69
359.349	266.69
359.576	310.69
359.802	238.69
360.029	227.69
360.256	225.69
360.483	276.69
360.709	358.69
360.936	372.69
361.163	321.69
361.39	272.69
361.616	239.69
361.843	278.69
362.07	322.69
362.296	288.69
362.523	242.69
362.749	199.69
362.976	204.69
363.203	257.69
363.429	295.69
363.656	238.69
363.882	234.69
364.109	252.69
364.335	236.69
364.562	212.69
364.788	238.69
365.015	282.69
365.241	250.69
365.468	224.69
365.694	197.69
365.92	199.69
366.147	177.69
366.373	165.69
366.599	181.69
366.826	198.69
367.052	185.69
367.278	198.69
367.505	200.69
367.731	200.69
367.957	229.69
368.184	223.69
368.41	218.69
368.636	229.69
368.862	250.69
369.089	241.69
369.315	221.69
369.541	217.69
369.767	200.69
369.993	193.69
370.219	191.69
370.445	196.69
370.672	220.69
370.898	261.69
371.124	252.69
371.35	229.69
371.576	205.69
371.802	218.69
372.028	230.69
372.254	274.69
372.48	239.69
372.706	219.69
372.932	223.69
373.158	246.69
373.384	289.69
373.61	350.69
373.835	370.69
374.061	290.69
374.287	256.69
374.513	294.69
374.739	343.69
374.965	344.69
375.191	333.69
375.416	238.69
375.642	224.69
375.868	254.69
376.094	288.69
376.319	239.69
376.545	257.69
376.771	288.69
376.997	261.69
377.222	201.69
377.448	174.69
377.674	177.69
377.899	187.69
378.125	182.69
378.35	163.69
378.576	186.69
378.802	193.69
379.027	222.69
379.253	211.69
379.478	218.69
379.704	232.69
379.929	254.69
380.155	232.69
380.38	220.69
380.606	222.69
380.831	255.69
381.057	237.69
381.282	230.69
381.507	237.69
381.733	306.69
381.958	329.69
382.184	322.69
382.409	363.69
382.634	353.69
382.86	348.69
383.085	293.69
383.31	249.69
383.535	293.69
383.761	266.69
383.986	250.69
384.211	302.69
384.436	310.69
384.662	240.69
384.887	226.69
385.112	249.69
385.337	226.69
385.562	218.69
385.787	260.69
386.013	277.69
386.238	270.69
386.463	233.69
386.688	216.69
386.913	218.69
387.138	192.69
387.363	213.69
387.588	225.69
387.813	215.69
388.038	257.69
388.263	225.69
388.488	233.69
388.713	241.69
388.938	278.69
389.163	231.69
389.387	199.69
389.612	194.69
389.837	224.69
390.062	209.69
390.287	234.69
390.512	226.69
390.736	210.69
390.961	201.69
391.186	206.69
391.411	186.69
391.636	200.69
391.86	213.69
392.085	226.69
392.31	226.69
392.534	214.69
392.759	198.69
392.984	236.69
393.208	221.69
393.433	196.69
393.658	214.69
393.882	184.69
394.107	200.69
394.331	178.69
394.556	189.69
394.78	176.69
395.005	193.69
395.229	183.69
395.454	207.69
395.678	213.69
395.903	202.69
396.127	199.69
396.352	202.69
396.576	225.69
396.801	231.69
397.025	261.69
397.249	285.69
397.474	211.69
397.698	196.69
397.922	213.69
398.147	209.69
398.371	203.69
398.595	234.69
398.82	237.69
399.044	227.69
399.268	233.69
399.492	227.69
399.717	266.69
399.941	255.69
400.165	238.69
400.389	241.69
400.613	228.69
400.837	225.69
401.062	199.69
401.286	207.69
401.51	202.69
401.734	216.69
401.958	184.69
402.182	207.69
402.406	201.69
402.63	194.69
402.854	209.69
403.078	233.69
403.302	314.69
403.526	336.69
403.75	297.69
403.974	252.69
404.198	264.69
404.422	271.69
404.645	302.69
404.869	343.69
405.093	268.69
405.317	225.69
405.541	208.69
405.765	255.69
405.988	216.69
406.212	237.69
406.436	277.69
406.66	299.69
406.883	256.69
407.107	264.69
407.331	284.69
407.555	276.69
407.778	258.69
408.002	254.69
408.226	261.69
408.449	225.69
408.673	231.69
408.896	208.69
409.12	197.69
409.344	193.69
409.567	198.69
409.791	196.69
410.014	205.69
410.238	210.69
410.461	206.69
410.685	211.69
410.908	196.69
411.132	205.69
411.355	207.69
411.578	222.69
411.802	201.69
412.025	220.69
412.249	207.69
412.472	222.69
412.695	221.69
412.919	208.69
413.142	218.69
413.365	219.69
413.589	239.69
413.812	195.69
414.035	200.69
414.258	212.69
414.482	229.69
414.705	231.69
414.928	211.69
415.151	175.69
415.374	196.69
415.597	205.69
415.821	194.69
416.044	218.69
416.267	199.69
416.49	206.69
416.713	203.69
416.936	173.69
417.159	196.69
417.382	197.69
417.605	198.69
417.828	215.69
418.051	210.69
418.274	203.69
418.497	200.69
418.72	210.69
418.943	217.69
419.166	236.69
419.389	225.69
419.611	213.69
419.834	226.69
420.057	260.69
420.28	245.69
420.503	237.69
420.726	220.69
420.948	204.69
421.171	210.69
421.394	205.69
421.617	191.69
421.839	199.69
422.062	195.69
422.285	205.69
422.507	215.69
422.73	194.69
422.953	221.69
423.175	216.69
423.398	213.69
423.621	221.69
423.843	229.69
424.066	223.69
424.288	218.69
424.511	215.69
424.733	205.69
424.956	215.69
425.178	243.69
425.401	292.69
425.623	319.69
425.846	282.69
426.068	218.69
426.291	244.69
426.513	230.69
426.735	204.69
426.958	213.69
427.18	245.69
427.402	320.69
427.625	332.69
427.847	275.69
428.069	212.69
428.292	207.69
428.514	219.69
428.736	193.69
428.958	200.69
429.181	266.69
429.403	245.69
429.625	204.69
429.847	204.69
430.069	208.69
430.292	231.69
430.514	200.69
430.736	201.69
430.958	242.69
431.18	220.69
431.402	177.69
431.624	165.69
431.846	170.69
432.068	196.69
432.29	181.69
432.512	208.69
432.734	268.69
432.956	238.69
433.178	188.69
433.4	157.69
433.622	186.69
433.844	210.69
434.066	228.69
434.287	211.69
434.509	207.69
434.731	219.69
434.953	196.69
435.175	213.69
435.397	238.69
435.618	199.69
435.84	186.69
436.062	191.69
436.284	194.69
436.505	174.69
436.727	177.69
436.949	182.69
437.17	189.69
437.392	192.69
437.614	192.69
437.835	194.69
438.057	189.69
438.278	194.69
438.5	288.69
438.721	282.69
438.943	196.69
439.165	198.69
439.386	180.69
439.608	168.69
439.829	173.69
440.05	174.69
440.272	188.69
440.493	218.69
440.715	264.69
440.936	216.69
441.158	170.69
441.379	193.69
441.6	213.69
441.822	238.69
442.043	199.69
442.264	188.69
442.486	196.69
442.707	186.69
442.928	197.69
443.149	192.69
443.371	193.69
443.592	204.69
443.813	201.69
444.034	200.69
444.255	188.69
444.476	201.69
444.698	206.69
444.919	184.69
445.14	351.69
445.361	285.69
445.582	207.69
445.803	219.69
446.024	211.69
446.245	232.69
446.466	210.69
446.687	208.69
446.908	199.69
447.129	181.69
447.35	165.69
447.571	193.69
447.792	199.69
448.013	174.69
448.234	178.69
448.455	181.69
448.675	184.69
448.896	182.69
449.117	192.69
449.338	179.69
449.559	185.69
449.779	194.69
450	204.69
450.221	187.69
450.442	176.69
450.662	200.69
450.883	187.69
451.104	184.69
451.324	184.69
451.545	194.69
451.766	173.69
451.986	193.69
452.207	158.69
452.428	177.69
452.648	172.69
452.869	200.69
453.089	208.69
453.31	182.69
453.53	165.69
453.751	166.69
453.971	168.69
454.192	176.69
454.412	194.69
454.633	181.69
454.853	174.69
455.073	159.69
455.294	174.69
455.514	164.69
455.734	157.69
455.955	193.69
456.175	181.69
456.395	175.69
456.616	156.69
456.836	176.69
457.056	138.69
457.276	168.69
457.497	173.69
457.717	162.69
457.937	166.69
458.157	168.69
458.377	163.69
458.598	182.69
458.818	180.69
459.038	184.69
459.258	186.69
459.478	179.69
459.698	192.69
459.918	182.69
460.138	193.69
460.358	209.69
460.578	201.69
460.798	201.69
461.018	205.69
461.238	183.69
461.458	205.69
461.678	215.69
461.898	215.69
462.118	193.69
462.338	220.69
462.558	202.69
462.777	216.69
462.997	233.69
463.217	218.69
463.437	221.69
463.657	222.69
463.876	201.69
464.096	213.69
464.316	211.69
464.536	214.69
464.755	248.69
464.975	256.69
465.195	224.69
465.414	252.69
465.634	220.69
465.854	195.69
466.073	192.69
466.293	175.69
466.512	198.69
466.732	235.69
466.951	217.69
467.171	193.69
467.391	177.69
467.61	181.69
467.829	203.69
468.049	205.69
468.268	202.69
468.488	200.69
468.707	193.69
468.927	201.69
469.146	228.69
469.365	233.69
469.585	184.69
469.804	234.69
470.023	221.69
470.243	216.69
470.462	212.69
470.681	219.69
470.901	200.69
471.12	200.69
471.339	212.69
471.558	200.69
471.777	198.69
471.997	201.69
472.216	234.69
472.435	237.69
472.654	210.69
472.873	214.69
473.092	240.69
473.311	230.69
473.53	197.69
473.749	196.69
473.968	202.69
474.187	208.69
474.406	195.69
474.625	222.69
474.844	208.69
475.063	212.69
475.282	214.69
475.501	225.69
475.72	259.69
475.939	244.69
476.158	235.69
476.377	272.69
476.596	312.69
476.814	315.69
477.033	281.69
477.252	219.69
477.471	208.69
477.69	216.69
477.908	202.69
478.127	228.69
478.346	233.69
478.564	288.69
478.783	240.69
479.002	239.69
479.22	264.69
479.439	285.69
479.658	249.69
479.876	231.69
480.095	246.69
480.313	252.69
480.532	247.69
480.751	234.69
480.969	212.69
481.188	266.69
481.406	276.69
481.624	254.69
481.843	222.69
482.061	215.69
482.28	243.69
482.498	322.69
482.717	310.69
482.935	252.69
483.153	229.69
483.372	215.69
483.59	210.69
483.808	208.69
484.027	209.69
484.245	209.69
484.463	220.69
484.681	195.69
484.9	220.69
485.118	234.69
485.336	222.69
485.554	205.69
485.772	235.69
485.99	231.69
486.209	256.69
486.427	254.69
486.645	257.69
486.863	242.69
487.081	254.69
487.299	282.69
487.517	296.69
487.735	233.69
487.953	230.69
488.171	274.69
488.389	230.69
488.607	240.69
488.825	248.69
489.043	270.69
489.261	298.69
489.479	335.69
489.696	270.69
489.914	211.69
490.132	224.69
490.35	242.69
490.568	226.69
490.786	239.69
491.003	232.69
491.221	225.69
491.439	236.69
491.657	208.69
491.874	241.69
492.092	300.69
492.31	380.69
492.527	343.69
492.745	290.69
492.963	257.69
493.18	264.69
493.398	244.69
493.615	256.69
493.833	266.69
494.05	251.69
494.268	271.69
494.485	252.69
494.703	229.69
494.92	228.69
495.138	211.69
495.355	232.69
495.573	249.69
495.79	286.69
496.008	390.69
496.225	349.69
496.442	278.69
496.66	258.69
496.877	283.69
497.094	264.69
497.312	259.69
497.529	259.69
497.746	236.69
497.963	254.69
498.181	281.69
498.398	312.69
498.615	328.69
498.832	317.69
499.049	332.69
499.267	322.69
499.484	319.69
499.701	321.69
499.918	347.69
500.135	382.69
500.352	421.69
500.569	415.69
500.786	431.69
501.003	429.69
501.22	382.69
501.437	355.69
501.654	354.69
501.871	304.69
502.088	314.69
502.305	297.69
502.522	294.69
502.739	300.69
502.956	278.69
503.172	280.69
503.389	261.69
503.606	262.69
503.823	263.69
504.04	274.69
504.256	279.69
504.473	250.69
504.69	276.69
504.907	282.69
505.123	263.69
505.34	284.69
505.557	297.69
505.773	258.69
505.99	257.69
506.207	265.69
506.423	243.69
506.64	225.69
506.856	258.69
507.073	276.69
507.289	274.69
507.506	248.69
507.722	297.69
507.939	260.69
508.155	274.69
508.372	262.69
508.588	243.69
508.805	248.69
509.021	246.69
509.238	257.69
509.454	252.69
509.67	230.69
509.887	242.69
510.103	244.69
510.319	254.69
510.536	242.69
510.752	224.69
510.968	215.69
511.184	191.69
511.401	207.69
511.617	213.69
511.833	207.69
512.049	228.69
512.265	224.69
512.481	212.69
512.698	261.69
512.914	262.69
513.13	268.69
513.346	231.69
513.562	222.69
513.778	249.69
513.994	241.69
514.21	274.69
514.426	264.69
514.642	233.69
514.858	214.69
515.074	239.69
515.29	279.69
515.506	298.69
515.721	260.69
515.937	232.69
516.153	244.69
516.369	239.69
516.585	254.69
516.801	308.69
517.016	344.69
517.232	330.69
517.448	313.69
517.664	268.69
517.879	264.69
518.095	274.69
518.311	284.69
518.527	278.69
518.742	292.69
518.958	287.69
519.173	305.69
519.389	280.69
519.605	294.69
519.82	293.69
520.036	334.69
520.251	325.69
520.467	333.69
520.682	579.69
520.898	731.69
521.113	671.69
521.329	386.69
521.544	342.69
521.76	311.69
521.975	281.69
522.19	265.69
522.406	268.69
522.621	289.69
522.836	326.69
523.052	323.69
523.267	288.69
523.482	295.69
523.698	287.69
523.913	281.69
524.128	258.69
524.343	223.69
524.559	245.69
524.774	227.69
524.989	252.69
525.204	254.69
525.419	286.69
525.634	256.69
525.849	271.69
526.064	259.69
526.28	265.69
526.495	308.69
526.71	343.69
526.925	306.69
527.14	324.69
527.355	298.69
527.57	246.69
527.785	257.69
527.999	240.69
528.214	238.69
528.429	228.69
528.644	256.69
528.859	213.69
529.074	208.69
529.289	201.69
529.503	204.69
529.718	213.69
529.933	312.69
530.148	314.69
530.363	232.69
530.577	216.69
530.792	223.69
531.007	229.69
531.221	204.69
531.436	201.69
531.651	204.69
531.865	221.69
532.08	239.69
532.295	229.69
532.509	231.69
532.724	276.69
532.938	302.69
533.153	374.69
533.367	281.69
533.582	258.69
533.796	222.69
534.011	229.69
534.225	249.69
534.44	254.69
534.654	239.69
534.868	303.69
535.083	275.69
535.297	228.69
535.511	217.69
535.726	240.69
535.94	224.69
536.154	222.69
536.369	213.69
536.583	223.69
536.797	219.69
537.011	228.69
537.225	257.69
537.44	272.69
537.654	233.69
537.868	225.69
538.082	221.69
538.296	240.69
538.51	246.69
538.724	250.69
538.938	220.69
539.153	214.69
539.367	213.69
539.581	214.69
539.795	224.69
540.009	250.69
540.222	239.69
540.436	242.69
540.65	260.69
540.864	260.69
541.078	272.69
541.292	333.69
541.506	253.69
541.72	233.69
541.934	227.69
542.147	217.69
542.361	227.69
542.575	230.69
542.789	221.69
543.002	225.69
543.216	248.69
543.43	204.69
543.644	213.69
543.857	197.69
544.071	196.69
544.285	217.69
544.498	207.69
544.712	184.69
544.925	227.69
545.139	211.69
545.352	193.69
545.566	214.69
545.779	249.69
545.993	209.69
546.206	185.69
546.42	197.69
546.633	205.69
546.847	192.69
547.06	175.69
547.274	185.69
547.487	185.69
547.7	208.69
547.914	221.69
548.127	241.69
548.34	231.69
548.554	223.69
548.767	220.69
548.98	219.69
549.193	223.69
549.407	218.69
549.62	261.69
549.833	231.69
550.046	238.69
550.259	225.69
550.473	225.69
550.686	213.69
550.899	236.69
551.112	217.69
551.325	216.69
551.538	244.69
551.751	215.69
551.964	200.69
552.177	214.69
552.39	212.69
552.603	192.69
552.816	194.69
553.029	199.69
553.242	199.69
553.455	208.69
553.667	224.69
553.88	214.69
554.093	196.69
554.306	185.69
554.519	190.69
554.732	190.69
554.944	186.69
555.157	191.69
555.37	179.69
555.583	193.69
555.795	181.69
556.008	183.69
556.221	178.69
556.433	200.69
556.646	174.69
556.859	194.69
557.071	200.69
557.284	189.69
557.496	203.69
557.709	185.69
557.921	183.69
558.134	171.69
558.346	173.69
558.559	165.69
558.771	176.69
558.984	183.69
559.196	192.69
559.409	181.69
559.621	173.69
559.833	167.69
560.046	176.69
560.258	167.69
560.47	176.69
560.683	170.69
560.895	164.69
561.107	162.69
561.32	149.69
561.532	149.69
561.744	200.69
561.956	192.69
562.168	163.69
562.381	179.69
562.593	189.69
562.805	176.69
563.017	179.69
563.229	161.69
563.441	164.69
563.653	165.69
563.865	182.69
564.077	172.69
564.289	163.69
564.501	172.69
564.713	190.69
564.925	187.69
565.137	162.69
565.349	172.69
565.561	185.69
565.773	187.69
565.985	186.69
566.197	197.69
566.408	213.69
566.62	188.69
566.832	206.69
567.044	209.69
567.255	224.69
567.467	243.69
567.679	225.69
567.891	227.69
568.102	218.69
568.314	228.69
568.526	216.69
568.737	197.69
568.949	219.69
569.161	208.69
569.372	187.69
569.584	183.69
569.795	166.69
570.007	174.69
570.218	180.69
570.43	183.69
570.641	174.69
570.853	152.69
571.064	178.69
571.276	166.69
571.487	192.69
571.698	182.69
571.91	180.69
572.121	173.69
572.333	175.69
572.544	152.69
572.755	157.69
572.966	169.69
573.178	153.69
573.389	178.69
573.6	163.69
573.811	165.69
574.023	165.69
574.234	162.69
574.445	153.69
574.656	156.69
574.867	138.69
575.078	159.69
575.289	159.69
575.501	181.69
575.712	144.69
575.923	158.69
576.134	171.69
576.345	144.69
576.556	163.69
576.767	152.69
576.978	145.69
577.188	146.69
577.399	144.69
577.61	165.69
577.821	162.69
578.032	153.69
578.243	142.69
578.454	160.69
578.665	165.69
578.875	182.69
579.086	174.69
579.297	153.69
579.508	167.69
579.718	157.69
579.929	138.69
580.14	145.69
580.35	143.69
580.561	134.69
580.772	137.69
580.982	133.69
581.193	134.69
581.403	130.69
581.614	139.69
581.825	145.69
582.035	142.69
582.246	134.69
582.456	134.69
582.667	149.69
582.877	145.69
583.087	138.69
583.298	117.69
583.508	133.69
583.719	133.69
583.929	134.69
584.139	129.69
584.35	131.69
584.56	142.69
584.77	148.69
584.981	128.69
585.191	124.69
585.401	137.69
585.611	136.69
585.821	144.69
586.032	143.69
586.242	135.69
586.452	140.69
586.662	152.69
586.872	148.69
587.082	143.69
587.292	146.69
587.502	136.69
587.713	137.69
587.923	154.69
588.133	172.69
588.343	139.69
588.553	145.69
588.762	143.69
588.972	121.69
589.182	161.69
589.392	131.69
589.602	114.69
589.812	127.69
590.022	143.69
590.232	160.69
590.441	136.69
590.651	134.69
590.861	132.69
591.071	138.69
591.281	139.69
591.49	137.69
591.7	135.69
591.91	132.69
592.119	123.69
592.329	151.69
592.539	151.69
592.748	138.69
592.958	136.69
593.167	136.69
593.377	135.69
593.587	152.69
593.796	152.69
594.006	134.69
594.215	155.69
594.424	152.69
594.634	133.69
594.843	147.69
595.053	144.69
595.262	139.69
595.472	130.69
595.681	138.69
595.89	143.69
596.1	125.69
596.309	133.69
596.518	126.69
596.727	142.69
596.937	129.69
597.146	129.69
597.355	133.69
597.564	130.69
597.774	131.69
597.983	134.69
598.192	132.69
598.401	117.69
598.61	137.69
598.819	132.69
599.028	121.69
599.237	128.69
599.446	134.69
599.655	121.69
599.864	109.69
600.073	124.69
600.282	125.69
600.491	115.69
600.7	124.69
600.909	126.69
601.118	130.69
601.327	124.69
601.536	132.69
601.745	122.69
601.953	136.69
602.162	125.69
602.371	128.69
602.58	140.69
602.789	125.69
602.997	114.69
603.206	141.69
603.415	129.69
603.623	122.69
603.832	125.69
604.041	134.69
604.249	120.69
604.458	133.69
604.666	130.69
604.875	114.69
605.084	120.69
605.292	110.69
605.501	117.69
605.709	113.69
605.918	119.69
606.126	120.69
606.334	111.69
606.543	116.69
606.751	118.69
606.96	122.69
607.168	112.69
607.376	114.69
607.585	119.69
607.793	120.69
608.001	108.69
608.21	115.69
608.418	112.69
608.626	129.69
608.834	131.69
609.043	120.69
609.251	123.69
609.459	106.69
609.667	126.69
609.875	110.69
610.083	104.69
610.291	114.69
610.499	117.69
610.707	118.69
610.916	126.69
611.124	124.69
611.332	118.69
611.54	121.69
611.748	113.69
611.955	116.69
612.163	107.69
612.371	100.69
612.579	106.69
612.787	118.69
612.995	111.69
613.203	118.69
613.411	118.69
613.618	127.69
613.826	124.69
614.034	113.69
614.242	116.69
614.449	112.69
614.657	104.69
614.865	119.69
615.072	128.69
615.28	111.69
615.488	100.69
615.695	102.69
615.903	115.69
616.111	118.69
616.318	118.69
616.526	120.69
616.733	128.69
616.941	115.69
617.148	101.69
617.356	113.69
617.563	105.69
617.771	118.69
617.978	102.69
618.185	93.69
618.393	113.69
618.6	108.69
618.807	108.69
619.015	103.69
619.222	120.69
619.429	113.69
619.637	123.69
619.844	116.69
620.051	122.69
620.258	138.69
620.466	117.69
620.673	116.69
620.88	118.69
621.087	117.69
621.294	104.69
621.501	104.69
621.708	90.69
621.915	104.69
622.122	110.69
622.329	116.69
622.536	105.69
622.743	106.69
622.95	112.69
623.157	116.69
623.364	120.69
623.571	105.69
623.778	120.69
623.985	120.69
624.192	96.69
624.399	106.69
624.606	113.69
624.812	97.69
625.019	119.69
625.226	123.69
625.433	110.69
625.639	112.69
625.846	96.69
626.053	98.69
626.259	98.69
626.466	106.69
626.673	122.69
626.879	94.69
627.086	108.69
627.293	118.69
627.499	96.69
627.706	110.69
627.912	97.69
628.119	105.69
628.325	104.69
628.532	100.69
628.738	96.69
628.945	102.69
629.151	104.69
629.357	113.69
629.564	104.69
629.77	102.69
629.976	112.69
630.183	93.69
630.389	113.69
630.595	97.69
630.802	103.69
631.008	108.69
631.214	99.69
631.42	104.69
631.627	101.69
631.833	116.69
632.039	105.69
632.245	95.69
632.451	93.69
632.657	106.69
632.863	100.69
633.069	107.69
633.275	95.69
633.481	105.69
633.688	115.69
633.893	99.69
634.099	97.69
634.305	89.69
634.511	109.69
634.717	108.69
634.923	106.69
635.129	102.69
635.335	102.69
635.541	105.69
635.747	110.69
635.952	85.69
636.158	94.69
636.364	98.69
636.57	103.69
636.775	97.69
636.981	100.69
637.187	107.69
637.392	104.69
637.598	100.69
637.804	92.69
638.009	95.69
638.215	101.69
638.421	105.69
638.626	98.69
638.832	110.69
639.037	103.69
639.243	102.69
639.448	120.69
639.654	104.69
639.859	96.69
640.065	97.69
640.27	110.69
640.475	101.69
640.681	97.69
640.886	105.69
641.091	93.69
641.297	77.69
641.502	92.69
641.707	94.69
641.913	96.69
642.118	102.69
642.323	81.69
642.528	101.69
642.733	94.69
642.939	95.69
643.144	105.69
643.349	101.69
643.554	92.69
643.759	94.69
643.964	102.69
644.169	100.69
644.374	93.69
644.579	101.69
644.784	87.69
644.989	100.69
645.194	92.69
645.399	89.69
645.604	97.69
645.809	95.69
646.014	81.69
646.219	90.69
646.423	102.69
646.628	89.69
646.833	92.69
647.038	108.69
647.243	89.69
647.447	111.69
647.652	104.69
647.857	89.69
648.062	90.69
648.266	81.69
648.471	81.69
648.676	92.69
648.88	101.69
649.085	100.69
649.289	96.69
649.494	87.69
649.698	101.69
649.903	97.69
650.107	97.69
650.312	101.69
650.516	89.69
650.721	84.69
650.925	100.69
651.13	114.69
651.334	94.69
651.539	84.69
651.743	108.69
651.947	84.69
652.152	79.69
652.356	94.69
652.56	97.69
652.764	108.69
652.969	93.69
653.173	97.69
653.377	88.69
653.581	88.69
653.785	91.69
653.99	82.69
654.194	87.69
654.398	86.69
654.602	80.69
654.806	100.69
655.01	108.69
655.214	88.69
655.418	90.69
655.622	89.69
655.826	85.69
656.03	89.69
656.234	80.69
656.438	90.69
656.642	88.69
656.846	99.69
657.049	98.69
657.253	87.69
657.457	89.69
657.661	89.69
657.865	85.69
658.068	95.69
658.272	84.69
658.476	82.69
658.68	83.69
658.883	74.69
659.087	77.69
659.291	84.69
659.494	79.69
659.698	88.69
659.901	60.69
660.105	74.69
660.309	86.69
660.512	82.69
660.716	75.69
660.919	66.69
661.123	76.69
661.326	78.69
661.53	83.69
661.733	94.69
661.936	89.69
662.14	69.69
662.343	77.69
662.546	80.69
662.75	77.69
662.953	89.69
663.156	70.69
663.36	81.69
663.563	85.69
663.766	71.69
663.969	97.69
664.173	94.69
664.376	88.69
664.579	81.69
664.782	72.69
664.985	65.69
665.188	87.69
665.391	88.69
665.594	85.69
665.797	79.69
666	86.69
666.203	73.69
666.406	61.69
666.609	70.69
666.812	73.69
667.015	88.69
667.218	81.69
667.421	77.69
667.624	85.69
667.827	82.69
668.03	88.69
668.232	83.69
668.435	90.69
668.638	81.69
668.841	91.69
669.043	82.69
669.246	69.69
669.449	76.69
669.651	95.69
669.854	83.69
670.057	74.69
670.259	70.69
670.462	73.69
670.665	76.69
670.867	82.69
671.07	94.69
671.272	89.69
671.475	84.69
671.677	97.69
671.88	77.69
672.082	82.69
672.284	84.69
672.487	62.69
672.689	67.69
672.892	81.69
