Data from NickelSpatula_HRD10591_16-34-04-126.txt Node
Date: Mon Jul 22 16:34:04 EDT 2019
User: cochatt
Spectrometer: HR+D1059
Trigger mode: 1
Integration Time (sec): 1.000000E-1
Scans to average: 1
Electric dark correction enabled: true
Nonlinearity correction enabled: false
Boxcar width: 0
XAxis mode: Wavelengths
Number of Pixels in Spectrum: 2048
>>>>>Begin Spectral Data<<<<<
223.165	-15.88
223.4	-15.88
223.635	-15.88
223.869	-11.88
224.104	-16.88
224.338	-7.88
224.573	-10.88
224.808	-18.88
225.042	4.12
225.277	-3.88
225.511	-6.88
225.746	-6.88
225.98	-10.88
226.215	0.12
226.449	12.12
226.683	17.12
226.918	30.12
227.152	47.12
227.387	29.12
227.621	35.12
227.856	46.12
228.09	39.12
228.324	52.12
228.559	51.12
228.793	65.12
229.027	88.12
229.262	71.12
229.496	75.12
229.73	80.12
229.964	86.12
230.199	103.12
230.433	99.12
230.667	106.12
230.901	115.12
231.136	117.12
231.37	104.12
231.604	96.12
231.838	100.12
232.072	94.12
232.306	110.12
232.541	103.12
232.775	103.12
233.009	123.12
233.243	122.12
233.477	109.12
233.711	117.12
233.945	116.12
234.179	137.12
234.413	138.12
234.647	133.12
234.881	138.12
235.115	152.12
235.349	134.12
235.583	131.12
235.817	136.12
236.051	120.12
236.285	131.12
236.519	156.12
236.753	128.12
236.987	123.12
237.221	136.12
237.455	131.12
237.689	137.12
237.922	139.12
238.156	139.12
238.39	159.12
238.624	170.12
238.858	177.12
239.091	148.12
239.325	154.12
239.559	154.12
239.793	173.12
240.027	154.12
240.26	175.12
240.494	155.12
240.728	157.12
240.961	188.12
241.195	170.12
241.429	169.12
241.662	174.12
241.896	156.12
242.13	147.12
242.363	136.12
242.597	154.12
242.83	155.12
243.064	147.12
243.298	161.12
243.531	163.12
243.765	191.12
243.998	161.12
244.232	179.12
244.465	181.12
244.699	165.12
244.932	192.12
245.166	179.12
245.399	165.12
245.633	166.12
245.866	155.12
246.099	166.12
246.333	178.12
246.566	215.12
246.8	200.12
247.033	205.12
247.266	183.12
247.5	188.12
247.733	193.12
247.966	173.12
248.2	172.12
248.433	188.12
248.666	205.12
248.899	206.12
249.133	220.12
249.366	245.12
249.599	258.12
249.832	230.12
250.066	209.12
250.299	228.12
250.532	201.12
250.765	209.12
250.998	182.12
251.231	196.12
251.465	203.12
251.698	215.12
251.931	207.12
252.164	224.12
252.397	235.12
252.63	260.12
252.863	275.12
253.096	284.12
253.329	270.12
253.562	280.12
253.795	301.12
254.028	329.12
254.261	342.12
254.494	304.12
254.727	291.12
254.96	293.12
255.193	295.12
255.426	280.12
255.659	233.12
255.892	208.12
256.124	229.12
256.357	262.12
256.59	288.12
256.823	274.12
257.056	252.12
257.289	220.12
257.521	258.12
257.754	290.12
257.987	331.12
258.22	290.12
258.452	258.12
258.685	277.12
258.918	320.12
259.151	306.12
259.383	327.12
259.616	349.12
259.849	365.12
260.081	403.12
260.314	405.12
260.547	349.12
260.779	357.12
261.012	406.12
261.244	381.12
261.477	394.12
261.71	370.12
261.942	308.12
262.175	327.12
262.407	301.12
262.64	300.12
262.872	334.12
263.105	380.12
263.337	391.12
263.57	372.12
263.802	267.12
264.035	258.12
264.267	223.12
264.499	204.12
264.732	190.12
264.964	177.12
265.197	195.12
265.429	203.12
265.661	206.12
265.894	221.12
266.126	244.12
266.358	250.12
266.591	310.12
266.823	358.12
267.055	356.12
267.287	285.12
267.52	318.12
267.752	325.12
267.984	359.12
268.216	338.12
268.448	300.12
268.681	279.12
268.913	308.12
269.145	320.12
269.377	337.12
269.609	328.12
269.841	311.12
270.073	318.12
270.306	346.12
270.538	353.12
270.77	350.12
271.002	352.12
271.234	370.12
271.466	359.12
271.698	341.12
271.93	345.12
272.162	350.12
272.394	337.12
272.626	334.12
272.858	347.12
273.09	348.12
273.322	298.12
273.553	296.12
273.785	318.12
274.017	398.12
274.249	516.12
274.481	523.12
274.713	568.12
274.945	644.12
275.176	668.12
275.408	597.12
275.64	579.12
275.872	565.12
276.104	488.12
276.335	427.12
276.567	437.12
276.799	446.12
277.031	456.12
277.262	376.12
277.494	302.12
277.726	282.12
277.957	310.12
278.189	355.12
278.421	356.12
278.652	320.12
278.884	340.12
279.115	302.12
279.347	285.12
279.579	280.12
279.81	309.12
280.042	290.12
280.273	294.12
280.505	275.12
280.736	252.12
280.968	256.12
281.199	278.12
281.431	292.12
281.662	302.12
281.894	299.12
282.125	289.12
282.356	315.12
282.588	330.12
282.819	306.12
283.051	303.12
283.282	391.12
283.513	436.12
283.745	485.12
283.976	470.12
284.207	449.12
284.439	452.12
284.67	465.12
284.901	403.12
285.132	432.12
285.364	465.12
285.595	413.12
285.826	456.12
286.057	460.12
286.288	433.12
286.52	446.12
286.751	484.12
286.982	467.12
287.213	417.12
287.444	393.12
287.675	420.12
287.906	416.12
288.138	351.12
288.369	341.12
288.6	310.12
288.831	321.12
289.062	367.12
289.293	425.12
289.524	370.12
289.755	363.12
289.986	370.12
290.217	358.12
290.448	265.12
290.679	240.12
290.91	227.12
291.141	231.12
291.371	241.12
291.602	226.12
291.833	229.12
292.064	243.12
292.295	310.12
292.526	317.12
292.757	329.12
292.987	355.12
293.218	374.12
293.449	397.12
293.68	425.12
293.91	403.12
294.141	396.12
294.372	390.12
294.603	337.12
294.833	352.12
295.064	443.12
295.295	427.12
295.525	312.12
295.756	288.12
295.987	234.12
296.217	236.12
296.448	257.12
296.679	251.12
296.909	271.12
297.14	312.12
297.37	322.12
297.601	314.12
297.831	285.12
298.062	278.12
298.292	318.12
298.523	344.12
298.753	391.12
298.984	349.12
299.214	287.12
299.445	263.12
299.675	233.12
299.905	236.12
300.136	242.12
300.366	242.12
300.597	268.12
300.827	239.12
301.057	220.12
301.288	234.12
301.518	264.12
301.748	297.12
301.979	323.12
302.209	314.12
302.439	306.12
302.669	256.12
302.9	292.12
303.13	271.12
303.36	276.12
303.59	253.12
303.82	269.12
304.051	289.12
304.281	299.12
304.511	301.12
304.741	284.12
304.971	276.12
305.201	299.12
305.431	294.12
305.661	254.12
305.891	250.12
306.121	242.12
306.352	215.12
306.582	212.12
306.812	202.12
307.042	204.12
307.272	208.12
307.502	186.12
307.731	199.12
307.961	194.12
308.191	211.12
308.421	190.12
308.651	183.12
308.881	189.12
309.111	180.12
309.341	198.12
309.571	218.12
309.8	217.12
310.03	208.12
310.26	225.12
310.49	228.12
310.72	206.12
310.949	195.12
311.179	198.12
311.409	197.12
311.639	236.12
311.868	310.12
312.098	402.12
312.328	426.12
312.557	397.12
312.787	413.12
313.017	371.12
313.246	388.12
313.476	423.12
313.706	379.12
313.935	304.12
314.165	242.12
314.394	212.12
314.624	211.12
314.853	215.12
315.083	250.12
315.312	240.12
315.542	223.12
315.771	217.12
316.001	190.12
316.23	199.12
316.46	205.12
316.689	198.12
316.919	195.12
317.148	201.12
317.377	209.12
317.607	190.12
317.836	214.12
318.065	236.12
318.295	282.12
318.524	257.12
318.753	221.12
318.983	221.12
319.212	202.12
319.441	203.12
319.67	228.12
319.9	264.12
320.129	238.12
320.358	208.12
320.587	219.12
320.816	211.12
321.046	257.12
321.275	293.12
321.504	269.12
321.733	276.12
321.962	261.12
322.191	262.12
322.42	229.12
322.649	234.12
322.878	276.12
323.108	287.12
323.337	237.12
323.566	242.12
323.795	237.12
324.024	220.12
324.253	223.12
324.482	216.12
324.71	223.12
324.939	266.12
325.168	233.12
325.397	213.12
325.626	201.12
325.855	203.12
326.084	214.12
326.313	204.12
326.542	188.12
326.77	197.12
326.999	208.12
327.228	215.12
327.457	213.12
327.686	200.12
327.914	220.12
328.143	189.12
328.372	183.12
328.6	179.12
328.829	183.12
329.058	180.12
329.287	190.12
329.515	195.12
329.744	202.12
329.972	197.12
330.201	170.12
330.43	199.12
330.658	184.12
330.887	244.12
331.115	245.12
331.344	204.12
331.572	226.12
331.801	220.12
332.03	202.12
332.258	202.12
332.486	219.12
332.715	213.12
332.943	203.12
333.172	209.12
333.4	218.12
333.629	233.12
333.857	249.12
334.085	247.12
334.314	225.12
334.542	230.12
334.771	206.12
334.999	205.12
335.227	200.12
335.455	212.12
335.684	226.12
335.912	226.12
336.14	285.12
336.369	278.12
336.597	284.12
336.825	280.12
337.053	332.12
337.281	275.12
337.51	227.12
337.738	214.12
337.966	246.12
338.194	255.12
338.422	237.12
338.65	217.12
338.878	192.12
339.106	178.12
339.334	220.12
339.562	253.12
339.79	206.12
340.018	202.12
340.246	215.12
340.474	246.12
340.702	273.12
340.93	262.12
341.158	276.12
341.386	243.12
341.614	228.12
341.842	227.12
342.07	228.12
342.298	265.12
342.526	284.12
342.754	248.12
342.981	224.12
343.209	228.12
343.437	245.12
343.665	262.12
343.893	248.12
344.12	293.12
344.348	342.12
344.576	334.12
344.804	265.12
345.031	243.12
345.259	229.12
345.487	203.12
345.714	222.12
345.942	229.12
346.17	272.12
346.397	244.12
346.625	217.12
346.853	204.12
347.08	191.12
347.308	211.12
347.535	241.12
347.763	264.12
347.99	214.12
348.218	204.12
348.445	220.12
348.673	242.12
348.9	213.12
349.128	226.12
349.355	226.12
349.583	229.12
349.81	210.12
350.037	207.12
350.265	178.12
350.492	167.12
350.72	177.12
350.947	182.12
351.174	200.12
351.402	215.12
351.629	218.12
351.856	204.12
352.083	188.12
352.311	205.12
352.538	219.12
352.765	242.12
352.992	216.12
353.22	227.12
353.447	240.12
353.674	206.12
353.901	210.12
354.128	222.12
354.355	210.12
354.583	207.12
354.81	230.12
355.037	244.12
355.264	234.12
355.491	244.12
355.718	240.12
355.945	228.12
356.172	235.12
356.399	233.12
356.626	266.12
356.853	347.12
357.08	369.12
357.307	375.12
357.534	288.12
357.761	296.12
357.988	360.12
358.215	403.12
358.441	384.12
358.668	328.12
358.895	319.12
359.122	259.12
359.349	269.12
359.576	275.12
359.802	225.12
360.029	218.12
360.256	216.12
360.483	264.12
360.709	338.12
360.936	351.12
361.163	321.12
361.39	226.12
361.616	231.12
361.843	227.12
362.07	284.12
362.296	270.12
362.523	209.12
362.749	197.12
362.976	191.12
363.203	248.12
363.429	274.12
363.656	244.12
363.882	216.12
364.109	227.12
364.335	220.12
364.562	201.12
364.788	213.12
365.015	242.12
365.241	250.12
365.468	215.12
365.694	191.12
365.92	189.12
366.147	182.12
366.373	181.12
366.599	171.12
366.826	169.12
367.052	165.12
367.278	195.12
367.505	173.12
367.731	196.12
367.957	220.12
368.184	221.12
368.41	201.12
368.636	217.12
368.862	224.12
369.089	230.12
369.315	203.12
369.541	202.12
369.767	198.12
369.993	187.12
370.219	198.12
370.445	193.12
370.672	213.12
370.898	218.12
371.124	204.12
371.35	203.12
371.576	182.12
371.802	201.12
372.028	241.12
372.254	278.12
372.48	232.12
372.706	212.12
372.932	232.12
373.158	235.12
373.384	273.12
373.61	329.12
373.835	372.12
374.061	288.12
374.287	248.12
374.513	295.12
374.739	336.12
374.965	347.12
375.191	337.12
375.416	252.12
375.642	200.12
375.868	244.12
376.094	284.12
376.319	241.12
376.545	264.12
376.771	280.12
376.997	231.12
377.222	171.12
377.448	162.12
377.674	169.12
377.899	165.12
378.125	164.12
378.35	182.12
378.576	163.12
378.802	187.12
379.027	198.12
379.253	205.12
379.478	189.12
379.704	228.12
379.929	221.12
380.155	215.12
380.38	221.12
380.606	208.12
380.831	243.12
381.057	225.12
381.282	219.12
381.507	230.12
381.733	295.12
381.958	283.12
382.184	297.12
382.409	348.12
382.634	345.12
382.86	335.12
383.085	287.12
383.31	246.12
383.535	254.12
383.761	249.12
383.986	234.12
384.211	285.12
384.436	277.12
384.662	216.12
384.887	191.12
385.112	222.12
385.337	228.12
385.562	204.12
385.787	234.12
386.013	262.12
386.238	253.12
386.463	227.12
386.688	199.12
386.913	201.12
387.138	198.12
387.363	201.12
387.588	220.12
387.813	213.12
388.038	236.12
388.263	227.12
388.488	211.12
388.713	236.12
388.938	257.12
389.163	217.12
389.387	184.12
389.612	193.12
389.837	207.12
390.062	216.12
390.287	204.12
390.512	204.12
390.736	218.12
390.961	193.12
391.186	184.12
391.411	181.12
391.636	186.12
391.86	200.12
392.085	237.12
392.31	210.12
392.534	223.12
392.759	197.12
392.984	214.12
393.208	213.12
393.433	196.12
393.658	187.12
393.882	172.12
394.107	171.12
394.331	181.12
394.556	189.12
394.78	165.12
395.005	181.12
395.229	183.12
395.454	192.12
395.678	185.12
395.903	203.12
396.127	184.12
396.352	204.12
396.576	196.12
396.801	201.12
397.025	209.12
397.249	241.12
397.474	204.12
397.698	187.12
397.922	216.12
398.147	199.12
398.371	202.12
398.595	217.12
398.82	202.12
399.044	210.12
399.268	225.12
399.492	208.12
399.717	226.12
399.941	245.12
400.165	215.12
400.389	218.12
400.613	204.12
400.837	226.12
401.062	206.12
401.286	184.12
401.51	202.12
401.734	200.12
401.958	194.12
402.182	192.12
402.406	207.12
402.63	201.12
402.854	226.12
403.078	229.12
403.302	305.12
403.526	306.12
403.75	286.12
403.974	221.12
404.198	252.12
404.422	278.12
404.645	283.12
404.869	306.12
405.093	246.12
405.317	216.12
405.541	212.12
405.765	224.12
405.988	229.12
406.212	234.12
406.436	252.12
406.66	285.12
406.883	223.12
407.107	237.12
407.331	285.12
407.555	267.12
407.778	245.12
408.002	222.12
408.226	252.12
408.449	244.12
408.673	221.12
408.896	200.12
409.12	199.12
409.344	195.12
409.567	205.12
409.791	211.12
410.014	188.12
410.238	184.12
410.461	177.12
410.685	192.12
410.908	196.12
411.132	203.12
411.355	206.12
411.578	220.12
411.802	196.12
412.025	219.12
412.249	222.12
412.472	213.12
412.695	226.12
412.919	216.12
413.142	217.12
413.365	223.12
413.589	226.12
413.812	206.12
414.035	208.12
414.258	209.12
414.482	219.12
414.705	224.12
414.928	186.12
415.151	197.12
415.374	191.12
415.597	210.12
415.821	195.12
416.044	181.12
416.267	180.12
416.49	180.12
416.713	186.12
416.936	198.12
417.159	182.12
417.382	199.12
417.605	210.12
417.828	203.12
418.051	195.12
418.274	199.12
418.497	192.12
418.72	197.12
418.943	217.12
419.166	216.12
419.389	223.12
419.611	195.12
419.834	206.12
420.057	242.12
420.28	222.12
420.503	217.12
420.726	210.12
420.948	203.12
421.171	200.12
421.394	184.12
421.617	201.12
421.839	206.12
422.062	206.12
422.285	198.12
422.507	199.12
422.73	198.12
422.953	221.12
423.175	203.12
423.398	188.12
423.621	229.12
423.843	227.12
424.066	204.12
424.288	210.12
424.511	196.12
424.733	192.12
424.956	196.12
425.178	233.12
425.401	247.12
425.623	319.12
425.846	253.12
426.068	222.12
426.291	256.12
426.513	220.12
426.735	206.12
426.958	189.12
427.18	235.12
427.402	288.12
427.625	308.12
427.847	258.12
428.069	203.12
428.292	211.12
428.514	212.12
428.736	199.12
428.958	212.12
429.181	258.12
429.403	220.12
429.625	209.12
429.847	200.12
430.069	200.12
430.292	180.12
430.514	197.12
430.736	193.12
430.958	247.12
431.18	235.12
431.402	192.12
431.624	179.12
431.846	179.12
432.068	166.12
432.29	186.12
432.512	200.12
432.734	252.12
432.956	248.12
433.178	196.12
433.4	170.12
433.622	188.12
433.844	195.12
434.066	212.12
434.287	217.12
434.509	196.12
434.731	222.12
434.953	196.12
435.175	205.12
435.397	238.12
435.618	197.12
435.84	176.12
436.062	176.12
436.284	184.12
436.505	194.12
436.727	184.12
436.949	184.12
437.17	193.12
437.392	216.12
437.614	174.12
437.835	187.12
438.057	182.12
438.278	210.12
438.5	278.12
438.721	275.12
438.943	205.12
439.165	173.12
439.386	179.12
439.608	171.12
439.829	180.12
440.05	170.12
440.272	185.12
440.493	209.12
440.715	235.12
440.936	211.12
441.158	184.12
441.379	195.12
441.6	212.12
441.822	227.12
442.043	189.12
442.264	198.12
442.486	191.12
442.707	198.12
442.928	196.12
443.149	179.12
443.371	188.12
443.592	192.12
443.813	190.12
444.034	199.12
444.255	187.12
444.476	209.12
444.698	201.12
444.919	212.12
445.14	339.12
445.361	265.12
445.582	210.12
445.803	212.12
446.024	228.12
446.245	243.12
446.466	209.12
446.687	203.12
446.908	182.12
447.129	189.12
447.35	165.12
447.571	173.12
447.792	172.12
448.013	168.12
448.234	181.12
448.455	181.12
448.675	164.12
448.896	186.12
449.117	188.12
449.338	179.12
449.559	184.12
449.779	195.12
450	210.12
450.221	184.12
450.442	181.12
450.662	183.12
450.883	175.12
451.104	184.12
451.324	173.12
451.545	190.12
451.766	194.12
451.986	157.12
452.207	183.12
452.428	176.12
452.648	185.12
452.869	179.12
453.089	179.12
453.31	195.12
453.53	179.12
453.751	193.12
453.971	181.12
454.192	193.12
454.412	193.12
454.633	172.12
454.853	185.12
455.073	151.12
455.294	176.12
455.514	160.12
455.734	192.12
455.955	185.12
456.175	173.12
456.395	172.12
456.616	173.12
456.836	163.12
457.056	174.12
457.276	160.12
457.497	160.12
457.717	156.12
457.937	153.12
458.157	153.12
458.377	163.12
458.598	150.12
458.818	158.12
459.038	170.12
459.258	189.12
459.478	208.12
459.698	188.12
459.918	204.12
460.138	191.12
460.358	213.12
460.578	180.12
460.798	206.12
461.018	180.12
461.238	204.12
461.458	187.12
461.678	201.12
461.898	209.12
462.118	204.12
462.338	211.12
462.558	217.12
462.777	220.12
462.997	217.12
463.217	226.12
463.437	232.12
463.657	228.12
463.876	223.12
464.096	204.12
464.316	206.12
464.536	218.12
464.755	226.12
464.975	245.12
465.195	217.12
465.414	236.12
465.634	208.12
465.854	208.12
466.073	202.12
466.293	202.12
466.512	203.12
466.732	209.12
466.951	226.12
467.171	198.12
467.391	198.12
467.61	189.12
467.829	194.12
468.049	180.12
468.268	168.12
468.488	197.12
468.707	206.12
468.927	215.12
469.146	248.12
469.365	228.12
469.585	213.12
469.804	203.12
470.023	228.12
470.243	203.12
470.462	191.12
470.681	203.12
470.901	199.12
471.12	206.12
471.339	209.12
471.558	198.12
471.777	196.12
471.997	225.12
472.216	250.12
472.435	205.12
472.654	213.12
472.873	206.12
473.092	215.12
473.311	226.12
473.53	212.12
473.749	221.12
473.968	226.12
474.187	219.12
474.406	206.12
474.625	197.12
474.844	215.12
475.063	230.12
475.282	219.12
475.501	254.12
475.72	276.12
475.939	231.12
476.158	236.12
476.377	275.12
476.596	329.12
476.814	347.12
477.033	293.12
477.252	223.12
477.471	199.12
477.69	218.12
477.908	226.12
478.127	231.12
478.346	231.12
478.564	288.12
478.783	251.12
479.002	238.12
479.22	262.12
479.439	271.12
479.658	240.12
479.876	221.12
480.095	248.12
480.313	266.12
480.532	238.12
480.751	240.12
480.969	228.12
481.188	259.12
481.406	272.12
481.624	256.12
481.843	225.12
482.061	216.12
482.28	241.12
482.498	327.12
482.717	311.12
482.935	253.12
483.153	220.12
483.372	212.12
483.59	218.12
483.808	222.12
484.027	219.12
484.245	198.12
484.463	223.12
484.681	214.12
484.9	228.12
485.118	228.12
485.336	215.12
485.554	219.12
485.772	220.12
485.99	243.12
486.209	270.12
486.427	251.12
486.645	256.12
486.863	243.12
487.081	249.12
487.299	305.12
487.517	271.12
487.735	224.12
487.953	269.12
488.171	235.12
488.389	241.12
488.607	215.12
488.825	229.12
489.043	264.12
489.261	291.12
489.479	328.12
489.696	278.12
489.914	248.12
490.132	207.12
490.35	231.12
490.568	226.12
490.786	251.12
491.003	226.12
491.221	236.12
491.439	218.12
491.657	219.12
491.874	237.12
492.092	291.12
492.31	365.12
492.527	342.12
492.745	294.12
492.963	279.12
493.18	253.12
493.398	274.12
493.615	247.12
493.833	260.12
494.05	242.12
494.268	252.12
494.485	242.12
494.703	242.12
494.92	249.12
495.138	242.12
495.355	227.12
495.573	245.12
495.79	256.12
496.008	365.12
496.225	308.12
496.442	276.12
496.66	268.12
496.877	292.12
497.094	276.12
497.312	252.12
497.529	239.12
497.746	267.12
497.963	260.12
498.181	298.12
498.398	317.12
498.615	315.12
498.832	348.12
499.049	332.12
499.267	300.12
499.484	326.12
499.701	347.12
499.918	361.12
500.135	400.12
500.352	418.12
500.569	418.12
500.786	438.12
501.003	406.12
501.22	376.12
501.437	349.12
501.654	339.12
501.871	339.12
502.088	326.12
502.305	287.12
502.522	293.12
502.739	309.12
502.956	282.12
503.172	266.12
503.389	279.12
503.606	253.12
503.823	250.12
504.04	274.12
504.256	290.12
504.473	290.12
504.69	294.12
504.907	293.12
505.123	291.12
505.34	290.12
505.557	289.12
505.773	281.12
505.99	269.12
506.207	286.12
506.423	245.12
506.64	235.12
506.856	260.12
507.073	290.12
507.289	285.12
507.506	277.12
507.722	286.12
507.939	289.12
508.155	296.12
508.372	266.12
508.588	261.12
508.805	249.12
509.021	261.12
509.238	254.12
509.454	255.12
509.67	238.12
509.887	252.12
510.103	299.12
510.319	264.12
510.536	251.12
510.752	225.12
510.968	206.12
511.184	218.12
511.401	240.12
511.617	206.12
511.833	235.12
512.049	215.12
512.265	233.12
512.481	233.12
512.698	264.12
512.914	282.12
513.13	268.12
513.346	243.12
513.562	264.12
513.778	249.12
513.994	247.12
514.21	252.12
514.426	243.12
514.642	222.12
514.858	238.12
515.074	254.12
515.29	279.12
515.506	306.12
515.721	274.12
515.937	265.12
516.153	230.12
516.369	220.12
516.585	259.12
516.801	268.12
517.016	323.12
517.232	305.12
517.448	324.12
517.664	289.12
517.879	268.12
518.095	267.12
518.311	261.12
518.527	274.12
518.742	286.12
518.958	325.12
519.173	308.12
519.389	293.12
519.605	299.12
519.82	294.12
520.036	337.12
520.251	338.12
520.467	337.12
520.682	556.12
520.898	682.12
521.113	638.12
521.329	373.12
521.544	313.12
521.76	316.12
521.975	270.12
522.19	274.12
522.406	280.12
522.621	289.12
522.836	326.12
523.052	331.12
523.267	261.12
523.482	277.12
523.698	274.12
523.913	289.12
524.128	256.12
524.343	248.12
524.559	243.12
524.774	224.12
524.989	249.12
525.204	253.12
525.419	281.12
525.634	265.12
525.849	256.12
526.064	261.12
526.28	264.12
526.495	304.12
526.71	334.12
526.925	312.12
527.14	324.12
527.355	309.12
527.57	272.12
527.785	270.12
527.999	265.12
528.214	218.12
528.429	209.12
528.644	219.12
528.859	211.12
529.074	193.12
529.289	194.12
529.503	212.12
529.718	220.12
529.933	279.12
530.148	324.12
530.363	233.12
530.577	228.12
530.792	221.12
531.007	231.12
531.221	195.12
531.436	219.12
531.651	215.12
531.865	213.12
532.08	240.12
532.295	210.12
532.509	221.12
532.724	249.12
532.938	283.12
533.153	357.12
533.367	287.12
533.582	269.12
533.796	222.12
534.011	237.12
534.225	216.12
534.44	249.12
534.654	250.12
534.868	307.12
535.083	284.12
535.297	233.12
535.511	222.12
535.726	260.12
535.94	225.12
536.154	225.12
536.369	207.12
536.583	214.12
536.797	225.12
537.011	221.12
537.225	251.12
537.44	268.12
537.654	212.12
537.868	224.12
538.082	237.12
538.296	218.12
538.51	253.12
538.724	252.12
538.938	230.12
539.153	214.12
539.367	193.12
539.581	197.12
539.795	219.12
540.009	263.12
540.222	247.12
540.436	231.12
540.65	243.12
540.864	264.12
541.078	269.12
541.292	323.12
541.506	247.12
541.72	227.12
541.934	230.12
542.147	256.12
542.361	232.12
542.575	258.12
542.789	228.12
543.002	223.12
543.216	232.12
543.43	219.12
543.644	212.12
543.857	204.12
544.071	214.12
544.285	210.12
544.498	200.12
544.712	210.12
544.925	225.12
545.139	226.12
545.352	205.12
545.566	215.12
545.779	240.12
545.993	217.12
546.206	208.12
546.42	195.12
546.633	224.12
546.847	183.12
547.06	192.12
547.274	190.12
547.487	189.12
547.7	207.12
547.914	210.12
548.127	254.12
548.34	231.12
548.554	204.12
548.767	231.12
548.98	232.12
549.193	226.12
549.407	210.12
549.62	259.12
549.833	245.12
550.046	237.12
550.259	241.12
550.473	219.12
550.686	222.12
550.899	225.12
551.112	216.12
551.325	235.12
551.538	243.12
551.751	204.12
551.964	190.12
552.177	210.12
552.39	203.12
552.603	189.12
552.816	217.12
553.029	198.12
553.242	194.12
553.455	206.12
553.667	233.12
553.88	217.12
554.093	195.12
554.306	193.12
554.519	186.12
554.732	185.12
554.944	177.12
555.157	178.12
555.37	189.12
555.583	172.12
555.795	192.12
556.008	185.12
556.221	183.12
556.433	197.12
556.646	181.12
556.859	178.12
557.071	194.12
557.284	181.12
557.496	185.12
557.709	187.12
557.921	181.12
558.134	168.12
558.346	168.12
558.559	169.12
558.771	182.12
558.984	212.12
559.196	182.12
559.409	188.12
559.621	173.12
559.833	184.12
560.046	177.12
560.258	173.12
560.47	186.12
560.683	155.12
560.895	158.12
561.107	177.12
561.32	170.12
561.532	174.12
561.744	188.12
561.956	185.12
562.168	155.12
562.381	178.12
562.593	176.12
562.805	177.12
563.017	171.12
563.229	164.12
563.441	162.12
563.653	142.12
563.865	162.12
564.077	174.12
564.289	163.12
564.501	184.12
564.713	176.12
564.925	155.12
565.137	166.12
565.349	159.12
565.561	172.12
565.773	188.12
565.985	176.12
566.197	196.12
566.408	188.12
566.62	205.12
566.832	201.12
567.044	194.12
567.255	207.12
567.467	223.12
567.679	218.12
567.891	217.12
568.102	210.12
568.314	218.12
568.526	210.12
568.737	200.12
568.949	220.12
569.161	185.12
569.372	178.12
569.584	171.12
569.795	176.12
570.007	173.12
570.218	182.12
570.43	187.12
570.641	183.12
570.853	176.12
571.064	169.12
571.276	162.12
571.487	175.12
571.698	173.12
571.91	179.12
572.121	180.12
572.333	162.12
572.544	165.12
572.755	169.12
572.966	169.12
573.178	177.12
573.389	167.12
573.6	170.12
573.811	168.12
574.023	156.12
574.234	157.12
574.445	161.12
574.656	160.12
574.867	157.12
575.078	150.12
575.289	167.12
575.501	184.12
575.712	156.12
575.923	164.12
576.134	139.12
576.345	142.12
576.556	147.12
576.767	152.12
576.978	145.12
577.188	146.12
577.399	145.12
577.61	149.12
577.821	149.12
578.032	167.12
578.243	171.12
578.454	165.12
578.665	149.12
578.875	164.12
579.086	173.12
579.297	181.12
579.508	156.12
579.718	160.12
579.929	152.12
580.14	159.12
580.35	148.12
580.561	128.12
580.772	140.12
580.982	131.12
581.193	150.12
581.403	135.12
581.614	139.12
581.825	144.12
582.035	140.12
582.246	144.12
582.456	138.12
582.667	149.12
582.877	137.12
583.087	145.12
583.298	137.12
583.508	128.12
583.719	120.12
583.929	133.12
584.139	133.12
584.35	138.12
584.56	144.12
584.77	147.12
584.981	142.12
585.191	120.12
585.401	135.12
585.611	162.12
585.821	152.12
586.032	133.12
586.242	142.12
586.452	130.12
586.662	134.12
586.872	142.12
587.082	149.12
587.292	122.12
587.502	142.12
587.713	136.12
587.923	134.12
588.133	155.12
588.343	163.12
588.553	147.12
588.762	143.12
588.972	142.12
589.182	141.12
589.392	152.12
589.602	141.12
589.812	149.12
590.022	152.12
590.232	160.12
590.441	155.12
590.651	121.12
590.861	142.12
591.071	128.12
591.281	140.12
591.49	129.12
591.7	144.12
591.91	138.12
592.119	134.12
592.329	130.12
592.539	122.12
592.748	138.12
592.958	146.12
593.167	140.12
593.377	151.12
593.587	157.12
593.796	136.12
594.006	136.12
594.215	142.12
594.424	130.12
594.634	163.12
594.843	139.12
595.053	141.12
595.262	133.12
595.472	138.12
595.681	132.12
595.89	139.12
596.1	143.12
596.309	140.12
596.518	141.12
596.727	143.12
596.937	134.12
597.146	148.12
597.355	154.12
597.564	144.12
597.774	124.12
597.983	130.12
598.192	131.12
598.401	124.12
598.61	125.12
598.819	125.12
599.028	126.12
599.237	121.12
599.446	120.12
599.655	125.12
599.864	116.12
600.073	130.12
600.282	128.12
600.491	125.12
600.7	117.12
600.909	124.12
601.118	124.12
601.327	120.12
601.536	128.12
601.745	124.12
601.953	128.12
602.162	127.12
602.371	136.12
602.58	141.12
602.789	125.12
602.997	123.12
603.206	120.12
603.415	125.12
603.623	115.12
603.832	126.12
604.041	132.12
604.249	115.12
604.458	114.12
604.666	108.12
604.875	140.12
605.084	120.12
605.292	115.12
605.501	136.12
605.709	125.12
605.918	130.12
606.126	131.12
606.334	138.12
606.543	128.12
606.751	122.12
606.96	128.12
607.168	117.12
607.376	127.12
607.585	124.12
607.793	97.12
608.001	112.12
608.21	126.12
608.418	124.12
608.626	122.12
608.834	122.12
609.043	122.12
609.251	125.12
609.459	120.12
609.667	112.12
609.875	132.12
610.083	125.12
610.291	113.12
610.499	122.12
610.707	132.12
610.916	111.12
611.124	117.12
611.332	111.12
611.54	124.12
611.748	124.12
611.955	118.12
612.163	131.12
612.371	135.12
612.579	118.12
612.787	124.12
612.995	110.12
613.203	125.12
613.411	116.12
613.618	120.12
613.826	117.12
614.034	126.12
614.242	117.12
614.449	127.12
614.657	115.12
614.865	121.12
615.072	119.12
615.28	119.12
615.488	118.12
615.695	113.12
615.903	125.12
616.111	118.12
616.318	121.12
616.526	108.12
616.733	108.12
616.941	133.12
617.148	122.12
617.356	118.12
617.563	107.12
617.771	107.12
617.978	116.12
618.185	122.12
618.393	117.12
618.6	108.12
618.807	114.12
619.015	118.12
619.222	127.12
619.429	119.12
619.637	115.12
619.844	108.12
620.051	114.12
620.258	118.12
620.466	102.12
620.673	110.12
620.88	124.12
621.087	112.12
621.294	119.12
621.501	104.12
621.708	109.12
621.915	112.12
622.122	120.12
622.329	115.12
622.536	117.12
622.743	114.12
622.95	113.12
623.157	115.12
623.364	107.12
623.571	108.12
623.778	118.12
623.985	121.12
624.192	118.12
624.399	118.12
624.606	114.12
624.812	123.12
625.019	102.12
625.226	113.12
625.433	105.12
625.639	104.12
625.846	113.12
626.053	102.12
626.259	106.12
626.466	110.12
626.673	125.12
626.879	113.12
627.086	112.12
627.293	124.12
627.499	128.12
627.706	118.12
627.912	126.12
628.119	113.12
628.325	114.12
628.532	123.12
628.738	92.12
628.945	105.12
629.151	89.12
629.357	114.12
629.564	108.12
629.77	111.12
629.976	108.12
630.183	99.12
630.389	101.12
630.595	102.12
630.802	95.12
631.008	101.12
631.214	108.12
631.42	116.12
631.627	100.12
631.833	89.12
632.039	103.12
632.245	104.12
632.451	107.12
632.657	110.12
632.863	112.12
633.069	113.12
633.275	99.12
633.481	104.12
633.688	100.12
633.893	97.12
634.099	97.12
634.305	107.12
634.511	96.12
634.717	106.12
634.923	105.12
635.129	107.12
635.335	110.12
635.541	100.12
635.747	100.12
635.952	97.12
636.158	107.12
636.364	97.12
636.57	116.12
636.775	104.12
636.981	105.12
637.187	109.12
637.392	97.12
637.598	99.12
637.804	96.12
638.009	90.12
638.215	100.12
638.421	113.12
638.626	116.12
638.832	104.12
639.037	96.12
639.243	92.12
639.448	98.12
639.654	96.12
639.859	105.12
640.065	109.12
640.27	108.12
640.475	110.12
640.681	97.12
640.886	105.12
641.091	102.12
641.297	101.12
641.502	93.12
641.707	94.12
641.913	95.12
642.118	104.12
642.323	109.12
642.528	105.12
642.733	110.12
642.939	124.12
643.144	103.12
643.349	91.12
643.554	104.12
643.759	101.12
643.964	103.12
644.169	93.12
644.374	121.12
644.579	99.12
644.784	89.12
644.989	91.12
645.194	101.12
645.399	107.12
645.604	84.12
645.809	86.12
646.014	93.12
646.219	99.12
646.423	108.12
646.628	106.12
646.833	92.12
647.038	107.12
647.243	107.12
647.447	95.12
647.652	94.12
647.857	101.12
648.062	104.12
648.266	104.12
648.471	107.12
648.676	108.12
648.88	97.12
649.085	103.12
649.289	105.12
649.494	99.12
649.698	114.12
649.903	109.12
650.107	110.12
650.312	104.12
650.516	99.12
650.721	110.12
650.925	92.12
651.13	98.12
651.334	99.12
651.539	105.12
651.743	102.12
651.947	86.12
652.152	100.12
652.356	94.12
652.56	100.12
652.764	78.12
652.969	98.12
653.173	92.12
653.377	99.12
653.581	100.12
653.785	101.12
653.99	99.12
654.194	85.12
654.398	85.12
654.602	101.12
654.806	82.12
655.01	88.12
655.214	97.12
655.418	100.12
655.622	97.12
655.826	92.12
656.03	80.12
656.234	92.12
656.438	93.12
656.642	95.12
656.846	83.12
657.049	95.12
657.253	89.12
657.457	90.12
657.661	86.12
657.865	82.12
658.068	99.12
658.272	82.12
658.476	92.12
658.68	89.12
658.883	96.12
659.087	87.12
659.291	90.12
659.494	88.12
659.698	87.12
659.901	102.12
660.105	78.12
660.309	88.12
660.512	80.12
660.716	91.12
660.919	96.12
661.123	100.12
661.326	72.12
661.53	76.12
661.733	83.12
661.936	80.12
662.14	97.12
662.343	76.12
662.546	81.12
662.75	81.12
662.953	85.12
663.156	73.12
663.36	82.12
663.563	81.12
663.766	79.12
663.969	98.12
664.173	81.12
664.376	90.12
664.579	81.12
664.782	82.12
664.985	94.12
665.188	90.12
665.391	80.12
665.594	80.12
665.797	81.12
666	60.12
666.203	82.12
666.406	82.12
666.609	76.12
666.812	73.12
667.015	85.12
667.218	99.12
667.421	100.12
667.624	79.12
667.827	89.12
668.03	73.12
668.232	64.12
668.435	79.12
668.638	73.12
668.841	84.12
669.043	70.12
669.246	81.12
669.449	90.12
669.651	88.12
669.854	88.12
670.057	92.12
670.259	82.12
670.462	78.12
670.665	79.12
670.867	86.12
671.07	87.12
671.272	76.12
671.475	92.12
671.677	85.12
671.88	67.12
672.082	66.12
672.284	89.12
672.487	95.12
672.689	78.12
672.892	85.12
