Data from NickelSpatula_HRD10591_16-33-38-125.txt Node
Date: Mon Jul 22 16:33:38 EDT 2019
User: cochatt
Spectrometer: HR+D1059
Trigger mode: 1
Integration Time (sec): 1.000000E-1
Scans to average: 1
Electric dark correction enabled: true
Nonlinearity correction enabled: false
Boxcar width: 0
XAxis mode: Wavelengths
Number of Pixels in Spectrum: 2048
>>>>>Begin Spectral Data<<<<<
223.165	-14.31
223.4	-14.31
223.635	-14.31
223.869	-24.31
224.104	-15.31
224.338	-11.31
224.573	-11.31
224.808	-17.31
225.042	-14.31
225.277	-9.31
225.511	13.69
225.746	-0.31
225.98	3.69
226.215	12.69
226.449	6.69
226.683	5.69
226.918	22.69
227.152	52.69
227.387	36.69
227.621	35.69
227.856	48.69
228.09	54.69
228.324	54.69
228.559	54.69
228.793	60.69
229.027	67.69
229.262	65.69
229.496	84.69
229.73	79.69
229.964	78.69
230.199	87.69
230.433	102.69
230.667	95.69
230.901	73.69
231.136	86.69
231.37	81.69
231.604	92.69
231.838	96.69
232.072	103.69
232.306	112.69
232.541	105.69
232.775	100.69
233.009	91.69
233.243	111.69
233.477	95.69
233.711	101.69
233.945	112.69
234.179	117.69
234.413	100.69
234.647	120.69
234.881	135.69
235.115	121.69
235.349	122.69
235.583	110.69
235.817	108.69
236.051	115.69
236.285	113.69
236.519	134.69
236.753	133.69
236.987	108.69
237.221	107.69
237.455	114.69
237.689	122.69
237.922	121.69
238.156	125.69
238.39	121.69
238.624	155.69
238.858	151.69
239.091	123.69
239.325	149.69
239.559	120.69
239.793	132.69
240.027	145.69
240.26	154.69
240.494	159.69
240.728	151.69
240.961	158.69
241.195	152.69
241.429	150.69
241.662	153.69
241.896	138.69
242.13	122.69
242.363	125.69
242.597	139.69
242.83	124.69
243.064	151.69
243.298	142.69
243.531	131.69
243.765	153.69
243.998	149.69
244.232	152.69
244.465	150.69
244.699	155.69
244.932	157.69
245.166	136.69
245.399	139.69
245.633	149.69
245.866	145.69
246.099	127.69
246.333	157.69
246.566	181.69
246.8	171.69
247.033	165.69
247.266	177.69
247.5	155.69
247.733	151.69
247.966	146.69
248.2	161.69
248.433	151.69
248.666	171.69
248.899	200.69
249.133	196.69
249.366	184.69
249.599	219.69
249.832	199.69
250.066	183.69
250.299	197.69
250.532	179.69
250.765	174.69
250.998	179.69
251.231	157.69
251.465	173.69
251.698	157.69
251.931	171.69
252.164	179.69
252.397	194.69
252.63	210.69
252.863	227.69
253.096	239.69
253.329	207.69
253.562	227.69
253.795	243.69
254.028	268.69
254.261	291.69
254.494	243.69
254.727	240.69
254.96	232.69
255.193	241.69
255.426	210.69
255.659	179.69
255.892	172.69
256.124	202.69
256.357	225.69
256.59	227.69
256.823	243.69
257.056	202.69
257.289	198.69
257.521	216.69
257.754	243.69
257.987	256.69
258.22	228.69
258.452	181.69
258.685	210.69
258.918	245.69
259.151	251.69
259.383	268.69
259.616	321.69
259.849	305.69
260.081	332.69
260.314	335.69
260.547	298.69
260.779	287.69
261.012	343.69
261.244	326.69
261.477	319.69
261.71	289.69
261.942	256.69
262.175	247.69
262.407	247.69
262.64	227.69
262.872	289.69
263.105	295.69
263.337	334.69
263.57	309.69
263.802	220.69
264.035	203.69
264.267	187.69
264.499	177.69
264.732	151.69
264.964	145.69
265.197	161.69
265.429	186.69
265.661	197.69
265.894	191.69
266.126	208.69
266.358	224.69
266.591	240.69
266.823	283.69
267.055	259.69
267.287	267.69
267.52	254.69
267.752	270.69
267.984	298.69
268.216	269.69
268.448	243.69
268.681	205.69
268.913	247.69
269.145	257.69
269.377	261.69
269.609	280.69
269.841	260.69
270.073	251.69
270.306	273.69
270.538	289.69
270.77	318.69
271.002	294.69
271.234	296.69
271.466	307.69
271.698	284.69
271.93	280.69
272.162	263.69
272.394	265.69
272.626	238.69
272.858	255.69
273.09	275.69
273.322	247.69
273.553	245.69
273.785	281.69
274.017	340.69
274.249	395.69
274.481	416.69
274.713	468.69
274.945	515.69
275.176	563.69
275.408	485.69
275.64	460.69
275.872	461.69
276.104	406.69
276.335	360.69
276.567	339.69
276.799	375.69
277.031	360.69
277.262	299.69
277.494	232.69
277.726	229.69
277.957	263.69
278.189	273.69
278.421	279.69
278.652	276.69
278.884	253.69
279.115	239.69
279.347	242.69
279.579	224.69
279.81	245.69
280.042	238.69
280.273	234.69
280.505	224.69
280.736	211.69
280.968	212.69
281.199	222.69
281.431	269.69
281.662	255.69
281.894	254.69
282.125	249.69
282.356	261.69
282.588	276.69
282.819	226.69
283.051	235.69
283.282	316.69
283.513	321.69
283.745	385.69
283.976	388.69
284.207	354.69
284.439	383.69
284.67	361.69
284.901	307.69
285.132	333.69
285.364	349.69
285.595	340.69
285.826	357.69
286.057	380.69
286.288	356.69
286.52	356.69
286.751	375.69
286.982	391.69
287.213	349.69
287.444	330.69
287.675	330.69
287.906	367.69
288.138	305.69
288.369	290.69
288.6	259.69
288.831	266.69
289.062	296.69
289.293	338.69
289.524	326.69
289.755	321.69
289.986	337.69
290.217	295.69
290.448	221.69
290.679	202.69
290.91	206.69
291.141	186.69
291.371	196.69
291.602	209.69
291.833	199.69
292.064	207.69
292.295	228.69
292.526	279.69
292.757	273.69
292.987	295.69
293.218	294.69
293.449	335.69
293.68	347.69
293.91	316.69
294.141	322.69
294.372	314.69
294.603	282.69
294.833	293.69
295.064	375.69
295.295	385.69
295.525	282.69
295.756	234.69
295.987	216.69
296.217	199.69
296.448	197.69
296.679	197.69
296.909	236.69
297.14	267.69
297.37	255.69
297.601	261.69
297.831	235.69
298.062	241.69
298.292	277.69
298.523	292.69
298.753	337.69
298.984	299.69
299.214	240.69
299.445	204.69
299.675	196.69
299.905	209.69
300.136	192.69
300.366	222.69
300.597	221.69
300.827	210.69
301.057	200.69
301.288	195.69
301.518	206.69
301.748	246.69
301.979	261.69
302.209	249.69
302.439	245.69
302.669	247.69
302.9	242.69
303.13	244.69
303.36	235.69
303.59	204.69
303.82	227.69
304.051	247.69
304.281	248.69
304.511	251.69
304.741	222.69
304.971	234.69
305.201	227.69
305.431	235.69
305.661	214.69
305.891	187.69
306.121	207.69
306.352	194.69
306.582	184.69
306.812	177.69
307.042	178.69
307.272	165.69
307.502	177.69
307.731	170.69
307.961	198.69
308.191	180.69
308.421	194.69
308.651	166.69
308.881	159.69
309.111	166.69
309.341	183.69
309.571	194.69
309.8	186.69
310.03	188.69
310.26	199.69
310.49	197.69
310.72	200.69
310.949	168.69
311.179	186.69
311.409	181.69
311.639	227.69
311.868	251.69
312.098	330.69
312.328	359.69
312.557	324.69
312.787	343.69
313.017	325.69
313.246	333.69
313.476	369.69
313.706	295.69
313.935	251.69
314.165	222.69
314.394	199.69
314.624	198.69
314.853	194.69
315.083	205.69
315.312	215.69
315.542	178.69
315.771	177.69
316.001	171.69
316.23	171.69
316.46	179.69
316.689	174.69
316.919	190.69
317.148	185.69
317.377	187.69
317.607	188.69
317.836	190.69
318.065	212.69
318.295	236.69
318.524	204.69
318.753	202.69
318.983	186.69
319.212	185.69
319.441	212.69
319.67	209.69
319.9	231.69
320.129	203.69
320.358	179.69
320.587	196.69
320.816	199.69
321.046	233.69
321.275	233.69
321.504	235.69
321.733	216.69
321.962	212.69
322.191	214.69
322.42	195.69
322.649	199.69
322.878	220.69
323.108	218.69
323.337	203.69
323.566	209.69
323.795	224.69
324.024	210.69
324.253	188.69
324.482	193.69
324.71	197.69
324.939	223.69
325.168	196.69
325.397	202.69
325.626	189.69
325.855	181.69
326.084	170.69
326.313	177.69
326.542	183.69
326.77	194.69
326.999	175.69
327.228	196.69
327.457	202.69
327.686	186.69
327.914	188.69
328.143	172.69
328.372	151.69
328.6	175.69
328.829	180.69
329.058	175.69
329.287	191.69
329.515	196.69
329.744	180.69
329.972	183.69
330.201	172.69
330.43	188.69
330.658	202.69
330.887	205.69
331.115	204.69
331.344	195.69
331.572	199.69
331.801	198.69
332.03	178.69
332.258	189.69
332.486	197.69
332.715	204.69
332.943	198.69
333.172	207.69
333.4	191.69
333.629	196.69
333.857	234.69
334.085	223.69
334.314	225.69
334.542	217.69
334.771	209.69
334.999	200.69
335.227	200.69
335.455	188.69
335.684	207.69
335.912	236.69
336.14	261.69
336.369	254.69
336.597	239.69
336.825	260.69
337.053	280.69
337.281	232.69
337.51	202.69
337.738	194.69
337.966	206.69
338.194	227.69
338.422	224.69
338.65	189.69
338.878	175.69
339.106	198.69
339.334	221.69
339.562	206.69
339.79	190.69
340.018	187.69
340.246	202.69
340.474	230.69
340.702	235.69
340.93	228.69
341.158	247.69
341.386	210.69
341.614	220.69
341.842	210.69
342.07	219.69
342.298	236.69
342.526	250.69
342.754	220.69
342.981	203.69
343.209	201.69
343.437	220.69
343.665	227.69
343.893	222.69
344.12	256.69
344.348	282.69
344.576	296.69
344.804	239.69
345.031	202.69
345.259	190.69
345.487	200.69
345.714	217.69
345.942	216.69
346.17	236.69
346.397	225.69
346.625	203.69
346.853	186.69
347.08	176.69
347.308	195.69
347.535	216.69
347.763	213.69
347.99	190.69
348.218	184.69
348.445	194.69
348.673	208.69
348.9	211.69
349.128	197.69
349.355	199.69
349.583	217.69
349.81	212.69
350.037	188.69
350.265	192.69
350.492	165.69
350.72	167.69
350.947	161.69
351.174	164.69
351.402	182.69
351.629	207.69
351.856	181.69
352.083	187.69
352.311	181.69
352.538	177.69
352.765	213.69
352.992	181.69
353.22	184.69
353.447	199.69
353.674	195.69
353.901	187.69
354.128	189.69
354.355	200.69
354.583	198.69
354.81	184.69
355.037	211.69
355.264	189.69
355.491	203.69
355.718	218.69
355.945	197.69
356.172	195.69
356.399	197.69
356.626	213.69
356.853	257.69
357.08	273.69
357.307	279.69
357.534	225.69
357.761	213.69
357.988	257.69
358.215	309.69
358.441	295.69
358.668	260.69
358.895	251.69
359.122	218.69
359.349	218.69
359.576	227.69
359.802	200.69
360.029	195.69
360.256	159.69
360.483	198.69
360.709	265.69
360.936	281.69
361.163	230.69
361.39	205.69
361.616	186.69
361.843	202.69
362.07	243.69
362.296	219.69
362.523	191.69
362.749	185.69
362.976	174.69
363.203	208.69
363.429	231.69
363.656	187.69
363.882	182.69
364.109	188.69
364.335	198.69
364.562	183.69
364.788	204.69
365.015	223.69
365.241	200.69
365.468	195.69
365.694	167.69
365.92	166.69
366.147	162.69
366.373	165.69
366.599	161.69
366.826	176.69
367.052	163.69
367.278	165.69
367.505	169.69
367.731	191.69
367.957	195.69
368.184	187.69
368.41	184.69
368.636	202.69
368.862	197.69
369.089	186.69
369.315	183.69
369.541	177.69
369.767	187.69
369.993	163.69
370.219	167.69
370.445	184.69
370.672	199.69
370.898	200.69
371.124	198.69
371.35	191.69
371.576	176.69
371.802	169.69
372.028	187.69
372.254	214.69
372.48	198.69
372.706	194.69
372.932	210.69
373.158	211.69
373.384	235.69
373.61	279.69
373.835	283.69
374.061	229.69
374.287	223.69
374.513	216.69
374.739	245.69
374.965	268.69
375.191	272.69
375.416	215.69
375.642	186.69
375.868	207.69
376.094	225.69
376.319	198.69
376.545	210.69
376.771	215.69
376.997	223.69
377.222	176.69
377.448	168.69
377.674	159.69
377.899	158.69
378.125	155.69
378.35	165.69
378.576	156.69
378.802	168.69
379.027	185.69
379.253	193.69
379.478	188.69
379.704	177.69
379.929	196.69
380.155	199.69
380.38	191.69
380.606	179.69
380.831	207.69
381.057	193.69
381.282	169.69
381.507	192.69
381.733	228.69
381.958	248.69
382.184	235.69
382.409	257.69
382.634	267.69
382.86	280.69
383.085	239.69
383.31	192.69
383.535	211.69
383.761	227.69
383.986	212.69
384.211	241.69
384.436	237.69
384.662	191.69
384.887	209.69
385.112	211.69
385.337	205.69
385.562	195.69
385.787	227.69
386.013	213.69
386.238	236.69
386.463	196.69
386.688	199.69
386.913	195.69
387.138	194.69
387.363	201.69
387.588	195.69
387.813	192.69
388.038	220.69
388.263	180.69
388.488	196.69
388.713	215.69
388.938	217.69
389.163	209.69
389.387	177.69
389.612	188.69
389.837	197.69
390.062	196.69
390.287	206.69
390.512	183.69
390.736	184.69
390.961	180.69
391.186	189.69
391.411	168.69
391.636	193.69
391.86	207.69
392.085	217.69
392.31	195.69
392.534	200.69
392.759	197.69
392.984	206.69
393.208	219.69
393.433	221.69
393.658	217.69
393.882	198.69
394.107	183.69
394.331	169.69
394.556	172.69
394.78	177.69
395.005	183.69
395.229	179.69
395.454	181.69
395.678	186.69
395.903	179.69
396.127	187.69
396.352	186.69
396.576	199.69
396.801	209.69
397.025	224.69
397.249	238.69
397.474	202.69
397.698	189.69
397.922	198.69
398.147	187.69
398.371	181.69
398.595	208.69
398.82	206.69
399.044	217.69
399.268	204.69
399.492	221.69
399.717	236.69
399.941	239.69
400.165	238.69
400.389	218.69
400.613	207.69
400.837	206.69
401.062	191.69
401.286	193.69
401.51	195.69
401.734	210.69
401.958	187.69
402.182	199.69
402.406	186.69
402.63	201.69
402.854	208.69
403.078	223.69
403.302	262.69
403.526	281.69
403.75	263.69
403.974	225.69
404.198	239.69
404.422	252.69
404.645	256.69
404.869	278.69
405.093	247.69
405.317	208.69
405.541	195.69
405.765	205.69
405.988	212.69
406.212	213.69
406.436	228.69
406.66	245.69
406.883	219.69
407.107	218.69
407.331	264.69
407.555	262.69
407.778	220.69
408.002	226.69
408.226	232.69
408.449	227.69
408.673	227.69
408.896	222.69
409.12	204.69
409.344	204.69
409.567	188.69
409.791	212.69
410.014	209.69
410.238	195.69
410.461	202.69
410.685	202.69
410.908	185.69
411.132	196.69
411.355	216.69
411.578	205.69
411.802	200.69
412.025	199.69
412.249	196.69
412.472	209.69
412.695	215.69
412.919	202.69
413.142	208.69
413.365	241.69
413.589	220.69
413.812	195.69
414.035	196.69
414.258	202.69
414.482	212.69
414.705	205.69
414.928	206.69
415.151	190.69
415.374	205.69
415.597	191.69
415.821	185.69
416.044	178.69
416.267	179.69
416.49	197.69
416.713	188.69
416.936	200.69
417.159	202.69
417.382	181.69
417.605	187.69
417.828	183.69
418.051	192.69
418.274	188.69
418.497	196.69
418.72	192.69
418.943	213.69
419.166	208.69
419.389	201.69
419.611	188.69
419.834	207.69
420.057	225.69
420.28	206.69
420.503	200.69
420.726	185.69
420.948	197.69
421.171	191.69
421.394	194.69
421.617	195.69
421.839	203.69
422.062	190.69
422.285	189.69
422.507	207.69
422.73	199.69
422.953	220.69
423.175	214.69
423.398	207.69
423.621	203.69
423.843	207.69
424.066	197.69
424.288	189.69
424.511	205.69
424.733	194.69
424.956	204.69
425.178	212.69
425.401	236.69
425.623	258.69
425.846	214.69
426.068	196.69
426.291	229.69
426.513	198.69
426.735	214.69
426.958	202.69
427.18	219.69
427.402	266.69
427.625	257.69
427.847	239.69
428.069	170.69
428.292	205.69
428.514	200.69
428.736	185.69
428.958	196.69
429.181	230.69
429.403	195.69
429.625	183.69
429.847	184.69
430.069	183.69
430.292	191.69
430.514	170.69
430.736	172.69
430.958	203.69
431.18	203.69
431.402	176.69
431.624	169.69
431.846	175.69
432.068	183.69
432.29	191.69
432.512	191.69
432.734	226.69
432.956	230.69
433.178	200.69
433.4	191.69
433.622	176.69
433.844	192.69
434.066	211.69
434.287	199.69
434.509	198.69
434.731	213.69
434.953	188.69
435.175	199.69
435.397	221.69
435.618	203.69
435.84	189.69
436.062	178.69
436.284	194.69
436.505	175.69
436.727	164.69
436.949	166.69
437.17	174.69
437.392	180.69
437.614	193.69
437.835	177.69
438.057	178.69
438.278	191.69
438.5	241.69
438.721	249.69
438.943	191.69
439.165	184.69
439.386	167.69
439.608	155.69
439.829	172.69
440.05	171.69
440.272	181.69
440.493	209.69
440.715	217.69
440.936	200.69
441.158	180.69
441.379	177.69
441.6	212.69
441.822	216.69
442.043	178.69
442.264	185.69
442.486	201.69
442.707	198.69
442.928	201.69
443.149	185.69
443.371	190.69
443.592	200.69
443.813	215.69
444.034	196.69
444.255	195.69
444.476	215.69
444.698	197.69
444.919	212.69
445.14	316.69
445.361	255.69
445.582	211.69
445.803	184.69
446.024	227.69
446.245	206.69
446.466	200.69
446.687	185.69
446.908	181.69
447.129	178.69
447.35	169.69
447.571	173.69
447.792	180.69
448.013	187.69
448.234	160.69
448.455	169.69
448.675	165.69
448.896	178.69
449.117	183.69
449.338	182.69
449.559	178.69
449.779	179.69
450	169.69
450.221	193.69
450.442	178.69
450.662	169.69
450.883	184.69
451.104	177.69
451.324	172.69
451.545	183.69
451.766	177.69
451.986	177.69
452.207	181.69
452.428	178.69
452.648	182.69
452.869	173.69
453.089	181.69
453.31	176.69
453.53	169.69
453.751	147.69
453.971	166.69
454.192	159.69
454.412	169.69
454.633	169.69
454.853	181.69
455.073	159.69
455.294	173.69
455.514	175.69
455.734	172.69
455.955	163.69
456.175	150.69
456.395	183.69
456.616	174.69
456.836	166.69
457.056	164.69
457.276	183.69
457.497	151.69
457.717	156.69
457.937	147.69
458.157	177.69
458.377	155.69
458.598	169.69
458.818	167.69
459.038	197.69
459.258	178.69
459.478	181.69
459.698	192.69
459.918	184.69
460.138	195.69
460.358	200.69
460.578	194.69
460.798	196.69
461.018	180.69
461.238	188.69
461.458	189.69
461.678	207.69
461.898	204.69
462.118	199.69
462.338	201.69
462.558	214.69
462.777	224.69
462.997	221.69
463.217	232.69
463.437	229.69
463.657	224.69
463.876	214.69
464.096	216.69
464.316	204.69
464.536	219.69
464.755	229.69
464.975	222.69
465.195	222.69
465.414	217.69
465.634	198.69
465.854	193.69
466.073	196.69
466.293	176.69
466.512	205.69
466.732	211.69
466.951	200.69
467.171	210.69
467.391	187.69
467.61	205.69
467.829	199.69
468.049	204.69
468.268	189.69
468.488	170.69
468.707	193.69
468.927	206.69
469.146	218.69
469.365	209.69
469.585	198.69
469.804	198.69
470.023	214.69
470.243	212.69
470.462	195.69
470.681	179.69
470.901	184.69
471.12	200.69
471.339	213.69
471.558	213.69
471.777	182.69
471.997	188.69
472.216	222.69
472.435	207.69
472.654	201.69
472.873	207.69
473.092	212.69
473.311	208.69
473.53	186.69
473.749	184.69
473.968	208.69
474.187	220.69
474.406	198.69
474.625	189.69
474.844	189.69
475.063	203.69
475.282	188.69
475.501	207.69
475.72	233.69
475.939	224.69
476.158	211.69
476.377	247.69
476.596	281.69
476.814	293.69
477.033	262.69
477.252	212.69
477.471	194.69
477.69	218.69
477.908	216.69
478.127	223.69
478.346	211.69
478.564	244.69
478.783	241.69
479.002	219.69
479.22	234.69
479.439	247.69
479.658	251.69
479.876	228.69
480.095	229.69
480.313	239.69
480.532	234.69
480.751	211.69
480.969	212.69
481.188	264.69
481.406	268.69
481.624	249.69
481.843	216.69
482.061	208.69
482.28	228.69
482.498	274.69
482.717	265.69
482.935	223.69
483.153	229.69
483.372	205.69
483.59	211.69
483.808	208.69
484.027	204.69
484.245	217.69
484.463	192.69
484.681	219.69
484.9	221.69
485.118	234.69
485.336	225.69
485.554	215.69
485.772	223.69
485.99	233.69
486.209	225.69
486.427	214.69
486.645	209.69
486.863	250.69
487.081	238.69
487.299	242.69
487.517	247.69
487.735	211.69
487.953	206.69
488.171	242.69
488.389	216.69
488.607	208.69
488.825	221.69
489.043	219.69
489.261	299.69
489.479	284.69
489.696	224.69
489.914	222.69
490.132	203.69
490.35	227.69
490.568	225.69
490.786	223.69
491.003	198.69
491.221	230.69
491.439	224.69
491.657	224.69
491.874	228.69
492.092	269.69
492.31	318.69
492.527	291.69
492.745	263.69
492.963	241.69
493.18	227.69
493.398	240.69
493.615	239.69
493.833	236.69
494.05	217.69
494.268	239.69
494.485	224.69
494.703	234.69
494.92	217.69
495.138	242.69
495.355	226.69
495.573	234.69
495.79	251.69
496.008	324.69
496.225	271.69
496.442	245.69
496.66	249.69
496.877	251.69
497.094	243.69
497.312	239.69
497.529	247.69
497.746	261.69
497.963	241.69
498.181	267.69
498.398	281.69
498.615	307.69
498.832	335.69
499.049	338.69
499.267	314.69
499.484	319.69
499.701	329.69
499.918	355.69
500.135	398.69
500.352	412.69
500.569	417.69
500.786	449.69
501.003	414.69
501.22	389.69
501.437	352.69
501.654	333.69
501.871	323.69
502.088	314.69
502.305	274.69
502.522	294.69
502.739	289.69
502.956	267.69
503.172	284.69
503.389	255.69
503.606	259.69
503.823	268.69
504.04	255.69
504.256	275.69
504.473	255.69
504.69	256.69
504.907	276.69
505.123	260.69
505.34	284.69
505.557	269.69
505.773	251.69
505.99	244.69
506.207	262.69
506.423	238.69
506.64	232.69
506.856	237.69
507.073	257.69
507.289	251.69
507.506	268.69
507.722	271.69
507.939	266.69
508.155	261.69
508.372	259.69
508.588	248.69
508.805	234.69
509.021	236.69
509.238	228.69
509.454	224.69
509.67	217.69
509.887	232.69
510.103	249.69
510.319	266.69
510.536	231.69
510.752	212.69
510.968	206.69
511.184	193.69
511.401	206.69
511.617	198.69
511.833	206.69
512.049	219.69
512.265	203.69
512.481	215.69
512.698	238.69
512.914	243.69
513.13	254.69
513.346	223.69
513.562	228.69
513.778	231.69
513.994	235.69
514.21	233.69
514.426	224.69
514.642	228.69
514.858	204.69
515.074	239.69
515.29	255.69
515.506	265.69
515.721	262.69
515.937	241.69
516.153	238.69
516.369	243.69
516.585	233.69
516.801	272.69
517.016	301.69
517.232	283.69
517.448	285.69
517.664	275.69
517.879	287.69
518.095	276.69
518.311	267.69
518.527	259.69
518.742	269.69
518.958	280.69
519.173	281.69
519.389	259.69
519.605	257.69
519.82	266.69
520.036	296.69
520.251	300.69
520.467	299.69
520.682	416.69
520.898	504.69
521.113	492.69
521.329	332.69
521.544	297.69
521.76	266.69
521.975	257.69
522.19	232.69
522.406	260.69
522.621	287.69
522.836	292.69
523.052	286.69
523.267	243.69
523.482	229.69
523.698	245.69
523.913	242.69
524.128	240.69
524.343	221.69
524.559	214.69
524.774	219.69
524.989	227.69
525.204	215.69
525.419	257.69
525.634	253.69
525.849	236.69
526.064	248.69
526.28	239.69
526.495	268.69
526.71	304.69
526.925	255.69
527.14	263.69
527.355	273.69
527.57	224.69
527.785	256.69
527.999	236.69
528.214	218.69
528.429	208.69
528.644	208.69
528.859	192.69
529.074	199.69
529.289	199.69
529.503	202.69
529.718	216.69
529.933	249.69
530.148	250.69
530.363	210.69
530.577	195.69
530.792	202.69
531.007	202.69
531.221	212.69
531.436	201.69
531.651	203.69
531.865	218.69
532.08	209.69
532.295	199.69
532.509	226.69
532.724	220.69
532.938	241.69
533.153	316.69
533.367	240.69
533.582	236.69
533.796	216.69
534.011	212.69
534.225	214.69
534.44	234.69
534.654	218.69
534.868	259.69
535.083	231.69
535.297	204.69
535.511	226.69
535.726	228.69
535.94	214.69
536.154	212.69
536.369	190.69
536.583	201.69
536.797	199.69
537.011	203.69
537.225	207.69
537.44	223.69
537.654	198.69
537.868	194.69
538.082	211.69
538.296	197.69
538.51	217.69
538.724	224.69
538.938	211.69
539.153	206.69
539.367	200.69
539.581	197.69
539.795	212.69
540.009	230.69
540.222	227.69
540.436	197.69
540.65	218.69
540.864	227.69
541.078	251.69
541.292	251.69
541.506	206.69
541.72	205.69
541.934	207.69
542.147	209.69
542.361	245.69
542.575	226.69
542.789	205.69
543.002	212.69
543.216	211.69
543.43	187.69
543.644	209.69
543.857	204.69
544.071	183.69
544.285	203.69
544.498	201.69
544.712	193.69
544.925	220.69
545.139	202.69
545.352	182.69
545.566	193.69
545.779	196.69
545.993	194.69
546.206	179.69
546.42	200.69
546.633	183.69
546.847	192.69
547.06	186.69
547.274	188.69
547.487	197.69
547.7	210.69
547.914	195.69
548.127	226.69
548.34	217.69
548.554	220.69
548.767	216.69
548.98	212.69
549.193	201.69
549.407	212.69
549.62	234.69
549.833	221.69
550.046	226.69
550.259	216.69
550.473	198.69
550.686	209.69
550.899	219.69
551.112	216.69
551.325	208.69
551.538	233.69
551.751	204.69
551.964	196.69
552.177	190.69
552.39	180.69
552.603	195.69
552.816	199.69
553.029	198.69
553.242	189.69
553.455	210.69
553.667	209.69
553.88	199.69
554.093	202.69
554.306	180.69
554.519	182.69
554.732	171.69
554.944	178.69
555.157	191.69
555.37	168.69
555.583	160.69
555.795	175.69
556.008	179.69
556.221	184.69
556.433	186.69
556.646	170.69
556.859	183.69
557.071	177.69
557.284	193.69
557.496	175.69
557.709	179.69
557.921	185.69
558.134	185.69
558.346	178.69
558.559	164.69
558.771	167.69
558.984	172.69
559.196	173.69
559.409	163.69
559.621	171.69
559.833	167.69
560.046	165.69
560.258	167.69
560.47	185.69
560.683	170.69
560.895	165.69
561.107	152.69
561.32	155.69
561.532	157.69
561.744	180.69
561.956	179.69
562.168	159.69
562.381	156.69
562.593	178.69
562.805	161.69
563.017	162.69
563.229	159.69
563.441	143.69
563.653	147.69
563.865	167.69
564.077	166.69
564.289	164.69
564.501	166.69
564.713	152.69
564.925	181.69
565.137	169.69
565.349	175.69
565.561	159.69
565.773	171.69
565.985	167.69
566.197	173.69
566.408	202.69
566.62	197.69
566.832	195.69
567.044	197.69
567.255	203.69
567.467	257.69
567.679	209.69
567.891	221.69
568.102	220.69
568.314	204.69
568.526	200.69
568.737	223.69
568.949	199.69
569.161	187.69
569.372	170.69
569.584	163.69
569.795	177.69
570.007	178.69
570.218	186.69
570.43	188.69
570.641	180.69
570.853	169.69
571.064	168.69
571.276	170.69
571.487	183.69
571.698	175.69
571.91	167.69
572.121	168.69
572.333	149.69
572.544	150.69
572.755	167.69
572.966	164.69
573.178	146.69
573.389	151.69
573.6	166.69
573.811	152.69
574.023	141.69
574.234	149.69
574.445	157.69
574.656	148.69
574.867	123.69
575.078	156.69
575.289	163.69
575.501	157.69
575.712	148.69
575.923	144.69
576.134	142.69
576.345	144.69
576.556	159.69
576.767	151.69
576.978	149.69
577.188	159.69
577.399	140.69
577.61	128.69
577.821	147.69
578.032	140.69
578.243	155.69
578.454	145.69
578.665	145.69
578.875	155.69
579.086	141.69
579.297	164.69
579.508	152.69
579.718	152.69
579.929	155.69
580.14	145.69
580.35	153.69
580.561	129.69
580.772	147.69
580.982	133.69
581.193	147.69
581.403	141.69
581.614	143.69
581.825	125.69
582.035	121.69
582.246	147.69
582.456	124.69
582.667	142.69
582.877	135.69
583.087	135.69
583.298	128.69
583.508	135.69
583.719	116.69
583.929	131.69
584.139	131.69
584.35	135.69
584.56	148.69
584.77	140.69
584.981	149.69
585.191	141.69
585.401	125.69
585.611	145.69
585.821	155.69
586.032	137.69
586.242	145.69
586.452	138.69
586.662	140.69
586.872	145.69
587.082	127.69
587.292	132.69
587.502	141.69
587.713	145.69
587.923	127.69
588.133	145.69
588.343	142.69
588.553	146.69
588.762	135.69
588.972	125.69
589.182	156.69
589.392	151.69
589.602	131.69
589.812	144.69
590.022	155.69
590.232	150.69
590.441	135.69
590.651	130.69
590.861	136.69
591.071	125.69
591.281	127.69
591.49	138.69
591.7	136.69
591.91	139.69
592.119	139.69
592.329	126.69
592.539	137.69
592.748	136.69
592.958	138.69
593.167	124.69
593.377	159.69
593.587	153.69
593.796	146.69
594.006	139.69
594.215	134.69
594.424	139.69
594.634	149.69
594.843	144.69
595.053	171.69
595.262	146.69
595.472	138.69
595.681	136.69
595.89	142.69
596.1	138.69
596.309	140.69
596.518	127.69
596.727	123.69
596.937	129.69
597.146	118.69
597.355	144.69
597.564	135.69
597.774	129.69
597.983	119.69
598.192	143.69
598.401	121.69
598.61	129.69
598.819	131.69
599.028	134.69
599.237	128.69
599.446	129.69
599.655	115.69
599.864	130.69
600.073	121.69
600.282	127.69
600.491	112.69
600.7	125.69
600.909	124.69
601.118	122.69
601.327	128.69
601.536	109.69
601.745	128.69
601.953	147.69
602.162	136.69
602.371	121.69
602.58	144.69
602.789	119.69
602.997	133.69
603.206	116.69
603.415	117.69
603.623	124.69
603.832	136.69
604.041	121.69
604.249	107.69
604.458	102.69
604.666	126.69
604.875	129.69
605.084	115.69
605.292	123.69
605.501	115.69
605.709	122.69
605.918	116.69
606.126	101.69
606.334	116.69
606.543	115.69
606.751	125.69
606.96	117.69
607.168	121.69
607.376	113.69
607.585	128.69
607.793	109.69
608.001	128.69
608.21	122.69
608.418	116.69
608.626	131.69
608.834	120.69
609.043	108.69
609.251	100.69
609.459	114.69
609.667	116.69
609.875	122.69
610.083	124.69
610.291	120.69
610.499	120.69
610.707	120.69
610.916	105.69
611.124	107.69
611.332	105.69
611.54	113.69
611.748	111.69
611.955	109.69
612.163	125.69
612.371	111.69
612.579	135.69
612.787	116.69
612.995	121.69
613.203	119.69
613.411	97.69
613.618	111.69
613.826	123.69
614.034	125.69
614.242	130.69
614.449	123.69
614.657	101.69
614.865	111.69
615.072	122.69
615.28	106.69
615.488	122.69
615.695	126.69
615.903	111.69
616.111	106.69
616.318	113.69
616.526	117.69
616.733	120.69
616.941	113.69
617.148	106.69
617.356	117.69
617.563	105.69
617.771	115.69
617.978	111.69
618.185	112.69
618.393	112.69
618.6	123.69
618.807	125.69
619.015	114.69
619.222	105.69
619.429	114.69
619.637	99.69
619.844	127.69
620.051	116.69
620.258	113.69
620.466	114.69
620.673	101.69
620.88	111.69
621.087	98.69
621.294	121.69
621.501	117.69
621.708	108.69
621.915	101.69
622.122	101.69
622.329	106.69
622.536	112.69
622.743	116.69
622.95	108.69
623.157	121.69
623.364	111.69
623.571	113.69
623.778	123.69
623.985	123.69
624.192	117.69
624.399	119.69
624.606	113.69
624.812	131.69
625.019	113.69
625.226	104.69
625.433	99.69
625.639	105.69
625.846	117.69
626.053	105.69
626.259	104.69
626.466	135.69
626.673	123.69
626.879	116.69
627.086	109.69
627.293	106.69
627.499	109.69
627.706	107.69
627.912	111.69
628.119	127.69
628.325	102.69
628.532	100.69
628.738	106.69
628.945	103.69
629.151	103.69
629.357	105.69
629.564	106.69
629.77	100.69
629.976	115.69
630.183	108.69
630.389	108.69
630.595	107.69
630.802	104.69
631.008	108.69
631.214	104.69
631.42	93.69
631.627	98.69
631.833	115.69
632.039	100.69
632.245	107.69
632.451	98.69
632.657	112.69
632.863	109.69
633.069	106.69
633.275	116.69
633.481	113.69
633.688	102.69
633.893	105.69
634.099	100.69
634.305	100.69
634.511	106.69
634.717	93.69
634.923	97.69
635.129	111.69
635.335	92.69
635.541	111.69
635.747	104.69
635.952	108.69
636.158	105.69
636.364	92.69
636.57	101.69
636.775	108.69
636.981	88.69
637.187	104.69
637.392	90.69
637.598	107.69
637.804	94.69
638.009	100.69
638.215	93.69
638.421	92.69
638.626	106.69
638.832	101.69
639.037	91.69
639.243	98.69
639.448	96.69
639.654	106.69
639.859	99.69
640.065	100.69
640.27	113.69
640.475	103.69
640.681	101.69
640.886	97.69
641.091	102.69
641.297	103.69
641.502	105.69
641.707	88.69
641.913	101.69
642.118	98.69
642.323	102.69
642.528	101.69
642.733	108.69
642.939	100.69
643.144	106.69
643.349	108.69
643.554	106.69
643.759	99.69
643.964	97.69
644.169	106.69
644.374	84.69
644.579	97.69
644.784	98.69
644.989	93.69
645.194	97.69
645.399	99.69
645.604	93.69
645.809	119.69
646.014	98.69
646.219	101.69
646.423	102.69
646.628	96.69
646.833	101.69
647.038	116.69
647.243	100.69
647.447	104.69
647.652	90.69
647.857	100.69
648.062	109.69
648.266	99.69
648.471	110.69
648.676	109.69
648.88	102.69
649.085	99.69
649.289	99.69
649.494	103.69
649.698	95.69
649.903	114.69
650.107	105.69
650.312	102.69
650.516	93.69
650.721	95.69
650.925	94.69
651.13	83.69
651.334	106.69
651.539	83.69
651.743	89.69
651.947	88.69
652.152	99.69
652.356	91.69
652.56	96.69
652.764	97.69
652.969	106.69
653.173	87.69
653.377	86.69
653.581	87.69
653.785	95.69
653.99	96.69
654.194	91.69
654.398	91.69
654.602	84.69
654.806	97.69
655.01	93.69
655.214	93.69
655.418	82.69
655.622	90.69
655.826	107.69
656.03	105.69
656.234	96.69
656.438	89.69
656.642	87.69
656.846	83.69
657.049	88.69
657.253	76.69
657.457	99.69
657.661	86.69
657.865	98.69
658.068	78.69
658.272	98.69
658.476	82.69
658.68	87.69
658.883	98.69
659.087	87.69
659.291	89.69
659.494	88.69
659.698	77.69
659.901	80.69
660.105	85.69
660.309	85.69
660.512	84.69
660.716	90.69
660.919	92.69
661.123	95.69
661.326	92.69
661.53	76.69
661.733	75.69
661.936	90.69
662.14	88.69
662.343	76.69
662.546	78.69
662.75	85.69
662.953	85.69
663.156	74.69
663.36	103.69
663.563	85.69
663.766	82.69
663.969	91.69
664.173	75.69
664.376	80.69
664.579	95.69
664.782	82.69
664.985	83.69
665.188	77.69
665.391	63.69
665.594	85.69
665.797	73.69
666	85.69
666.203	88.69
666.406	82.69
666.609	75.69
666.812	75.69
667.015	80.69
667.218	85.69
667.421	88.69
667.624	82.69
667.827	95.69
668.03	67.69
668.232	84.69
668.435	81.69
668.638	83.69
668.841	87.69
669.043	87.69
669.246	79.69
669.449	85.69
669.651	96.69
669.854	84.69
670.057	76.69
670.259	61.69
670.462	75.69
670.665	81.69
670.867	83.69
671.07	76.69
671.272	87.69
671.475	80.69
671.677	80.69
671.88	85.69
672.082	81.69
672.284	77.69
672.487	72.69
672.689	76.69
672.892	78.69
