Data from NickelSpatula.Lamp.E5.5.P2_HRD10591_11-53-54-547.txt Node
Date: Tue Jul 23 11:53:54 EDT 2019
User: cochatt
Spectrometer: HR+D1059
Trigger mode: 1
Integration Time (sec): 1.000000E-1
Scans to average: 1
Electric dark correction enabled: true
Nonlinearity correction enabled: false
Boxcar width: 0
XAxis mode: Wavelengths
Number of Pixels in Spectrum: 2048
>>>>>Begin Spectral Data<<<<<
223.165	-17.06
223.4	-17.06
223.635	-17.06
223.869	-20.06
224.104	-7.06
224.338	-8.06
224.573	-3.06
224.808	-16.06
225.042	-14.06
225.277	-11.06
225.511	-7.06
225.746	-2.06
225.98	7.94
226.215	11.94
226.449	15.94
226.683	16.94
226.918	23.94
227.152	28.94
227.387	19.94
227.621	43.94
227.856	40.94
228.09	40.94
228.324	56.94
228.559	48.94
228.793	56.94
229.027	79.94
229.262	63.94
229.496	73.94
229.73	80.94
229.964	79.94
230.199	84.94
230.433	86.94
230.667	111.94
230.901	87.94
231.136	95.94
231.37	87.94
231.604	92.94
231.838	119.94
232.072	115.94
232.306	107.94
232.541	91.94
232.775	93.94
233.009	85.94
233.243	102.94
233.477	112.94
233.711	124.94
233.945	119.94
234.179	113.94
234.413	109.94
234.647	123.94
234.881	145.94
235.115	157.94
235.349	141.94
235.583	123.94
235.817	141.94
236.051	123.94
236.285	127.94
236.519	133.94
236.753	142.94
236.987	115.94
237.221	116.94
237.455	118.94
237.689	120.94
237.922	122.94
238.156	134.94
238.39	140.94
238.624	162.94
238.858	143.94
239.091	129.94
239.325	146.94
239.559	140.94
239.793	141.94
240.027	157.94
240.26	168.94
240.494	158.94
240.728	148.94
240.961	165.94
241.195	167.94
241.429	163.94
241.662	169.94
241.896	134.94
242.13	114.94
242.363	126.94
242.597	142.94
242.83	160.94
243.064	136.94
243.298	155.94
243.531	149.94
243.765	161.94
243.998	141.94
244.232	151.94
244.465	162.94
244.699	165.94
244.932	169.94
245.166	135.94
245.399	123.94
245.633	143.94
245.866	144.94
246.099	148.94
246.333	166.94
246.566	167.94
246.8	171.94
247.033	176.94
247.266	163.94
247.5	160.94
247.733	166.94
247.966	156.94
248.2	159.94
248.433	177.94
248.666	179.94
248.899	177.94
249.133	182.94
249.366	203.94
249.599	233.94
249.832	199.94
250.066	191.94
250.299	191.94
250.532	200.94
250.765	179.94
250.998	174.94
251.231	195.94
251.465	173.94
251.698	180.94
251.931	186.94
252.164	186.94
252.397	195.94
252.63	201.94
252.863	217.94
253.096	228.94
253.329	225.94
253.562	224.94
253.795	268.94
254.028	276.94
254.261	289.94
254.494	240.94
254.727	236.94
254.96	235.94
255.193	258.94
255.426	235.94
255.659	183.94
255.892	182.94
256.124	201.94
256.357	227.94
256.59	254.94
256.823	260.94
257.056	204.94
257.289	196.94
257.521	222.94
257.754	254.94
257.987	284.94
258.22	249.94
258.452	222.94
258.685	239.94
258.918	273.94
259.151	263.94
259.383	279.94
259.616	321.94
259.849	311.94
260.081	349.94
260.314	365.94
260.547	310.94
260.779	303.94
261.012	355.94
261.244	324.94
261.477	336.94
261.71	314.94
261.942	271.94
262.175	283.94
262.407	232.94
262.64	264.94
262.872	309.94
263.105	319.94
263.337	315.94
263.57	316.94
263.802	240.94
264.035	215.94
264.267	189.94
264.499	181.94
264.732	175.94
264.964	171.94
265.197	168.94
265.429	196.94
265.661	195.94
265.894	191.94
266.126	210.94
266.358	230.94
266.591	251.94
266.823	303.94
267.055	295.94
267.287	278.94
267.52	264.94
267.752	282.94
267.984	311.94
268.216	291.94
268.448	257.94
268.681	242.94
268.913	260.94
269.145	229.94
269.377	260.94
269.609	270.94
269.841	258.94
270.073	271.94
270.306	305.94
270.538	289.94
270.77	295.94
271.002	294.94
271.234	310.94
271.466	312.94
271.698	314.94
271.93	289.94
272.162	284.94
272.394	270.94
272.626	278.94
272.858	282.94
273.09	294.94
273.322	249.94
273.553	252.94
273.785	275.94
274.017	357.94
274.249	427.94
274.481	451.94
274.713	491.94
274.945	552.94
275.176	565.94
275.408	519.94
275.64	461.94
275.872	475.94
276.104	413.94
276.335	352.94
276.567	363.94
276.799	381.94
277.031	395.94
277.262	316.94
277.494	261.94
277.726	254.94
277.957	279.94
278.189	317.94
278.421	299.94
278.652	314.94
278.884	289.94
279.115	269.94
279.347	265.94
279.579	254.94
279.81	265.94
280.042	263.94
280.273	254.94
280.505	222.94
280.736	237.94
280.968	219.94
281.199	245.94
281.431	271.94
281.662	262.94
281.894	233.94
282.125	258.94
282.356	268.94
282.588	295.94
282.819	245.94
283.051	267.94
283.282	325.94
283.513	374.94
283.745	422.94
283.976	414.94
284.207	381.94
284.439	389.94
284.67	384.94
284.901	329.94
285.132	365.94
285.364	355.94
285.595	352.94
285.826	369.94
286.057	377.94
286.288	363.94
286.52	376.94
286.751	417.94
286.982	391.94
287.213	353.94
287.444	337.94
287.675	371.94
287.906	369.94
288.138	323.94
288.369	296.94
288.6	269.94
288.831	278.94
289.062	322.94
289.293	364.94
289.524	317.94
289.755	301.94
289.986	329.94
290.217	305.94
290.448	237.94
290.679	232.94
290.91	203.94
291.141	220.94
291.371	222.94
291.602	208.94
291.833	214.94
292.064	220.94
292.295	258.94
292.526	278.94
292.757	304.94
292.987	310.94
293.218	301.94
293.449	335.94
293.68	342.94
293.91	331.94
294.141	356.94
294.372	333.94
294.603	283.94
294.833	319.94
295.064	367.94
295.295	382.94
295.525	273.94
295.756	242.94
295.987	205.94
296.217	227.94
296.448	211.94
296.679	233.94
296.909	254.94
297.14	266.94
297.37	276.94
297.601	288.94
297.831	257.94
298.062	267.94
298.292	287.94
298.523	295.94
298.753	335.94
298.984	301.94
299.214	254.94
299.445	237.94
299.675	231.94
299.905	235.94
300.136	243.94
300.366	237.94
300.597	232.94
300.827	234.94
301.057	226.94
301.288	225.94
301.518	241.94
301.748	254.94
301.979	287.94
302.209	292.94
302.439	312.94
302.669	263.94
302.9	272.94
303.13	268.94
303.36	232.94
303.59	226.94
303.82	237.94
304.051	259.94
304.281	268.94
304.511	271.94
304.741	241.94
304.971	257.94
305.201	267.94
305.431	263.94
305.661	223.94
305.891	239.94
306.121	235.94
306.352	229.94
306.582	195.94
306.812	191.94
307.042	197.94
307.272	181.94
307.502	176.94
307.731	198.94
307.961	202.94
308.191	190.94
308.421	192.94
308.651	209.94
308.881	181.94
309.111	201.94
309.341	198.94
309.571	210.94
309.8	216.94
310.03	214.94
310.26	215.94
310.49	207.94
310.72	185.94
310.949	196.94
311.179	194.94
311.409	211.94
311.639	235.94
311.868	265.94
312.098	340.94
312.328	352.94
312.557	354.94
312.787	365.94
313.017	309.94
313.246	354.94
313.476	355.94
313.706	307.94
313.935	258.94
314.165	231.94
314.394	219.94
314.624	208.94
314.853	212.94
315.083	216.94
315.312	210.94
315.542	220.94
315.771	201.94
316.001	193.94
316.23	199.94
316.46	188.94
316.689	193.94
316.919	179.94
317.148	195.94
317.377	195.94
317.607	204.94
317.836	185.94
318.065	239.94
318.295	262.94
318.524	245.94
318.753	203.94
318.983	207.94
319.212	203.94
319.441	212.94
319.67	239.94
319.9	241.94
320.129	237.94
320.358	217.94
320.587	211.94
320.816	195.94
321.046	224.94
321.275	261.94
321.504	254.94
321.733	241.94
321.962	236.94
322.191	222.94
322.42	219.94
322.649	210.94
322.878	229.94
323.108	251.94
323.337	225.94
323.566	235.94
323.795	222.94
324.024	228.94
324.253	204.94
324.482	211.94
324.71	230.94
324.939	249.94
325.168	245.94
325.397	211.94
325.626	219.94
325.855	203.94
326.084	192.94
326.313	203.94
326.542	199.94
326.77	203.94
326.999	200.94
327.228	221.94
327.457	214.94
327.686	218.94
327.914	194.94
328.143	203.94
328.372	179.94
328.6	190.94
328.829	179.94
329.058	210.94
329.287	191.94
329.515	208.94
329.744	187.94
329.972	195.94
330.201	198.94
330.43	175.94
330.658	236.94
330.887	227.94
331.115	228.94
331.344	220.94
331.572	235.94
331.801	211.94
332.03	207.94
332.258	197.94
332.486	199.94
332.715	222.94
332.943	205.94
333.172	213.94
333.4	220.94
333.629	228.94
333.857	239.94
334.085	254.94
334.314	250.94
334.542	230.94
334.771	224.94
334.999	213.94
335.227	213.94
335.455	203.94
335.684	230.94
335.912	257.94
336.14	273.94
336.369	260.94
336.597	265.94
336.825	290.94
337.053	312.94
337.281	256.94
337.51	213.94
337.738	216.94
337.966	225.94
338.194	247.94
338.422	232.94
338.65	219.94
338.878	188.94
339.106	192.94
339.334	219.94
339.562	223.94
339.79	226.94
340.018	200.94
340.246	207.94
340.474	239.94
340.702	265.94
340.93	262.94
341.158	270.94
341.386	232.94
341.614	221.94
341.842	224.94
342.07	238.94
342.298	261.94
342.526	275.94
342.754	233.94
342.981	232.94
343.209	230.94
343.437	235.94
343.665	259.94
343.893	259.94
344.12	297.94
344.348	331.94
344.576	307.94
344.804	230.94
345.031	215.94
345.259	209.94
345.487	222.94
345.714	226.94
345.942	230.94
346.17	241.94
346.397	251.94
346.625	221.94
346.853	232.94
347.08	214.94
347.308	217.94
347.535	251.94
347.763	256.94
347.99	224.94
348.218	204.94
348.445	218.94
348.673	239.94
348.9	236.94
349.128	249.94
349.355	230.94
349.583	246.94
349.81	211.94
350.037	222.94
350.265	200.94
350.492	187.94
350.72	199.94
350.947	194.94
351.174	195.94
351.402	210.94
351.629	221.94
351.856	211.94
352.083	206.94
352.311	200.94
352.538	232.94
352.765	225.94
352.992	219.94
353.22	220.94
353.447	235.94
353.674	204.94
353.901	203.94
354.128	204.94
354.355	212.94
354.583	220.94
354.81	216.94
355.037	237.94
355.264	213.94
355.491	241.94
355.718	237.94
355.945	228.94
356.172	226.94
356.399	222.94
356.626	264.94
356.853	296.94
357.08	312.94
357.307	337.94
357.534	280.94
357.761	277.94
357.988	351.94
358.215	397.94
358.441	341.94
358.668	305.94
358.895	287.94
359.122	258.94
359.349	263.94
359.576	291.94
359.802	252.94
360.029	215.94
360.256	231.94
360.483	268.94
360.709	317.94
360.936	327.94
361.163	301.94
361.39	232.94
361.616	227.94
361.843	256.94
362.07	274.94
362.296	271.94
362.523	235.94
362.749	202.94
362.976	214.94
363.203	247.94
363.429	260.94
363.656	227.94
363.882	208.94
364.109	220.94
364.335	229.94
364.562	215.94
364.788	249.94
365.015	256.94
365.241	235.94
365.468	188.94
365.694	199.94
365.92	196.94
366.147	179.94
366.373	210.94
366.599	176.94
366.826	185.94
367.052	192.94
367.278	198.94
367.505	176.94
367.731	206.94
367.957	209.94
368.184	225.94
368.41	210.94
368.636	225.94
368.862	232.94
369.089	222.94
369.315	201.94
369.541	187.94
369.767	199.94
369.993	207.94
370.219	195.94
370.445	205.94
370.672	223.94
370.898	255.94
371.124	225.94
371.35	214.94
371.576	207.94
371.802	213.94
372.028	240.94
372.254	269.94
372.48	247.94
372.706	227.94
372.932	228.94
373.158	237.94
373.384	267.94
373.61	338.94
373.835	340.94
374.061	279.94
374.287	260.94
374.513	283.94
374.739	326.94
374.965	363.94
375.191	346.94
375.416	261.94
375.642	248.94
375.868	261.94
376.094	282.94
376.319	240.94
376.545	269.94
376.771	277.94
376.997	245.94
377.222	222.94
377.448	193.94
377.674	185.94
377.899	175.94
378.125	183.94
378.35	203.94
378.576	191.94
378.802	193.94
379.027	214.94
379.253	197.94
379.478	213.94
379.704	210.94
379.929	227.94
380.155	237.94
380.38	207.94
380.606	214.94
380.831	246.94
381.057	233.94
381.282	207.94
381.507	224.94
381.733	267.94
381.958	303.94
382.184	313.94
382.409	320.94
382.634	329.94
382.86	364.94
383.085	280.94
383.31	242.94
383.535	285.94
383.761	266.94
383.986	256.94
384.211	286.94
384.436	296.94
384.662	245.94
384.887	228.94
385.112	229.94
385.337	242.94
385.562	224.94
385.787	258.94
386.013	283.94
386.238	273.94
386.463	225.94
386.688	244.94
386.913	207.94
387.138	206.94
387.363	219.94
387.588	221.94
387.813	236.94
388.038	223.94
388.263	226.94
388.488	212.94
388.713	252.94
388.938	255.94
389.163	215.94
389.387	189.94
389.612	207.94
389.837	196.94
390.062	217.94
390.287	246.94
390.512	239.94
390.736	216.94
390.961	213.94
391.186	194.94
391.411	204.94
391.636	207.94
391.86	205.94
392.085	239.94
392.31	244.94
392.534	247.94
392.759	214.94
392.984	235.94
393.208	229.94
393.433	207.94
393.658	211.94
393.882	192.94
394.107	196.94
394.331	191.94
394.556	216.94
394.78	185.94
395.005	206.94
395.229	216.94
395.454	214.94
395.678	201.94
395.903	212.94
396.127	204.94
396.352	202.94
396.576	244.94
396.801	223.94
397.025	239.94
397.249	249.94
397.474	239.94
397.698	205.94
397.922	226.94
398.147	212.94
398.371	214.94
398.595	243.94
398.82	240.94
399.044	242.94
399.268	248.94
399.492	277.94
399.717	281.94
399.941	287.94
400.165	271.94
400.389	248.94
400.613	248.94
400.837	224.94
401.062	209.94
401.286	215.94
401.51	224.94
401.734	213.94
401.958	230.94
402.182	227.94
402.406	229.94
402.63	237.94
402.854	240.94
403.078	277.94
403.302	351.94
403.526	381.94
403.75	320.94
403.974	271.94
404.198	264.94
404.422	283.94
404.645	301.94
404.869	330.94
405.093	266.94
405.317	242.94
405.541	247.94
405.765	241.94
405.988	236.94
406.212	243.94
406.436	271.94
406.66	304.94
406.883	259.94
407.107	265.94
407.331	305.94
407.555	289.94
407.778	258.94
408.002	273.94
408.226	275.94
408.449	247.94
408.673	265.94
408.896	239.94
409.12	220.94
409.344	226.94
409.567	221.94
409.791	241.94
410.014	238.94
410.238	228.94
410.461	235.94
410.685	227.94
410.908	239.94
411.132	242.94
411.355	236.94
411.578	235.94
411.802	220.94
412.025	229.94
412.249	251.94
412.472	241.94
412.695	220.94
412.919	220.94
413.142	223.94
413.365	262.94
413.589	251.94
413.812	222.94
414.035	219.94
414.258	229.94
414.482	226.94
414.705	249.94
414.928	232.94
415.151	220.94
415.374	220.94
415.597	230.94
415.821	232.94
416.044	225.94
416.267	215.94
416.49	227.94
416.713	219.94
416.936	207.94
417.159	214.94
417.382	216.94
417.605	207.94
417.828	240.94
418.051	237.94
418.274	229.94
418.497	227.94
418.72	242.94
418.943	224.94
419.166	244.94
419.389	266.94
419.611	239.94
419.834	245.94
420.057	243.94
420.28	245.94
420.503	238.94
420.726	216.94
420.948	200.94
421.171	218.94
421.394	241.94
421.617	213.94
421.839	199.94
422.062	217.94
422.285	220.94
422.507	225.94
422.73	232.94
422.953	240.94
423.175	221.94
423.398	238.94
423.621	264.94
423.843	253.94
424.066	226.94
424.288	255.94
424.511	229.94
424.733	232.94
424.956	237.94
425.178	257.94
425.401	293.94
425.623	341.94
425.846	293.94
426.068	245.94
426.291	229.94
426.513	239.94
426.735	217.94
426.958	225.94
427.18	264.94
427.402	311.94
427.625	347.94
427.847	301.94
428.069	217.94
428.292	224.94
428.514	226.94
428.736	212.94
428.958	249.94
429.181	285.94
429.403	239.94
429.625	210.94
429.847	216.94
430.069	225.94
430.292	225.94
430.514	204.94
430.736	219.94
430.958	272.94
431.18	249.94
431.402	220.94
431.624	211.94
431.846	187.94
432.068	208.94
432.29	214.94
432.512	248.94
432.734	265.94
432.956	239.94
433.178	221.94
433.4	214.94
433.622	216.94
433.844	235.94
434.066	247.94
434.287	232.94
434.509	236.94
434.731	232.94
434.953	256.94
435.175	224.94
435.397	279.94
435.618	222.94
435.84	232.94
436.062	219.94
436.284	213.94
436.505	207.94
436.727	202.94
436.949	205.94
437.17	211.94
437.392	216.94
437.614	236.94
437.835	201.94
438.057	209.94
438.278	226.94
438.5	292.94
438.721	295.94
438.943	239.94
439.165	214.94
439.386	195.94
439.608	205.94
439.829	190.94
440.05	213.94
440.272	211.94
440.493	219.94
440.715	260.94
440.936	241.94
441.158	221.94
441.379	239.94
441.6	267.94
441.822	259.94
442.043	228.94
442.264	231.94
442.486	217.94
442.707	196.94
442.928	220.94
443.149	228.94
443.371	233.94
443.592	233.94
443.813	232.94
444.034	216.94
444.255	236.94
444.476	232.94
444.698	240.94
444.919	240.94
445.14	348.94
445.361	301.94
445.582	235.94
445.803	236.94
446.024	235.94
446.245	236.94
446.466	223.94
446.687	220.94
446.908	209.94
447.129	210.94
447.35	207.94
447.571	199.94
447.792	189.94
448.013	200.94
448.234	200.94
448.455	198.94
448.675	189.94
448.896	199.94
449.117	205.94
449.338	204.94
449.559	198.94
449.779	227.94
450	214.94
450.221	211.94
450.442	207.94
450.662	205.94
450.883	194.94
451.104	211.94
451.324	206.94
451.545	213.94
451.766	201.94
451.986	213.94
452.207	200.94
452.428	194.94
452.648	184.94
452.869	222.94
453.089	210.94
453.31	225.94
453.53	191.94
453.751	200.94
453.971	206.94
454.192	197.94
454.412	211.94
454.633	207.94
454.853	195.94
455.073	195.94
455.294	182.94
455.514	191.94
455.734	199.94
455.955	202.94
456.175	195.94
456.395	195.94
456.616	171.94
456.836	171.94
457.056	166.94
457.276	179.94
457.497	187.94
457.717	177.94
457.937	194.94
458.157	196.94
458.377	191.94
458.598	194.94
458.818	200.94
459.038	205.94
459.258	211.94
459.478	207.94
459.698	230.94
459.918	233.94
460.138	223.94
460.358	229.94
460.578	214.94
460.798	224.94
461.018	230.94
461.238	229.94
461.458	223.94
461.678	255.94
461.898	252.94
462.118	222.94
462.338	242.94
462.558	237.94
462.777	265.94
462.997	283.94
463.217	284.94
463.437	275.94
463.657	274.94
463.876	264.94
464.096	256.94
464.316	256.94
464.536	284.94
464.755	280.94
464.975	259.94
465.195	256.94
465.414	251.94
465.634	226.94
465.854	211.94
466.073	229.94
466.293	222.94
466.512	235.94
466.732	236.94
466.951	243.94
467.171	248.94
467.391	220.94
467.61	206.94
467.829	214.94
468.049	231.94
468.268	222.94
468.488	213.94
468.707	220.94
468.927	248.94
469.146	238.94
469.365	239.94
469.585	224.94
469.804	235.94
470.023	247.94
470.243	228.94
470.462	223.94
470.681	209.94
470.901	221.94
471.12	227.94
471.339	218.94
471.558	227.94
471.777	219.94
471.997	226.94
472.216	248.94
472.435	265.94
472.654	235.94
472.873	219.94
473.092	235.94
473.311	243.94
473.53	200.94
473.749	224.94
473.968	243.94
474.187	253.94
474.406	211.94
474.625	218.94
474.844	215.94
475.063	243.94
475.282	228.94
475.501	249.94
475.72	265.94
475.939	250.94
476.158	251.94
476.377	289.94
476.596	318.94
476.814	317.94
477.033	281.94
477.252	223.94
477.471	229.94
477.69	232.94
477.908	237.94
478.127	269.94
478.346	262.94
478.564	283.94
478.783	258.94
479.002	270.94
479.22	288.94
479.439	322.94
479.658	272.94
479.876	249.94
480.095	276.94
480.313	291.94
480.532	253.94
480.751	252.94
480.969	287.94
481.188	292.94
481.406	315.94
481.624	271.94
481.843	237.94
482.061	252.94
482.28	284.94
482.498	335.94
482.717	325.94
482.935	276.94
483.153	241.94
483.372	250.94
483.59	252.94
483.808	243.94
484.027	237.94
484.245	230.94
484.463	244.94
484.681	237.94
484.9	249.94
485.118	267.94
485.336	274.94
485.554	248.94
485.772	244.94
485.99	272.94
486.209	280.94
486.427	278.94
486.645	285.94
486.863	266.94
487.081	269.94
487.299	287.94
487.517	296.94
487.735	253.94
487.953	272.94
488.171	272.94
488.389	250.94
488.607	262.94
488.825	249.94
489.043	274.94
489.261	315.94
489.479	311.94
489.696	276.94
489.914	251.94
490.132	239.94
490.35	245.94
490.568	240.94
490.786	249.94
491.003	252.94
491.221	247.94
491.439	276.94
491.657	249.94
491.874	256.94
492.092	295.94
492.31	337.94
492.527	347.94
492.745	291.94
492.963	284.94
493.18	276.94
493.398	280.94
493.615	275.94
493.833	276.94
494.05	274.94
494.268	273.94
494.485	268.94
494.703	270.94
494.92	281.94
495.138	269.94
495.355	275.94
495.573	267.94
495.79	304.94
496.008	358.94
496.225	310.94
496.442	292.94
496.66	288.94
496.877	307.94
497.094	292.94
497.312	295.94
497.529	289.94
497.746	281.94
497.963	296.94
498.181	316.94
498.398	333.94
498.615	362.94
498.832	363.94
499.049	383.94
499.267	383.94
499.484	368.94
499.701	382.94
499.918	412.94
500.135	482.94
500.352	492.94
500.569	542.94
500.786	535.94
501.003	503.94
501.22	456.94
501.437	433.94
501.654	406.94
501.871	367.94
502.088	370.94
502.305	341.94
502.522	341.94
502.739	328.94
502.956	321.94
503.172	297.94
503.389	288.94
503.606	284.94
503.823	300.94
504.04	295.94
504.256	302.94
504.473	297.94
504.69	324.94
504.907	315.94
505.123	306.94
505.34	325.94
505.557	303.94
505.773	283.94
505.99	296.94
506.207	283.94
506.423	264.94
506.64	249.94
506.856	275.94
507.073	287.94
507.289	290.94
507.506	273.94
507.722	292.94
507.939	292.94
508.155	320.94
508.372	285.94
508.588	277.94
508.805	282.94
509.021	280.94
509.238	265.94
509.454	270.94
509.67	273.94
509.887	256.94
510.103	284.94
510.319	295.94
510.536	273.94
510.752	231.94
510.968	235.94
511.184	248.94
511.401	241.94
511.617	239.94
511.833	249.94
512.049	251.94
512.265	250.94
512.481	231.94
512.698	271.94
512.914	291.94
513.13	272.94
513.346	237.94
513.562	255.94
513.778	284.94
513.994	243.94
514.21	243.94
514.426	262.94
514.642	246.94
514.858	256.94
515.074	238.94
515.29	299.94
515.506	306.94
515.721	296.94
515.937	269.94
516.153	239.94
516.369	258.94
516.585	287.94
516.801	289.94
517.016	327.94
517.232	333.94
517.448	343.94
517.664	314.94
517.879	304.94
518.095	291.94
518.311	311.94
518.527	302.94
518.742	310.94
518.958	328.94
519.173	310.94
519.389	305.94
519.605	303.94
519.82	328.94
520.036	347.94
520.251	352.94
520.467	348.94
520.682	563.94
520.898	679.94
521.113	629.94
521.329	377.94
521.544	335.94
521.76	319.94
521.975	287.94
522.19	262.94
522.406	273.94
522.621	318.94
522.836	318.94
523.052	316.94
523.267	280.94
523.482	288.94
523.698	274.94
523.913	289.94
524.128	267.94
524.343	244.94
524.559	272.94
524.774	256.94
524.989	279.94
525.204	261.94
525.419	291.94
525.634	273.94
525.849	272.94
526.064	261.94
526.28	279.94
526.495	322.94
526.71	352.94
526.925	294.94
527.14	324.94
527.355	289.94
527.57	263.94
527.785	259.94
527.999	256.94
528.214	257.94
528.429	235.94
528.644	255.94
528.859	236.94
529.074	225.94
529.289	229.94
529.503	239.94
529.718	240.94
529.933	279.94
530.148	288.94
530.363	253.94
530.577	230.94
530.792	237.94
531.007	240.94
531.221	230.94
531.436	222.94
531.651	225.94
531.865	238.94
532.08	255.94
532.295	233.94
532.509	244.94
532.724	264.94
532.938	300.94
533.153	339.94
533.367	291.94
533.582	261.94
533.796	255.94
534.011	251.94
534.225	254.94
534.44	243.94
534.654	278.94
534.868	295.94
535.083	279.94
535.297	253.94
535.511	245.94
535.726	281.94
535.94	260.94
536.154	248.94
536.369	244.94
536.583	229.94
536.797	235.94
537.011	222.94
537.225	243.94
537.44	245.94
537.654	217.94
537.868	226.94
538.082	235.94
538.296	241.94
538.51	243.94
538.724	246.94
538.938	244.94
539.153	245.94
539.367	221.94
539.581	220.94
539.795	247.94
540.009	262.94
540.222	247.94
540.436	230.94
540.65	251.94
540.864	259.94
541.078	271.94
541.292	316.94
541.506	277.94
541.72	251.94
541.934	251.94
542.147	238.94
542.361	235.94
542.575	224.94
542.789	244.94
543.002	248.94
543.216	237.94
543.43	232.94
543.644	219.94
543.857	228.94
544.071	230.94
544.285	234.94
544.498	197.94
544.712	211.94
544.925	232.94
545.139	229.94
545.352	222.94
545.566	219.94
545.779	247.94
545.993	245.94
546.206	201.94
546.42	210.94
546.633	206.94
546.847	206.94
547.06	204.94
547.274	205.94
547.487	226.94
547.7	241.94
547.914	237.94
548.127	269.94
548.34	247.94
548.554	211.94
548.767	241.94
548.98	232.94
549.193	218.94
549.407	222.94
549.62	260.94
549.833	259.94
550.046	273.94
550.259	262.94
550.473	235.94
550.686	228.94
550.899	222.94
551.112	243.94
551.325	227.94
551.538	257.94
551.751	231.94
551.964	230.94
552.177	222.94
552.39	208.94
552.603	222.94
552.816	246.94
553.029	232.94
553.242	240.94
553.455	218.94
553.667	248.94
553.88	241.94
554.093	231.94
554.306	222.94
554.519	201.94
554.732	219.94
554.944	206.94
555.157	191.94
555.37	199.94
555.583	192.94
555.795	203.94
556.008	219.94
556.221	211.94
556.433	212.94
556.646	202.94
556.859	213.94
557.071	210.94
557.284	200.94
557.496	188.94
557.709	208.94
557.921	208.94
558.134	203.94
558.346	195.94
558.559	191.94
558.771	191.94
558.984	215.94
559.196	204.94
559.409	194.94
559.621	191.94
559.833	189.94
560.046	188.94
560.258	196.94
560.47	193.94
560.683	192.94
560.895	201.94
561.107	199.94
561.32	181.94
561.532	196.94
561.744	193.94
561.956	205.94
562.168	193.94
562.381	188.94
562.593	199.94
562.805	205.94
563.017	180.94
563.229	194.94
563.441	177.94
563.653	192.94
563.865	179.94
564.077	209.94
564.289	186.94
564.501	191.94
564.713	207.94
564.925	207.94
565.137	195.94
565.349	190.94
565.561	195.94
565.773	217.94
565.985	210.94
566.197	219.94
566.408	231.94
566.62	230.94
566.832	228.94
567.044	236.94
567.255	259.94
567.467	281.94
567.679	242.94
567.891	261.94
568.102	275.94
568.314	285.94
568.526	236.94
568.737	229.94
568.949	235.94
569.161	215.94
569.372	199.94
569.584	184.94
569.795	206.94
570.007	188.94
570.218	204.94
570.43	204.94
570.641	184.94
570.853	195.94
571.064	195.94
571.276	198.94
571.487	190.94
571.698	183.94
571.91	194.94
572.121	185.94
572.333	169.94
572.544	167.94
572.755	180.94
572.966	183.94
573.178	186.94
573.389	187.94
573.6	189.94
573.811	197.94
574.023	175.94
574.234	159.94
574.445	179.94
574.656	179.94
574.867	162.94
575.078	165.94
575.289	163.94
575.501	165.94
575.712	177.94
575.923	182.94
576.134	161.94
576.345	166.94
576.556	151.94
576.767	166.94
576.978	159.94
577.188	159.94
577.399	152.94
577.61	157.94
577.821	177.94
578.032	171.94
578.243	167.94
578.454	168.94
578.665	162.94
578.875	151.94
579.086	151.94
579.297	166.94
579.508	177.94
579.718	180.94
579.929	180.94
580.14	181.94
580.35	144.94
580.561	166.94
580.772	163.94
580.982	144.94
581.193	150.94
581.403	153.94
581.614	151.94
581.825	173.94
582.035	163.94
582.246	151.94
582.456	148.94
582.667	153.94
582.877	160.94
583.087	143.94
583.298	143.94
583.508	142.94
583.719	165.94
583.929	180.94
584.139	139.94
584.35	151.94
584.56	150.94
584.77	153.94
584.981	162.94
585.191	166.94
585.401	138.94
585.611	151.94
585.821	162.94
586.032	165.94
586.242	156.94
586.452	169.94
586.662	164.94
586.872	152.94
587.082	151.94
587.292	172.94
587.502	158.94
587.713	154.94
587.923	163.94
588.133	175.94
588.343	165.94
588.553	147.94
588.762	161.94
588.972	174.94
589.182	145.94
589.392	124.94
589.602	153.94
589.812	155.94
590.022	171.94
590.232	168.94
590.441	159.94
590.651	157.94
590.861	175.94
591.071	147.94
591.281	140.94
591.49	156.94
591.7	151.94
591.91	150.94
592.119	132.94
592.329	175.94
592.539	158.94
592.748	159.94
592.958	160.94
593.167	157.94
593.377	177.94
593.587	181.94
593.796	165.94
594.006	168.94
594.215	174.94
594.424	168.94
594.634	175.94
594.843	163.94
595.053	181.94
595.262	145.94
595.472	157.94
595.681	143.94
595.89	173.94
596.1	155.94
596.309	148.94
596.518	153.94
596.727	151.94
596.937	138.94
597.146	141.94
597.355	150.94
597.564	151.94
597.774	147.94
597.983	143.94
598.192	145.94
598.401	144.94
598.61	150.94
598.819	143.94
599.028	141.94
599.237	143.94
599.446	119.94
599.655	138.94
599.864	139.94
600.073	127.94
600.282	140.94
600.491	118.94
600.7	150.94
600.909	142.94
601.118	134.94
601.327	123.94
601.536	142.94
601.745	136.94
601.953	141.94
602.162	133.94
602.371	150.94
602.58	143.94
602.789	130.94
602.997	135.94
603.206	146.94
603.415	137.94
603.623	135.94
603.832	136.94
604.041	135.94
604.249	130.94
604.458	130.94
604.666	132.94
604.875	131.94
605.084	144.94
605.292	123.94
605.501	123.94
605.709	132.94
605.918	121.94
606.126	140.94
606.334	135.94
606.543	151.94
606.751	143.94
606.96	128.94
607.168	146.94
607.376	127.94
607.585	125.94
607.793	147.94
608.001	130.94
608.21	142.94
608.418	138.94
608.626	132.94
608.834	137.94
609.043	137.94
609.251	140.94
609.459	127.94
609.667	125.94
609.875	137.94
610.083	136.94
610.291	143.94
610.499	133.94
610.707	121.94
610.916	140.94
611.124	131.94
611.332	131.94
611.54	142.94
611.748	129.94
611.955	134.94
612.163	126.94
612.371	138.94
612.579	123.94
612.787	112.94
612.995	129.94
613.203	143.94
613.411	118.94
613.618	132.94
613.826	124.94
614.034	132.94
614.242	126.94
614.449	132.94
614.657	131.94
614.865	129.94
615.072	132.94
615.28	141.94
615.488	123.94
615.695	121.94
615.903	139.94
616.111	127.94
616.318	133.94
616.526	100.94
616.733	126.94
616.941	135.94
617.148	121.94
617.356	122.94
617.563	116.94
617.771	128.94
617.978	129.94
618.185	136.94
618.393	121.94
618.6	140.94
618.807	119.94
619.015	135.94
619.222	113.94
619.429	131.94
619.637	127.94
619.844	122.94
620.051	126.94
620.258	124.94
620.466	118.94
620.673	118.94
620.88	119.94
621.087	122.94
621.294	136.94
621.501	115.94
621.708	143.94
621.915	135.94
622.122	126.94
622.329	123.94
622.536	113.94
622.743	127.94
622.95	112.94
623.157	125.94
623.364	117.94
623.571	124.94
623.778	126.94
623.985	124.94
624.192	131.94
624.399	123.94
624.606	115.94
624.812	116.94
625.019	132.94
625.226	132.94
625.433	121.94
625.639	117.94
625.846	117.94
626.053	124.94
626.259	117.94
626.466	112.94
626.673	123.94
626.879	118.94
627.086	115.94
627.293	117.94
627.499	105.94
627.706	109.94
627.912	111.94
628.119	118.94
628.325	107.94
628.532	120.94
628.738	112.94
628.945	109.94
629.151	117.94
629.357	119.94
629.564	117.94
629.77	107.94
629.976	111.94
630.183	120.94
630.389	126.94
630.595	109.94
630.802	111.94
631.008	113.94
631.214	127.94
631.42	127.94
631.627	118.94
631.833	115.94
632.039	99.94
632.245	116.94
632.451	107.94
632.657	100.94
632.863	100.94
633.069	134.94
633.275	110.94
633.481	108.94
633.688	119.94
633.893	113.94
634.099	118.94
634.305	112.94
634.511	120.94
634.717	119.94
634.923	115.94
635.129	115.94
635.335	117.94
635.541	111.94
635.747	117.94
635.952	116.94
636.158	111.94
636.364	115.94
636.57	110.94
636.775	98.94
636.981	104.94
637.187	100.94
637.392	119.94
637.598	111.94
637.804	104.94
638.009	105.94
638.215	107.94
638.421	109.94
638.626	111.94
638.832	110.94
639.037	109.94
639.243	116.94
639.448	111.94
639.654	121.94
639.859	110.94
640.065	109.94
640.27	110.94
640.475	98.94
640.681	108.94
640.886	110.94
641.091	114.94
641.297	105.94
641.502	109.94
641.707	117.94
641.913	102.94
642.118	99.94
642.323	116.94
642.528	100.94
642.733	107.94
642.939	119.94
643.144	116.94
643.349	94.94
643.554	102.94
643.759	116.94
643.964	103.94
644.169	102.94
644.374	118.94
644.579	110.94
644.784	95.94
644.989	112.94
645.194	105.94
645.399	111.94
645.604	112.94
645.809	119.94
646.014	115.94
646.219	115.94
646.423	104.94
646.628	107.94
646.833	101.94
647.038	107.94
647.243	114.94
647.447	109.94
647.652	116.94
647.857	93.94
648.062	113.94
648.266	95.94
648.471	116.94
648.676	116.94
648.88	127.94
649.085	104.94
649.289	114.94
649.494	117.94
649.698	111.94
649.903	120.94
650.107	98.94
650.312	109.94
650.516	101.94
650.721	110.94
650.925	111.94
651.13	111.94
651.334	87.94
651.539	103.94
651.743	103.94
651.947	113.94
652.152	98.94
652.356	82.94
652.56	95.94
652.764	102.94
652.969	103.94
653.173	95.94
653.377	95.94
653.581	96.94
653.785	107.94
653.99	98.94
654.194	93.94
654.398	104.94
654.602	96.94
654.806	107.94
655.01	100.94
655.214	91.94
655.418	98.94
655.622	80.94
655.826	87.94
656.03	83.94
656.234	90.94
656.438	93.94
656.642	104.94
656.846	97.94
657.049	102.94
657.253	78.94
657.457	80.94
657.661	88.94
657.865	99.94
658.068	88.94
658.272	100.94
658.476	78.94
658.68	82.94
658.883	73.94
659.087	86.94
659.291	81.94
659.494	83.94
659.698	87.94
659.901	86.94
660.105	79.94
660.309	81.94
660.512	87.94
660.716	83.94
660.919	79.94
661.123	83.94
661.326	82.94
661.53	83.94
661.733	72.94
661.936	88.94
662.14	82.94
662.343	81.94
662.546	80.94
662.75	79.94
662.953	80.94
663.156	77.94
663.36	89.94
663.563	78.94
663.766	82.94
663.969	83.94
664.173	67.94
664.376	79.94
664.579	82.94
664.782	83.94
664.985	82.94
665.188	72.94
665.391	60.94
665.594	64.94
665.797	81.94
666	85.94
666.203	98.94
666.406	81.94
666.609	70.94
666.812	63.94
667.015	71.94
667.218	72.94
667.421	74.94
667.624	79.94
667.827	88.94
668.03	85.94
668.232	79.94
668.435	70.94
668.638	65.94
668.841	89.94
669.043	80.94
669.246	67.94
669.449	97.94
669.651	94.94
669.854	70.94
670.057	80.94
670.259	83.94
670.462	93.94
670.665	83.94
670.867	68.94
671.07	83.94
671.272	80.94
671.475	68.94
671.677	72.94
671.88	85.94
672.082	87.94
672.284	77.94
672.487	72.94
672.689	72.94
672.892	72.94
