Data from NickelSpatula.Lamp.E5.5.P2_HRD10591_11-54-03-546.txt Node
Date: Tue Jul 23 11:54:03 EDT 2019
User: cochatt
Spectrometer: HR+D1059
Trigger mode: 1
Integration Time (sec): 1.000000E-1
Scans to average: 1
Electric dark correction enabled: true
Nonlinearity correction enabled: false
Boxcar width: 0
XAxis mode: Wavelengths
Number of Pixels in Spectrum: 2048
>>>>>Begin Spectral Data<<<<<
223.165	-10.88
223.4	-10.88
223.635	-10.88
223.869	-26.88
224.104	-10.88
224.338	-10.88
224.573	-4.88
224.808	4.12
225.042	-23.88
225.277	-10.88
225.511	2.12
225.746	-6.88
225.98	-0.88
226.215	5.12
226.449	23.12
226.683	12.12
226.918	28.12
227.152	32.12
227.387	33.12
227.621	32.12
227.856	46.12
228.09	49.12
228.324	36.12
228.559	47.12
228.793	72.12
229.027	73.12
229.262	92.12
229.496	77.12
229.73	84.12
229.964	92.12
230.199	82.12
230.433	95.12
230.667	98.12
230.901	88.12
231.136	105.12
231.37	101.12
231.604	98.12
231.838	115.12
232.072	101.12
232.306	83.12
232.541	96.12
232.775	89.12
233.009	97.12
233.243	112.12
233.477	102.12
233.711	114.12
233.945	111.12
234.179	128.12
234.413	119.12
234.647	100.12
234.881	126.12
235.115	127.12
235.349	121.12
235.583	113.12
235.817	120.12
236.051	116.12
236.285	119.12
236.519	152.12
236.753	127.12
236.987	131.12
237.221	115.12
237.455	139.12
237.689	126.12
237.922	131.12
238.156	136.12
238.39	147.12
238.624	159.12
238.858	151.12
239.091	147.12
239.325	156.12
239.559	125.12
239.793	153.12
240.027	169.12
240.26	154.12
240.494	163.12
240.728	146.12
240.961	169.12
241.195	160.12
241.429	152.12
241.662	168.12
241.896	145.12
242.13	142.12
242.363	130.12
242.597	145.12
242.83	161.12
243.064	171.12
243.298	184.12
243.531	164.12
243.765	160.12
243.998	168.12
244.232	157.12
244.465	155.12
244.699	143.12
244.932	153.12
245.166	172.12
245.399	151.12
245.633	161.12
245.866	160.12
246.099	159.12
246.333	191.12
246.566	203.12
246.8	193.12
247.033	178.12
247.266	183.12
247.5	165.12
247.733	179.12
247.966	163.12
248.2	166.12
248.433	199.12
248.666	197.12
248.899	203.12
249.133	194.12
249.366	220.12
249.599	221.12
249.832	210.12
250.066	188.12
250.299	199.12
250.532	200.12
250.765	194.12
250.998	194.12
251.231	156.12
251.465	185.12
251.698	187.12
251.931	197.12
252.164	195.12
252.397	218.12
252.63	247.12
252.863	233.12
253.096	258.12
253.329	247.12
253.562	250.12
253.795	261.12
254.028	287.12
254.261	314.12
254.494	267.12
254.727	268.12
254.96	232.12
255.193	257.12
255.426	259.12
255.659	208.12
255.892	190.12
256.124	213.12
256.357	229.12
256.59	271.12
256.823	255.12
257.056	219.12
257.289	199.12
257.521	207.12
257.754	253.12
257.987	291.12
258.22	248.12
258.452	222.12
258.685	260.12
258.918	284.12
259.151	265.12
259.383	289.12
259.616	304.12
259.849	345.12
260.081	352.12
260.314	374.12
260.547	287.12
260.779	307.12
261.012	353.12
261.244	316.12
261.477	340.12
261.71	318.12
261.942	260.12
262.175	263.12
262.407	252.12
262.64	272.12
262.872	293.12
263.105	331.12
263.337	356.12
263.57	316.12
263.802	250.12
264.035	249.12
264.267	209.12
264.499	187.12
264.732	179.12
264.964	188.12
265.197	188.12
265.429	184.12
265.661	193.12
265.894	205.12
266.126	227.12
266.358	225.12
266.591	272.12
266.823	326.12
267.055	293.12
267.287	263.12
267.52	272.12
267.752	283.12
267.984	305.12
268.216	312.12
268.448	249.12
268.681	249.12
268.913	264.12
269.145	281.12
269.377	268.12
269.609	260.12
269.841	271.12
270.073	259.12
270.306	300.12
270.538	306.12
270.77	301.12
271.002	320.12
271.234	324.12
271.466	318.12
271.698	299.12
271.93	304.12
272.162	327.12
272.394	284.12
272.626	293.12
272.858	307.12
273.09	307.12
273.322	264.12
273.553	253.12
273.785	299.12
274.017	395.12
274.249	446.12
274.481	456.12
274.713	482.12
274.945	541.12
275.176	583.12
275.408	534.12
275.64	493.12
275.872	478.12
276.104	416.12
276.335	373.12
276.567	374.12
276.799	396.12
277.031	412.12
277.262	338.12
277.494	255.12
277.726	258.12
277.957	260.12
278.189	311.12
278.421	299.12
278.652	302.12
278.884	271.12
279.115	263.12
279.347	226.12
279.579	280.12
279.81	285.12
280.042	278.12
280.273	291.12
280.505	250.12
280.736	236.12
280.968	244.12
281.199	237.12
281.431	269.12
281.662	254.12
281.894	263.12
282.125	264.12
282.356	299.12
282.588	278.12
282.819	263.12
283.051	271.12
283.282	333.12
283.513	379.12
283.745	439.12
283.976	420.12
284.207	365.12
284.439	400.12
284.67	408.12
284.901	372.12
285.132	379.12
285.364	399.12
285.595	369.12
285.826	394.12
286.057	377.12
286.288	367.12
286.52	389.12
286.751	399.12
286.982	415.12
287.213	373.12
287.444	354.12
287.675	373.12
287.906	377.12
288.138	311.12
288.369	278.12
288.6	268.12
288.831	280.12
289.062	348.12
289.293	360.12
289.524	335.12
289.755	317.12
289.986	336.12
290.217	309.12
290.448	268.12
290.679	239.12
290.91	209.12
291.141	227.12
291.371	218.12
291.602	235.12
291.833	215.12
292.064	244.12
292.295	275.12
292.526	285.12
292.757	292.12
292.987	324.12
293.218	334.12
293.449	339.12
293.68	357.12
293.91	344.12
294.141	348.12
294.372	331.12
294.603	295.12
294.833	335.12
295.064	389.12
295.295	369.12
295.525	285.12
295.756	264.12
295.987	230.12
296.217	223.12
296.448	251.12
296.679	229.12
296.909	256.12
297.14	272.12
297.37	308.12
297.601	290.12
297.831	243.12
298.062	277.12
298.292	284.12
298.523	312.12
298.753	343.12
298.984	334.12
299.214	265.12
299.445	246.12
299.675	228.12
299.905	237.12
300.136	236.12
300.366	231.12
300.597	241.12
300.827	238.12
301.057	223.12
301.288	224.12
301.518	254.12
301.748	260.12
301.979	291.12
302.209	295.12
302.439	296.12
302.669	267.12
302.9	291.12
303.13	239.12
303.36	261.12
303.59	254.12
303.82	246.12
304.051	281.12
304.281	274.12
304.511	272.12
304.741	253.12
304.971	277.12
305.201	265.12
305.431	262.12
305.661	255.12
305.891	235.12
306.121	227.12
306.352	216.12
306.582	208.12
306.812	190.12
307.042	201.12
307.272	190.12
307.502	200.12
307.731	200.12
307.961	222.12
308.191	201.12
308.421	200.12
308.651	197.12
308.881	173.12
309.111	176.12
309.341	192.12
309.571	205.12
309.8	212.12
310.03	216.12
310.26	211.12
310.49	201.12
310.72	203.12
310.949	201.12
311.179	207.12
311.409	210.12
311.639	219.12
311.868	278.12
312.098	347.12
312.328	367.12
312.557	353.12
312.787	371.12
313.017	345.12
313.246	353.12
313.476	395.12
313.706	330.12
313.935	283.12
314.165	225.12
314.394	228.12
314.624	213.12
314.853	216.12
315.083	244.12
315.312	226.12
315.542	225.12
315.771	204.12
316.001	177.12
316.23	200.12
316.46	205.12
316.689	201.12
316.919	195.12
317.148	202.12
317.377	215.12
317.607	201.12
317.836	213.12
318.065	237.12
318.295	255.12
318.524	223.12
318.753	228.12
318.983	212.12
319.212	218.12
319.441	230.12
319.67	228.12
319.9	245.12
320.129	239.12
320.358	223.12
320.587	204.12
320.816	230.12
321.046	227.12
321.275	258.12
321.504	287.12
321.733	265.12
321.962	260.12
322.191	239.12
322.42	232.12
322.649	229.12
322.878	253.12
323.108	254.12
323.337	235.12
323.566	237.12
323.795	246.12
324.024	241.12
324.253	216.12
324.482	208.12
324.71	239.12
324.939	242.12
325.168	241.12
325.397	220.12
325.626	212.12
325.855	213.12
326.084	203.12
326.313	197.12
326.542	205.12
326.77	201.12
326.999	215.12
327.228	221.12
327.457	225.12
327.686	235.12
327.914	200.12
328.143	195.12
328.372	181.12
328.6	196.12
328.829	209.12
329.058	204.12
329.287	217.12
329.515	221.12
329.744	206.12
329.972	204.12
330.201	180.12
330.43	190.12
330.658	195.12
330.887	227.12
331.115	222.12
331.344	228.12
331.572	226.12
331.801	219.12
332.03	208.12
332.258	197.12
332.486	229.12
332.715	221.12
332.943	229.12
333.172	224.12
333.4	252.12
333.629	251.12
333.857	251.12
334.085	264.12
334.314	247.12
334.542	251.12
334.771	221.12
334.999	237.12
335.227	217.12
335.455	210.12
335.684	233.12
335.912	258.12
336.14	274.12
336.369	273.12
336.597	266.12
336.825	275.12
337.053	308.12
337.281	271.12
337.51	214.12
337.738	227.12
337.966	236.12
338.194	227.12
338.422	231.12
338.65	221.12
338.878	214.12
339.106	209.12
339.334	231.12
339.562	243.12
339.79	240.12
340.018	209.12
340.246	229.12
340.474	245.12
340.702	252.12
340.93	267.12
341.158	272.12
341.386	232.12
341.614	222.12
341.842	235.12
342.07	230.12
342.298	271.12
342.526	248.12
342.754	253.12
342.981	220.12
343.209	236.12
343.437	233.12
343.665	272.12
343.893	261.12
344.12	276.12
344.348	336.12
344.576	318.12
344.804	244.12
345.031	230.12
345.259	218.12
345.487	211.12
345.714	230.12
345.942	248.12
346.17	257.12
346.397	255.12
346.625	225.12
346.853	228.12
347.08	212.12
347.308	213.12
347.535	242.12
347.763	249.12
347.99	239.12
348.218	230.12
348.445	228.12
348.673	226.12
348.9	230.12
349.128	236.12
349.355	271.12
349.583	236.12
349.81	222.12
350.037	216.12
350.265	200.12
350.492	185.12
350.72	183.12
350.947	186.12
351.174	195.12
351.402	221.12
351.629	228.12
351.856	214.12
352.083	210.12
352.311	212.12
352.538	221.12
352.765	236.12
352.992	220.12
353.22	230.12
353.447	243.12
353.674	227.12
353.901	203.12
354.128	214.12
354.355	226.12
354.583	233.12
354.81	231.12
355.037	235.12
355.264	213.12
355.491	231.12
355.718	246.12
355.945	233.12
356.172	238.12
356.399	253.12
356.626	277.12
356.853	326.12
357.08	342.12
357.307	355.12
357.534	279.12
357.761	292.12
357.988	349.12
358.215	402.12
358.441	367.12
358.668	300.12
358.895	307.12
359.122	263.12
359.349	265.12
359.576	313.12
359.802	252.12
360.029	229.12
360.256	231.12
360.483	277.12
360.709	323.12
360.936	343.12
361.163	297.12
361.39	247.12
361.616	229.12
361.843	251.12
362.07	303.12
362.296	289.12
362.523	237.12
362.749	211.12
362.976	215.12
363.203	256.12
363.429	280.12
363.656	260.12
363.882	215.12
364.109	243.12
364.335	237.12
364.562	209.12
364.788	251.12
365.015	272.12
365.241	233.12
365.468	221.12
365.694	191.12
365.92	198.12
366.147	175.12
366.373	211.12
366.599	209.12
366.826	209.12
367.052	205.12
367.278	200.12
367.505	203.12
367.731	203.12
367.957	224.12
368.184	232.12
368.41	228.12
368.636	228.12
368.862	231.12
369.089	223.12
369.315	206.12
369.541	204.12
369.767	197.12
369.993	192.12
370.219	199.12
370.445	219.12
370.672	228.12
370.898	244.12
371.124	231.12
371.35	225.12
371.576	213.12
371.802	199.12
372.028	255.12
372.254	283.12
372.48	259.12
372.706	236.12
372.932	225.12
373.158	253.12
373.384	300.12
373.61	337.12
373.835	377.12
374.061	284.12
374.287	247.12
374.513	300.12
374.739	337.12
374.965	341.12
375.191	335.12
375.416	269.12
375.642	242.12
375.868	265.12
376.094	284.12
376.319	255.12
376.545	262.12
376.771	292.12
376.997	271.12
377.222	197.12
377.448	196.12
377.674	187.12
377.899	203.12
378.125	210.12
378.35	195.12
378.576	195.12
378.802	204.12
379.027	188.12
379.253	213.12
379.478	210.12
379.704	237.12
379.929	241.12
380.155	224.12
380.38	209.12
380.606	217.12
380.831	252.12
381.057	265.12
381.282	219.12
381.507	263.12
381.733	302.12
381.958	309.12
382.184	326.12
382.409	351.12
382.634	348.12
382.86	361.12
383.085	303.12
383.31	266.12
383.535	270.12
383.761	277.12
383.986	269.12
384.211	297.12
384.436	273.12
384.662	248.12
384.887	243.12
385.112	239.12
385.337	239.12
385.562	242.12
385.787	256.12
386.013	289.12
386.238	283.12
386.463	232.12
386.688	230.12
386.913	222.12
387.138	209.12
387.363	224.12
387.588	222.12
387.813	229.12
388.038	263.12
388.263	238.12
388.488	217.12
388.713	255.12
388.938	276.12
389.163	213.12
389.387	219.12
389.612	216.12
389.837	229.12
390.062	213.12
390.287	242.12
390.512	235.12
390.736	220.12
390.961	210.12
391.186	203.12
391.411	206.12
391.636	207.12
391.86	216.12
392.085	239.12
392.31	255.12
392.534	225.12
392.759	230.12
392.984	247.12
393.208	237.12
393.433	192.12
393.658	214.12
393.882	208.12
394.107	201.12
394.331	200.12
394.556	219.12
394.78	189.12
395.005	213.12
395.229	224.12
395.454	208.12
395.678	212.12
395.903	204.12
396.127	196.12
396.352	210.12
396.576	217.12
396.801	241.12
397.025	249.12
397.249	267.12
397.474	237.12
397.698	209.12
397.922	223.12
398.147	240.12
398.371	213.12
398.595	218.12
398.82	217.12
399.044	224.12
399.268	240.12
399.492	279.12
399.717	269.12
399.941	285.12
400.165	283.12
400.389	248.12
400.613	233.12
400.837	232.12
401.062	224.12
401.286	241.12
401.51	218.12
401.734	217.12
401.958	230.12
402.182	208.12
402.406	222.12
402.63	225.12
402.854	236.12
403.078	280.12
403.302	353.12
403.526	357.12
403.75	308.12
403.974	279.12
404.198	275.12
404.422	307.12
404.645	313.12
404.869	354.12
405.093	280.12
405.317	252.12
405.541	247.12
405.765	252.12
405.988	252.12
406.212	258.12
406.436	286.12
406.66	308.12
406.883	249.12
407.107	266.12
407.331	320.12
407.555	300.12
407.778	286.12
408.002	264.12
408.226	284.12
408.449	249.12
408.673	257.12
408.896	237.12
409.12	226.12
409.344	235.12
409.567	222.12
409.791	233.12
410.014	237.12
410.238	240.12
410.461	235.12
410.685	232.12
410.908	239.12
411.132	238.12
411.355	240.12
411.578	238.12
411.802	224.12
412.025	243.12
412.249	237.12
412.472	224.12
412.695	222.12
412.919	226.12
413.142	246.12
413.365	259.12
413.589	258.12
413.812	232.12
414.035	226.12
414.258	216.12
414.482	234.12
414.705	258.12
414.928	239.12
415.151	208.12
415.374	219.12
415.597	223.12
415.821	242.12
416.044	231.12
416.267	221.12
416.49	218.12
416.713	218.12
416.936	227.12
417.159	218.12
417.382	243.12
417.605	226.12
417.828	220.12
418.051	237.12
418.274	232.12
418.497	233.12
418.72	248.12
418.943	229.12
419.166	239.12
419.389	253.12
419.611	248.12
419.834	261.12
420.057	257.12
420.28	247.12
420.503	245.12
420.726	221.12
420.948	204.12
421.171	220.12
421.394	214.12
421.617	224.12
421.839	237.12
422.062	235.12
422.285	240.12
422.507	241.12
422.73	233.12
422.953	239.12
423.175	228.12
423.398	254.12
423.621	264.12
423.843	277.12
424.066	258.12
424.288	228.12
424.511	233.12
424.733	239.12
424.956	238.12
425.178	259.12
425.401	293.12
425.623	354.12
425.846	308.12
426.068	238.12
426.291	252.12
426.513	257.12
426.735	229.12
426.958	243.12
427.18	264.12
427.402	323.12
427.625	353.12
427.847	301.12
428.069	241.12
428.292	220.12
428.514	213.12
428.736	217.12
428.958	255.12
429.181	308.12
429.403	243.12
429.625	225.12
429.847	225.12
430.069	210.12
430.292	227.12
430.514	209.12
430.736	247.12
430.958	275.12
431.18	259.12
431.402	201.12
431.624	205.12
431.846	215.12
432.068	198.12
432.29	206.12
432.512	219.12
432.734	269.12
432.956	264.12
433.178	223.12
433.4	223.12
433.622	225.12
433.844	240.12
434.066	240.12
434.287	246.12
434.509	208.12
434.731	232.12
434.953	211.12
435.175	230.12
435.397	274.12
435.618	239.12
435.84	211.12
436.062	238.12
436.284	228.12
436.505	208.12
436.727	210.12
436.949	211.12
437.17	205.12
437.392	221.12
437.614	212.12
437.835	211.12
438.057	215.12
438.278	228.12
438.5	301.12
438.721	311.12
438.943	243.12
439.165	206.12
439.386	199.12
439.608	212.12
439.829	192.12
440.05	212.12
440.272	225.12
440.493	259.12
440.715	275.12
440.936	243.12
441.158	214.12
441.379	237.12
441.6	246.12
441.822	238.12
442.043	236.12
442.264	225.12
442.486	229.12
442.707	219.12
442.928	227.12
443.149	217.12
443.371	231.12
443.592	228.12
443.813	245.12
444.034	232.12
444.255	245.12
444.476	223.12
444.698	243.12
444.919	271.12
445.14	327.12
445.361	299.12
445.582	248.12
445.803	247.12
446.024	244.12
446.245	228.12
446.466	248.12
446.687	213.12
446.908	223.12
447.129	229.12
447.35	216.12
447.571	198.12
447.792	197.12
448.013	210.12
448.234	209.12
448.455	190.12
448.675	201.12
448.896	214.12
449.117	202.12
449.338	208.12
449.559	208.12
449.779	228.12
450	218.12
450.221	208.12
450.442	201.12
450.662	198.12
450.883	210.12
451.104	213.12
451.324	222.12
451.545	216.12
451.766	199.12
451.986	207.12
452.207	194.12
452.428	201.12
452.648	205.12
452.869	232.12
453.089	222.12
453.31	238.12
453.53	195.12
453.751	192.12
453.971	200.12
454.192	206.12
454.412	203.12
454.633	185.12
454.853	208.12
455.073	188.12
455.294	194.12
455.514	195.12
455.734	213.12
455.955	200.12
456.175	202.12
456.395	199.12
456.616	187.12
456.836	186.12
457.056	185.12
457.276	179.12
457.497	184.12
457.717	187.12
457.937	188.12
458.157	191.12
458.377	191.12
458.598	200.12
458.818	199.12
459.038	192.12
459.258	209.12
459.478	214.12
459.698	219.12
459.918	213.12
460.138	228.12
460.358	224.12
460.578	230.12
460.798	216.12
461.018	226.12
461.238	237.12
461.458	221.12
461.678	235.12
461.898	243.12
462.118	227.12
462.338	243.12
462.558	239.12
462.777	261.12
462.997	268.12
463.217	271.12
463.437	271.12
463.657	265.12
463.876	260.12
464.096	266.12
464.316	257.12
464.536	242.12
464.755	257.12
464.975	269.12
465.195	244.12
465.414	255.12
465.634	232.12
465.854	229.12
466.073	193.12
466.293	230.12
466.512	231.12
466.732	245.12
466.951	257.12
467.171	227.12
467.391	206.12
467.61	211.12
467.829	238.12
468.049	226.12
468.268	215.12
468.488	206.12
468.707	209.12
468.927	232.12
469.146	273.12
469.365	227.12
469.585	220.12
469.804	249.12
470.023	265.12
470.243	238.12
470.462	215.12
470.681	217.12
470.901	237.12
471.12	255.12
471.339	243.12
471.558	211.12
471.777	232.12
471.997	235.12
472.216	279.12
472.435	259.12
472.654	249.12
472.873	236.12
473.092	237.12
473.311	248.12
473.53	230.12
473.749	223.12
473.968	227.12
474.187	221.12
474.406	212.12
474.625	223.12
474.844	229.12
475.063	245.12
475.282	244.12
475.501	260.12
475.72	288.12
475.939	277.12
476.158	275.12
476.377	291.12
476.596	304.12
476.814	320.12
477.033	280.12
477.252	267.12
477.471	243.12
477.69	228.12
477.908	246.12
478.127	259.12
478.346	247.12
478.564	272.12
478.783	267.12
479.002	262.12
479.22	279.12
479.439	289.12
479.658	281.12
479.876	266.12
480.095	275.12
480.313	284.12
480.532	262.12
480.751	272.12
480.969	263.12
481.188	296.12
481.406	309.12
481.624	291.12
481.843	248.12
482.061	267.12
482.28	270.12
482.498	342.12
482.717	305.12
482.935	260.12
483.153	253.12
483.372	247.12
483.59	248.12
483.808	261.12
484.027	224.12
484.245	257.12
484.463	241.12
484.681	246.12
484.9	241.12
485.118	273.12
485.336	257.12
485.554	245.12
485.772	253.12
485.99	281.12
486.209	289.12
486.427	296.12
486.645	276.12
486.863	279.12
487.081	283.12
487.299	289.12
487.517	287.12
487.735	269.12
487.953	292.12
488.171	277.12
488.389	259.12
488.607	255.12
488.825	240.12
489.043	291.12
489.261	307.12
489.479	323.12
489.696	283.12
489.914	280.12
490.132	237.12
490.35	255.12
490.568	256.12
490.786	244.12
491.003	255.12
491.221	246.12
491.439	234.12
491.657	241.12
491.874	284.12
492.092	293.12
492.31	343.12
492.527	341.12
492.745	312.12
492.963	292.12
493.18	278.12
493.398	282.12
493.615	280.12
493.833	281.12
494.05	258.12
494.268	275.12
494.485	287.12
494.703	269.12
494.92	264.12
495.138	276.12
495.355	276.12
495.573	298.12
495.79	305.12
496.008	369.12
496.225	323.12
496.442	293.12
496.66	288.12
496.877	303.12
497.094	283.12
497.312	294.12
497.529	285.12
497.746	277.12
497.963	308.12
498.181	308.12
498.398	341.12
498.615	342.12
498.832	375.12
499.049	375.12
499.267	368.12
499.484	380.12
499.701	392.12
499.918	440.12
500.135	475.12
500.352	496.12
500.569	535.12
500.786	518.12
501.003	517.12
501.22	446.12
501.437	406.12
501.654	403.12
501.871	357.12
502.088	367.12
502.305	335.12
502.522	327.12
502.739	341.12
502.956	319.12
503.172	309.12
503.389	296.12
503.606	292.12
503.823	295.12
504.04	273.12
504.256	308.12
504.473	305.12
504.69	316.12
504.907	309.12
505.123	316.12
505.34	314.12
505.557	301.12
505.773	280.12
505.99	295.12
506.207	293.12
506.423	278.12
506.64	272.12
506.856	264.12
507.073	293.12
507.289	291.12
507.506	302.12
507.722	302.12
507.939	297.12
508.155	320.12
508.372	275.12
508.588	274.12
508.805	261.12
509.021	263.12
509.238	253.12
509.454	262.12
509.67	246.12
509.887	248.12
510.103	257.12
510.319	309.12
510.536	269.12
510.752	256.12
510.968	262.12
511.184	244.12
511.401	222.12
511.617	252.12
511.833	259.12
512.049	242.12
512.265	247.12
512.481	256.12
512.698	269.12
512.914	280.12
513.13	295.12
513.346	253.12
513.562	257.12
513.778	260.12
513.994	251.12
514.21	261.12
514.426	265.12
514.642	263.12
514.858	272.12
515.074	265.12
515.29	276.12
515.506	312.12
515.721	304.12
515.937	279.12
516.153	262.12
516.369	240.12
516.585	275.12
516.801	303.12
517.016	368.12
517.232	353.12
517.448	353.12
517.664	317.12
517.879	295.12
518.095	304.12
518.311	321.12
518.527	296.12
518.742	320.12
518.958	341.12
519.173	320.12
519.389	307.12
519.605	316.12
519.82	314.12
520.036	353.12
520.251	364.12
520.467	345.12
520.682	545.12
520.898	701.12
521.113	668.12
521.329	393.12
521.544	330.12
521.76	327.12
521.975	288.12
522.19	288.12
522.406	305.12
522.621	316.12
522.836	298.12
523.052	313.12
523.267	286.12
523.482	285.12
523.698	273.12
523.913	293.12
524.128	273.12
524.343	269.12
524.559	268.12
524.774	286.12
524.989	267.12
525.204	264.12
525.419	280.12
525.634	275.12
525.849	279.12
526.064	284.12
526.28	285.12
526.495	321.12
526.71	344.12
526.925	302.12
527.14	303.12
527.355	301.12
527.57	269.12
527.785	265.12
527.999	266.12
528.214	254.12
528.429	264.12
528.644	245.12
528.859	248.12
529.074	238.12
529.289	225.12
529.503	232.12
529.718	254.12
529.933	286.12
530.148	291.12
530.363	248.12
530.577	236.12
530.792	232.12
531.007	239.12
531.221	235.12
531.436	239.12
531.651	257.12
531.865	231.12
532.08	261.12
532.295	235.12
532.509	240.12
532.724	273.12
532.938	292.12
533.153	336.12
533.367	269.12
533.582	283.12
533.796	245.12
534.011	253.12
534.225	262.12
534.44	260.12
534.654	256.12
534.868	329.12
535.083	279.12
535.297	254.12
535.511	251.12
535.726	269.12
535.94	259.12
536.154	228.12
536.369	247.12
536.583	251.12
536.797	236.12
537.011	258.12
537.225	251.12
537.44	251.12
537.654	248.12
537.868	231.12
538.082	249.12
538.296	244.12
538.51	244.12
538.724	236.12
538.938	254.12
539.153	229.12
539.367	229.12
539.581	236.12
539.795	237.12
540.009	269.12
540.222	270.12
540.436	259.12
540.65	263.12
540.864	260.12
541.078	275.12
541.292	315.12
541.506	263.12
541.72	239.12
541.934	247.12
542.147	242.12
542.361	239.12
542.575	247.12
542.789	233.12
543.002	241.12
543.216	262.12
543.43	235.12
543.644	228.12
543.857	226.12
544.071	217.12
544.285	223.12
544.498	228.12
544.712	235.12
544.925	249.12
545.139	228.12
545.352	228.12
545.566	227.12
545.779	266.12
545.993	240.12
546.206	208.12
546.42	208.12
546.633	227.12
546.847	205.12
547.06	198.12
547.274	214.12
547.487	225.12
547.7	213.12
547.914	230.12
548.127	258.12
548.34	260.12
548.554	225.12
548.767	238.12
548.98	257.12
549.193	252.12
549.407	243.12
549.62	275.12
549.833	271.12
550.046	266.12
550.259	255.12
550.473	246.12
550.686	240.12
550.899	240.12
551.112	225.12
551.325	252.12
551.538	251.12
551.751	224.12
551.964	228.12
552.177	240.12
552.39	227.12
552.603	228.12
552.816	237.12
553.029	230.12
553.242	227.12
553.455	251.12
553.667	241.12
553.88	231.12
554.093	223.12
554.306	225.12
554.519	200.12
554.732	205.12
554.944	194.12
555.157	207.12
555.37	204.12
555.583	199.12
555.795	224.12
556.008	206.12
556.221	215.12
556.433	188.12
556.646	205.12
556.859	199.12
557.071	220.12
557.284	215.12
557.496	207.12
557.709	209.12
557.921	195.12
558.134	197.12
558.346	195.12
558.559	183.12
558.771	203.12
558.984	222.12
559.196	179.12
559.409	191.12
559.621	188.12
559.833	189.12
560.046	198.12
560.258	189.12
560.47	184.12
560.683	202.12
560.895	198.12
561.107	191.12
561.32	181.12
561.532	191.12
561.744	207.12
561.956	199.12
562.168	182.12
562.381	180.12
562.593	187.12
562.805	191.12
563.017	197.12
563.229	196.12
563.441	180.12
563.653	175.12
563.865	192.12
564.077	190.12
564.289	201.12
564.501	207.12
564.713	204.12
564.925	196.12
565.137	196.12
565.349	196.12
565.561	200.12
565.773	207.12
565.985	208.12
566.197	208.12
566.408	220.12
566.62	229.12
566.832	232.12
567.044	236.12
567.255	253.12
567.467	258.12
567.679	252.12
567.891	264.12
568.102	285.12
568.314	266.12
568.526	241.12
568.737	233.12
568.949	226.12
569.161	225.12
569.372	193.12
569.584	209.12
569.795	201.12
570.007	192.12
570.218	213.12
570.43	201.12
570.641	205.12
570.853	203.12
571.064	196.12
571.276	206.12
571.487	198.12
571.698	200.12
571.91	194.12
572.121	198.12
572.333	193.12
572.544	171.12
572.755	175.12
572.966	183.12
573.178	179.12
573.389	190.12
573.6	199.12
573.811	190.12
574.023	174.12
574.234	178.12
574.445	176.12
574.656	177.12
574.867	182.12
575.078	188.12
575.289	179.12
575.501	187.12
575.712	177.12
575.923	196.12
576.134	180.12
576.345	153.12
576.556	175.12
576.767	157.12
576.978	183.12
577.188	167.12
577.399	175.12
577.61	159.12
577.821	173.12
578.032	177.12
578.243	174.12
578.454	168.12
578.665	171.12
578.875	173.12
579.086	172.12
579.297	176.12
579.508	174.12
579.718	172.12
579.929	174.12
580.14	184.12
580.35	160.12
580.561	155.12
580.772	153.12
580.982	155.12
581.193	177.12
581.403	160.12
581.614	168.12
581.825	158.12
582.035	146.12
582.246	147.12
582.456	153.12
582.667	143.12
582.877	148.12
583.087	156.12
583.298	168.12
583.508	163.12
583.719	155.12
583.929	152.12
584.139	141.12
584.35	154.12
584.56	175.12
584.77	157.12
584.981	151.12
585.191	151.12
585.401	164.12
585.611	152.12
585.821	151.12
586.032	148.12
586.242	153.12
586.452	157.12
586.662	170.12
586.872	161.12
587.082	171.12
587.292	164.12
587.502	167.12
587.713	158.12
587.923	154.12
588.133	164.12
588.343	183.12
588.553	154.12
588.762	149.12
588.972	161.12
589.182	150.12
589.392	165.12
589.602	159.12
589.812	150.12
590.022	159.12
590.232	153.12
590.441	143.12
590.651	145.12
590.861	148.12
591.071	148.12
591.281	153.12
591.49	149.12
591.7	148.12
591.91	152.12
592.119	162.12
592.329	149.12
592.539	159.12
592.748	171.12
592.958	162.12
593.167	169.12
593.377	177.12
593.587	165.12
593.796	169.12
594.006	180.12
594.215	182.12
594.424	172.12
594.634	169.12
594.843	175.12
595.053	165.12
595.262	174.12
595.472	165.12
595.681	161.12
595.89	153.12
596.1	159.12
596.309	163.12
596.518	151.12
596.727	157.12
596.937	148.12
597.146	149.12
597.355	159.12
597.564	152.12
597.774	137.12
597.983	159.12
598.192	148.12
598.401	148.12
598.61	147.12
598.819	146.12
599.028	120.12
599.237	132.12
599.446	145.12
599.655	141.12
599.864	135.12
600.073	147.12
600.282	138.12
600.491	148.12
600.7	126.12
600.909	136.12
601.118	133.12
601.327	151.12
601.536	145.12
601.745	152.12
601.953	145.12
602.162	139.12
602.371	139.12
602.58	143.12
602.789	130.12
602.997	150.12
603.206	148.12
603.415	137.12
603.623	130.12
603.832	130.12
604.041	151.12
604.249	137.12
604.458	138.12
604.666	141.12
604.875	131.12
605.084	140.12
605.292	149.12
605.501	150.12
605.709	135.12
605.918	132.12
606.126	130.12
606.334	132.12
606.543	141.12
606.751	139.12
606.96	132.12
607.168	141.12
607.376	153.12
607.585	135.12
607.793	149.12
608.001	133.12
608.21	133.12
608.418	123.12
608.626	128.12
608.834	126.12
609.043	131.12
609.251	137.12
609.459	130.12
609.667	131.12
609.875	137.12
610.083	142.12
610.291	136.12
610.499	139.12
610.707	139.12
610.916	127.12
611.124	129.12
611.332	129.12
611.54	127.12
611.748	133.12
611.955	133.12
612.163	138.12
612.371	127.12
612.579	127.12
612.787	133.12
612.995	148.12
613.203	139.12
613.411	136.12
613.618	135.12
613.826	132.12
614.034	131.12
614.242	123.12
614.449	135.12
614.657	125.12
614.865	136.12
615.072	140.12
615.28	124.12
615.488	134.12
615.695	130.12
615.903	115.12
616.111	149.12
616.318	134.12
616.526	131.12
616.733	138.12
616.941	133.12
617.148	120.12
617.356	128.12
617.563	113.12
617.771	144.12
617.978	139.12
618.185	141.12
618.393	131.12
618.6	125.12
618.807	115.12
619.015	124.12
619.222	129.12
619.429	141.12
619.637	126.12
619.844	119.12
620.051	134.12
620.258	129.12
620.466	119.12
620.673	117.12
620.88	115.12
621.087	136.12
621.294	112.12
621.501	118.12
621.708	112.12
621.915	119.12
622.122	119.12
622.329	129.12
622.536	127.12
622.743	130.12
622.95	118.12
623.157	123.12
623.364	115.12
623.571	112.12
623.778	139.12
623.985	134.12
624.192	126.12
624.399	126.12
624.606	131.12
624.812	118.12
625.019	120.12
625.226	120.12
625.433	121.12
625.639	129.12
625.846	121.12
626.053	120.12
626.259	116.12
626.466	114.12
626.673	124.12
626.879	117.12
627.086	124.12
627.293	114.12
627.499	127.12
627.706	125.12
627.912	125.12
628.119	119.12
628.325	110.12
628.532	118.12
628.738	128.12
628.945	128.12
629.151	121.12
629.357	111.12
629.564	121.12
629.77	118.12
629.976	114.12
630.183	108.12
630.389	120.12
630.595	128.12
630.802	129.12
631.008	123.12
631.214	130.12
631.42	113.12
631.627	109.12
631.833	115.12
632.039	92.12
632.245	120.12
632.451	129.12
632.657	123.12
632.863	130.12
633.069	117.12
633.275	107.12
633.481	117.12
633.688	99.12
633.893	109.12
634.099	125.12
634.305	116.12
634.511	127.12
634.717	107.12
634.923	110.12
635.129	113.12
635.335	110.12
635.541	120.12
635.747	117.12
635.952	113.12
636.158	92.12
636.364	115.12
636.57	109.12
636.775	112.12
636.981	111.12
637.187	109.12
637.392	114.12
637.598	111.12
637.804	113.12
638.009	101.12
638.215	113.12
638.421	116.12
638.626	111.12
638.832	117.12
639.037	113.12
639.243	104.12
639.448	119.12
639.654	118.12
639.859	123.12
640.065	123.12
640.27	107.12
640.475	104.12
640.681	96.12
640.886	107.12
641.091	117.12
641.297	116.12
641.502	109.12
641.707	102.12
641.913	91.12
642.118	109.12
642.323	116.12
642.528	117.12
642.733	106.12
642.939	105.12
643.144	131.12
643.349	113.12
643.554	119.12
643.759	109.12
643.964	98.12
644.169	119.12
644.374	106.12
644.579	107.12
644.784	98.12
644.989	101.12
645.194	103.12
645.399	109.12
645.604	113.12
645.809	104.12
646.014	120.12
646.219	102.12
646.423	111.12
646.628	117.12
646.833	104.12
647.038	109.12
647.243	119.12
647.447	123.12
647.652	121.12
647.857	109.12
648.062	115.12
648.266	108.12
648.471	119.12
648.676	103.12
648.88	107.12
649.085	97.12
649.289	102.12
649.494	99.12
649.698	113.12
649.903	111.12
650.107	108.12
650.312	123.12
650.516	105.12
650.721	91.12
650.925	113.12
651.13	109.12
651.334	103.12
651.539	95.12
651.743	90.12
651.947	107.12
652.152	99.12
652.356	96.12
652.56	117.12
652.764	97.12
652.969	113.12
653.173	104.12
653.377	96.12
653.581	85.12
653.785	107.12
653.99	107.12
654.194	94.12
654.398	97.12
654.602	94.12
654.806	90.12
655.01	87.12
655.214	97.12
655.418	94.12
655.622	97.12
655.826	88.12
656.03	108.12
656.234	92.12
656.438	96.12
656.642	112.12
656.846	94.12
657.049	79.12
657.253	95.12
657.457	92.12
657.661	99.12
657.865	80.12
658.068	94.12
658.272	109.12
658.476	88.12
658.68	79.12
658.883	72.12
659.087	81.12
659.291	70.12
659.494	72.12
659.698	79.12
659.901	73.12
660.105	77.12
660.309	85.12
660.512	76.12
660.716	71.12
660.919	90.12
661.123	81.12
661.326	64.12
661.53	101.12
661.733	81.12
661.936	77.12
662.14	64.12
662.343	83.12
662.546	64.12
662.75	85.12
662.953	85.12
663.156	68.12
663.36	78.12
663.563	100.12
663.766	86.12
663.969	86.12
664.173	70.12
664.376	94.12
664.579	91.12
664.782	79.12
664.985	101.12
665.188	95.12
665.391	83.12
665.594	84.12
665.797	69.12
666	67.12
666.203	82.12
666.406	82.12
666.609	93.12
666.812	82.12
667.015	88.12
667.218	90.12
667.421	81.12
667.624	72.12
667.827	83.12
668.03	75.12
668.232	77.12
668.435	91.12
668.638	75.12
668.841	80.12
669.043	90.12
669.246	76.12
669.449	76.12
669.651	82.12
669.854	78.12
670.057	85.12
670.259	92.12
670.462	73.12
670.665	83.12
670.867	79.12
671.07	72.12
671.272	101.12
671.475	84.12
671.677	76.12
671.88	82.12
672.082	77.12
672.284	72.12
672.487	88.12
672.689	71.12
672.892	80.12
