Data from NickelSpatula_HRD10591_16-36-25-126.txt Node
Date: Mon Jul 22 16:36:25 EDT 2019
User: cochatt
Spectrometer: HR+D1059
Trigger mode: 1
Integration Time (sec): 1.000000E-1
Scans to average: 1
Electric dark correction enabled: true
Nonlinearity correction enabled: false
Boxcar width: 0
XAxis mode: Wavelengths
Number of Pixels in Spectrum: 2048
>>>>>Begin Spectral Data<<<<<
223.165	-15.56
223.4	-15.56
223.635	-15.56
223.869	-14.56
224.104	-24.56
224.338	-12.56
224.573	-12.56
224.808	-15.56
225.042	-6.56
225.277	-7.56
225.511	-2.56
225.746	2.44
225.98	13.44
226.215	14.44
226.449	19.44
226.683	15.44
226.918	18.44
227.152	28.44
227.387	42.44
227.621	42.44
227.856	46.44
228.09	58.44
228.324	70.44
228.559	45.44
228.793	72.44
229.027	74.44
229.262	76.44
229.496	71.44
229.73	75.44
229.964	90.44
230.199	88.44
230.433	73.44
230.667	95.44
230.901	97.44
231.136	89.44
231.37	85.44
231.604	94.44
231.838	100.44
232.072	98.44
232.306	89.44
232.541	88.44
232.775	94.44
233.009	90.44
233.243	110.44
233.477	97.44
233.711	97.44
233.945	110.44
234.179	106.44
234.413	111.44
234.647	108.44
234.881	117.44
235.115	102.44
235.349	108.44
235.583	110.44
235.817	113.44
236.051	105.44
236.285	113.44
236.519	108.44
236.753	106.44
236.987	99.44
237.221	97.44
237.455	111.44
237.689	96.44
237.922	109.44
238.156	107.44
238.39	107.44
238.624	116.44
238.858	113.44
239.091	111.44
239.325	112.44
239.559	99.44
239.793	106.44
240.027	115.44
240.26	117.44
240.494	113.44
240.728	127.44
240.961	130.44
241.195	110.44
241.429	116.44
241.662	121.44
241.896	121.44
242.13	100.44
242.363	109.44
242.597	106.44
242.83	112.44
243.064	110.44
243.298	121.44
243.531	119.44
243.765	126.44
243.998	123.44
244.232	109.44
244.465	124.44
244.699	114.44
244.932	114.44
245.166	129.44
245.399	108.44
245.633	118.44
245.866	130.44
246.099	132.44
246.333	121.44
246.566	129.44
246.8	120.44
247.033	109.44
247.266	119.44
247.5	112.44
247.733	100.44
247.966	120.44
248.2	137.44
248.433	125.44
248.666	125.44
248.899	120.44
249.133	109.44
249.366	132.44
249.599	154.44
249.832	134.44
250.066	128.44
250.299	113.44
250.532	123.44
250.765	148.44
250.998	128.44
251.231	125.44
251.465	124.44
251.698	140.44
251.931	128.44
252.164	136.44
252.397	155.44
252.63	148.44
252.863	149.44
253.096	158.44
253.329	148.44
253.562	156.44
253.795	160.44
254.028	166.44
254.261	162.44
254.494	180.44
254.727	154.44
254.96	157.44
255.193	146.44
255.426	143.44
255.659	137.44
255.892	128.44
256.124	134.44
256.357	149.44
256.59	154.44
256.823	151.44
257.056	142.44
257.289	132.44
257.521	123.44
257.754	154.44
257.987	145.44
258.22	159.44
258.452	137.44
258.685	154.44
258.918	157.44
259.151	153.44
259.383	177.44
259.616	169.44
259.849	168.44
260.081	171.44
260.314	187.44
260.547	168.44
260.779	180.44
261.012	185.44
261.244	178.44
261.477	180.44
261.71	174.44
261.942	162.44
262.175	168.44
262.407	168.44
262.64	161.44
262.872	175.44
263.105	177.44
263.337	189.44
263.57	172.44
263.802	146.44
264.035	140.44
264.267	136.44
264.499	123.44
264.732	118.44
264.964	121.44
265.197	126.44
265.429	121.44
265.661	122.44
265.894	134.44
266.126	137.44
266.358	154.44
266.591	167.44
266.823	174.44
267.055	182.44
267.287	160.44
267.52	165.44
267.752	148.44
267.984	160.44
268.216	172.44
268.448	153.44
268.681	144.44
268.913	168.44
269.145	160.44
269.377	170.44
269.609	168.44
269.841	157.44
270.073	161.44
270.306	171.44
270.538	177.44
270.77	170.44
271.002	168.44
271.234	174.44
271.466	168.44
271.698	167.44
271.93	176.44
272.162	163.44
272.394	171.44
272.626	162.44
272.858	175.44
273.09	167.44
273.322	162.44
273.553	148.44
273.785	188.44
274.017	190.44
274.249	209.44
274.481	227.44
274.713	233.44
274.945	266.44
275.176	250.44
275.408	258.44
275.64	250.44
275.872	233.44
276.104	203.44
276.335	197.44
276.567	196.44
276.799	186.44
277.031	199.44
277.262	188.44
277.494	159.44
277.726	151.44
277.957	152.44
278.189	167.44
278.421	179.44
278.652	164.44
278.884	156.44
279.115	173.44
279.347	150.44
279.579	161.44
279.81	156.44
280.042	129.44
280.273	138.44
280.505	138.44
280.736	149.44
280.968	128.44
281.199	148.44
281.431	166.44
281.662	162.44
281.894	155.44
282.125	168.44
282.356	165.44
282.588	161.44
282.819	153.44
283.051	169.44
283.282	178.44
283.513	201.44
283.745	220.44
283.976	220.44
284.207	184.44
284.439	196.44
284.67	199.44
284.901	195.44
285.132	193.44
285.364	201.44
285.595	207.44
285.826	217.44
286.057	214.44
286.288	202.44
286.52	193.44
286.751	201.44
286.982	188.44
287.213	190.44
287.444	195.44
287.675	206.44
287.906	192.44
288.138	173.44
288.369	152.44
288.6	160.44
288.831	170.44
289.062	175.44
289.293	188.44
289.524	184.44
289.755	199.44
289.986	156.44
290.217	162.44
290.448	145.44
290.679	125.44
290.91	116.44
291.141	123.44
291.371	121.44
291.602	137.44
291.833	143.44
292.064	121.44
292.295	152.44
292.526	159.44
292.757	173.44
292.987	193.44
293.218	177.44
293.449	192.44
293.68	202.44
293.91	192.44
294.141	194.44
294.372	169.44
294.603	159.44
294.833	169.44
295.064	185.44
295.295	184.44
295.525	154.44
295.756	154.44
295.987	138.44
296.217	128.44
296.448	140.44
296.679	137.44
296.909	159.44
297.14	158.44
297.37	174.44
297.601	161.44
297.831	153.44
298.062	150.44
298.292	154.44
298.523	175.44
298.753	180.44
298.984	157.44
299.214	143.44
299.445	129.44
299.675	134.44
299.905	146.44
300.136	132.44
300.366	136.44
300.597	149.44
300.827	146.44
301.057	130.44
301.288	140.44
301.518	144.44
301.748	155.44
301.979	149.44
302.209	148.44
302.439	146.44
302.669	148.44
302.9	148.44
303.13	156.44
303.36	148.44
303.59	128.44
303.82	140.44
304.051	160.44
304.281	148.44
304.511	157.44
304.741	153.44
304.971	142.44
305.201	155.44
305.431	139.44
305.661	137.44
305.891	124.44
306.121	152.44
306.352	117.44
306.582	110.44
306.812	134.44
307.042	145.44
307.272	123.44
307.502	126.44
307.731	128.44
307.961	128.44
308.191	119.44
308.421	123.44
308.651	119.44
308.881	133.44
309.111	118.44
309.341	112.44
309.571	120.44
309.8	132.44
310.03	130.44
310.26	116.44
310.49	118.44
310.72	113.44
310.949	128.44
311.179	132.44
311.409	129.44
311.639	142.44
311.868	161.44
312.098	180.44
312.328	196.44
312.557	194.44
312.787	191.44
313.017	181.44
313.246	205.44
313.476	183.44
313.706	167.44
313.935	150.44
314.165	133.44
314.394	136.44
314.624	132.44
314.853	125.44
315.083	125.44
315.312	130.44
315.542	129.44
315.771	128.44
316.001	135.44
316.23	120.44
316.46	124.44
316.689	115.44
316.919	118.44
317.148	129.44
317.377	137.44
317.607	136.44
317.836	135.44
318.065	132.44
318.295	141.44
318.524	130.44
318.753	126.44
318.983	112.44
319.212	125.44
319.441	117.44
319.67	140.44
319.9	152.44
320.129	140.44
320.358	126.44
320.587	141.44
320.816	144.44
321.046	143.44
321.275	152.44
321.504	157.44
321.733	136.44
321.962	139.44
322.191	145.44
322.42	143.44
322.649	134.44
322.878	135.44
323.108	144.44
323.337	135.44
323.566	137.44
323.795	145.44
324.024	125.44
324.253	144.44
324.482	134.44
324.71	129.44
324.939	136.44
325.168	130.44
325.397	120.44
325.626	126.44
325.855	129.44
326.084	120.44
326.313	119.44
326.542	129.44
326.77	134.44
326.999	119.44
327.228	127.44
327.457	143.44
327.686	124.44
327.914	118.44
328.143	136.44
328.372	107.44
328.6	124.44
328.829	117.44
329.058	121.44
329.287	118.44
329.515	125.44
329.744	127.44
329.972	129.44
330.201	116.44
330.43	124.44
330.658	132.44
330.887	148.44
331.115	125.44
331.344	128.44
331.572	136.44
331.801	106.44
332.03	110.44
332.258	126.44
332.486	122.44
332.715	134.44
332.943	124.44
333.172	136.44
333.4	117.44
333.629	136.44
333.857	127.44
334.085	133.44
334.314	129.44
334.542	136.44
334.771	125.44
334.999	124.44
335.227	124.44
335.455	132.44
335.684	130.44
335.912	142.44
336.14	146.44
336.369	132.44
336.597	158.44
336.825	166.44
337.053	179.44
337.281	136.44
337.51	121.44
337.738	126.44
337.966	133.44
338.194	135.44
338.422	125.44
338.65	116.44
338.878	125.44
339.106	127.44
339.334	130.44
339.562	144.44
339.79	133.44
340.018	125.44
340.246	132.44
340.474	142.44
340.702	159.44
340.93	160.44
341.158	115.44
341.386	114.44
341.614	130.44
341.842	120.44
342.07	126.44
342.298	141.44
342.526	150.44
342.754	152.44
342.981	142.44
343.209	140.44
343.437	141.44
343.665	139.44
343.893	133.44
344.12	146.44
344.348	171.44
344.576	143.44
344.804	149.44
345.031	134.44
345.259	110.44
345.487	133.44
345.714	117.44
345.942	135.44
346.17	138.44
346.397	147.44
346.625	132.44
346.853	130.44
347.08	136.44
347.308	135.44
347.535	152.44
347.763	140.44
347.99	128.44
348.218	138.44
348.445	122.44
348.673	133.44
348.9	138.44
349.128	139.44
349.355	136.44
349.583	123.44
349.81	132.44
350.037	146.44
350.265	130.44
350.492	121.44
350.72	105.44
350.947	134.44
351.174	126.44
351.402	136.44
351.629	130.44
351.856	139.44
352.083	133.44
352.311	142.44
352.538	147.44
352.765	158.44
352.992	119.44
353.22	140.44
353.447	135.44
353.674	144.44
353.901	123.44
354.128	131.44
354.355	126.44
354.583	129.44
354.81	142.44
355.037	139.44
355.264	125.44
355.491	134.44
355.718	137.44
355.945	138.44
356.172	134.44
356.399	129.44
356.626	142.44
356.853	156.44
357.08	180.44
357.307	166.44
357.534	156.44
357.761	154.44
357.988	175.44
358.215	184.44
358.441	173.44
358.668	173.44
358.895	146.44
359.122	144.44
359.349	134.44
359.576	149.44
359.802	122.44
360.029	140.44
360.256	130.44
360.483	145.44
360.709	162.44
360.936	157.44
361.163	151.44
361.39	142.44
361.616	126.44
361.843	144.44
362.07	137.44
362.296	151.44
362.523	129.44
362.749	128.44
362.976	128.44
363.203	146.44
363.429	142.44
363.656	131.44
363.882	136.44
364.109	132.44
364.335	133.44
364.562	135.44
364.788	136.44
365.015	136.44
365.241	141.44
365.468	154.44
365.694	114.44
365.92	112.44
366.147	107.44
366.373	127.44
366.599	129.44
366.826	118.44
367.052	118.44
367.278	119.44
367.505	118.44
367.731	130.44
367.957	128.44
368.184	128.44
368.41	127.44
368.636	130.44
368.862	124.44
369.089	136.44
369.315	121.44
369.541	127.44
369.767	120.44
369.993	124.44
370.219	118.44
370.445	113.44
370.672	128.44
370.898	138.44
371.124	139.44
371.35	116.44
371.576	130.44
371.802	134.44
372.028	128.44
372.254	126.44
372.48	123.44
372.706	128.44
372.932	134.44
373.158	115.44
373.384	152.44
373.61	183.44
373.835	160.44
374.061	153.44
374.287	146.44
374.513	159.44
374.739	159.44
374.965	174.44
375.191	162.44
375.416	109.44
375.642	116.44
375.868	157.44
376.094	145.44
376.319	138.44
376.545	135.44
376.771	148.44
376.997	124.44
377.222	120.44
377.448	106.44
377.674	124.44
377.899	106.44
378.125	111.44
378.35	125.44
378.576	126.44
378.802	128.44
379.027	122.44
379.253	126.44
379.478	112.44
379.704	128.44
379.929	129.44
380.155	135.44
380.38	127.44
380.606	123.44
380.831	141.44
381.057	135.44
381.282	132.44
381.507	141.44
381.733	179.44
381.958	155.44
382.184	165.44
382.409	159.44
382.634	166.44
382.86	182.44
383.085	138.44
383.31	133.44
383.535	143.44
383.761	148.44
383.986	138.44
384.211	147.44
384.436	152.44
384.662	163.44
384.887	144.44
385.112	113.44
385.337	123.44
385.562	126.44
385.787	134.44
386.013	169.44
386.238	130.44
386.463	138.44
386.688	122.44
386.913	128.44
387.138	128.44
387.363	136.44
387.588	136.44
387.813	147.44
388.038	134.44
388.263	132.44
388.488	142.44
388.713	124.44
388.938	135.44
389.163	131.44
389.387	134.44
389.612	128.44
389.837	123.44
390.062	122.44
390.287	118.44
390.512	123.44
390.736	128.44
390.961	121.44
391.186	136.44
391.411	128.44
391.636	121.44
391.86	127.44
392.085	132.44
392.31	130.44
392.534	140.44
392.759	133.44
392.984	140.44
393.208	130.44
393.433	129.44
393.658	127.44
393.882	118.44
394.107	128.44
394.331	118.44
394.556	122.44
394.78	104.44
395.005	130.44
395.229	134.44
395.454	128.44
395.678	127.44
395.903	113.44
396.127	124.44
396.352	126.44
396.576	129.44
396.801	153.44
397.025	139.44
397.249	135.44
397.474	130.44
397.698	126.44
397.922	142.44
398.147	144.44
398.371	129.44
398.595	129.44
398.82	135.44
399.044	127.44
399.268	132.44
399.492	154.44
399.717	130.44
399.941	132.44
400.165	135.44
400.389	138.44
400.613	134.44
400.837	122.44
401.062	124.44
401.286	113.44
401.51	142.44
401.734	119.44
401.958	120.44
402.182	129.44
402.406	123.44
402.63	131.44
402.854	120.44
403.078	137.44
403.302	160.44
403.526	161.44
403.75	153.44
403.974	150.44
404.198	157.44
404.422	152.44
404.645	148.44
404.869	156.44
405.093	135.44
405.317	125.44
405.541	146.44
405.765	147.44
405.988	132.44
406.212	152.44
406.436	136.44
406.66	153.44
406.883	152.44
407.107	140.44
407.331	137.44
407.555	149.44
407.778	138.44
408.002	150.44
408.226	125.44
408.449	134.44
408.673	132.44
408.896	147.44
409.12	125.44
409.344	126.44
409.567	128.44
409.791	140.44
410.014	133.44
410.238	104.44
410.461	121.44
410.685	124.44
410.908	116.44
411.132	127.44
411.355	142.44
411.578	125.44
411.802	143.44
412.025	125.44
412.249	126.44
412.472	129.44
412.695	113.44
412.919	134.44
413.142	140.44
413.365	130.44
413.589	129.44
413.812	136.44
414.035	129.44
414.258	132.44
414.482	138.44
414.705	143.44
414.928	130.44
415.151	126.44
415.374	130.44
415.597	123.44
415.821	112.44
416.044	120.44
416.267	124.44
416.49	138.44
416.713	126.44
416.936	131.44
417.159	129.44
417.382	132.44
417.605	140.44
417.828	133.44
418.051	137.44
418.274	141.44
418.497	134.44
418.72	108.44
418.943	156.44
419.166	143.44
419.389	128.44
419.611	135.44
419.834	138.44
420.057	144.44
420.28	136.44
420.503	137.44
420.726	124.44
420.948	124.44
421.171	136.44
421.394	129.44
421.617	128.44
421.839	118.44
422.062	128.44
422.285	122.44
422.507	142.44
422.73	131.44
422.953	136.44
423.175	134.44
423.398	121.44
423.621	134.44
423.843	146.44
424.066	126.44
424.288	130.44
424.511	130.44
424.733	124.44
424.956	125.44
425.178	136.44
425.401	146.44
425.623	159.44
425.846	148.44
426.068	132.44
426.291	137.44
426.513	149.44
426.735	131.44
426.958	128.44
427.18	150.44
427.402	162.44
427.625	168.44
427.847	158.44
428.069	126.44
428.292	130.44
428.514	133.44
428.736	124.44
428.958	132.44
429.181	144.44
429.403	126.44
429.625	137.44
429.847	118.44
430.069	134.44
430.292	117.44
430.514	132.44
430.736	137.44
430.958	136.44
431.18	136.44
431.402	100.44
431.624	120.44
431.846	133.44
432.068	113.44
432.29	112.44
432.512	152.44
432.734	148.44
432.956	133.44
433.178	129.44
433.4	115.44
433.622	115.44
433.844	113.44
434.066	140.44
434.287	128.44
434.509	126.44
434.731	142.44
434.953	124.44
435.175	122.44
435.397	128.44
435.618	128.44
435.84	121.44
436.062	133.44
436.284	128.44
436.505	115.44
436.727	129.44
436.949	119.44
437.17	120.44
437.392	128.44
437.614	124.44
437.835	130.44
438.057	126.44
438.278	141.44
438.5	147.44
438.721	170.44
438.943	126.44
439.165	113.44
439.386	122.44
439.608	126.44
439.829	124.44
440.05	122.44
440.272	112.44
440.493	126.44
440.715	142.44
440.936	156.44
441.158	121.44
441.379	126.44
441.6	120.44
441.822	141.44
442.043	130.44
442.264	129.44
442.486	120.44
442.707	126.44
442.928	105.44
443.149	126.44
443.371	132.44
443.592	132.44
443.813	136.44
444.034	115.44
444.255	114.44
444.476	128.44
444.698	126.44
444.919	147.44
445.14	272.44
445.361	198.44
445.582	139.44
445.803	136.44
446.024	130.44
446.245	144.44
446.466	122.44
446.687	143.44
446.908	134.44
447.129	132.44
447.35	122.44
447.571	136.44
447.792	120.44
448.013	142.44
448.234	110.44
448.455	103.44
448.675	122.44
448.896	118.44
449.117	143.44
449.338	129.44
449.559	123.44
449.779	132.44
450	131.44
450.221	118.44
450.442	134.44
450.662	108.44
450.883	125.44
451.104	134.44
451.324	126.44
451.545	130.44
451.766	113.44
451.986	120.44
452.207	120.44
452.428	119.44
452.648	126.44
452.869	128.44
453.089	131.44
453.31	130.44
453.53	122.44
453.751	105.44
453.971	120.44
454.192	120.44
454.412	117.44
454.633	117.44
454.853	128.44
455.073	128.44
455.294	120.44
455.514	106.44
455.734	132.44
455.955	146.44
456.175	128.44
456.395	112.44
456.616	130.44
456.836	111.44
457.056	112.44
457.276	117.44
457.497	107.44
457.717	112.44
457.937	106.44
458.157	108.44
458.377	126.44
458.598	120.44
458.818	121.44
459.038	117.44
459.258	122.44
459.478	123.44
459.698	142.44
459.918	125.44
460.138	128.44
460.358	119.44
460.578	121.44
460.798	125.44
461.018	117.44
461.238	130.44
461.458	124.44
461.678	125.44
461.898	130.44
462.118	119.44
462.338	137.44
462.558	129.44
462.777	132.44
462.997	121.44
463.217	137.44
463.437	144.44
463.657	136.44
463.876	126.44
464.096	139.44
464.316	132.44
464.536	147.44
464.755	143.44
464.975	139.44
465.195	131.44
465.414	140.44
465.634	137.44
465.854	128.44
466.073	130.44
466.293	122.44
466.512	130.44
466.732	128.44
466.951	149.44
467.171	143.44
467.391	123.44
467.61	142.44
467.829	134.44
468.049	134.44
468.268	124.44
468.488	136.44
468.707	118.44
468.927	137.44
469.146	140.44
469.365	141.44
469.585	134.44
469.804	124.44
470.023	144.44
470.243	137.44
470.462	137.44
470.681	130.44
470.901	119.44
471.12	141.44
471.339	139.44
471.558	137.44
471.777	133.44
471.997	143.44
472.216	136.44
472.435	152.44
472.654	140.44
472.873	143.44
473.092	132.44
473.311	140.44
473.53	129.44
473.749	140.44
473.968	124.44
474.187	134.44
474.406	120.44
474.625	137.44
474.844	138.44
475.063	135.44
475.282	139.44
475.501	149.44
475.72	150.44
475.939	163.44
476.158	141.44
476.377	149.44
476.596	172.44
476.814	177.44
477.033	160.44
477.252	150.44
477.471	137.44
477.69	137.44
477.908	149.44
478.127	136.44
478.346	146.44
478.564	161.44
478.783	132.44
479.002	140.44
479.22	173.44
479.439	167.44
479.658	159.44
479.876	151.44
480.095	136.44
480.313	157.44
480.532	138.44
480.751	128.44
480.969	149.44
481.188	147.44
481.406	167.44
481.624	146.44
481.843	133.44
482.061	131.44
482.28	155.44
482.498	164.44
482.717	172.44
482.935	152.44
483.153	138.44
483.372	136.44
483.59	125.44
483.808	138.44
484.027	137.44
484.245	133.44
484.463	132.44
484.681	146.44
484.9	144.44
485.118	153.44
485.336	138.44
485.554	147.44
485.772	144.44
485.99	141.44
486.209	146.44
486.427	133.44
486.645	143.44
486.863	153.44
487.081	167.44
487.299	150.44
487.517	174.44
487.735	143.44
487.953	146.44
488.171	155.44
488.389	145.44
488.607	144.44
488.825	143.44
489.043	156.44
489.261	183.44
489.479	170.44
489.696	143.44
489.914	145.44
490.132	142.44
490.35	148.44
490.568	135.44
490.786	146.44
491.003	135.44
491.221	143.44
491.439	154.44
491.657	149.44
491.874	158.44
492.092	174.44
492.31	176.44
492.527	202.44
492.745	159.44
492.963	161.44
493.18	161.44
493.398	148.44
493.615	153.44
493.833	148.44
494.05	149.44
494.268	156.44
494.485	161.44
494.703	153.44
494.92	136.44
495.138	144.44
495.355	166.44
495.573	161.44
495.79	170.44
496.008	203.44
496.225	169.44
496.442	148.44
496.66	146.44
496.877	152.44
497.094	150.44
497.312	149.44
497.529	167.44
497.746	150.44
497.963	159.44
498.181	157.44
498.398	156.44
498.615	160.44
498.832	175.44
499.049	171.44
499.267	186.44
499.484	167.44
499.701	173.44
499.918	169.44
500.135	192.44
500.352	187.44
500.569	182.44
500.786	194.44
501.003	197.44
501.22	160.44
501.437	171.44
501.654	175.44
501.871	175.44
502.088	170.44
502.305	148.44
502.522	160.44
502.739	173.44
502.956	156.44
503.172	149.44
503.389	160.44
503.606	148.44
503.823	145.44
504.04	147.44
504.256	167.44
504.473	157.44
504.69	161.44
504.907	159.44
505.123	147.44
505.34	155.44
505.557	154.44
505.773	160.44
505.99	151.44
506.207	173.44
506.423	150.44
506.64	162.44
506.856	165.44
507.073	164.44
507.289	162.44
507.506	168.44
507.722	159.44
507.939	175.44
508.155	172.44
508.372	152.44
508.588	141.44
508.805	156.44
509.021	144.44
509.238	160.44
509.454	157.44
509.67	133.44
509.887	164.44
510.103	166.44
510.319	170.44
510.536	157.44
510.752	140.44
510.968	129.44
511.184	142.44
511.401	152.44
511.617	126.44
511.833	134.44
512.049	137.44
512.265	142.44
512.481	144.44
512.698	159.44
512.914	165.44
513.13	172.44
513.346	154.44
513.562	163.44
513.778	167.44
513.994	145.44
514.21	156.44
514.426	134.44
514.642	150.44
514.858	141.44
515.074	156.44
515.29	151.44
515.506	168.44
515.721	156.44
515.937	173.44
516.153	161.44
516.369	152.44
516.585	150.44
516.801	159.44
517.016	164.44
517.232	170.44
517.448	167.44
517.664	135.44
517.879	172.44
518.095	152.44
518.311	150.44
518.527	177.44
518.742	173.44
518.958	172.44
519.173	161.44
519.389	163.44
519.605	156.44
519.82	175.44
520.036	169.44
520.251	180.44
520.467	182.44
520.682	232.44
520.898	254.44
521.113	254.44
521.329	192.44
521.544	174.44
521.76	174.44
521.975	164.44
522.19	166.44
522.406	164.44
522.621	188.44
522.836	175.44
523.052	177.44
523.267	167.44
523.482	149.44
523.698	160.44
523.913	170.44
524.128	158.44
524.343	150.44
524.559	155.44
524.774	156.44
524.989	159.44
525.204	156.44
525.419	156.44
525.634	164.44
525.849	154.44
526.064	145.44
526.28	165.44
526.495	168.44
526.71	186.44
526.925	160.44
527.14	170.44
527.355	161.44
527.57	159.44
527.785	156.44
527.999	155.44
528.214	149.44
528.429	158.44
528.644	137.44
528.859	138.44
529.074	146.44
529.289	145.44
529.503	143.44
529.718	150.44
529.933	157.44
530.148	152.44
530.363	137.44
530.577	150.44
530.792	140.44
531.007	139.44
531.221	142.44
531.436	150.44
531.651	152.44
531.865	136.44
532.08	136.44
532.295	146.44
532.509	158.44
532.724	170.44
532.938	171.44
533.153	189.44
533.367	157.44
533.582	142.44
533.796	151.44
534.011	153.44
534.225	137.44
534.44	144.44
534.654	136.44
534.868	158.44
535.083	152.44
535.297	145.44
535.511	138.44
535.726	133.44
535.94	146.44
536.154	141.44
536.369	150.44
536.583	160.44
536.797	134.44
537.011	153.44
537.225	154.44
537.44	150.44
537.654	148.44
537.868	151.44
538.082	149.44
538.296	134.44
538.51	160.44
538.724	154.44
538.938	145.44
539.153	135.44
539.367	140.44
539.581	136.44
539.795	153.44
540.009	157.44
540.222	143.44
540.436	145.44
540.65	150.44
540.864	159.44
541.078	158.44
541.292	175.44
541.506	146.44
541.72	154.44
541.934	147.44
542.147	144.44
542.361	166.44
542.575	159.44
542.789	136.44
543.002	133.44
543.216	141.44
543.43	137.44
543.644	140.44
543.857	128.44
544.071	134.44
544.285	125.44
544.498	136.44
544.712	132.44
544.925	132.44
545.139	139.44
545.352	135.44
545.566	134.44
545.779	136.44
545.993	139.44
546.206	134.44
546.42	136.44
546.633	124.44
546.847	142.44
547.06	136.44
547.274	128.44
547.487	127.44
547.7	143.44
547.914	151.44
548.127	145.44
548.34	154.44
548.554	130.44
548.767	139.44
548.98	153.44
549.193	145.44
549.407	143.44
549.62	146.44
549.833	160.44
550.046	153.44
550.259	143.44
550.473	152.44
550.686	130.44
550.899	140.44
551.112	138.44
551.325	139.44
551.538	136.44
551.751	143.44
551.964	133.44
552.177	139.44
552.39	144.44
552.603	131.44
552.816	157.44
553.029	140.44
553.242	124.44
553.455	136.44
553.667	135.44
553.88	145.44
554.093	143.44
554.306	137.44
554.519	109.44
554.732	133.44
554.944	123.44
555.157	125.44
555.37	112.44
555.583	113.44
555.795	130.44
556.008	130.44
556.221	134.44
556.433	127.44
556.646	121.44
556.859	133.44
557.071	124.44
557.284	145.44
557.496	135.44
557.709	146.44
557.921	130.44
558.134	124.44
558.346	114.44
558.559	120.44
558.771	122.44
558.984	131.44
559.196	123.44
559.409	113.44
559.621	109.44
559.833	108.44
560.046	138.44
560.258	128.44
560.47	129.44
560.683	125.44
560.895	114.44
561.107	122.44
561.32	136.44
561.532	123.44
561.744	140.44
561.956	151.44
562.168	114.44
562.381	130.44
562.593	132.44
562.805	122.44
563.017	126.44
563.229	116.44
563.441	118.44
563.653	107.44
563.865	121.44
564.077	108.44
564.289	120.44
564.501	128.44
564.713	121.44
564.925	132.44
565.137	128.44
565.349	111.44
565.561	120.44
565.773	111.44
565.985	110.44
566.197	110.44
566.408	143.44
566.62	140.44
566.832	118.44
567.044	130.44
567.255	125.44
567.467	136.44
567.679	112.44
567.891	120.44
568.102	138.44
568.314	137.44
568.526	126.44
568.737	122.44
568.949	128.44
569.161	121.44
569.372	141.44
569.584	114.44
569.795	127.44
570.007	122.44
570.218	128.44
570.43	143.44
570.641	120.44
570.853	120.44
571.064	104.44
571.276	124.44
571.487	129.44
571.698	107.44
571.91	123.44
572.121	119.44
572.333	129.44
572.544	107.44
572.755	125.44
572.966	117.44
573.178	135.44
573.389	129.44
573.6	119.44
573.811	102.44
574.023	104.44
574.234	122.44
574.445	125.44
574.656	113.44
574.867	118.44
575.078	106.44
575.289	100.44
575.501	128.44
575.712	124.44
575.923	116.44
576.134	113.44
576.345	108.44
576.556	114.44
576.767	117.44
576.978	110.44
577.188	107.44
577.399	125.44
577.61	108.44
577.821	109.44
578.032	109.44
578.243	119.44
578.454	118.44
578.665	117.44
578.875	117.44
579.086	116.44
579.297	96.44
579.508	125.44
579.718	111.44
579.929	121.44
580.14	113.44
580.35	127.44
580.561	111.44
580.772	110.44
580.982	107.44
581.193	95.44
581.403	125.44
581.614	108.44
581.825	106.44
582.035	103.44
582.246	120.44
582.456	112.44
582.667	101.44
582.877	110.44
583.087	107.44
583.298	110.44
583.508	106.44
583.719	119.44
583.929	103.44
584.139	113.44
584.35	107.44
584.56	105.44
584.77	105.44
584.981	117.44
585.191	102.44
585.401	108.44
585.611	109.44
585.821	115.44
586.032	108.44
586.242	116.44
586.452	102.44
586.662	120.44
586.872	112.44
587.082	125.44
587.292	113.44
587.502	112.44
587.713	111.44
587.923	128.44
588.133	111.44
588.343	110.44
588.553	104.44
588.762	108.44
588.972	99.44
589.182	113.44
589.392	97.44
589.602	104.44
589.812	118.44
590.022	128.44
590.232	86.44
590.441	110.44
590.651	102.44
590.861	111.44
591.071	114.44
591.281	113.44
591.49	107.44
591.7	118.44
591.91	103.44
592.119	97.44
592.329	107.44
592.539	124.44
592.748	111.44
592.958	104.44
593.167	111.44
593.377	113.44
593.587	120.44
593.796	112.44
594.006	102.44
594.215	114.44
594.424	104.44
594.634	119.44
594.843	113.44
595.053	109.44
595.262	101.44
595.472	98.44
595.681	101.44
595.89	111.44
596.1	116.44
596.309	127.44
596.518	123.44
596.727	125.44
596.937	118.44
597.146	100.44
597.355	97.44
597.564	106.44
597.774	98.44
597.983	100.44
598.192	104.44
598.401	101.44
598.61	118.44
598.819	97.44
599.028	111.44
599.237	91.44
599.446	90.44
599.655	95.44
599.864	85.44
600.073	91.44
600.282	97.44
600.491	91.44
600.7	110.44
600.909	92.44
601.118	98.44
601.327	97.44
601.536	102.44
601.745	95.44
601.953	111.44
602.162	114.44
602.371	116.44
602.58	123.44
602.789	100.44
602.997	110.44
603.206	106.44
603.415	101.44
603.623	103.44
603.832	113.44
604.041	94.44
604.249	106.44
604.458	112.44
604.666	99.44
604.875	96.44
605.084	100.44
605.292	108.44
605.501	114.44
605.709	87.44
605.918	103.44
606.126	121.44
606.334	98.44
606.543	107.44
606.751	97.44
606.96	100.44
607.168	85.44
607.376	110.44
607.585	125.44
607.793	116.44
608.001	103.44
608.21	96.44
608.418	102.44
608.626	101.44
608.834	94.44
609.043	104.44
609.251	104.44
609.459	99.44
609.667	98.44
609.875	109.44
610.083	93.44
610.291	94.44
610.499	104.44
610.707	92.44
610.916	96.44
611.124	95.44
611.332	122.44
611.54	100.44
611.748	95.44
611.955	104.44
612.163	94.44
612.371	103.44
612.579	107.44
612.787	105.44
612.995	101.44
613.203	101.44
613.411	91.44
613.618	98.44
613.826	105.44
614.034	106.44
614.242	90.44
614.449	103.44
614.657	124.44
614.865	113.44
615.072	113.44
615.28	102.44
615.488	100.44
615.695	118.44
615.903	114.44
616.111	105.44
616.318	107.44
616.526	90.44
616.733	92.44
616.941	98.44
617.148	99.44
617.356	102.44
617.563	108.44
617.771	94.44
617.978	88.44
618.185	102.44
618.393	108.44
618.6	94.44
618.807	97.44
619.015	110.44
619.222	90.44
619.429	104.44
619.637	104.44
619.844	108.44
620.051	111.44
620.258	101.44
620.466	97.44
620.673	94.44
620.88	93.44
621.087	86.44
621.294	91.44
621.501	90.44
621.708	93.44
621.915	92.44
622.122	98.44
622.329	98.44
622.536	86.44
622.743	86.44
622.95	104.44
623.157	92.44
623.364	105.44
623.571	98.44
623.778	95.44
623.985	94.44
624.192	81.44
624.399	103.44
624.606	121.44
624.812	111.44
625.019	97.44
625.226	100.44
625.433	102.44
625.639	104.44
625.846	107.44
626.053	109.44
626.259	106.44
626.466	112.44
626.673	103.44
626.879	95.44
627.086	91.44
627.293	101.44
627.499	95.44
627.706	107.44
627.912	106.44
628.119	102.44
628.325	113.44
628.532	102.44
628.738	108.44
628.945	104.44
629.151	97.44
629.357	99.44
629.564	100.44
629.77	96.44
629.976	105.44
630.183	98.44
630.389	96.44
630.595	102.44
630.802	107.44
631.008	89.44
631.214	103.44
631.42	94.44
631.627	85.44
631.833	93.44
632.039	96.44
632.245	95.44
632.451	98.44
632.657	105.44
632.863	102.44
633.069	100.44
633.275	85.44
633.481	85.44
633.688	100.44
633.893	98.44
634.099	103.44
634.305	86.44
634.511	77.44
634.717	93.44
634.923	95.44
635.129	98.44
635.335	112.44
635.541	97.44
635.747	93.44
635.952	105.44
636.158	96.44
636.364	111.44
636.57	92.44
636.775	97.44
636.981	97.44
637.187	88.44
637.392	82.44
637.598	102.44
637.804	95.44
638.009	89.44
638.215	88.44
638.421	98.44
638.626	96.44
638.832	91.44
639.037	96.44
639.243	93.44
639.448	76.44
639.654	100.44
639.859	97.44
640.065	96.44
640.27	94.44
640.475	105.44
640.681	96.44
640.886	92.44
641.091	96.44
641.297	88.44
641.502	96.44
641.707	87.44
641.913	97.44
642.118	80.44
642.323	85.44
642.528	89.44
642.733	90.44
642.939	97.44
643.144	84.44
643.349	90.44
643.554	101.44
643.759	117.44
643.964	88.44
644.169	87.44
644.374	100.44
644.579	96.44
644.784	103.44
644.989	105.44
645.194	105.44
645.399	86.44
645.604	108.44
645.809	84.44
646.014	98.44
646.219	85.44
646.423	97.44
646.628	89.44
646.833	86.44
647.038	86.44
647.243	88.44
647.447	91.44
647.652	100.44
647.857	97.44
648.062	90.44
648.266	87.44
648.471	104.44
648.676	88.44
648.88	95.44
649.085	89.44
649.289	94.44
649.494	100.44
649.698	104.44
649.903	98.44
650.107	94.44
650.312	102.44
650.516	88.44
650.721	87.44
650.925	93.44
651.13	90.44
651.334	79.44
651.539	92.44
651.743	86.44
651.947	92.44
652.152	92.44
652.356	106.44
652.56	98.44
652.764	101.44
652.969	96.44
653.173	101.44
653.377	76.44
653.581	86.44
653.785	88.44
653.99	90.44
654.194	80.44
654.398	83.44
654.602	94.44
654.806	85.44
655.01	86.44
655.214	88.44
655.418	87.44
655.622	95.44
655.826	93.44
656.03	78.44
656.234	93.44
656.438	88.44
656.642	81.44
656.846	80.44
657.049	102.44
657.253	98.44
657.457	95.44
657.661	85.44
657.865	78.44
658.068	99.44
658.272	88.44
658.476	76.44
658.68	88.44
658.883	79.44
659.087	96.44
659.291	104.44
659.494	88.44
659.698	98.44
659.901	88.44
660.105	90.44
660.309	86.44
660.512	87.44
660.716	92.44
660.919	84.44
661.123	75.44
661.326	88.44
661.53	80.44
661.733	76.44
661.936	76.44
662.14	79.44
662.343	97.44
662.546	89.44
662.75	89.44
662.953	89.44
663.156	89.44
663.36	83.44
663.563	94.44
663.766	95.44
663.969	78.44
664.173	98.44
664.376	97.44
664.579	101.44
664.782	99.44
664.985	85.44
665.188	76.44
665.391	101.44
665.594	89.44
665.797	82.44
666	88.44
666.203	92.44
666.406	89.44
666.609	93.44
666.812	95.44
667.015	83.44
667.218	85.44
667.421	95.44
667.624	88.44
667.827	84.44
668.03	93.44
668.232	79.44
668.435	84.44
668.638	84.44
668.841	83.44
669.043	80.44
669.246	76.44
669.449	93.44
669.651	105.44
669.854	88.44
670.057	78.44
670.259	79.44
670.462	82.44
670.665	94.44
670.867	89.44
671.07	96.44
671.272	102.44
671.475	80.44
671.677	88.44
671.88	82.44
672.082	86.44
672.284	87.44
672.487	76.44
672.689	75.44
672.892	76.44
