Data from NickelSpatula_HRD10591_16-36-06-126.txt Node
Date: Mon Jul 22 16:36:06 EDT 2019
User: cochatt
Spectrometer: HR+D1059
Trigger mode: 1
Integration Time (sec): 1.000000E-1
Scans to average: 1
Electric dark correction enabled: true
Nonlinearity correction enabled: false
Boxcar width: 0
XAxis mode: Wavelengths
Number of Pixels in Spectrum: 2048
>>>>>Begin Spectral Data<<<<<
223.165	-4.56
223.4	-4.56
223.635	-4.56
223.869	-24.56
224.104	-10.56
224.338	-6.56
224.573	-17.56
224.808	-10.56
225.042	-14.56
225.277	-9.56
225.511	18.44
225.746	2.44
225.98	-0.56
226.215	1.44
226.449	0.44
226.683	4.44
226.918	37.44
227.152	34.44
227.387	26.44
227.621	35.44
227.856	33.44
228.09	30.44
228.324	39.44
228.559	56.44
228.793	62.44
229.027	64.44
229.262	74.44
229.496	63.44
229.73	69.44
229.964	70.44
230.199	85.44
230.433	89.44
230.667	81.44
230.901	76.44
231.136	94.44
231.37	97.44
231.604	95.44
231.838	90.44
232.072	97.44
232.306	92.44
232.541	88.44
232.775	86.44
233.009	105.44
233.243	103.44
233.477	97.44
233.711	108.44
233.945	123.44
234.179	116.44
234.413	103.44
234.647	99.44
234.881	117.44
235.115	119.44
235.349	118.44
235.583	99.44
235.817	100.44
236.051	92.44
236.285	110.44
236.519	114.44
236.753	119.44
236.987	106.44
237.221	104.44
237.455	108.44
237.689	130.44
237.922	107.44
238.156	102.44
238.39	118.44
238.624	127.44
238.858	114.44
239.091	112.44
239.325	102.44
239.559	111.44
239.793	131.44
240.027	134.44
240.26	118.44
240.494	122.44
240.728	115.44
240.961	124.44
241.195	115.44
241.429	121.44
241.662	118.44
241.896	115.44
242.13	120.44
242.363	123.44
242.597	118.44
242.83	121.44
243.064	118.44
243.298	120.44
243.531	132.44
243.765	147.44
243.998	118.44
244.232	117.44
244.465	112.44
244.699	127.44
244.932	137.44
245.166	131.44
245.399	121.44
245.633	121.44
245.866	114.44
246.099	133.44
246.333	117.44
246.566	152.44
246.8	147.44
247.033	132.44
247.266	141.44
247.5	135.44
247.733	146.44
247.966	139.44
248.2	133.44
248.433	142.44
248.666	151.44
248.899	160.44
249.133	146.44
249.366	150.44
249.599	163.44
249.832	152.44
250.066	143.44
250.299	150.44
250.532	141.44
250.765	128.44
250.998	129.44
251.231	143.44
251.465	137.44
251.698	139.44
251.931	134.44
252.164	139.44
252.397	159.44
252.63	165.44
252.863	173.44
253.096	190.44
253.329	185.44
253.562	165.44
253.795	183.44
254.028	207.44
254.261	190.44
254.494	168.44
254.727	174.44
254.96	170.44
255.193	182.44
255.426	161.44
255.659	146.44
255.892	132.44
256.124	135.44
256.357	146.44
256.59	179.44
256.823	167.44
257.056	167.44
257.289	142.44
257.521	165.44
257.754	186.44
257.987	195.44
258.22	177.44
258.452	150.44
258.685	182.44
258.918	178.44
259.151	179.44
259.383	181.44
259.616	226.44
259.849	202.44
260.081	231.44
260.314	232.44
260.547	193.44
260.779	207.44
261.012	212.44
261.244	206.44
261.477	213.44
261.71	209.44
261.942	185.44
262.175	181.44
262.407	178.44
262.64	166.44
262.872	201.44
263.105	216.44
263.337	206.44
263.57	190.44
263.802	161.44
264.035	138.44
264.267	146.44
264.499	142.44
264.732	135.44
264.964	120.44
265.197	126.44
265.429	136.44
265.661	133.44
265.894	132.44
266.126	161.44
266.358	159.44
266.591	198.44
266.823	213.44
267.055	213.44
267.287	189.44
267.52	176.44
267.752	193.44
267.984	215.44
268.216	187.44
268.448	182.44
268.681	170.44
268.913	181.44
269.145	181.44
269.377	180.44
269.609	192.44
269.841	188.44
270.073	208.44
270.306	207.44
270.538	187.44
270.77	184.44
271.002	212.44
271.234	200.44
271.466	193.44
271.698	201.44
271.93	208.44
272.162	216.44
272.394	185.44
272.626	194.44
272.858	201.44
273.09	206.44
273.322	184.44
273.553	186.44
273.785	195.44
274.017	234.44
274.249	274.44
274.481	295.44
274.713	299.44
274.945	325.44
275.176	342.44
275.408	312.44
275.64	298.44
275.872	290.44
276.104	261.44
276.335	241.44
276.567	249.44
276.799	244.44
277.031	251.44
277.262	221.44
277.494	179.44
277.726	166.44
277.957	182.44
278.189	194.44
278.421	212.44
278.652	205.44
278.884	189.44
279.115	176.44
279.347	181.44
279.579	170.44
279.81	180.44
280.042	182.44
280.273	176.44
280.505	174.44
280.736	160.44
280.968	175.44
281.199	165.44
281.431	170.44
281.662	180.44
281.894	177.44
282.125	177.44
282.356	190.44
282.588	200.44
282.819	175.44
283.051	183.44
283.282	224.44
283.513	229.44
283.745	261.44
283.976	259.44
284.207	259.44
284.439	257.44
284.67	246.44
284.901	210.44
285.132	254.44
285.364	253.44
285.595	235.44
285.826	228.44
286.057	255.44
286.288	253.44
286.52	263.44
286.751	252.44
286.982	256.44
287.213	216.44
287.444	224.44
287.675	240.44
287.906	230.44
288.138	225.44
288.369	190.44
288.6	176.44
288.831	189.44
289.062	200.44
289.293	243.44
289.524	223.44
289.755	204.44
289.986	219.44
290.217	193.44
290.448	168.44
290.679	147.44
290.91	147.44
291.141	150.44
291.371	164.44
291.602	159.44
291.833	150.44
292.064	150.44
292.295	160.44
292.526	186.44
292.757	193.44
292.987	206.44
293.218	215.44
293.449	227.44
293.68	213.44
293.91	216.44
294.141	208.44
294.372	196.44
294.603	194.44
294.833	209.44
295.064	228.44
295.295	217.44
295.525	176.44
295.756	165.44
295.987	141.44
296.217	146.44
296.448	140.44
296.679	163.44
296.909	173.44
297.14	176.44
297.37	200.44
297.601	185.44
297.831	171.44
298.062	171.44
298.292	201.44
298.523	206.44
298.753	235.44
298.984	223.44
299.214	191.44
299.445	167.44
299.675	158.44
299.905	170.44
300.136	166.44
300.366	169.44
300.597	165.44
300.827	146.44
301.057	161.44
301.288	159.44
301.518	165.44
301.748	171.44
301.979	170.44
302.209	194.44
302.439	194.44
302.669	183.44
302.9	178.44
303.13	163.44
303.36	168.44
303.59	159.44
303.82	169.44
304.051	166.44
304.281	180.44
304.511	177.44
304.741	171.44
304.971	163.44
305.201	180.44
305.431	167.44
305.661	167.44
305.891	158.44
306.121	163.44
306.352	143.44
306.582	129.44
306.812	125.44
307.042	152.44
307.272	133.44
307.502	121.44
307.731	130.44
307.961	144.44
308.191	135.44
308.421	134.44
308.651	138.44
308.881	122.44
309.111	119.44
309.341	142.44
309.571	144.44
309.8	137.44
310.03	136.44
310.26	147.44
310.49	131.44
310.72	134.44
310.949	136.44
311.179	135.44
311.409	160.44
311.639	153.44
311.868	186.44
312.098	213.44
312.328	232.44
312.557	226.44
312.787	230.44
313.017	209.44
313.246	218.44
313.476	254.44
313.706	204.44
313.935	174.44
314.165	146.44
314.394	153.44
314.624	144.44
314.853	162.44
315.083	162.44
315.312	147.44
315.542	129.44
315.771	142.44
316.001	129.44
316.23	137.44
316.46	129.44
316.689	128.44
316.919	127.44
317.148	148.44
317.377	128.44
317.607	130.44
317.836	125.44
318.065	159.44
318.295	172.44
318.524	145.44
318.753	137.44
318.983	124.44
319.212	149.44
319.441	143.44
319.67	161.44
319.9	177.44
320.129	153.44
320.358	139.44
320.587	149.44
320.816	155.44
321.046	162.44
321.275	177.44
321.504	169.44
321.733	178.44
321.962	171.44
322.191	185.44
322.42	157.44
322.649	153.44
322.878	163.44
323.108	162.44
323.337	149.44
323.566	161.44
323.795	167.44
324.024	156.44
324.253	137.44
324.482	141.44
324.71	155.44
324.939	162.44
325.168	154.44
325.397	135.44
325.626	139.44
325.855	137.44
326.084	145.44
326.313	134.44
326.542	123.44
326.77	135.44
326.999	133.44
327.228	149.44
327.457	144.44
327.686	144.44
327.914	139.44
328.143	134.44
328.372	109.44
328.6	130.44
328.829	131.44
329.058	134.44
329.287	130.44
329.515	123.44
329.744	137.44
329.972	134.44
330.201	125.44
330.43	129.44
330.658	142.44
330.887	161.44
331.115	133.44
331.344	142.44
331.572	135.44
331.801	139.44
332.03	130.44
332.258	115.44
332.486	129.44
332.715	148.44
332.943	143.44
333.172	145.44
333.4	133.44
333.629	165.44
333.857	162.44
334.085	159.44
334.314	167.44
334.542	140.44
334.771	127.44
334.999	121.44
335.227	121.44
335.455	137.44
335.684	137.44
335.912	164.44
336.14	178.44
336.369	173.44
336.597	169.44
336.825	183.44
337.053	208.44
337.281	157.44
337.51	135.44
337.738	137.44
337.966	145.44
338.194	164.44
338.422	136.44
338.65	134.44
338.878	129.44
339.106	142.44
339.334	152.44
339.562	145.44
339.79	126.44
340.018	144.44
340.246	161.44
340.474	177.44
340.702	189.44
340.93	187.44
341.158	181.44
341.386	149.44
341.614	155.44
341.842	162.44
342.07	162.44
342.298	193.44
342.526	189.44
342.754	169.44
342.981	141.44
343.209	151.44
343.437	164.44
343.665	157.44
343.893	162.44
344.12	186.44
344.348	193.44
344.576	183.44
344.804	150.44
345.031	151.44
345.259	135.44
345.487	151.44
345.714	149.44
345.942	155.44
346.17	163.44
346.397	177.44
346.625	148.44
346.853	137.44
347.08	137.44
347.308	150.44
347.535	164.44
347.763	153.44
347.99	138.44
348.218	137.44
348.445	145.44
348.673	133.44
348.9	142.44
349.128	148.44
349.355	145.44
349.583	148.44
349.81	141.44
350.037	153.44
350.265	132.44
350.492	123.44
350.72	134.44
350.947	132.44
351.174	142.44
351.402	149.44
351.629	138.44
351.856	138.44
352.083	135.44
352.311	149.44
352.538	161.44
352.765	151.44
352.992	149.44
353.22	134.44
353.447	162.44
353.674	146.44
353.901	160.44
354.128	142.44
354.355	137.44
354.583	147.44
354.81	161.44
355.037	159.44
355.264	153.44
355.491	158.44
355.718	171.44
355.945	191.44
356.172	179.44
356.399	156.44
356.626	185.44
356.853	223.44
357.08	221.44
357.307	221.44
357.534	196.44
357.761	186.44
357.988	224.44
358.215	253.44
358.441	243.44
358.668	208.44
358.895	211.44
359.122	177.44
359.349	203.44
359.576	167.44
359.802	165.44
360.029	133.44
360.256	167.44
360.483	177.44
360.709	195.44
360.936	237.44
361.163	206.44
361.39	154.44
361.616	162.44
361.843	168.44
362.07	202.44
362.296	185.44
362.523	160.44
362.749	141.44
362.976	146.44
363.203	168.44
363.429	177.44
363.656	158.44
363.882	153.44
364.109	141.44
364.335	160.44
364.562	157.44
364.788	154.44
365.015	175.44
365.241	162.44
365.468	137.44
365.694	121.44
365.92	139.44
366.147	138.44
366.373	147.44
366.599	132.44
366.826	133.44
367.052	140.44
367.278	130.44
367.505	123.44
367.731	122.44
367.957	152.44
368.184	135.44
368.41	155.44
368.636	162.44
368.862	172.44
369.089	157.44
369.315	141.44
369.541	138.44
369.767	137.44
369.993	129.44
370.219	125.44
370.445	146.44
370.672	143.44
370.898	150.44
371.124	170.44
371.35	149.44
371.576	148.44
371.802	155.44
372.028	161.44
372.254	181.44
372.48	143.44
372.706	169.44
372.932	151.44
373.158	157.44
373.384	192.44
373.61	231.44
373.835	226.44
374.061	162.44
374.287	159.44
374.513	202.44
374.739	202.44
374.965	215.44
375.191	181.44
375.416	166.44
375.642	149.44
375.868	174.44
376.094	191.44
376.319	171.44
376.545	183.44
376.771	168.44
376.997	171.44
377.222	131.44
377.448	133.44
377.674	126.44
377.899	120.44
378.125	127.44
378.35	119.44
378.576	133.44
378.802	130.44
379.027	135.44
379.253	145.44
379.478	134.44
379.704	165.44
379.929	148.44
380.155	163.44
380.38	153.44
380.606	143.44
380.831	162.44
381.057	163.44
381.282	146.44
381.507	181.44
381.733	214.44
381.958	191.44
382.184	205.44
382.409	213.44
382.634	233.44
382.86	202.44
383.085	176.44
383.31	167.44
383.535	168.44
383.761	166.44
383.986	168.44
384.211	176.44
384.436	198.44
384.662	146.44
384.887	151.44
385.112	143.44
385.337	136.44
385.562	151.44
385.787	159.44
386.013	174.44
386.238	183.44
386.463	150.44
386.688	133.44
386.913	135.44
387.138	135.44
387.363	139.44
387.588	157.44
387.813	153.44
388.038	159.44
388.263	153.44
388.488	139.44
388.713	165.44
388.938	177.44
389.163	149.44
389.387	143.44
389.612	127.44
389.837	140.44
390.062	140.44
390.287	145.44
390.512	148.44
390.736	135.44
390.961	133.44
391.186	128.44
391.411	134.44
391.636	123.44
391.86	144.44
392.085	150.44
392.31	162.44
392.534	131.44
392.759	133.44
392.984	129.44
393.208	146.44
393.433	123.44
393.658	125.44
393.882	123.44
394.107	126.44
394.331	114.44
394.556	126.44
394.78	134.44
395.005	135.44
395.229	140.44
395.454	144.44
395.678	137.44
395.903	135.44
396.127	145.44
396.352	158.44
396.576	145.44
396.801	149.44
397.025	149.44
397.249	171.44
397.474	147.44
397.698	141.44
397.922	131.44
398.147	125.44
398.371	164.44
398.595	152.44
398.82	151.44
399.044	132.44
399.268	148.44
399.492	155.44
399.717	133.44
399.941	146.44
400.165	149.44
400.389	135.44
400.613	136.44
400.837	144.44
401.062	133.44
401.286	125.44
401.51	142.44
401.734	142.44
401.958	132.44
402.182	129.44
402.406	131.44
402.63	133.44
402.854	143.44
403.078	165.44
403.302	182.44
403.526	178.44
403.75	171.44
403.974	140.44
404.198	159.44
404.422	198.44
404.645	186.44
404.869	203.44
405.093	155.44
405.317	164.44
405.541	149.44
405.765	142.44
405.988	146.44
406.212	166.44
406.436	187.44
406.66	187.44
406.883	182.44
407.107	162.44
407.331	188.44
407.555	166.44
407.778	145.44
408.002	156.44
408.226	146.44
408.449	135.44
408.673	149.44
408.896	135.44
409.12	123.44
409.344	131.44
409.567	122.44
409.791	139.44
410.014	128.44
410.238	129.44
410.461	132.44
410.685	132.44
410.908	154.44
411.132	139.44
411.355	138.44
411.578	136.44
411.802	145.44
412.025	151.44
412.249	173.44
412.472	138.44
412.695	134.44
412.919	141.44
413.142	133.44
413.365	164.44
413.589	152.44
413.812	142.44
414.035	140.44
414.258	143.44
414.482	150.44
414.705	153.44
414.928	142.44
415.151	123.44
415.374	136.44
415.597	137.44
415.821	155.44
416.044	132.44
416.267	130.44
416.49	129.44
416.713	149.44
416.936	127.44
417.159	106.44
417.382	133.44
417.605	134.44
417.828	160.44
418.051	150.44
418.274	145.44
418.497	147.44
418.72	155.44
418.943	138.44
419.166	154.44
419.389	144.44
419.611	164.44
419.834	148.44
420.057	158.44
420.28	152.44
420.503	153.44
420.726	132.44
420.948	146.44
421.171	129.44
421.394	129.44
421.617	124.44
421.839	138.44
422.062	129.44
422.285	140.44
422.507	134.44
422.73	157.44
422.953	149.44
423.175	137.44
423.398	162.44
423.621	167.44
423.843	157.44
424.066	149.44
424.288	145.44
424.511	146.44
424.733	145.44
424.956	144.44
425.178	159.44
425.401	189.44
425.623	175.44
425.846	182.44
426.068	139.44
426.291	160.44
426.513	143.44
426.735	139.44
426.958	165.44
427.18	167.44
427.402	210.44
427.625	202.44
427.847	186.44
428.069	145.44
428.292	139.44
428.514	138.44
428.736	146.44
428.958	136.44
429.181	164.44
429.403	151.44
429.625	145.44
429.847	145.44
430.069	152.44
430.292	153.44
430.514	129.44
430.736	144.44
430.958	170.44
431.18	159.44
431.402	133.44
431.624	149.44
431.846	130.44
432.068	127.44
432.29	133.44
432.512	142.44
432.734	176.44
432.956	168.44
433.178	134.44
433.4	139.44
433.622	130.44
433.844	157.44
434.066	135.44
434.287	146.44
434.509	145.44
434.731	151.44
434.953	130.44
435.175	154.44
435.397	158.44
435.618	138.44
435.84	143.44
436.062	137.44
436.284	132.44
436.505	127.44
436.727	113.44
436.949	135.44
437.17	136.44
437.392	122.44
437.614	146.44
437.835	153.44
438.057	136.44
438.278	145.44
438.5	191.44
438.721	189.44
438.943	131.44
439.165	143.44
439.386	115.44
439.608	117.44
439.829	127.44
440.05	136.44
440.272	127.44
440.493	147.44
440.715	161.44
440.936	150.44
441.158	120.44
441.379	129.44
441.6	146.44
441.822	138.44
442.043	126.44
442.264	132.44
442.486	130.44
442.707	133.44
442.928	149.44
443.149	135.44
443.371	139.44
443.592	132.44
443.813	142.44
444.034	125.44
444.255	153.44
444.476	153.44
444.698	138.44
444.919	139.44
445.14	283.44
445.361	201.44
445.582	166.44
445.803	144.44
446.024	158.44
446.245	150.44
446.466	159.44
446.687	131.44
446.908	129.44
447.129	132.44
447.35	125.44
447.571	134.44
447.792	129.44
448.013	127.44
448.234	129.44
448.455	130.44
448.675	113.44
448.896	124.44
449.117	129.44
449.338	139.44
449.559	133.44
449.779	134.44
450	132.44
450.221	126.44
450.442	148.44
450.662	127.44
450.883	155.44
451.104	137.44
451.324	133.44
451.545	128.44
451.766	131.44
451.986	130.44
452.207	126.44
452.428	121.44
452.648	139.44
452.869	138.44
453.089	137.44
453.31	125.44
453.53	126.44
453.751	125.44
453.971	136.44
454.192	126.44
454.412	139.44
454.633	137.44
454.853	139.44
455.073	128.44
455.294	120.44
455.514	121.44
455.734	123.44
455.955	125.44
456.175	151.44
456.395	125.44
456.616	120.44
456.836	122.44
457.056	124.44
457.276	121.44
457.497	112.44
457.717	104.44
457.937	115.44
458.157	131.44
458.377	120.44
458.598	114.44
458.818	124.44
459.038	142.44
459.258	115.44
459.478	130.44
459.698	152.44
459.918	129.44
460.138	129.44
460.358	139.44
460.578	124.44
460.798	136.44
461.018	143.44
461.238	133.44
461.458	136.44
461.678	130.44
461.898	138.44
462.118	144.44
462.338	135.44
462.558	139.44
462.777	145.44
462.997	146.44
463.217	169.44
463.437	144.44
463.657	153.44
463.876	121.44
464.096	131.44
464.316	162.44
464.536	143.44
464.755	157.44
464.975	152.44
465.195	129.44
465.414	155.44
465.634	141.44
465.854	131.44
466.073	135.44
466.293	137.44
466.512	139.44
466.732	141.44
466.951	166.44
467.171	153.44
467.391	157.44
467.61	135.44
467.829	132.44
468.049	146.44
468.268	128.44
468.488	139.44
468.707	146.44
468.927	164.44
469.146	168.44
469.365	138.44
469.585	161.44
469.804	152.44
470.023	153.44
470.243	139.44
470.462	151.44
470.681	136.44
470.901	158.44
471.12	165.44
471.339	151.44
471.558	150.44
471.777	135.44
471.997	139.44
472.216	150.44
472.435	155.44
472.654	149.44
472.873	157.44
473.092	152.44
473.311	161.44
473.53	147.44
473.749	142.44
473.968	144.44
474.187	148.44
474.406	147.44
474.625	130.44
474.844	157.44
475.063	161.44
475.282	168.44
475.501	167.44
475.72	177.44
475.939	163.44
476.158	150.44
476.377	181.44
476.596	196.44
476.814	202.44
477.033	188.44
477.252	160.44
477.471	133.44
477.69	141.44
477.908	157.44
478.127	153.44
478.346	147.44
478.564	189.44
478.783	175.44
479.002	159.44
479.22	177.44
479.439	175.44
479.658	178.44
479.876	140.44
480.095	166.44
480.313	178.44
480.532	152.44
480.751	149.44
480.969	150.44
481.188	171.44
481.406	162.44
481.624	153.44
481.843	177.44
482.061	145.44
482.28	165.44
482.498	214.44
482.717	202.44
482.935	177.44
483.153	165.44
483.372	141.44
483.59	135.44
483.808	144.44
484.027	157.44
484.245	144.44
484.463	150.44
484.681	155.44
484.9	165.44
485.118	160.44
485.336	162.44
485.554	145.44
485.772	161.44
485.99	178.44
486.209	182.44
486.427	178.44
486.645	157.44
486.863	170.44
487.081	175.44
487.299	187.44
487.517	203.44
487.735	158.44
487.953	175.44
488.171	189.44
488.389	175.44
488.607	165.44
488.825	170.44
489.043	178.44
489.261	209.44
489.479	211.44
489.696	186.44
489.914	153.44
490.132	168.44
490.35	167.44
490.568	165.44
490.786	157.44
491.003	163.44
491.221	157.44
491.439	168.44
491.657	160.44
491.874	181.44
492.092	213.44
492.31	271.44
492.527	232.44
492.745	201.44
492.963	173.44
493.18	161.44
493.398	173.44
493.615	178.44
493.833	167.44
494.05	164.44
494.268	175.44
494.485	165.44
494.703	169.44
494.92	169.44
495.138	173.44
495.355	169.44
495.573	179.44
495.79	195.44
496.008	250.44
496.225	216.44
496.442	175.44
496.66	207.44
496.877	191.44
497.094	189.44
497.312	170.44
497.529	166.44
497.746	177.44
497.963	189.44
498.181	186.44
498.398	209.44
498.615	203.44
498.832	222.44
499.049	209.44
499.267	185.44
499.484	182.44
499.701	194.44
499.918	231.44
500.135	223.44
500.352	216.44
500.569	238.44
500.786	232.44
501.003	233.44
501.22	210.44
501.437	196.44
501.654	202.44
501.871	201.44
502.088	201.44
502.305	183.44
502.522	188.44
502.739	194.44
502.956	193.44
503.172	185.44
503.389	165.44
503.606	170.44
503.823	153.44
504.04	200.44
504.256	191.44
504.473	164.44
504.69	171.44
504.907	166.44
505.123	192.44
505.34	194.44
505.557	179.44
505.773	193.44
505.99	173.44
506.207	188.44
506.423	163.44
506.64	169.44
506.856	178.44
507.073	195.44
507.289	175.44
507.506	190.44
507.722	177.44
507.939	195.44
508.155	199.44
508.372	175.44
508.588	177.44
508.805	148.44
509.021	158.44
509.238	163.44
509.454	154.44
509.67	166.44
509.887	165.44
510.103	200.44
510.319	192.44
510.536	154.44
510.752	153.44
510.968	148.44
511.184	162.44
511.401	153.44
511.617	141.44
511.833	152.44
512.049	178.44
512.265	155.44
512.481	165.44
512.698	176.44
512.914	188.44
513.13	191.44
513.346	158.44
513.562	177.44
513.778	176.44
513.994	177.44
514.21	175.44
514.426	173.44
514.642	149.44
514.858	165.44
515.074	186.44
515.29	173.44
515.506	182.44
515.721	196.44
515.937	167.44
516.153	161.44
516.369	181.44
516.585	176.44
516.801	207.44
517.016	231.44
517.232	208.44
517.448	195.44
517.664	181.44
517.879	188.44
518.095	185.44
518.311	185.44
518.527	185.44
518.742	199.44
518.958	192.44
519.173	186.44
519.389	201.44
519.605	202.44
519.82	205.44
520.036	221.44
520.251	226.44
520.467	216.44
520.682	335.44
520.898	408.44
521.113	385.44
521.329	265.44
521.544	217.44
521.76	205.44
521.975	175.44
522.19	186.44
522.406	189.44
522.621	189.44
522.836	224.44
523.052	221.44
523.267	186.44
523.482	192.44
523.698	197.44
523.913	200.44
524.128	170.44
524.343	170.44
524.559	158.44
524.774	170.44
524.989	177.44
525.204	182.44
525.419	184.44
525.634	174.44
525.849	181.44
526.064	185.44
526.28	190.44
526.495	182.44
526.71	209.44
526.925	202.44
527.14	206.44
527.355	208.44
527.57	164.44
527.785	194.44
527.999	177.44
528.214	166.44
528.429	180.44
528.644	174.44
528.859	159.44
529.074	145.44
529.289	150.44
529.503	164.44
529.718	163.44
529.933	203.44
530.148	198.44
530.363	168.44
530.577	148.44
530.792	148.44
531.007	156.44
531.221	164.44
531.436	170.44
531.651	154.44
531.865	165.44
532.08	177.44
532.295	150.44
532.509	161.44
532.724	186.44
532.938	219.44
533.153	235.44
533.367	194.44
533.582	166.44
533.796	168.44
534.011	162.44
534.225	183.44
534.44	151.44
534.654	176.44
534.868	207.44
535.083	196.44
535.297	164.44
535.511	174.44
535.726	162.44
535.94	164.44
536.154	143.44
536.369	157.44
536.583	162.44
536.797	166.44
537.011	177.44
537.225	193.44
537.44	170.44
537.654	165.44
537.868	152.44
538.082	173.44
538.296	170.44
538.51	179.44
538.724	163.44
538.938	156.44
539.153	159.44
539.367	157.44
539.581	168.44
539.795	172.44
540.009	175.44
540.222	177.44
540.436	176.44
540.65	174.44
540.864	189.44
541.078	192.44
541.292	216.44
541.506	174.44
541.72	179.44
541.934	180.44
542.147	179.44
542.361	160.44
542.575	155.44
542.789	151.44
543.002	153.44
543.216	163.44
543.43	166.44
543.644	161.44
543.857	154.44
544.071	139.44
544.285	152.44
544.498	137.44
544.712	163.44
544.925	163.44
545.139	146.44
545.352	137.44
545.566	140.44
545.779	156.44
545.993	146.44
546.206	140.44
546.42	145.44
546.633	153.44
546.847	146.44
547.06	142.44
547.274	138.44
547.487	141.44
547.7	163.44
547.914	152.44
548.127	169.44
548.34	153.44
548.554	152.44
548.767	150.44
548.98	151.44
549.193	146.44
549.407	146.44
549.62	165.44
549.833	147.44
550.046	173.44
550.259	166.44
550.473	153.44
550.686	183.44
550.899	154.44
551.112	149.44
551.325	161.44
551.538	164.44
551.751	146.44
551.964	154.44
552.177	141.44
552.39	144.44
552.603	145.44
552.816	145.44
553.029	136.44
553.242	159.44
553.455	162.44
553.667	152.44
553.88	161.44
554.093	160.44
554.306	127.44
554.519	128.44
554.732	133.44
554.944	135.44
555.157	130.44
555.37	136.44
555.583	125.44
555.795	132.44
556.008	136.44
556.221	131.44
556.433	140.44
556.646	145.44
556.859	134.44
557.071	135.44
557.284	142.44
557.496	140.44
557.709	141.44
557.921	137.44
558.134	131.44
558.346	129.44
558.559	137.44
558.771	139.44
558.984	144.44
559.196	122.44
559.409	118.44
559.621	125.44
559.833	127.44
560.046	125.44
560.258	115.44
560.47	145.44
560.683	140.44
560.895	121.44
561.107	135.44
561.32	127.44
561.532	130.44
561.744	134.44
561.956	150.44
562.168	131.44
562.381	133.44
562.593	137.44
562.805	117.44
563.017	119.44
563.229	129.44
563.441	123.44
563.653	122.44
563.865	125.44
564.077	120.44
564.289	123.44
564.501	130.44
564.713	138.44
564.925	130.44
565.137	140.44
565.349	133.44
565.561	119.44
565.773	130.44
565.985	134.44
566.197	138.44
566.408	136.44
566.62	142.44
566.832	140.44
567.044	138.44
567.255	135.44
567.467	125.44
567.679	134.44
567.891	143.44
568.102	135.44
568.314	137.44
568.526	138.44
568.737	135.44
568.949	159.44
569.161	123.44
569.372	114.44
569.584	113.44
569.795	130.44
570.007	139.44
570.218	141.44
570.43	135.44
570.641	142.44
570.853	117.44
571.064	132.44
571.276	138.44
571.487	125.44
571.698	127.44
571.91	130.44
572.121	126.44
572.333	125.44
572.544	130.44
572.755	116.44
572.966	117.44
573.178	116.44
573.389	101.44
573.6	121.44
573.811	115.44
574.023	128.44
574.234	115.44
574.445	131.44
574.656	111.44
574.867	99.44
575.078	119.44
575.289	128.44
575.501	137.44
575.712	127.44
575.923	123.44
576.134	116.44
576.345	105.44
576.556	125.44
576.767	127.44
576.978	125.44
577.188	118.44
577.399	115.44
577.61	104.44
577.821	117.44
578.032	130.44
578.243	116.44
578.454	125.44
578.665	115.44
578.875	114.44
579.086	127.44
579.297	126.44
579.508	118.44
579.718	130.44
579.929	133.44
580.14	119.44
580.35	111.44
580.561	110.44
580.772	118.44
580.982	113.44
581.193	106.44
581.403	110.44
581.614	98.44
581.825	116.44
582.035	107.44
582.246	115.44
582.456	111.44
582.667	120.44
582.877	106.44
583.087	98.44
583.298	104.44
583.508	112.44
583.719	94.44
583.929	113.44
584.139	96.44
584.35	105.44
584.56	112.44
584.77	119.44
584.981	120.44
585.191	127.44
585.401	104.44
585.611	102.44
585.821	111.44
586.032	117.44
586.242	111.44
586.452	121.44
586.662	99.44
586.872	95.44
587.082	117.44
587.292	114.44
587.502	114.44
587.713	110.44
587.923	107.44
588.133	113.44
588.343	121.44
588.553	109.44
588.762	121.44
588.972	102.44
589.182	111.44
589.392	115.44
589.602	110.44
589.812	112.44
590.022	123.44
590.232	117.44
590.441	112.44
590.651	107.44
590.861	103.44
591.071	110.44
591.281	118.44
591.49	113.44
591.7	111.44
591.91	101.44
592.119	91.44
592.329	98.44
592.539	97.44
592.748	96.44
592.958	114.44
593.167	106.44
593.377	97.44
593.587	112.44
593.796	96.44
594.006	105.44
594.215	115.44
594.424	109.44
594.634	108.44
594.843	125.44
595.053	127.44
595.262	105.44
595.472	111.44
595.681	107.44
595.89	102.44
596.1	102.44
596.309	110.44
596.518	111.44
596.727	113.44
596.937	109.44
597.146	100.44
597.355	98.44
597.564	106.44
597.774	103.44
597.983	112.44
598.192	104.44
598.401	96.44
598.61	112.44
598.819	97.44
599.028	90.44
599.237	112.44
599.446	109.44
599.655	98.44
599.864	104.44
600.073	99.44
600.282	116.44
600.491	94.44
600.7	103.44
600.909	107.44
601.118	110.44
601.327	104.44
601.536	108.44
601.745	98.44
601.953	106.44
602.162	117.44
602.371	111.44
602.58	115.44
602.789	97.44
602.997	96.44
603.206	93.44
603.415	112.44
603.623	109.44
603.832	102.44
604.041	100.44
604.249	105.44
604.458	101.44
604.666	96.44
604.875	96.44
605.084	89.44
605.292	106.44
605.501	100.44
605.709	109.44
605.918	98.44
606.126	109.44
606.334	109.44
606.543	97.44
606.751	95.44
606.96	95.44
607.168	102.44
607.376	97.44
607.585	106.44
607.793	100.44
608.001	95.44
608.21	110.44
608.418	97.44
608.626	113.44
608.834	106.44
609.043	97.44
609.251	97.44
609.459	86.44
609.667	100.44
609.875	103.44
610.083	99.44
610.291	75.44
610.499	98.44
610.707	107.44
610.916	99.44
611.124	102.44
611.332	99.44
611.54	98.44
611.748	106.44
611.955	100.44
612.163	98.44
612.371	101.44
612.579	96.44
612.787	88.44
612.995	94.44
613.203	106.44
613.411	100.44
613.618	88.44
613.826	92.44
614.034	103.44
614.242	93.44
614.449	97.44
614.657	94.44
614.865	99.44
615.072	99.44
615.28	112.44
615.488	95.44
615.695	93.44
615.903	96.44
616.111	104.44
616.318	98.44
616.526	94.44
616.733	103.44
616.941	92.44
617.148	101.44
617.356	96.44
617.563	113.44
617.771	92.44
617.978	92.44
618.185	101.44
618.393	86.44
618.6	95.44
618.807	96.44
619.015	100.44
619.222	87.44
619.429	102.44
619.637	95.44
619.844	92.44
620.051	104.44
620.258	85.44
620.466	99.44
620.673	80.44
620.88	92.44
621.087	96.44
621.294	114.44
621.501	88.44
621.708	108.44
621.915	96.44
622.122	93.44
622.329	106.44
622.536	96.44
622.743	86.44
622.95	92.44
623.157	90.44
623.364	82.44
623.571	97.44
623.778	99.44
623.985	99.44
624.192	97.44
624.399	95.44
624.606	104.44
624.812	108.44
625.019	98.44
625.226	94.44
625.433	91.44
625.639	86.44
625.846	101.44
626.053	117.44
626.259	102.44
626.466	91.44
626.673	93.44
626.879	89.44
627.086	97.44
627.293	102.44
627.499	84.44
627.706	90.44
627.912	88.44
628.119	84.44
628.325	84.44
628.532	98.44
628.738	84.44
628.945	89.44
629.151	93.44
629.357	96.44
629.564	97.44
629.77	93.44
629.976	104.44
630.183	93.44
630.389	77.44
630.595	95.44
630.802	104.44
631.008	82.44
631.214	88.44
631.42	93.44
631.627	109.44
631.833	100.44
632.039	81.44
632.245	96.44
632.451	102.44
632.657	94.44
632.863	88.44
633.069	93.44
633.275	101.44
633.481	91.44
633.688	76.44
633.893	90.44
634.099	101.44
634.305	91.44
634.511	95.44
634.717	92.44
634.923	87.44
635.129	75.44
635.335	91.44
635.541	90.44
635.747	88.44
635.952	101.44
636.158	83.44
636.364	101.44
636.57	91.44
636.775	86.44
636.981	94.44
637.187	93.44
637.392	84.44
637.598	89.44
637.804	82.44
638.009	86.44
638.215	79.44
638.421	91.44
638.626	94.44
638.832	87.44
639.037	72.44
639.243	90.44
639.448	91.44
639.654	81.44
639.859	87.44
640.065	99.44
640.27	97.44
640.475	71.44
640.681	89.44
640.886	84.44
641.091	87.44
641.297	98.44
641.502	79.44
641.707	87.44
641.913	91.44
642.118	97.44
642.323	82.44
642.528	103.44
642.733	105.44
642.939	86.44
643.144	103.44
643.349	97.44
643.554	85.44
643.759	75.44
643.964	87.44
644.169	83.44
644.374	88.44
644.579	93.44
644.784	89.44
644.989	95.44
645.194	85.44
645.399	92.44
645.604	79.44
645.809	94.44
646.014	78.44
646.219	89.44
646.423	87.44
646.628	91.44
646.833	82.44
647.038	86.44
647.243	85.44
647.447	85.44
647.652	75.44
647.857	79.44
648.062	89.44
648.266	71.44
648.471	87.44
648.676	78.44
648.88	87.44
649.085	94.44
649.289	94.44
649.494	81.44
649.698	99.44
649.903	89.44
650.107	95.44
650.312	101.44
650.516	90.44
650.721	81.44
650.925	85.44
651.13	94.44
651.334	73.44
651.539	94.44
651.743	87.44
651.947	99.44
652.152	98.44
652.356	97.44
652.56	91.44
652.764	90.44
652.969	80.44
653.173	86.44
653.377	95.44
653.581	98.44
653.785	79.44
653.99	92.44
654.194	92.44
654.398	83.44
654.602	77.44
654.806	76.44
655.01	98.44
655.214	86.44
655.418	85.44
655.622	74.44
655.826	84.44
656.03	75.44
656.234	67.44
656.438	91.44
656.642	85.44
656.846	80.44
657.049	86.44
657.253	86.44
657.457	84.44
657.661	87.44
657.865	73.44
658.068	77.44
658.272	65.44
658.476	89.44
658.68	95.44
658.883	70.44
659.087	79.44
659.291	81.44
659.494	84.44
659.698	65.44
659.901	92.44
660.105	86.44
660.309	89.44
660.512	93.44
660.716	94.44
660.919	84.44
661.123	85.44
661.326	80.44
661.53	78.44
661.733	77.44
661.936	83.44
662.14	81.44
662.343	73.44
662.546	71.44
662.75	87.44
662.953	75.44
663.156	85.44
663.36	95.44
663.563	86.44
663.766	68.44
663.969	84.44
664.173	76.44
664.376	81.44
664.579	88.44
664.782	80.44
664.985	64.44
665.188	85.44
665.391	81.44
665.594	76.44
665.797	81.44
666	88.44
666.203	88.44
666.406	86.44
666.609	70.44
666.812	96.44
667.015	82.44
667.218	81.44
667.421	72.44
667.624	83.44
667.827	83.44
668.03	81.44
668.232	78.44
668.435	83.44
668.638	80.44
668.841	76.44
669.043	85.44
669.246	68.44
669.449	84.44
669.651	85.44
669.854	79.44
670.057	88.44
670.259	79.44
670.462	79.44
670.665	80.44
670.867	88.44
671.07	70.44
671.272	81.44
671.475	82.44
671.677	90.44
671.88	74.44
672.082	73.44
672.284	84.44
672.487	79.44
672.689	88.44
672.892	74.44
