Data from NickelSpatula.Lamp.E5.5.P2_HRD10591_11-51-43-559.txt Node
Date: Tue Jul 23 11:51:43 EDT 2019
User: cochatt
Spectrometer: HR+D1059
Trigger mode: 1
Integration Time (sec): 1.000000E-1
Scans to average: 1
Electric dark correction enabled: true
Nonlinearity correction enabled: false
Boxcar width: 0
XAxis mode: Wavelengths
Number of Pixels in Spectrum: 2048
>>>>>Begin Spectral Data<<<<<
223.165	-18.69
223.4	-18.69
223.635	-18.69
223.869	-11.69
224.104	-19.69
224.338	-17.69
224.573	-4.69
224.808	-13.69
225.042	-8.69
225.277	-12.69
225.511	18.31
225.746	2.31
225.98	7.31
226.215	8.31
226.449	7.31
226.683	26.31
226.918	14.31
227.152	23.31
227.387	34.31
227.621	31.31
227.856	35.31
228.09	48.31
228.324	51.31
228.559	47.31
228.793	53.31
229.027	67.31
229.262	76.31
229.496	80.31
229.73	69.31
229.964	86.31
230.199	98.31
230.433	87.31
230.667	85.31
230.901	105.31
231.136	83.31
231.37	112.31
231.604	112.31
231.838	87.31
232.072	98.31
232.306	106.31
232.541	108.31
232.775	97.31
233.009	97.31
233.243	102.31
233.477	129.31
233.711	123.31
233.945	113.31
234.179	116.31
234.413	99.31
234.647	129.31
234.881	151.31
235.115	151.31
235.349	117.31
235.583	127.31
235.817	116.31
236.051	119.31
236.285	138.31
236.519	130.31
236.753	163.31
236.987	135.31
237.221	126.31
237.455	132.31
237.689	133.31
237.922	153.31
238.156	149.31
238.39	164.31
238.624	172.31
238.858	150.31
239.091	148.31
239.325	141.31
239.559	140.31
239.793	153.31
240.027	171.31
240.26	171.31
240.494	153.31
240.728	161.31
240.961	197.31
241.195	173.31
241.429	160.31
241.662	180.31
241.896	133.31
242.13	147.31
242.363	133.31
242.597	151.31
242.83	168.31
243.064	142.31
243.298	168.31
243.531	183.31
243.765	183.31
243.998	161.31
244.232	172.31
244.465	143.31
244.699	173.31
244.932	179.31
245.166	166.31
245.399	159.31
245.633	147.31
245.866	149.31
246.099	160.31
246.333	180.31
246.566	175.31
246.8	203.31
247.033	165.31
247.266	183.31
247.5	179.31
247.733	166.31
247.966	189.31
248.2	162.31
248.433	183.31
248.666	210.31
248.899	212.31
249.133	202.31
249.366	233.31
249.599	244.31
249.832	220.31
250.066	194.31
250.299	200.31
250.532	211.31
250.765	198.31
250.998	175.31
251.231	178.31
251.465	206.31
251.698	216.31
251.931	203.31
252.164	210.31
252.397	206.31
252.63	240.31
252.863	257.31
253.096	271.31
253.329	275.31
253.562	245.31
253.795	288.31
254.028	315.31
254.261	313.31
254.494	273.31
254.727	264.31
254.96	256.31
255.193	275.31
255.426	265.31
255.659	205.31
255.892	200.31
256.124	224.31
256.357	255.31
256.59	273.31
256.823	266.31
257.056	228.31
257.289	218.31
257.521	235.31
257.754	273.31
257.987	316.31
258.22	272.31
258.452	227.31
258.685	279.31
258.918	314.31
259.151	303.31
259.383	316.31
259.616	331.31
259.849	356.31
260.081	354.31
260.314	407.31
260.547	329.31
260.779	346.31
261.012	381.31
261.244	353.31
261.477	381.31
261.71	331.31
261.942	311.31
262.175	295.31
262.407	291.31
262.64	291.31
262.872	333.31
263.105	361.31
263.337	387.31
263.57	354.31
263.802	251.31
264.035	227.31
264.267	217.31
264.499	211.31
264.732	179.31
264.964	185.31
265.197	189.31
265.429	195.31
265.661	200.31
265.894	217.31
266.126	217.31
266.358	240.31
266.591	289.31
266.823	322.31
267.055	317.31
267.287	303.31
267.52	292.31
267.752	296.31
267.984	329.31
268.216	323.31
268.448	271.31
268.681	283.31
268.913	286.31
269.145	296.31
269.377	319.31
269.609	303.31
269.841	276.31
270.073	297.31
270.306	316.31
270.538	333.31
270.77	317.31
271.002	326.31
271.234	330.31
271.466	341.31
271.698	294.31
271.93	319.31
272.162	307.31
272.394	324.31
272.626	303.31
272.858	311.31
273.09	328.31
273.322	282.31
273.553	294.31
273.785	294.31
274.017	412.31
274.249	475.31
274.481	485.31
274.713	532.31
274.945	612.31
275.176	647.31
275.408	566.31
275.64	531.31
275.872	542.31
276.104	477.31
276.335	415.31
276.567	404.31
276.799	415.31
277.031	429.31
277.262	344.31
277.494	281.31
277.726	264.31
277.957	302.31
278.189	331.31
278.421	344.31
278.652	301.31
278.884	313.31
279.115	268.31
279.347	280.31
279.579	287.31
279.81	320.31
280.042	293.31
280.273	281.31
280.505	268.31
280.736	245.31
280.968	236.31
281.199	263.31
281.431	301.31
281.662	289.31
281.894	290.31
282.125	289.31
282.356	312.31
282.588	294.31
282.819	271.31
283.051	281.31
283.282	359.31
283.513	406.31
283.745	472.31
283.976	454.31
284.207	437.31
284.439	418.31
284.67	434.31
284.901	377.31
285.132	418.31
285.364	445.31
285.595	403.31
285.826	418.31
286.057	421.31
286.288	404.31
286.52	438.31
286.751	454.31
286.982	450.31
287.213	376.31
287.444	393.31
287.675	400.31
287.906	397.31
288.138	350.31
288.369	333.31
288.6	300.31
288.831	333.31
289.062	367.31
289.293	398.31
289.524	368.31
289.755	363.31
289.986	354.31
290.217	320.31
290.448	256.31
290.679	218.31
290.91	220.31
291.141	216.31
291.371	249.31
291.602	245.31
291.833	238.31
292.064	261.31
292.295	263.31
292.526	305.31
292.757	343.31
292.987	333.31
293.218	351.31
293.449	374.31
293.68	376.31
293.91	363.31
294.141	391.31
294.372	353.31
294.603	331.31
294.833	350.31
295.064	406.31
295.295	414.31
295.525	312.31
295.756	277.31
295.987	248.31
296.217	245.31
296.448	245.31
296.679	275.31
296.909	276.31
297.14	294.31
297.37	305.31
297.601	291.31
297.831	279.31
298.062	291.31
298.292	322.31
298.523	353.31
298.753	377.31
298.984	345.31
299.214	282.31
299.445	265.31
299.675	248.31
299.905	237.31
300.136	221.31
300.366	255.31
300.597	270.31
300.827	227.31
301.057	240.31
301.288	263.31
301.518	240.31
301.748	283.31
301.979	310.31
302.209	321.31
302.439	331.31
302.669	302.31
302.9	294.31
303.13	273.31
303.36	257.31
303.59	241.31
303.82	272.31
304.051	296.31
304.281	303.31
304.511	311.31
304.741	284.31
304.971	285.31
305.201	297.31
305.431	292.31
305.661	245.31
305.891	233.31
306.121	235.31
306.352	220.31
306.582	205.31
306.812	209.31
307.042	227.31
307.272	231.31
307.502	210.31
307.731	214.31
307.961	226.31
308.191	188.31
308.421	201.31
308.651	205.31
308.881	205.31
309.111	209.31
309.341	205.31
309.571	216.31
309.8	210.31
310.03	228.31
310.26	236.31
310.49	231.31
310.72	212.31
310.949	200.31
311.179	218.31
311.409	217.31
311.639	251.31
311.868	309.31
312.098	351.31
312.328	419.31
312.557	383.31
312.787	399.31
313.017	365.31
313.246	371.31
313.476	436.31
313.706	361.31
313.935	285.31
314.165	248.31
314.394	231.31
314.624	243.31
314.853	245.31
315.083	246.31
315.312	239.31
315.542	239.31
315.771	222.31
316.001	202.31
316.23	208.31
316.46	216.31
316.689	213.31
316.919	206.31
317.148	224.31
317.377	214.31
317.607	203.31
317.836	221.31
318.065	241.31
318.295	271.31
318.524	260.31
318.753	216.31
318.983	212.31
319.212	206.31
319.441	223.31
319.67	251.31
319.9	257.31
320.129	264.31
320.358	238.31
320.587	222.31
320.816	237.31
321.046	261.31
321.275	279.31
321.504	272.31
321.733	278.31
321.962	282.31
322.191	253.31
322.42	253.31
322.649	242.31
322.878	262.31
323.108	270.31
323.337	268.31
323.566	240.31
323.795	252.31
324.024	254.31
324.253	239.31
324.482	229.31
324.71	226.31
324.939	271.31
325.168	247.31
325.397	219.31
325.626	209.31
325.855	217.31
326.084	208.31
326.313	212.31
326.542	191.31
326.77	208.31
326.999	226.31
327.228	228.31
327.457	230.31
327.686	253.31
327.914	220.31
328.143	222.31
328.372	208.31
328.6	204.31
328.829	214.31
329.058	228.31
329.287	216.31
329.515	223.31
329.744	216.31
329.972	209.31
330.201	215.31
330.43	211.31
330.658	210.31
330.887	248.31
331.115	249.31
331.344	241.31
331.572	219.31
331.801	227.31
332.03	206.31
332.258	209.31
332.486	222.31
332.715	236.31
332.943	227.31
333.172	232.31
333.4	231.31
333.629	263.31
333.857	271.31
334.085	250.31
334.314	267.31
334.542	278.31
334.771	230.31
334.999	238.31
335.227	241.31
335.455	228.31
335.684	229.31
335.912	275.31
336.14	289.31
336.369	289.31
336.597	281.31
336.825	300.31
337.053	341.31
337.281	300.31
337.51	244.31
337.738	229.31
337.966	263.31
338.194	267.31
338.422	245.31
338.65	213.31
338.878	216.31
339.106	200.31
339.334	232.31
339.562	230.31
339.79	238.31
340.018	226.31
340.246	236.31
340.474	264.31
340.702	269.31
340.93	288.31
341.158	292.31
341.386	251.31
341.614	244.31
341.842	239.31
342.07	239.31
342.298	291.31
342.526	290.31
342.754	254.31
342.981	232.31
343.209	241.31
343.437	258.31
343.665	268.31
343.893	273.31
344.12	320.31
344.348	377.31
344.576	327.31
344.804	287.31
345.031	240.31
345.259	239.31
345.487	212.31
345.714	241.31
345.942	256.31
346.17	278.31
346.397	277.31
346.625	219.31
346.853	224.31
347.08	221.31
347.308	247.31
347.535	267.31
347.763	278.31
347.99	260.31
348.218	224.31
348.445	230.31
348.673	252.31
348.9	232.31
349.128	235.31
349.355	241.31
349.583	249.31
349.81	242.31
350.037	211.31
350.265	199.31
350.492	199.31
350.72	190.31
350.947	200.31
351.174	208.31
351.402	237.31
351.629	234.31
351.856	222.31
352.083	200.31
352.311	219.31
352.538	241.31
352.765	253.31
352.992	241.31
353.22	242.31
353.447	228.31
353.674	219.31
353.901	215.31
354.128	227.31
354.355	240.31
354.583	226.31
354.81	238.31
355.037	246.31
355.264	242.31
355.491	246.31
355.718	260.31
355.945	270.31
356.172	251.31
356.399	265.31
356.626	314.31
356.853	344.31
357.08	369.31
357.307	387.31
357.534	290.31
357.761	320.31
357.988	385.31
358.215	425.31
358.441	385.31
358.668	333.31
358.895	326.31
359.122	281.31
359.349	289.31
359.576	321.31
359.802	258.31
360.029	228.31
360.256	261.31
360.483	309.31
360.709	365.31
360.936	351.31
361.163	304.31
361.39	242.31
361.616	230.31
361.843	271.31
362.07	315.31
362.296	291.31
362.523	239.31
362.749	215.31
362.976	222.31
363.203	275.31
363.429	288.31
363.656	237.31
363.882	231.31
364.109	218.31
364.335	237.31
364.562	231.31
364.788	243.31
365.015	275.31
365.241	263.31
365.468	237.31
365.694	220.31
365.92	225.31
366.147	204.31
366.373	202.31
366.599	193.31
366.826	189.31
367.052	207.31
367.278	204.31
367.505	177.31
367.731	217.31
367.957	234.31
368.184	224.31
368.41	219.31
368.636	230.31
368.862	252.31
369.089	235.31
369.315	223.31
369.541	224.31
369.767	224.31
369.993	210.31
370.219	204.31
370.445	214.31
370.672	238.31
370.898	253.31
371.124	247.31
371.35	219.31
371.576	224.31
371.802	211.31
372.028	259.31
372.254	309.31
372.48	273.31
372.706	237.31
372.932	249.31
373.158	253.31
373.384	308.31
373.61	394.31
373.835	397.31
374.061	292.31
374.287	270.31
374.513	299.31
374.739	349.31
374.965	370.31
375.191	364.31
375.416	268.31
375.642	243.31
375.868	287.31
376.094	290.31
376.319	278.31
376.545	271.31
376.771	309.31
376.997	278.31
377.222	223.31
377.448	180.31
377.674	198.31
377.899	197.31
378.125	218.31
378.35	204.31
378.576	200.31
378.802	213.31
379.027	228.31
379.253	231.31
379.478	235.31
379.704	239.31
379.929	263.31
380.155	263.31
380.38	214.31
380.606	244.31
380.831	277.31
381.057	253.31
381.282	236.31
381.507	256.31
381.733	326.31
381.958	338.31
382.184	341.31
382.409	361.31
382.634	350.31
382.86	381.31
383.085	314.31
383.31	279.31
383.535	290.31
383.761	297.31
383.986	266.31
384.211	320.31
384.436	313.31
384.662	265.31
384.887	239.31
385.112	244.31
385.337	272.31
385.562	236.31
385.787	291.31
386.013	292.31
386.238	305.31
386.463	253.31
386.688	239.31
386.913	243.31
387.138	235.31
387.363	246.31
387.588	233.31
387.813	253.31
388.038	255.31
388.263	225.31
388.488	248.31
388.713	264.31
388.938	294.31
389.163	239.31
389.387	227.31
389.612	222.31
389.837	248.31
390.062	246.31
390.287	252.31
390.512	235.31
390.736	216.31
390.961	219.31
391.186	217.31
391.411	218.31
391.636	209.31
391.86	251.31
392.085	265.31
392.31	253.31
392.534	242.31
392.759	255.31
392.984	244.31
393.208	261.31
393.433	217.31
393.658	206.31
393.882	199.31
394.107	205.31
394.331	209.31
394.556	195.31
394.78	202.31
395.005	216.31
395.229	229.31
395.454	225.31
395.678	229.31
395.903	241.31
396.127	223.31
396.352	228.31
396.576	237.31
396.801	251.31
397.025	261.31
397.249	289.31
397.474	250.31
397.698	242.31
397.922	245.31
398.147	227.31
398.371	230.31
398.595	262.31
398.82	241.31
399.044	222.31
399.268	265.31
399.492	270.31
399.717	285.31
399.941	293.31
400.165	287.31
400.389	248.31
400.613	252.31
400.837	260.31
401.062	225.31
401.286	249.31
401.51	238.31
401.734	235.31
401.958	236.31
402.182	234.31
402.406	253.31
402.63	248.31
402.854	278.31
403.078	308.31
403.302	391.31
403.526	399.31
403.75	352.31
403.974	295.31
404.198	292.31
404.422	307.31
404.645	342.31
404.869	363.31
405.093	313.31
405.317	259.31
405.541	263.31
405.765	269.31
405.988	257.31
406.212	269.31
406.436	292.31
406.66	323.31
406.883	296.31
407.107	296.31
407.331	319.31
407.555	339.31
407.778	305.31
408.002	277.31
408.226	277.31
408.449	273.31
408.673	257.31
408.896	239.31
409.12	264.31
409.344	261.31
409.567	256.31
409.791	226.31
410.014	247.31
410.238	243.31
410.461	227.31
410.685	237.31
410.908	243.31
411.132	232.31
411.355	226.31
411.578	244.31
411.802	243.31
412.025	237.31
412.249	259.31
412.472	256.31
412.695	249.31
412.919	221.31
413.142	251.31
413.365	261.31
413.589	279.31
413.812	258.31
414.035	245.31
414.258	242.31
414.482	247.31
414.705	277.31
414.928	251.31
415.151	244.31
415.374	247.31
415.597	235.31
415.821	228.31
416.044	237.31
416.267	243.31
416.49	230.31
416.713	209.31
416.936	222.31
417.159	215.31
417.382	243.31
417.605	239.31
417.828	240.31
418.051	243.31
418.274	239.31
418.497	238.31
418.72	244.31
418.943	252.31
419.166	258.31
419.389	263.31
419.611	259.31
419.834	241.31
420.057	257.31
420.28	264.31
420.503	255.31
420.726	237.31
420.948	230.31
421.171	238.31
421.394	227.31
421.617	239.31
421.839	239.31
422.062	242.31
422.285	221.31
422.507	245.31
422.73	239.31
422.953	251.31
423.175	251.31
423.398	243.31
423.621	252.31
423.843	274.31
424.066	279.31
424.288	255.31
424.511	237.31
424.733	230.31
424.956	269.31
425.178	294.31
425.401	315.31
425.623	363.31
425.846	313.31
426.068	255.31
426.291	276.31
426.513	258.31
426.735	238.31
426.958	268.31
427.18	280.31
427.402	348.31
427.625	360.31
427.847	300.31
428.069	240.31
428.292	250.31
428.514	239.31
428.736	249.31
428.958	255.31
429.181	337.31
429.403	263.31
429.625	243.31
429.847	220.31
430.069	227.31
430.292	248.31
430.514	226.31
430.736	237.31
430.958	288.31
431.18	266.31
431.402	210.31
431.624	220.31
431.846	225.31
432.068	214.31
432.29	224.31
432.512	225.31
432.734	288.31
432.956	263.31
433.178	234.31
433.4	230.31
433.622	231.31
433.844	231.31
434.066	237.31
434.287	242.31
434.509	263.31
434.731	256.31
434.953	240.31
435.175	259.31
435.397	305.31
435.618	230.31
435.84	226.31
436.062	223.31
436.284	216.31
436.505	197.31
436.727	201.31
436.949	215.31
437.17	225.31
437.392	231.31
437.614	219.31
437.835	209.31
438.057	211.31
438.278	239.31
438.5	321.31
438.721	321.31
438.943	266.31
439.165	223.31
439.386	203.31
439.608	213.31
439.829	208.31
440.05	199.31
440.272	221.31
440.493	243.31
440.715	272.31
440.936	255.31
441.158	233.31
441.379	221.31
441.6	257.31
441.822	256.31
442.043	245.31
442.264	233.31
442.486	230.31
442.707	239.31
442.928	244.31
443.149	233.31
443.371	228.31
443.592	251.31
443.813	245.31
444.034	247.31
444.255	243.31
444.476	232.31
444.698	263.31
444.919	251.31
445.14	352.31
445.361	299.31
445.582	253.31
445.803	222.31
446.024	252.31
446.245	251.31
446.466	249.31
446.687	244.31
446.908	236.31
447.129	233.31
447.35	232.31
447.571	222.31
447.792	204.31
448.013	209.31
448.234	201.31
448.455	211.31
448.675	221.31
448.896	208.31
449.117	222.31
449.338	205.31
449.559	206.31
449.779	222.31
450	237.31
450.221	221.31
450.442	237.31
450.662	221.31
450.883	219.31
451.104	227.31
451.324	221.31
451.545	210.31
451.766	219.31
451.986	215.31
452.207	226.31
452.428	213.31
452.648	230.31
452.869	229.31
453.089	235.31
453.31	231.31
453.53	205.31
453.751	229.31
453.971	210.31
454.192	222.31
454.412	204.31
454.633	216.31
454.853	219.31
455.073	223.31
455.294	218.31
455.514	201.31
455.734	202.31
455.955	216.31
456.175	224.31
456.395	216.31
456.616	176.31
456.836	191.31
457.056	202.31
457.276	192.31
457.497	200.31
457.717	211.31
457.937	206.31
458.157	187.31
458.377	190.31
458.598	188.31
458.818	213.31
459.038	235.31
459.258	241.31
459.478	209.31
459.698	243.31
459.918	250.31
460.138	219.31
460.358	239.31
460.578	247.31
460.798	251.31
461.018	247.31
461.238	231.31
461.458	249.31
461.678	267.31
461.898	247.31
462.118	222.31
462.338	254.31
462.558	269.31
462.777	277.31
462.997	292.31
463.217	285.31
463.437	293.31
463.657	276.31
463.876	255.31
464.096	289.31
464.316	269.31
464.536	280.31
464.755	271.31
464.975	291.31
465.195	292.31
465.414	272.31
465.634	259.31
465.854	237.31
466.073	230.31
466.293	233.31
466.512	225.31
466.732	237.31
466.951	231.31
467.171	244.31
467.391	231.31
467.61	213.31
467.829	223.31
468.049	231.31
468.268	221.31
468.488	215.31
468.707	224.31
468.927	261.31
469.146	283.31
469.365	247.31
469.585	226.31
469.804	265.31
470.023	263.31
470.243	265.31
470.462	231.31
470.681	245.31
470.901	241.31
471.12	246.31
471.339	236.31
471.558	232.31
471.777	254.31
471.997	256.31
472.216	270.31
472.435	276.31
472.654	242.31
472.873	240.31
473.092	252.31
473.311	262.31
473.53	249.31
473.749	228.31
473.968	247.31
474.187	257.31
474.406	257.31
474.625	245.31
474.844	259.31
475.063	249.31
475.282	260.31
475.501	280.31
475.72	291.31
475.939	256.31
476.158	284.31
476.377	308.31
476.596	329.31
476.814	364.31
477.033	305.31
477.252	273.31
477.471	250.31
477.69	242.31
477.908	277.31
478.127	286.31
478.346	279.31
478.564	310.31
478.783	295.31
479.002	286.31
479.22	319.31
479.439	312.31
479.658	306.31
479.876	277.31
480.095	303.31
480.313	305.31
480.532	291.31
480.751	268.31
480.969	295.31
481.188	306.31
481.406	297.31
481.624	310.31
481.843	281.31
482.061	273.31
482.28	296.31
482.498	342.31
482.717	328.31
482.935	284.31
483.153	273.31
483.372	267.31
483.59	249.31
483.808	255.31
484.027	266.31
484.245	269.31
484.463	251.31
484.681	261.31
484.9	278.31
485.118	265.31
485.336	289.31
485.554	262.31
485.772	296.31
485.99	271.31
486.209	301.31
486.427	307.31
486.645	287.31
486.863	321.31
487.081	307.31
487.299	324.31
487.517	313.31
487.735	280.31
487.953	281.31
488.171	291.31
488.389	301.31
488.607	268.31
488.825	267.31
489.043	288.31
489.261	332.31
489.479	341.31
489.696	296.31
489.914	259.31
490.132	272.31
490.35	267.31
490.568	276.31
490.786	263.31
491.003	264.31
491.221	287.31
491.439	261.31
491.657	284.31
491.874	292.31
492.092	318.31
492.31	368.31
492.527	373.31
492.745	364.31
492.963	317.31
493.18	287.31
493.398	313.31
493.615	291.31
493.833	292.31
494.05	295.31
494.268	293.31
494.485	294.31
494.703	273.31
494.92	303.31
495.138	290.31
495.355	279.31
495.573	287.31
495.79	292.31
496.008	374.31
496.225	335.31
496.442	295.31
496.66	311.31
496.877	333.31
497.094	304.31
497.312	300.31
497.529	295.31
497.746	307.31
497.963	315.31
498.181	347.31
498.398	371.31
498.615	357.31
498.832	386.31
499.049	375.31
499.267	379.31
499.484	391.31
499.701	414.31
499.918	452.31
500.135	504.31
500.352	538.31
500.569	551.31
500.786	559.31
501.003	555.31
501.22	499.31
501.437	438.31
501.654	417.31
501.871	395.31
502.088	396.31
502.305	369.31
502.522	349.31
502.739	343.31
502.956	327.31
503.172	324.31
503.389	299.31
503.606	303.31
503.823	313.31
504.04	310.31
504.256	316.31
504.473	316.31
504.69	333.31
504.907	334.31
505.123	317.31
505.34	332.31
505.557	319.31
505.773	329.31
505.99	300.31
506.207	320.31
506.423	287.31
506.64	275.31
506.856	285.31
507.073	315.31
507.289	320.31
507.506	308.31
507.722	317.31
507.939	334.31
508.155	333.31
508.372	304.31
508.588	300.31
508.805	289.31
509.021	270.31
509.238	287.31
509.454	269.31
509.67	259.31
509.887	274.31
510.103	313.31
510.319	296.31
510.536	293.31
510.752	265.31
510.968	249.31
511.184	251.31
511.401	243.31
511.617	274.31
511.833	260.31
512.049	264.31
512.265	259.31
512.481	269.31
512.698	296.31
512.914	326.31
513.13	294.31
513.346	261.31
513.562	274.31
513.778	275.31
513.994	284.31
514.21	283.31
514.426	275.31
514.642	276.31
514.858	281.31
515.074	273.31
515.29	302.31
515.506	332.31
515.721	317.31
515.937	306.31
516.153	278.31
516.369	297.31
516.585	271.31
516.801	328.31
517.016	370.31
517.232	356.31
517.448	360.31
517.664	332.31
517.879	315.31
518.095	327.31
518.311	313.31
518.527	330.31
518.742	342.31
518.958	361.31
519.173	335.31
519.389	345.31
519.605	327.31
519.82	335.31
520.036	390.31
520.251	367.31
520.467	370.31
520.682	590.31
520.898	772.31
521.113	691.31
521.329	423.31
521.544	364.31
521.76	336.31
521.975	307.31
522.19	309.31
522.406	325.31
522.621	345.31
522.836	362.31
523.052	352.31
523.267	295.31
523.482	301.31
523.698	320.31
523.913	313.31
524.128	288.31
524.343	267.31
524.559	303.31
524.774	275.31
524.989	270.31
525.204	288.31
525.419	307.31
525.634	266.31
525.849	305.31
526.064	296.31
526.28	301.31
526.495	342.31
526.71	370.31
526.925	291.31
527.14	332.31
527.355	319.31
527.57	277.31
527.785	297.31
527.999	274.31
528.214	265.31
528.429	267.31
528.644	270.31
528.859	259.31
529.074	247.31
529.289	268.31
529.503	249.31
529.718	254.31
529.933	328.31
530.148	316.31
530.363	269.31
530.577	248.31
530.792	270.31
531.007	245.31
531.221	265.31
531.436	258.31
531.651	269.31
531.865	272.31
532.08	264.31
532.295	259.31
532.509	255.31
532.724	296.31
532.938	293.31
533.153	368.31
533.367	293.31
533.582	307.31
533.796	266.31
534.011	264.31
534.225	265.31
534.44	267.31
534.654	264.31
534.868	319.31
535.083	298.31
535.297	266.31
535.511	237.31
535.726	289.31
535.94	277.31
536.154	261.31
536.369	254.31
536.583	257.31
536.797	247.31
537.011	243.31
537.225	278.31
537.44	315.31
537.654	256.31
537.868	252.31
538.082	245.31
538.296	252.31
538.51	262.31
538.724	272.31
538.938	264.31
539.153	274.31
539.367	252.31
539.581	251.31
539.795	253.31
540.009	290.31
540.222	261.31
540.436	257.31
540.65	270.31
540.864	277.31
541.078	301.31
541.292	351.31
541.506	289.31
541.72	261.31
541.934	261.31
542.147	252.31
542.361	251.31
542.575	255.31
542.789	251.31
543.002	246.31
543.216	270.31
543.43	245.31
543.644	242.31
543.857	245.31
544.071	246.31
544.285	265.31
544.498	242.31
544.712	231.31
544.925	245.31
545.139	252.31
545.352	238.31
545.566	231.31
545.779	262.31
545.993	230.31
546.206	232.31
546.42	226.31
546.633	239.31
546.847	225.31
547.06	230.31
547.274	220.31
547.487	237.31
547.7	235.31
547.914	236.31
548.127	280.31
548.34	260.31
548.554	246.31
548.767	239.31
548.98	259.31
549.193	235.31
549.407	246.31
549.62	299.31
549.833	287.31
550.046	290.31
550.259	293.31
550.473	246.31
550.686	259.31
550.899	243.31
551.112	228.31
551.325	269.31
551.538	275.31
551.751	235.31
551.964	245.31
552.177	233.31
552.39	231.31
552.603	228.31
552.816	247.31
553.029	243.31
553.242	232.31
553.455	264.31
553.667	282.31
553.88	257.31
554.093	253.31
554.306	224.31
554.519	220.31
554.732	229.31
554.944	223.31
555.157	208.31
555.37	227.31
555.583	209.31
555.795	221.31
556.008	236.31
556.221	213.31
556.433	196.31
556.646	207.31
556.859	213.31
557.071	191.31
557.284	225.31
557.496	216.31
557.709	212.31
557.921	204.31
558.134	198.31
558.346	205.31
558.559	211.31
558.771	208.31
558.984	221.31
559.196	199.31
559.409	211.31
559.621	189.31
559.833	197.31
560.046	197.31
560.258	203.31
560.47	210.31
560.683	196.31
560.895	181.31
561.107	192.31
561.32	203.31
561.532	201.31
561.744	221.31
561.956	199.31
562.168	206.31
562.381	202.31
562.593	198.31
562.805	200.31
563.017	211.31
563.229	196.31
563.441	210.31
563.653	197.31
563.865	216.31
564.077	207.31
564.289	188.31
564.501	197.31
564.713	222.31
564.925	210.31
565.137	200.31
565.349	219.31
565.561	207.31
565.773	225.31
565.985	219.31
566.197	224.31
566.408	237.31
566.62	239.31
566.832	237.31
567.044	241.31
567.255	257.31
567.467	294.31
567.679	276.31
567.891	296.31
568.102	297.31
568.314	285.31
568.526	244.31
568.737	232.31
568.949	276.31
569.161	229.31
569.372	211.31
569.584	221.31
569.795	196.31
570.007	217.31
570.218	210.31
570.43	215.31
570.641	199.31
570.853	197.31
571.064	201.31
571.276	231.31
571.487	208.31
571.698	201.31
571.91	191.31
572.121	188.31
572.333	184.31
572.544	186.31
572.755	184.31
572.966	186.31
573.178	190.31
573.389	189.31
573.6	200.31
573.811	196.31
574.023	184.31
574.234	186.31
574.445	182.31
574.656	178.31
574.867	186.31
575.078	187.31
575.289	189.31
575.501	193.31
575.712	177.31
575.923	171.31
576.134	174.31
576.345	171.31
576.556	176.31
576.767	176.31
576.978	176.31
577.188	169.31
577.399	201.31
577.61	171.31
577.821	168.31
578.032	164.31
578.243	177.31
578.454	187.31
578.665	180.31
578.875	201.31
579.086	182.31
579.297	165.31
579.508	173.31
579.718	175.31
579.929	161.31
580.14	173.31
580.35	164.31
580.561	178.31
580.772	167.31
580.982	172.31
581.193	155.31
581.403	165.31
581.614	169.31
581.825	166.31
582.035	162.31
582.246	161.31
582.456	151.31
582.667	162.31
582.877	163.31
583.087	157.31
583.298	154.31
583.508	156.31
583.719	161.31
583.929	162.31
584.139	163.31
584.35	159.31
584.56	174.31
584.77	165.31
584.981	153.31
585.191	176.31
585.401	176.31
585.611	169.31
585.821	152.31
586.032	173.31
586.242	163.31
586.452	155.31
586.662	164.31
586.872	167.31
587.082	171.31
587.292	151.31
587.502	152.31
587.713	151.31
587.923	157.31
588.133	167.31
588.343	173.31
588.553	147.31
588.762	158.31
588.972	150.31
589.182	164.31
589.392	163.31
589.602	149.31
589.812	157.31
590.022	157.31
590.232	167.31
590.441	179.31
590.651	161.31
590.861	159.31
591.071	152.31
591.281	145.31
591.49	156.31
591.7	159.31
591.91	155.31
592.119	159.31
592.329	160.31
592.539	162.31
592.748	167.31
592.958	166.31
593.167	183.31
593.377	177.31
593.587	204.31
593.796	182.31
594.006	189.31
594.215	172.31
594.424	168.31
594.634	163.31
594.843	168.31
595.053	162.31
595.262	167.31
595.472	162.31
595.681	158.31
595.89	151.31
596.1	171.31
596.309	157.31
596.518	163.31
596.727	155.31
596.937	152.31
597.146	154.31
597.355	167.31
597.564	155.31
597.774	157.31
597.983	159.31
598.192	146.31
598.401	153.31
598.61	139.31
598.819	146.31
599.028	155.31
599.237	153.31
599.446	136.31
599.655	137.31
599.864	151.31
600.073	139.31
600.282	142.31
600.491	141.31
600.7	138.31
600.909	141.31
601.118	149.31
601.327	137.31
601.536	146.31
601.745	140.31
601.953	165.31
602.162	145.31
602.371	144.31
602.58	140.31
602.789	151.31
602.997	157.31
603.206	145.31
603.415	150.31
603.623	142.31
603.832	147.31
604.041	148.31
604.249	133.31
604.458	162.31
604.666	140.31
604.875	133.31
605.084	144.31
605.292	129.31
605.501	134.31
605.709	132.31
605.918	141.31
606.126	143.31
606.334	144.31
606.543	148.31
606.751	150.31
606.96	132.31
607.168	136.31
607.376	146.31
607.585	138.31
607.793	156.31
608.001	140.31
608.21	152.31
608.418	133.31
608.626	145.31
608.834	136.31
609.043	140.31
609.251	153.31
609.459	151.31
609.667	129.31
609.875	127.31
610.083	128.31
610.291	131.31
610.499	134.31
610.707	133.31
610.916	136.31
611.124	147.31
611.332	135.31
611.54	123.31
611.748	135.31
611.955	140.31
612.163	136.31
612.371	135.31
612.579	141.31
612.787	141.31
612.995	127.31
613.203	131.31
613.411	138.31
613.618	139.31
613.826	143.31
614.034	137.31
614.242	140.31
614.449	126.31
614.657	133.31
614.865	125.31
615.072	135.31
615.28	127.31
615.488	132.31
615.695	121.31
615.903	144.31
616.111	146.31
616.318	140.31
616.526	145.31
616.733	148.31
616.941	144.31
617.148	138.31
617.356	125.31
617.563	127.31
617.771	121.31
617.978	140.31
618.185	132.31
618.393	136.31
618.6	143.31
618.807	143.31
619.015	147.31
619.222	150.31
619.429	131.31
619.637	147.31
619.844	119.31
620.051	134.31
620.258	143.31
620.466	131.31
620.673	132.31
620.88	128.31
621.087	108.31
621.294	120.31
621.501	133.31
621.708	144.31
621.915	122.31
622.122	127.31
622.329	116.31
622.536	143.31
622.743	120.31
622.95	121.31
623.157	136.31
623.364	134.31
623.571	145.31
623.778	127.31
623.985	148.31
624.192	133.31
624.399	127.31
624.606	128.31
624.812	123.31
625.019	134.31
625.226	132.31
625.433	135.31
625.639	127.31
625.846	126.31
626.053	126.31
626.259	128.31
626.466	118.31
626.673	127.31
626.879	128.31
627.086	115.31
627.293	111.31
627.499	115.31
627.706	125.31
627.912	117.31
628.119	133.31
628.325	130.31
628.532	109.31
628.738	125.31
628.945	139.31
629.151	120.31
629.357	129.31
629.564	122.31
629.77	120.31
629.976	132.31
630.183	122.31
630.389	130.31
630.595	124.31
630.802	122.31
631.008	116.31
631.214	112.31
631.42	115.31
631.627	121.31
631.833	123.31
632.039	118.31
632.245	123.31
632.451	116.31
632.657	130.31
632.863	122.31
633.069	125.31
633.275	112.31
633.481	107.31
633.688	112.31
633.893	125.31
634.099	119.31
634.305	117.31
634.511	113.31
634.717	115.31
634.923	115.31
635.129	118.31
635.335	122.31
635.541	118.31
635.747	116.31
635.952	117.31
636.158	112.31
636.364	105.31
636.57	115.31
636.775	103.31
636.981	106.31
637.187	99.31
637.392	115.31
637.598	121.31
637.804	117.31
638.009	116.31
638.215	123.31
638.421	119.31
638.626	101.31
638.832	127.31
639.037	115.31
639.243	111.31
639.448	111.31
639.654	124.31
639.859	113.31
640.065	112.31
640.27	119.31
640.475	111.31
640.681	112.31
640.886	115.31
641.091	111.31
641.297	126.31
641.502	116.31
641.707	114.31
641.913	117.31
642.118	118.31
642.323	102.31
642.528	103.31
642.733	100.31
642.939	119.31
643.144	107.31
643.349	123.31
643.554	112.31
643.759	104.31
643.964	109.31
644.169	108.31
644.374	91.31
644.579	98.31
644.784	109.31
644.989	103.31
645.194	110.31
645.399	107.31
645.604	99.31
645.809	112.31
646.014	95.31
646.219	116.31
646.423	107.31
646.628	108.31
646.833	108.31
647.038	109.31
647.243	115.31
647.447	121.31
647.652	108.31
647.857	112.31
648.062	118.31
648.266	114.31
648.471	107.31
648.676	110.31
648.88	112.31
649.085	123.31
649.289	109.31
649.494	99.31
649.698	93.31
649.903	100.31
650.107	129.31
650.312	121.31
650.516	85.31
650.721	113.31
650.925	108.31
651.13	110.31
651.334	103.31
651.539	109.31
651.743	109.31
651.947	106.31
652.152	98.31
652.356	100.31
652.56	101.31
652.764	106.31
652.969	111.31
653.173	106.31
653.377	93.31
653.581	100.31
653.785	97.31
653.99	100.31
654.194	102.31
654.398	108.31
654.602	102.31
654.806	95.31
655.01	105.31
655.214	116.31
655.418	108.31
655.622	81.31
655.826	104.31
656.03	104.31
656.234	109.31
656.438	98.31
656.642	110.31
656.846	96.31
657.049	100.31
657.253	105.31
657.457	87.31
657.661	93.31
657.865	84.31
658.068	84.31
658.272	82.31
658.476	87.31
658.68	85.31
658.883	77.31
659.087	84.31
659.291	84.31
659.494	92.31
659.698	92.31
659.901	90.31
660.105	97.31
660.309	85.31
660.512	94.31
660.716	93.31
660.919	85.31
661.123	80.31
661.326	96.31
661.53	73.31
661.733	95.31
661.936	88.31
662.14	67.31
662.343	67.31
662.546	90.31
662.75	87.31
662.953	88.31
663.156	95.31
663.36	87.31
663.563	75.31
663.766	89.31
663.969	96.31
664.173	84.31
664.376	79.31
664.579	83.31
664.782	85.31
664.985	73.31
665.188	77.31
665.391	81.31
665.594	86.31
665.797	88.31
666	72.31
666.203	70.31
666.406	87.31
666.609	72.31
666.812	87.31
667.015	75.31
667.218	77.31
667.421	83.31
667.624	87.31
667.827	65.31
668.03	80.31
668.232	73.31
668.435	77.31
668.638	94.31
668.841	92.31
669.043	71.31
669.246	92.31
669.449	64.31
669.651	79.31
669.854	83.31
670.057	73.31
670.259	76.31
670.462	71.31
670.665	71.31
670.867	76.31
671.07	72.31
671.272	67.31
671.475	76.31
671.677	79.31
671.88	84.31
672.082	86.31
672.284	94.31
672.487	90.31
672.689	82.31
672.892	71.31
