Data from NiCl2@0.25M.TitratingCurve.Agarose3%dH2O.NegLispCup.LampEnergy10.LIBS07252019_HRD10591_18-24-53-573.txt Node
Date: Thu Jul 25 18:24:53 EDT 2019
User: cochatt
Spectrometer: HR+D1059
Trigger mode: 1
Integration Time (sec): 1.000000E-1
Scans to average: 1
Electric dark correction enabled: true
Nonlinearity correction enabled: false
Boxcar width: 0
XAxis mode: Wavelengths
Number of Pixels in Spectrum: 2048
>>>>>Begin Spectral Data<<<<<
223.165	-20
223.4	-20
223.635	-20
223.869	-17
224.104	-11
224.338	-6
224.573	-5
224.808	-12
225.042	-19
225.277	-5
225.511	-4
225.746	8
225.98	0
226.215	6
226.449	20
226.683	14
226.918	19
227.152	32
227.387	38
227.621	40
227.856	42
228.09	62
228.324	47
228.559	55
228.793	76
229.027	121
229.262	136
229.496	142
229.73	134
229.964	139
230.199	147
230.433	143
230.667	146
230.901	157
231.136	162
231.37	162
231.604	161
231.838	154
232.072	195
232.306	174
232.541	165
232.775	155
233.009	165
233.243	159
233.477	166
233.711	167
233.945	173
234.179	171
234.413	170
234.647	187
234.881	180
235.115	173
235.349	172
235.583	171
235.817	178
236.051	167
236.285	169
236.519	171
236.753	189
236.987	188
237.221	185
237.455	182
237.689	191
237.922	186
238.156	191
238.39	195
238.624	196
238.858	210
239.091	199
239.325	202
239.559	215
239.793	223
240.027	209
240.26	199
240.494	210
240.728	211
240.961	209
241.195	224
241.429	212
241.662	191
241.896	229
242.13	231
242.363	227
242.597	211
242.83	233
243.064	217
243.298	244
243.531	248
243.765	239
243.998	258
244.232	244
244.465	245
244.699	262
244.932	249
245.166	256
245.399	267
245.633	246
245.866	250
246.099	257
246.333	248
246.566	261
246.8	264
247.033	270
247.266	260
247.5	261
247.733	283
247.966	282
248.2	276
248.433	290
248.666	294
248.899	302
249.133	287
249.366	279
249.599	300
249.832	287
250.066	291
250.299	309
250.532	308
250.765	292
250.998	301
251.231	291
251.465	318
251.698	300
251.931	335
252.164	301
252.397	330
252.63	331
252.863	319
253.096	327
253.329	311
253.562	330
253.795	319
254.028	342
254.261	332
254.494	334
254.727	329
254.96	331
255.193	333
255.426	362
255.659	338
255.892	348
256.124	350
256.357	345
256.59	355
256.823	343
257.056	358
257.289	359
257.521	340
257.754	361
257.987	364
258.22	373
258.452	367
258.685	353
258.918	364
259.151	374
259.383	360
259.616	384
259.849	389
260.081	399
260.314	377
260.547	387
260.779	393
261.012	401
261.244	399
261.477	386
261.71	378
261.942	396
262.175	405
262.407	402
262.64	382
262.872	400
263.105	389
263.337	404
263.57	416
263.802	415
264.035	410
264.267	405
264.499	406
264.732	404
264.964	419
265.197	421
265.429	406
265.661	427
265.894	425
266.126	408
266.358	414
266.591	412
266.823	440
267.055	407
267.287	428
267.52	434
267.752	450
267.984	432
268.216	452
268.448	453
268.681	442
268.913	426
269.145	438
269.377	452
269.609	445
269.841	469
270.073	431
270.306	434
270.538	450
270.77	445
271.002	449
271.234	465
271.466	457
271.698	466
271.93	466
272.162	468
272.394	479
272.626	472
272.858	477
273.09	499
273.322	474
273.553	464
273.785	485
274.017	478
274.249	493
274.481	486
274.713	493
274.945	486
275.176	496
275.408	490
275.64	518
275.872	519
276.104	529
276.335	487
276.567	499
276.799	506
277.031	514
277.262	505
277.494	511
277.726	519
277.957	523
278.189	520
278.421	515
278.652	518
278.884	563
279.115	548
279.347	539
279.579	528
279.81	561
280.042	519
280.273	544
280.505	546
280.736	524
280.968	562
281.199	556
281.431	540
281.662	554
281.894	546
282.125	552
282.356	579
282.588	564
282.819	587
283.051	591
283.282	562
283.513	585
283.745	560
283.976	575
284.207	570
284.439	593
284.67	583
284.901	592
285.132	602
285.364	587
285.595	587
285.826	588
286.057	612
286.288	598
286.52	626
286.751	606
286.982	610
287.213	599
287.444	616
287.675	611
287.906	602
288.138	616
288.369	612
288.6	627
288.831	620
289.062	637
289.293	616
289.524	610
289.755	646
289.986	645
290.217	631
290.448	655
290.679	649
290.91	636
291.141	632
291.371	629
291.602	654
291.833	660
292.064	644
292.295	620
292.526	643
292.757	632
292.987	655
293.218	637
293.449	668
293.68	626
293.91	652
294.141	643
294.372	647
294.603	678
294.833	655
295.064	685
295.295	626
295.525	658
295.756	663
295.987	649
296.217	680
296.448	635
296.679	679
296.909	657
297.14	686
297.37	696
297.601	681
297.831	697
298.062	705
298.292	682
298.523	727
298.753	716
298.984	697
299.214	688
299.445	704
299.675	700
299.905	719
300.136	691
300.366	713
300.597	732
300.827	724
301.057	745
301.288	735
301.518	749
301.748	727
301.979	762
302.209	759
302.439	752
302.669	726
302.9	746
303.13	749
303.36	738
303.59	713
303.82	733
304.051	740
304.281	711
304.511	714
304.741	736
304.971	724
305.201	719
305.431	724
305.661	726
305.891	706
306.121	694
306.352	740
306.582	722
306.812	709
307.042	690
307.272	701
307.502	708
307.731	704
307.961	721
308.191	726
308.421	692
308.651	730
308.881	703
309.111	702
309.341	716
309.571	717
309.8	706
310.03	699
310.26	713
310.49	715
310.72	703
310.949	702
311.179	729
311.409	707
311.639	723
311.868	742
312.098	738
312.328	747
312.557	758
312.787	756
313.017	748
313.246	771
313.476	771
313.706	789
313.935	778
314.165	768
314.394	775
314.624	770
314.853	766
315.083	751
315.312	772
315.542	763
315.771	774
316.001	757
316.23	751
316.46	761
316.689	749
316.919	739
317.148	750
317.377	736
317.607	732
317.836	750
318.065	736
318.295	758
318.524	772
318.753	758
318.983	747
319.212	756
319.441	735
319.67	727
319.9	736
320.129	763
320.358	747
320.587	747
320.816	755
321.046	747
321.275	754
321.504	748
321.733	762
321.962	736
322.191	776
322.42	799
322.649	776
322.878	776
323.108	763
323.337	806
323.566	774
323.795	770
324.024	791
324.253	768
324.482	783
324.71	774
324.939	780
325.168	791
325.397	769
325.626	776
325.855	804
326.084	821
326.313	838
326.542	832
326.77	829
326.999	818
327.228	805
327.457	832
327.686	846
327.914	824
328.143	813
328.372	836
328.6	810
328.829	810
329.058	836
329.287	847
329.515	848
329.744	844
329.972	872
330.201	837
330.43	883
330.658	860
330.887	866
331.115	846
331.344	896
331.572	898
331.801	902
332.03	933
332.258	951
332.486	961
332.715	1004
332.943	1044
333.172	1058
333.4	1143
333.629	1164
333.857	1186
334.085	1115
334.314	1136
334.542	1096
334.771	1074
334.999	1113
335.227	1060
335.455	1086
335.684	1032
335.912	1026
336.14	1044
336.369	1013
336.597	1012
336.825	999
337.053	1028
337.281	978
337.51	957
337.738	937
337.966	948
338.194	904
338.422	902
338.65	896
338.878	915
339.106	898
339.334	922
339.562	906
339.79	877
340.018	876
340.246	898
340.474	846
340.702	884
340.93	870
341.158	873
341.386	871
341.614	882
341.842	869
342.07	859
342.298	852
342.526	869
342.754	874
342.981	876
343.209	887
343.437	952
343.665	1008
343.893	1046
344.12	1090
344.348	1068
344.576	994
344.804	970
345.031	898
345.259	879
345.487	874
345.714	855
345.942	871
346.17	893
346.397	866
346.625	845
346.853	831
347.08	812
347.308	837
347.535	857
347.763	846
347.99	849
348.218	832
348.445	828
348.673	800
348.9	846
349.128	870
349.355	843
349.583	828
349.81	794
350.037	812
350.265	858
350.492	807
350.72	802
350.947	801
351.174	805
351.402	833
351.629	789
351.856	800
352.083	806
352.311	806
352.538	824
352.765	824
352.992	789
353.22	789
353.447	809
353.674	813
353.901	782
354.128	786
354.355	763
354.583	778
354.81	793
355.037	784
355.264	793
355.491	780
355.718	795
355.945	820
356.172	813
356.399	827
356.626	802
356.853	808
357.08	802
357.307	805
357.534	820
357.761	808
357.988	806
358.215	799
358.441	824
358.668	814
358.895	813
359.122	798
359.349	812
359.576	792
359.802	827
360.029	794
360.256	790
360.483	832
360.709	833
360.936	808
361.163	814
361.39	815
361.616	821
361.843	801
362.07	822
362.296	821
362.523	807
362.749	808
362.976	826
363.203	792
363.429	802
363.656	811
363.882	785
364.109	810
364.335	810
364.562	785
364.788	791
365.015	803
365.241	802
365.468	777
365.694	781
365.92	814
366.147	770
366.373	802
366.599	811
366.826	816
367.052	788
367.278	802
367.505	787
367.731	818
367.957	815
368.184	818
368.41	800
368.636	821
368.862	855
369.089	838
369.315	856
369.541	812
369.767	844
369.993	843
370.219	854
370.445	832
370.672	833
370.898	855
371.124	849
371.35	869
371.576	858
371.802	886
372.028	858
372.254	877
372.48	890
372.706	913
372.932	941
373.158	916
373.384	890
373.61	877
373.835	900
374.061	883
374.287	899
374.513	877
374.739	921
374.965	964
375.191	984
375.416	976
375.642	951
375.868	936
376.094	896
376.319	925
376.545	908
376.771	890
376.997	905
377.222	868
377.448	856
377.674	857
377.899	892
378.125	881
378.35	858
378.576	860
378.802	875
379.027	845
379.253	851
379.478	864
379.704	872
379.929	851
380.155	868
380.38	877
380.606	903
380.831	882
381.057	890
381.282	859
381.507	856
381.733	870
381.958	879
382.184	894
382.409	885
382.634	922
382.86	938
383.085	932
383.31	956
383.535	954
383.761	939
383.986	982
384.211	1002
384.436	1020
384.662	1036
384.887	1061
385.112	1072
385.337	1100
385.562	1082
385.787	1067
386.013	1095
386.238	1075
386.463	1080
386.688	1082
386.913	1032
387.138	1076
387.363	1058
387.588	1024
387.813	1065
388.038	1034
388.263	1078
388.488	1069
388.713	1055
388.938	1036
389.163	1043
389.387	1043
389.612	1041
389.837	1008
390.062	1048
390.287	1039
390.512	1045
390.736	1058
390.961	1031
391.186	1078
391.411	1129
391.636	1154
391.86	1220
392.085	1240
392.31	1191
392.534	1207
392.759	1149
392.984	1162
393.208	1110
393.433	1133
393.658	1128
393.882	1150
394.107	1131
394.331	1138
394.556	1152
394.78	1147
395.005	1149
395.229	1151
395.454	1173
395.678	1218
395.903	1212
396.127	1199
396.352	1162
396.576	1144
396.801	1148
397.025	1134
397.249	1177
397.474	1203
397.698	1219
397.922	1240
398.147	1214
398.371	1243
398.595	1291
398.82	1340
399.044	1479
399.268	1582
399.492	1880
399.717	2121
399.941	2155
400.165	1897
400.389	1668
400.613	1573
400.837	1465
401.062	1388
401.286	1404
401.51	1371
401.734	1375
401.958	1384
402.182	1380
402.406	1381
402.63	1418
402.854	1458
403.078	1480
403.302	1492
403.526	1568
403.75	1558
403.974	1608
404.198	1570
404.422	1630
404.645	1583
404.869	1533
405.093	1542
405.317	1511
405.541	1477
405.765	1481
405.988	1531
406.212	1506
406.436	1455
406.66	1543
406.883	1541
407.107	1620
407.331	1730
407.555	1813
407.778	1740
408.002	1718
408.226	1693
408.449	1627
408.673	1552
408.896	1540
409.12	1498
409.344	1571
409.567	1505
409.791	1558
410.014	1531
410.238	1506
410.461	1519
410.685	1476
410.908	1450
411.132	1434
411.355	1417
411.578	1389
411.802	1414
412.025	1434
412.249	1459
412.472	1444
412.695	1376
412.919	1360
413.142	1388
413.365	1351
413.589	1385
413.812	1341
414.035	1325
414.258	1324
414.482	1329
414.705	1352
414.928	1360
415.151	1360
415.374	1379
415.597	1351
415.821	1321
416.044	1303
416.267	1339
416.49	1316
416.713	1318
416.936	1330
417.159	1330
417.382	1357
417.605	1314
417.828	1330
418.051	1349
418.274	1350
418.497	1311
418.72	1389
418.943	1368
419.166	1471
419.389	1560
419.611	1500
419.834	1446
420.057	1406
420.28	1387
420.503	1353
420.726	1322
420.948	1301
421.171	1320
421.394	1336
421.617	1339
421.839	1342
422.062	1345
422.285	1334
422.507	1366
422.73	1370
422.953	1356
423.175	1367
423.398	1412
423.621	1423
423.843	1434
424.066	1432
424.288	1408
424.511	1390
424.733	1393
424.956	1358
425.178	1359
425.401	1338
425.623	1311
425.846	1292
426.068	1286
426.291	1299
426.513	1257
426.735	1261
426.958	1251
427.18	1217
427.402	1203
427.625	1195
427.847	1171
428.069	1194
428.292	1228
428.514	1181
428.736	1170
428.958	1156
429.181	1146
429.403	1119
429.625	1138
429.847	1118
430.069	1132
430.292	1159
430.514	1128
430.736	1156
430.958	1162
431.18	1135
431.402	1127
431.624	1151
431.846	1179
432.068	1196
432.29	1162
432.512	1151
432.734	1184
432.956	1147
433.178	1170
433.4	1154
433.622	1166
433.844	1195
434.066	1193
434.287	1180
434.509	1251
434.731	1287
434.953	1327
435.175	1326
435.397	1293
435.618	1225
435.84	1212
436.062	1180
436.284	1159
436.505	1149
436.727	1165
436.949	1154
437.17	1138
437.392	1146
437.614	1093
437.835	1118
438.057	1126
438.278	1139
438.5	1124
438.721	1110
438.943	1145
439.165	1138
439.386	1143
439.608	1150
439.829	1160
440.05	1126
440.272	1150
440.493	1174
440.715	1177
440.936	1181
441.158	1202
441.379	1258
441.6	1346
441.822	1323
442.043	1327
442.264	1317
442.486	1270
442.707	1291
442.928	1298
443.149	1288
443.371	1294
443.592	1310
443.813	1320
444.034	1320
444.255	1381
444.476	1445
444.698	1539
444.919	1555
445.14	1667
445.361	1494
445.582	1377
445.803	1332
446.024	1266
446.245	1258
446.466	1156
446.687	1189
446.908	1192
447.129	1132
447.35	1119
447.571	1113
447.792	1059
448.013	1098
448.234	1093
448.455	1032
448.675	1079
448.896	1080
449.117	1076
449.338	1057
449.559	1043
449.779	1019
450	1032
450.221	1054
450.442	1037
450.662	1047
450.883	1098
451.104	1084
451.324	1073
451.545	1100
451.766	1092
451.986	1063
452.207	1070
452.428	1064
452.648	1021
452.869	1018
453.089	1030
453.31	1054
453.53	1044
453.751	1026
453.971	1036
454.192	1023
454.412	994
454.633	1024
454.853	1001
455.073	1008
455.294	994
455.514	992
455.734	987
455.955	982
456.175	986
456.395	987
456.616	987
456.836	994
457.056	1006
457.276	990
457.497	1044
457.717	1000
457.937	982
458.157	1026
458.377	1040
458.598	1053
458.818	1078
459.038	1115
459.258	1122
459.478	1195
459.698	1227
459.918	1232
460.138	1318
460.358	1361
460.578	1381
460.798	1420
461.018	1406
461.238	1363
461.458	1391
461.678	1386
461.898	1405
462.118	1428
462.338	1482
462.558	1541
462.777	1569
462.997	1749
463.217	1885
463.437	1934
463.657	1762
463.876	1647
464.096	1648
464.316	1663
464.536	1624
464.755	1626
464.975	1482
465.195	1467
465.414	1386
465.634	1262
465.854	1226
466.073	1162
466.293	1165
466.512	1129
466.732	1120
466.951	1119
467.171	1108
467.391	1127
467.61	1116
467.829	1091
468.049	1084
468.268	1082
468.488	1059
468.707	1059
468.927	1073
469.146	1077
469.365	1094
469.585	1112
469.804	1138
470.023	1137
470.243	1167
470.462	1139
470.681	1151
470.901	1185
471.12	1132
471.339	1140
471.558	1092
471.777	1089
471.997	1094
472.216	1064
472.435	1059
472.654	1025
472.873	1044
473.092	1036
473.311	1034
473.53	1054
473.749	1063
473.968	1018
474.187	1040
474.406	1043
474.625	1040
474.844	1040
475.063	1031
475.282	1050
475.501	1015
475.72	1027
475.939	1071
476.158	1046
476.377	1100
476.596	1072
476.814	1100
477.033	1077
477.252	1108
477.471	1125
477.69	1168
477.908	1196
478.127	1236
478.346	1240
478.564	1266
478.783	1288
479.002	1326
479.22	1322
479.439	1332
479.658	1280
479.876	1312
480.095	1317
480.313	1387
480.532	1443
480.751	1415
480.969	1361
481.188	1304
481.406	1238
481.624	1259
481.843	1223
482.061	1186
482.28	1148
482.498	1175
482.717	1182
482.935	1189
483.153	1190
483.372	1204
483.59	1168
483.808	1158
484.027	1183
484.245	1176
484.463	1199
484.681	1210
484.9	1204
485.118	1216
485.336	1227
485.554	1232
485.772	1205
485.99	1266
486.209	1220
486.427	1231
486.645	1252
486.863	1260
487.081	1244
487.299	1251
487.517	1257
487.735	1219
487.953	1215
488.171	1259
488.389	1259
488.607	1221
488.825	1209
489.043	1196
489.261	1219
489.479	1216
489.696	1249
489.914	1242
490.132	1238
490.35	1251
490.568	1243
490.786	1239
491.003	1278
491.221	1254
491.439	1238
491.657	1252
491.874	1229
492.092	1266
492.31	1300
492.527	1287
492.745	1318
492.963	1262
493.18	1284
493.398	1319
493.615	1269
493.833	1278
494.05	1341
494.268	1333
494.485	1343
494.703	1320
494.92	1344
495.138	1340
495.355	1328
495.573	1367
495.79	1356
496.008	1339
496.225	1367
496.442	1387
496.66	1370
496.877	1458
497.094	1424
497.312	1482
497.529	1505
497.746	1539
497.963	1582
498.181	1688
498.398	1748
498.615	1844
498.832	1970
499.049	2127
499.267	2327
499.484	2597
499.701	2868
499.918	3154
500.135	3650
500.352	4161
500.569	4308
500.786	4293
501.003	4024
501.22	3610
501.437	3163
501.654	2757
501.871	2493
502.088	2283
502.305	2127
502.522	2019
502.739	1976
502.956	1820
503.172	1732
503.389	1636
503.606	1579
503.823	1572
504.04	1560
504.256	1571
504.473	1617
504.69	1669
504.907	1623
505.123	1507
505.34	1432
505.557	1363
505.773	1319
505.99	1251
506.207	1242
506.423	1256
506.64	1236
506.856	1208
507.073	1212
507.289	1199
507.506	1190
507.722	1198
507.939	1180
508.155	1136
508.372	1121
508.588	1124
508.805	1144
509.021	1130
509.238	1112
509.454	1126
509.67	1101
509.887	1099
510.103	1071
510.319	1084
510.536	1074
510.752	1028
510.968	1088
511.184	1065
511.401	1086
511.617	1079
511.833	1037
512.049	1046
512.265	1069
512.481	1054
512.698	1048
512.914	1080
513.13	1100
513.346	1071
513.562	1067
513.778	1071
513.994	1087
514.21	1078
514.426	1098
514.642	1079
514.858	1103
515.074	1079
515.29	1103
515.506	1102
515.721	1156
515.937	1167
516.153	1159
516.369	1208
516.585	1265
516.801	1280
517.016	1324
517.232	1423
517.448	1446
517.664	1529
517.879	1586
518.095	1532
518.311	1503
518.527	1432
518.742	1358
518.958	1302
519.173	1238
519.389	1223
519.605	1190
519.82	1144
520.036	1186
520.251	1141
520.467	1140
520.682	1078
520.898	1079
521.113	1076
521.329	1059
521.544	1050
521.76	1017
521.975	1022
522.19	994
522.406	1022
522.621	1007
522.836	991
523.052	988
523.267	993
523.482	1003
523.698	1011
523.913	974
524.128	975
524.343	1005
524.559	977
524.774	962
524.989	959
525.204	988
525.419	987
525.634	961
525.849	973
526.064	994
526.28	954
526.495	971
526.71	958
526.925	949
527.14	963
527.355	965
527.57	956
527.785	959
527.999	951
528.214	957
528.429	960
528.644	979
528.859	963
529.074	937
529.289	977
529.503	961
529.718	935
529.933	952
530.148	956
530.363	939
530.577	950
530.792	940
531.007	926
531.221	930
531.436	950
531.651	956
531.865	953
532.08	956
532.295	964
532.509	951
532.724	952
532.938	952
533.153	947
533.367	937
533.582	962
533.796	931
534.011	966
534.225	954
534.44	902
534.654	954
534.868	917
535.083	917
535.297	943
535.511	915
535.726	935
535.94	916
536.154	915
536.369	908
536.583	888
536.797	901
537.011	916
537.225	884
537.44	862
537.654	875
537.868	870
538.082	845
538.296	867
538.51	873
538.724	904
538.938	864
539.153	841
539.367	845
539.581	878
539.795	860
540.009	889
540.222	871
540.436	873
540.65	850
540.864	864
541.078	833
541.292	847
541.506	841
541.72	872
541.934	830
542.147	850
542.361	853
542.575	844
542.789	854
543.002	841
543.216	852
543.43	842
543.644	848
543.857	800
544.071	842
544.285	854
544.498	838
544.712	881
544.925	877
545.139	870
545.352	864
545.566	893
545.779	872
545.993	898
546.206	892
546.42	883
546.633	886
546.847	870
547.06	883
547.274	890
547.487	886
547.7	898
547.914	904
548.127	902
548.34	887
548.554	900
548.767	864
548.98	899
549.193	898
549.407	911
549.62	898
549.833	939
550.046	924
550.259	894
550.473	877
550.686	875
550.899	855
551.112	849
551.325	839
551.538	866
551.751	838
551.964	882
552.177	864
552.39	896
552.603	898
552.816	927
553.029	954
553.242	977
553.455	991
553.667	984
553.88	995
554.093	924
554.306	891
554.519	896
554.732	883
554.944	884
555.157	848
555.37	858
555.583	841
555.795	823
556.008	785
556.221	780
556.433	759
556.646	774
556.859	761
557.071	739
557.284	741
557.496	749
557.709	783
557.921	747
558.134	728
558.346	739
558.559	737
558.771	732
558.984	739
559.196	700
559.409	726
559.621	731
559.833	730
560.046	715
560.258	716
560.47	692
560.683	703
560.895	729
561.107	726
561.32	715
561.532	713
561.744	716
561.956	704
562.168	734
562.381	726
562.593	730
562.805	720
563.017	702
563.229	711
563.441	733
563.653	732
563.865	739
564.077	760
564.289	748
564.501	752
564.713	785
564.925	776
565.137	805
565.349	779
565.561	832
565.773	878
565.985	923
566.197	968
566.408	1034
566.62	1125
566.832	1198
567.044	1245
567.255	1266
567.467	1281
567.679	1348
567.891	1464
568.102	1462
568.314	1382
568.526	1286
568.737	1135
568.949	1056
569.161	958
569.372	892
569.584	851
569.795	810
570.007	811
570.218	772
570.43	761
570.641	745
570.853	752
571.064	749
571.276	752
571.487	752
571.698	704
571.91	688
572.121	649
572.333	639
572.544	622
572.755	623
572.966	637
573.178	616
573.389	597
573.6	605
573.811	598
574.023	605
574.234	601
574.445	590
574.656	599
574.867	610
575.078	594
575.289	552
575.501	580
575.712	552
575.923	567
576.134	560
576.345	567
576.556	587
576.767	550
576.978	550
577.188	541
577.399	538
577.61	551
577.821	566
578.032	524
578.243	554
578.454	548
578.665	540
578.875	494
579.086	516
579.297	544
579.508	492
579.718	510
579.929	526
580.14	515
580.35	513
580.561	509
580.772	522
580.982	530
581.193	512
581.403	522
581.614	507
581.825	484
582.035	503
582.246	499
582.456	492
582.667	496
582.877	493
583.087	480
583.298	479
583.508	478
583.719	506
583.929	502
584.139	479
584.35	478
584.56	463
584.77	486
584.981	468
585.191	476
585.401	499
585.611	490
585.821	460
586.032	456
586.242	484
586.452	482
586.662	467
586.872	464
587.082	492
587.292	460
587.502	468
587.713	445
587.923	475
588.133	485
588.343	485
588.553	486
588.762	484
588.972	459
589.182	492
589.392	472
589.602	470
589.812	479
590.022	463
590.232	475
590.441	487
590.651	479
590.861	461
591.071	457
591.281	479
591.49	502
591.7	503
591.91	500
592.119	507
592.329	535
592.539	551
592.748	559
592.958	592
593.167	602
593.377	609
593.587	610
593.796	603
594.006	610
594.215	626
594.424	634
594.634	619
594.843	590
595.053	574
595.262	542
595.472	524
595.681	539
595.89	513
596.1	474
596.309	466
596.518	466
596.727	456
596.937	450
597.146	430
597.355	444
597.564	433
597.774	420
597.983	412
598.192	422
598.401	408
598.61	421
598.819	416
599.028	418
599.237	424
599.446	395
599.655	413
599.864	411
600.073	399
600.282	390
600.491	406
600.7	398
600.909	391
601.118	389
601.327	405
601.536	391
601.745	378
601.953	372
602.162	384
602.371	381
602.58	378
602.789	383
602.997	384
603.206	379
603.415	377
603.623	363
603.832	370
604.041	374
604.249	366
604.458	337
604.666	378
604.875	388
605.084	367
605.292	372
605.501	381
605.709	360
605.918	376
606.126	347
606.334	360
606.543	364
606.751	374
606.96	359
607.168	350
607.376	351
607.585	350
607.793	349
608.001	366
608.21	353
608.418	338
608.626	358
608.834	349
609.043	358
609.251	344
609.459	354
609.667	352
609.875	345
610.083	334
610.291	346
610.499	346
610.707	360
610.916	346
611.124	317
611.332	327
611.54	333
611.748	342
611.955	331
612.163	333
612.371	340
612.579	321
612.787	325
612.995	346
613.203	319
613.411	340
613.618	335
613.826	333
614.034	320
614.242	331
614.449	341
614.657	334
614.865	325
615.072	319
615.28	336
615.488	336
615.695	330
615.903	332
616.111	333
616.318	346
616.526	322
616.733	339
616.941	339
617.148	342
617.356	334
617.563	335
617.771	333
617.978	326
618.185	334
618.393	321
618.6	335
618.807	316
619.015	328
619.222	316
619.429	339
619.637	319
619.844	311
620.051	297
620.258	311
620.466	308
620.673	291
620.88	308
621.087	312
621.294	309
621.501	306
621.708	321
621.915	327
622.122	318
622.329	292
622.536	296
622.743	311
622.95	315
623.157	299
623.364	302
623.571	310
623.778	280
623.985	301
624.192	302
624.399	295
624.606	282
624.812	285
625.019	296
625.226	314
625.433	291
625.639	260
625.846	286
626.053	300
626.259	278
626.466	277
626.673	269
626.879	279
627.086	290
627.293	271
627.499	293
627.706	281
627.912	271
628.119	270
628.325	279
628.532	295
628.738	281
628.945	285
629.151	284
629.357	261
629.564	263
629.77	280
629.976	261
630.183	268
630.389	269
630.595	266
630.802	258
631.008	255
631.214	252
631.42	263
631.627	254
631.833	239
632.039	244
632.245	235
632.451	237
632.657	251
632.863	249
633.069	247
633.275	251
633.481	239
633.688	246
633.893	273
634.099	258
634.305	248
634.511	247
634.717	244
634.923	242
635.129	238
635.335	252
635.541	235
635.747	252
635.952	242
636.158	245
636.364	251
636.57	252
636.775	234
636.981	238
637.187	229
637.392	235
637.598	237
637.804	226
638.009	220
638.215	231
638.421	219
638.626	205
638.832	216
639.037	235
639.243	234
639.448	225
639.654	224
639.859	225
640.065	233
640.27	215
640.475	240
640.681	223
640.886	245
641.091	226
641.297	230
641.502	234
641.707	218
641.913	217
642.118	228
642.323	212
642.528	215
642.733	196
642.939	211
643.144	213
643.349	224
643.554	216
643.759	215
643.964	198
644.169	201
644.374	210
644.579	205
644.784	215
644.989	203
645.194	195
645.399	206
645.604	198
645.809	208
646.014	207
646.219	219
646.423	196
646.628	213
646.833	219
647.038	232
647.243	224
647.447	216
647.652	237
647.857	215
648.062	233
648.266	242
648.471	223
648.676	218
648.88	224
649.085	212
649.289	203
649.494	219
649.698	213
649.903	212
650.107	201
650.312	202
650.516	202
650.721	210
650.925	204
651.13	187
651.334	202
651.539	186
651.743	180
651.947	194
652.152	185
652.356	172
652.56	183
652.764	176
652.969	178
653.173	171
653.377	178
653.581	160
653.785	147
653.99	151
654.194	153
654.398	168
654.602	167
654.806	156
655.01	159
655.214	143
655.418	152
655.622	178
655.826	149
656.03	137
656.234	140
656.438	142
656.642	143
656.846	137
657.049	135
657.253	116
657.457	124
657.661	136
657.865	142
658.068	132
658.272	118
658.476	122
658.68	128
658.883	112
659.087	117
659.291	115
659.494	117
659.698	119
659.901	99
660.105	114
660.309	86
660.512	103
660.716	109
660.919	107
661.123	99
661.326	90
661.53	98
661.733	104
661.936	101
662.14	89
662.343	105
662.546	88
662.75	93
662.953	88
663.156	69
663.36	84
663.563	90
663.766	94
663.969	89
664.173	105
664.376	86
664.579	103
664.782	95
664.985	106
665.188	86
665.391	101
665.594	100
665.797	70
666	81
666.203	96
666.406	97
666.609	93
666.812	75
667.015	88
667.218	89
667.421	91
667.624	98
667.827	90
668.03	92
668.232	67
668.435	72
668.638	84
668.841	90
669.043	92
669.246	84
669.449	98
669.651	95
669.854	80
670.057	80
670.259	91
670.462	82
670.665	83
670.867	86
671.07	86
671.272	86
671.475	88
671.677	79
671.88	93
672.082	75
672.284	83
672.487	84
672.689	92
672.892	76
