Data from NiCl2@0.5M.TitratingCurve.Agarose3%dH2O.NegLispCup.LampEnergy10.LIBS07252019_HRD10591_18-18-52-571.txt Node
Date: Thu Jul 25 18:18:52 EDT 2019
User: cochatt
Spectrometer: HR+D1059
Trigger mode: 1
Integration Time (sec): 1.000000E-1
Scans to average: 1
Electric dark correction enabled: true
Nonlinearity correction enabled: false
Boxcar width: 0
XAxis mode: Wavelengths
Number of Pixels in Spectrum: 2048
>>>>>Begin Spectral Data<<<<<
223.165	-18.81
223.4	-18.81
223.635	-18.81
223.869	-10.81
224.104	-24.81
224.338	-17.81
224.573	-23.81
224.808	-13.81
225.042	-7.81
225.277	-0.81
225.511	-5.81
225.746	-0.81
225.98	12.19
226.215	11.19
226.449	13.19
226.683	30.19
226.918	26.19
227.152	32.19
227.387	59.19
227.621	45.19
227.856	37.19
228.09	48.19
228.324	48.19
228.559	57.19
228.793	67.19
229.027	127.19
229.262	122.19
229.496	138.19
229.73	164.19
229.964	156.19
230.199	181.19
230.433	176.19
230.667	172.19
230.901	169.19
231.136	161.19
231.37	169.19
231.604	190.19
231.838	181.19
232.072	194.19
232.306	186.19
232.541	176.19
232.775	176.19
233.009	168.19
233.243	186.19
233.477	169.19
233.711	187.19
233.945	187.19
234.179	186.19
234.413	170.19
234.647	180.19
234.881	176.19
235.115	172.19
235.349	172.19
235.583	168.19
235.817	187.19
236.051	181.19
236.285	183.19
236.519	179.19
236.753	167.19
236.987	173.19
237.221	172.19
237.455	203.19
237.689	192.19
237.922	197.19
238.156	197.19
238.39	202.19
238.624	195.19
238.858	193.19
239.091	189.19
239.325	197.19
239.559	209.19
239.793	224.19
240.027	234.19
240.26	208.19
240.494	216.19
240.728	210.19
240.961	213.19
241.195	207.19
241.429	216.19
241.662	237.19
241.896	230.19
242.13	269.19
242.363	229.19
242.597	220.19
242.83	237.19
243.064	237.19
243.298	233.19
243.531	226.19
243.765	247.19
243.998	241.19
244.232	244.19
244.465	233.19
244.699	255.19
244.932	242.19
245.166	256.19
245.399	249.19
245.633	250.19
245.866	242.19
246.099	246.19
246.333	245.19
246.566	248.19
246.8	260.19
247.033	253.19
247.266	251.19
247.5	286.19
247.733	257.19
247.966	261.19
248.2	286.19
248.433	288.19
248.666	263.19
248.899	286.19
249.133	290.19
249.366	290.19
249.599	286.19
249.832	278.19
250.066	281.19
250.299	269.19
250.532	287.19
250.765	295.19
250.998	315.19
251.231	309.19
251.465	323.19
251.698	331.19
251.931	331.19
252.164	324.19
252.397	329.19
252.63	307.19
252.863	317.19
253.096	311.19
253.329	293.19
253.562	312.19
253.795	326.19
254.028	332.19
254.261	334.19
254.494	321.19
254.727	310.19
254.96	353.19
255.193	346.19
255.426	331.19
255.659	313.19
255.892	333.19
256.124	336.19
256.357	350.19
256.59	336.19
256.823	340.19
257.056	346.19
257.289	337.19
257.521	354.19
257.754	347.19
257.987	358.19
258.22	372.19
258.452	362.19
258.685	362.19
258.918	361.19
259.151	369.19
259.383	361.19
259.616	355.19
259.849	372.19
260.081	354.19
260.314	374.19
260.547	385.19
260.779	397.19
261.012	364.19
261.244	383.19
261.477	363.19
261.71	385.19
261.942	392.19
262.175	398.19
262.407	393.19
262.64	396.19
262.872	365.19
263.105	400.19
263.337	401.19
263.57	387.19
263.802	412.19
264.035	387.19
264.267	401.19
264.499	401.19
264.732	396.19
264.964	419.19
265.197	408.19
265.429	395.19
265.661	406.19
265.894	419.19
266.126	404.19
266.358	409.19
266.591	430.19
266.823	426.19
267.055	422.19
267.287	431.19
267.52	417.19
267.752	438.19
267.984	430.19
268.216	437.19
268.448	443.19
268.681	441.19
268.913	443.19
269.145	437.19
269.377	425.19
269.609	460.19
269.841	423.19
270.073	469.19
270.306	461.19
270.538	447.19
270.77	450.19
271.002	454.19
271.234	459.19
271.466	471.19
271.698	459.19
271.93	465.19
272.162	472.19
272.394	471.19
272.626	466.19
272.858	466.19
273.09	483.19
273.322	485.19
273.553	494.19
273.785	469.19
274.017	454.19
274.249	479.19
274.481	489.19
274.713	477.19
274.945	519.19
275.176	501.19
275.408	514.19
275.64	539.19
275.872	495.19
276.104	492.19
276.335	494.19
276.567	507.19
276.799	507.19
277.031	522.19
277.262	519.19
277.494	533.19
277.726	523.19
277.957	501.19
278.189	517.19
278.421	522.19
278.652	527.19
278.884	534.19
279.115	542.19
279.347	538.19
279.579	529.19
279.81	539.19
280.042	558.19
280.273	535.19
280.505	538.19
280.736	530.19
280.968	555.19
281.199	540.19
281.431	568.19
281.662	530.19
281.894	545.19
282.125	557.19
282.356	543.19
282.588	529.19
282.819	532.19
283.051	562.19
283.282	543.19
283.513	544.19
283.745	539.19
283.976	567.19
284.207	574.19
284.439	578.19
284.67	563.19
284.901	569.19
285.132	585.19
285.364	580.19
285.595	585.19
285.826	606.19
286.057	586.19
286.288	584.19
286.52	567.19
286.751	593.19
286.982	616.19
287.213	613.19
287.444	596.19
287.675	597.19
287.906	581.19
288.138	577.19
288.369	587.19
288.6	616.19
288.831	609.19
289.062	622.19
289.293	620.19
289.524	592.19
289.755	635.19
289.986	634.19
290.217	606.19
290.448	639.19
290.679	615.19
290.91	645.19
291.141	632.19
291.371	637.19
291.602	610.19
291.833	618.19
292.064	640.19
292.295	617.19
292.526	617.19
292.757	616.19
292.987	608.19
293.218	631.19
293.449	625.19
293.68	645.19
293.91	647.19
294.141	617.19
294.372	631.19
294.603	631.19
294.833	640.19
295.064	641.19
295.295	634.19
295.525	639.19
295.756	664.19
295.987	631.19
296.217	655.19
296.448	641.19
296.679	645.19
296.909	653.19
297.14	645.19
297.37	673.19
297.601	695.19
297.831	668.19
298.062	665.19
298.292	687.19
298.523	672.19
298.753	684.19
298.984	659.19
299.214	689.19
299.445	696.19
299.675	694.19
299.905	688.19
300.136	702.19
300.366	704.19
300.597	749.19
300.827	724.19
301.057	713.19
301.288	724.19
301.518	723.19
301.748	741.19
301.979	729.19
302.209	733.19
302.439	709.19
302.669	735.19
302.9	700.19
303.13	721.19
303.36	719.19
303.59	703.19
303.82	723.19
304.051	733.19
304.281	740.19
304.511	723.19
304.741	714.19
304.971	727.19
305.201	739.19
305.431	734.19
305.661	705.19
305.891	736.19
306.121	740.19
306.352	719.19
306.582	707.19
306.812	696.19
307.042	713.19
307.272	696.19
307.502	719.19
307.731	727.19
307.961	736.19
308.191	711.19
308.421	699.19
308.651	729.19
308.881	718.19
309.111	727.19
309.341	725.19
309.571	733.19
309.8	757.19
310.03	759.19
310.26	771.19
310.49	793.19
310.72	746.19
310.949	738.19
311.179	757.19
311.409	739.19
311.639	752.19
311.868	743.19
312.098	770.19
312.328	761.19
312.557	755.19
312.787	773.19
313.017	759.19
313.246	771.19
313.476	787.19
313.706	803.19
313.935	774.19
314.165	779.19
314.394	777.19
314.624	779.19
314.853	773.19
315.083	762.19
315.312	764.19
315.542	782.19
315.771	802.19
316.001	781.19
316.23	794.19
316.46	775.19
316.689	782.19
316.919	781.19
317.148	787.19
317.377	795.19
317.607	783.19
317.836	770.19
318.065	769.19
318.295	809.19
318.524	793.19
318.753	760.19
318.983	797.19
319.212	773.19
319.441	785.19
319.67	812.19
319.9	798.19
320.129	777.19
320.358	793.19
320.587	810.19
320.816	792.19
321.046	785.19
321.275	803.19
321.504	783.19
321.733	816.19
321.962	787.19
322.191	795.19
322.42	825.19
322.649	803.19
322.878	818.19
323.108	805.19
323.337	818.19
323.566	819.19
323.795	832.19
324.024	792.19
324.253	821.19
324.482	827.19
324.71	833.19
324.939	825.19
325.168	856.19
325.397	856.19
325.626	840.19
325.855	847.19
326.084	871.19
326.313	871.19
326.542	859.19
326.77	868.19
326.999	829.19
327.228	839.19
327.457	849.19
327.686	834.19
327.914	857.19
328.143	860.19
328.372	827.19
328.6	858.19
328.829	851.19
329.058	850.19
329.287	866.19
329.515	868.19
329.744	878.19
329.972	892.19
330.201	876.19
330.43	893.19
330.658	863.19
330.887	885.19
331.115	857.19
331.344	867.19
331.572	899.19
331.801	907.19
332.03	930.19
332.258	924.19
332.486	929.19
332.715	959.19
332.943	971.19
333.172	998.19
333.4	973.19
333.629	1005.19
333.857	1001.19
334.085	1004.19
334.314	990.19
334.542	993.19
334.771	977.19
334.999	976.19
335.227	1012.19
335.455	1021.19
335.684	994.19
335.912	1000.19
336.14	977.19
336.369	972.19
336.597	1017.19
336.825	1038.19
337.053	994.19
337.281	998.19
337.51	988.19
337.738	957.19
337.966	965.19
338.194	975.19
338.422	977.19
338.65	925.19
338.878	946.19
339.106	931.19
339.334	935.19
339.562	954.19
339.79	939.19
340.018	933.19
340.246	896.19
340.474	912.19
340.702	903.19
340.93	916.19
341.158	892.19
341.386	911.19
341.614	967.19
341.842	944.19
342.07	905.19
342.298	909.19
342.526	910.19
342.754	909.19
342.981	906.19
343.209	916.19
343.437	947.19
343.665	979.19
343.893	959.19
344.12	1002.19
344.348	969.19
344.576	1006.19
344.804	1007.19
345.031	962.19
345.259	936.19
345.487	945.19
345.714	922.19
345.942	928.19
346.17	959.19
346.397	917.19
346.625	911.19
346.853	894.19
347.08	873.19
347.308	900.19
347.535	889.19
347.763	880.19
347.99	872.19
348.218	856.19
348.445	857.19
348.673	888.19
348.9	861.19
349.128	877.19
349.355	885.19
349.583	880.19
349.81	862.19
350.037	856.19
350.265	825.19
350.492	887.19
350.72	857.19
350.947	835.19
351.174	881.19
351.402	889.19
351.629	893.19
351.856	897.19
352.083	878.19
352.311	882.19
352.538	901.19
352.765	927.19
352.992	856.19
353.22	811.19
353.447	817.19
353.674	845.19
353.901	846.19
354.128	816.19
354.355	818.19
354.583	834.19
354.81	838.19
355.037	833.19
355.264	825.19
355.491	844.19
355.718	825.19
355.945	816.19
356.172	822.19
356.399	831.19
356.626	841.19
356.853	879.19
357.08	877.19
357.307	831.19
357.534	838.19
357.761	827.19
357.988	811.19
358.215	829.19
358.441	811.19
358.668	823.19
358.895	822.19
359.122	801.19
359.349	826.19
359.576	826.19
359.802	814.19
360.029	833.19
360.256	837.19
360.483	796.19
360.709	813.19
360.936	860.19
361.163	848.19
361.39	846.19
361.616	848.19
361.843	856.19
362.07	892.19
362.296	891.19
362.523	843.19
362.749	830.19
362.976	830.19
363.203	811.19
363.429	798.19
363.656	823.19
363.882	790.19
364.109	807.19
364.335	819.19
364.562	826.19
364.788	846.19
365.015	827.19
365.241	818.19
365.468	801.19
365.694	809.19
365.92	798.19
366.147	837.19
366.373	832.19
366.599	821.19
366.826	819.19
367.052	833.19
367.278	819.19
367.505	853.19
367.731	847.19
367.957	825.19
368.184	859.19
368.41	822.19
368.636	827.19
368.862	823.19
369.089	829.19
369.315	823.19
369.541	820.19
369.767	851.19
369.993	821.19
370.219	827.19
370.445	843.19
370.672	864.19
370.898	852.19
371.124	841.19
371.35	859.19
371.576	857.19
371.802	840.19
372.028	878.19
372.254	851.19
372.48	857.19
372.706	871.19
372.932	877.19
373.158	904.19
373.384	877.19
373.61	857.19
373.835	843.19
374.061	866.19
374.287	868.19
374.513	882.19
374.739	879.19
374.965	907.19
375.191	918.19
375.416	911.19
375.642	878.19
375.868	882.19
376.094	878.19
376.319	862.19
376.545	846.19
376.771	840.19
376.997	850.19
377.222	832.19
377.448	842.19
377.674	856.19
377.899	867.19
378.125	866.19
378.35	840.19
378.576	870.19
378.802	839.19
379.027	845.19
379.253	859.19
379.478	840.19
379.704	852.19
379.929	855.19
380.155	834.19
380.38	837.19
380.606	840.19
380.831	836.19
381.057	853.19
381.282	833.19
381.507	871.19
381.733	832.19
381.958	855.19
382.184	858.19
382.409	862.19
382.634	866.19
382.86	889.19
383.085	881.19
383.31	899.19
383.535	907.19
383.761	909.19
383.986	922.19
384.211	897.19
384.436	912.19
384.662	910.19
384.887	933.19
385.112	963.19
385.337	939.19
385.562	916.19
385.787	941.19
386.013	969.19
386.238	972.19
386.463	970.19
386.688	937.19
386.913	977.19
387.138	991.19
387.363	965.19
387.588	946.19
387.813	959.19
388.038	952.19
388.263	966.19
388.488	972.19
388.713	964.19
388.938	976.19
389.163	964.19
389.387	964.19
389.612	971.19
389.837	972.19
390.062	972.19
390.287	966.19
390.512	955.19
390.736	986.19
390.961	981.19
391.186	971.19
391.411	1014.19
391.636	1063.19
391.86	1038.19
392.085	1043.19
392.31	1018.19
392.534	1025.19
392.759	1014.19
392.984	1032.19
393.208	1036.19
393.433	1035.19
393.658	1020.19
393.882	1033.19
394.107	998.19
394.331	1021.19
394.556	997.19
394.78	1057.19
395.005	1011.19
395.229	1005.19
395.454	1041.19
395.678	1013.19
395.903	1040.19
396.127	1071.19
396.352	1035.19
396.576	1032.19
396.801	1035.19
397.025	1048.19
397.249	1055.19
397.474	1077.19
397.698	1090.19
397.922	1093.19
398.147	1091.19
398.371	1088.19
398.595	1115.19
398.82	1163.19
399.044	1213.19
399.268	1278.19
399.492	1375.19
399.717	1398.19
399.941	1437.19
400.165	1336.19
400.389	1327.19
400.613	1255.19
400.837	1213.19
401.062	1179.19
401.286	1181.19
401.51	1195.19
401.734	1183.19
401.958	1176.19
402.182	1171.19
402.406	1164.19
402.63	1186.19
402.854	1202.19
403.078	1194.19
403.302	1208.19
403.526	1175.19
403.75	1232.19
403.974	1209.19
404.198	1207.19
404.422	1240.19
404.645	1209.19
404.869	1184.19
405.093	1226.19
405.317	1209.19
405.541	1233.19
405.765	1202.19
405.988	1195.19
406.212	1243.19
406.436	1222.19
406.66	1244.19
406.883	1264.19
407.107	1323.19
407.331	1332.19
407.555	1382.19
407.778	1360.19
408.002	1366.19
408.226	1322.19
408.449	1326.19
408.673	1311.19
408.896	1282.19
409.12	1312.19
409.344	1280.19
409.567	1262.19
409.791	1264.19
410.014	1235.19
410.238	1281.19
410.461	1270.19
410.685	1252.19
410.908	1256.19
411.132	1226.19
411.355	1199.19
411.578	1214.19
411.802	1238.19
412.025	1233.19
412.249	1252.19
412.472	1192.19
412.695	1206.19
412.919	1185.19
413.142	1182.19
413.365	1187.19
413.589	1208.19
413.812	1195.19
414.035	1154.19
414.258	1190.19
414.482	1182.19
414.705	1180.19
414.928	1178.19
415.151	1193.19
415.374	1180.19
415.597	1143.19
415.821	1147.19
416.044	1110.19
416.267	1159.19
416.49	1159.19
416.713	1144.19
416.936	1134.19
417.159	1115.19
417.382	1127.19
417.605	1144.19
417.828	1122.19
418.051	1128.19
418.274	1130.19
418.497	1124.19
418.72	1130.19
418.943	1148.19
419.166	1198.19
419.389	1285.19
419.611	1263.19
419.834	1233.19
420.057	1202.19
420.28	1190.19
420.503	1162.19
420.726	1145.19
420.948	1129.19
421.171	1147.19
421.394	1097.19
421.617	1127.19
421.839	1158.19
422.062	1179.19
422.285	1144.19
422.507	1162.19
422.73	1155.19
422.953	1142.19
423.175	1155.19
423.398	1177.19
423.621	1147.19
423.843	1161.19
424.066	1168.19
424.288	1152.19
424.511	1153.19
424.733	1182.19
424.956	1155.19
425.178	1147.19
425.401	1162.19
425.623	1161.19
425.846	1126.19
426.068	1157.19
426.291	1148.19
426.513	1128.19
426.735	1137.19
426.958	1118.19
427.18	1111.19
427.402	1113.19
427.625	1117.19
427.847	1117.19
428.069	1114.19
428.292	1109.19
428.514	1078.19
428.736	1084.19
428.958	1078.19
429.181	1069.19
429.403	1067.19
429.625	1080.19
429.847	1063.19
430.069	1109.19
430.292	1107.19
430.514	1114.19
430.736	1093.19
430.958	1097.19
431.18	1111.19
431.402	1078.19
431.624	1109.19
431.846	1114.19
432.068	1118.19
432.29	1172.19
432.512	1140.19
432.734	1134.19
432.956	1141.19
433.178	1137.19
433.4	1141.19
433.622	1155.19
433.844	1135.19
434.066	1140.19
434.287	1159.19
434.509	1143.19
434.731	1166.19
434.953	1195.19
435.175	1217.19
435.397	1216.19
435.618	1168.19
435.84	1131.19
436.062	1106.19
436.284	1142.19
436.505	1123.19
436.727	1120.19
436.949	1121.19
437.17	1107.19
437.392	1141.19
437.614	1130.19
437.835	1072.19
438.057	1074.19
438.278	1063.19
438.5	1097.19
438.721	1057.19
438.943	1102.19
439.165	1085.19
439.386	1087.19
439.608	1122.19
439.829	1115.19
440.05	1111.19
440.272	1150.19
440.493	1148.19
440.715	1120.19
440.936	1123.19
441.158	1130.19
441.379	1157.19
441.6	1169.19
441.822	1189.19
442.043	1179.19
442.264	1205.19
442.486	1169.19
442.707	1173.19
442.928	1151.19
443.149	1194.19
443.371	1188.19
443.592	1240.19
443.813	1222.19
444.034	1204.19
444.255	1240.19
444.476	1244.19
444.698	1295.19
444.919	1312.19
445.14	1358.19
445.361	1343.19
445.582	1245.19
445.803	1208.19
446.024	1149.19
446.245	1148.19
446.466	1166.19
446.687	1105.19
446.908	1095.19
447.129	1108.19
447.35	1128.19
447.571	1109.19
447.792	1097.19
448.013	1054.19
448.234	1077.19
448.455	1044.19
448.675	1078.19
448.896	1068.19
449.117	1023.19
449.338	1035.19
449.559	1032.19
449.779	1032.19
450	1000.19
450.221	1037.19
450.442	1039.19
450.662	1073.19
450.883	1070.19
451.104	1101.19
451.324	1037.19
451.545	1030.19
451.766	1084.19
451.986	1017.19
452.207	1044.19
452.428	1029.19
452.648	1040.19
452.869	1013.19
453.089	1018.19
453.31	1037.19
453.53	1007.19
453.751	1044.19
453.971	1041.19
454.192	1041.19
454.412	1013.19
454.633	1006.19
454.853	983.19
455.073	997.19
455.294	1015.19
455.514	1033.19
455.734	1008.19
455.955	1032.19
456.175	1003.19
456.395	1002.19
456.616	979.19
456.836	996.19
457.056	998.19
457.276	976.19
457.497	1024.19
457.717	1032.19
457.937	1031.19
458.157	1043.19
458.377	1037.19
458.598	1022.19
458.818	1049.19
459.038	1078.19
459.258	1121.19
459.478	1146.19
459.698	1186.19
459.918	1204.19
460.138	1232.19
460.358	1253.19
460.578	1243.19
460.798	1286.19
461.018	1297.19
461.238	1255.19
461.458	1275.19
461.678	1236.19
461.898	1287.19
462.118	1278.19
462.338	1325.19
462.558	1371.19
462.777	1432.19
462.997	1480.19
463.217	1509.19
463.437	1488.19
463.657	1454.19
463.876	1424.19
464.096	1367.19
464.316	1401.19
464.536	1387.19
464.755	1335.19
464.975	1328.19
465.195	1272.19
465.414	1261.19
465.634	1217.19
465.854	1193.19
466.073	1200.19
466.293	1192.19
466.512	1125.19
466.732	1133.19
466.951	1117.19
467.171	1145.19
467.391	1120.19
467.61	1091.19
467.829	1084.19
468.049	1079.19
468.268	1094.19
468.488	1084.19
468.707	1082.19
468.927	1111.19
469.146	1095.19
469.365	1122.19
469.585	1106.19
469.804	1093.19
470.023	1109.19
470.243	1145.19
470.462	1108.19
470.681	1129.19
470.901	1120.19
471.12	1152.19
471.339	1097.19
471.558	1122.19
471.777	1100.19
471.997	1112.19
472.216	1105.19
472.435	1088.19
472.654	1085.19
472.873	1055.19
473.092	1090.19
473.311	1077.19
473.53	1099.19
473.749	1079.19
473.968	1073.19
474.187	1102.19
474.406	1054.19
474.625	1090.19
474.844	1097.19
475.063	1128.19
475.282	1135.19
475.501	1134.19
475.72	1110.19
475.939	1118.19
476.158	1133.19
476.377	1137.19
476.596	1177.19
476.814	1175.19
477.033	1150.19
477.252	1174.19
477.471	1197.19
477.69	1224.19
477.908	1227.19
478.127	1218.19
478.346	1243.19
478.564	1264.19
478.783	1299.19
479.002	1337.19
479.22	1352.19
479.439	1358.19
479.658	1338.19
479.876	1291.19
480.095	1317.19
480.313	1342.19
480.532	1349.19
480.751	1333.19
480.969	1320.19
481.188	1290.19
481.406	1267.19
481.624	1291.19
481.843	1228.19
482.061	1265.19
482.28	1299.19
482.498	1279.19
482.717	1293.19
482.935	1285.19
483.153	1282.19
483.372	1342.19
483.59	1323.19
483.808	1313.19
484.027	1267.19
484.245	1245.19
484.463	1287.19
484.681	1311.19
484.9	1298.19
485.118	1303.19
485.336	1321.19
485.554	1287.19
485.772	1319.19
485.99	1278.19
486.209	1324.19
486.427	1313.19
486.645	1323.19
486.863	1334.19
487.081	1329.19
487.299	1321.19
487.517	1339.19
487.735	1333.19
487.953	1349.19
488.171	1335.19
488.389	1342.19
488.607	1277.19
488.825	1317.19
489.043	1314.19
489.261	1287.19
489.479	1309.19
489.696	1286.19
489.914	1287.19
490.132	1348.19
490.35	1355.19
490.568	1339.19
490.786	1386.19
491.003	1389.19
491.221	1369.19
491.439	1367.19
491.657	1369.19
491.874	1409.19
492.092	1399.19
492.31	1358.19
492.527	1401.19
492.745	1365.19
492.963	1377.19
493.18	1401.19
493.398	1401.19
493.615	1429.19
493.833	1410.19
494.05	1419.19
494.268	1405.19
494.485	1408.19
494.703	1427.19
494.92	1426.19
495.138	1420.19
495.355	1444.19
495.573	1435.19
495.79	1444.19
496.008	1445.19
496.225	1453.19
496.442	1446.19
496.66	1502.19
496.877	1517.19
497.094	1543.19
497.312	1599.19
497.529	1577.19
497.746	1606.19
497.963	1631.19
498.181	1705.19
498.398	1731.19
498.615	1803.19
498.832	1858.19
499.049	1926.19
499.267	1985.19
499.484	2077.19
499.701	2281.19
499.918	2320.19
500.135	2515.19
500.352	2665.19
500.569	2677.19
500.786	2657.19
501.003	2602.19
501.22	2513.19
501.437	2351.19
501.654	2185.19
501.871	2098.19
502.088	2017.19
502.305	1920.19
502.522	1876.19
502.739	1801.19
502.956	1715.19
503.172	1643.19
503.389	1641.19
503.606	1598.19
503.823	1597.19
504.04	1574.19
504.256	1573.19
504.473	1543.19
504.69	1522.19
504.907	1532.19
505.123	1477.19
505.34	1448.19
505.557	1413.19
505.773	1389.19
505.99	1390.19
506.207	1335.19
506.423	1319.19
506.64	1295.19
506.856	1256.19
507.073	1262.19
507.289	1271.19
507.506	1227.19
507.722	1254.19
507.939	1222.19
508.155	1251.19
508.372	1247.19
508.588	1218.19
508.805	1213.19
509.021	1193.19
509.238	1169.19
509.454	1163.19
509.67	1145.19
509.887	1158.19
510.103	1181.19
510.319	1143.19
510.536	1174.19
510.752	1122.19
510.968	1135.19
511.184	1125.19
511.401	1151.19
511.617	1155.19
511.833	1128.19
512.049	1149.19
512.265	1131.19
512.481	1153.19
512.698	1113.19
512.914	1143.19
513.13	1119.19
513.346	1118.19
513.562	1146.19
513.778	1143.19
513.994	1145.19
514.21	1161.19
514.426	1151.19
514.642	1158.19
514.858	1150.19
515.074	1161.19
515.29	1165.19
515.506	1128.19
515.721	1157.19
515.937	1218.19
516.153	1196.19
516.369	1207.19
516.585	1215.19
516.801	1254.19
517.016	1277.19
517.232	1258.19
517.448	1305.19
517.664	1343.19
517.879	1307.19
518.095	1301.19
518.311	1312.19
518.527	1263.19
518.742	1281.19
518.958	1239.19
519.173	1213.19
519.389	1227.19
519.605	1189.19
519.82	1172.19
520.036	1167.19
520.251	1133.19
520.467	1131.19
520.682	1127.19
520.898	1096.19
521.113	1064.19
521.329	1078.19
521.544	1097.19
521.76	1084.19
521.975	1066.19
522.19	1057.19
522.406	1071.19
522.621	1053.19
522.836	1058.19
523.052	1088.19
523.267	1031.19
523.482	1063.19
523.698	1005.19
523.913	1014.19
524.128	1033.19
524.343	1036.19
524.559	1021.19
524.774	1017.19
524.989	1036.19
525.204	1017.19
525.419	1019.19
525.634	1027.19
525.849	1013.19
526.064	1027.19
526.28	1002.19
526.495	1015.19
526.71	1021.19
526.925	1003.19
527.14	998.19
527.355	1016.19
527.57	997.19
527.785	994.19
527.999	1024.19
528.214	1005.19
528.429	999.19
528.644	982.19
528.859	989.19
529.074	1022.19
529.289	1013.19
529.503	1009.19
529.718	1005.19
529.933	960.19
530.148	982.19
530.363	982.19
530.577	983.19
530.792	979.19
531.007	969.19
531.221	985.19
531.436	995.19
531.651	972.19
531.865	959.19
532.08	976.19
532.295	1000.19
532.509	961.19
532.724	978.19
532.938	977.19
533.153	938.19
533.367	968.19
533.582	940.19
533.796	968.19
534.011	949.19
534.225	956.19
534.44	931.19
534.654	934.19
534.868	949.19
535.083	949.19
535.297	945.19
535.511	931.19
535.726	930.19
535.94	936.19
536.154	931.19
536.369	924.19
536.583	901.19
536.797	921.19
537.011	899.19
537.225	926.19
537.44	907.19
537.654	868.19
537.868	906.19
538.082	894.19
538.296	902.19
538.51	891.19
538.724	910.19
538.938	915.19
539.153	908.19
539.367	935.19
539.581	894.19
539.795	871.19
540.009	893.19
540.222	874.19
540.436	889.19
540.65	878.19
540.864	891.19
541.078	911.19
541.292	929.19
541.506	898.19
541.72	888.19
541.934	921.19
542.147	910.19
542.361	929.19
542.575	898.19
542.789	890.19
543.002	881.19
543.216	872.19
543.43	842.19
543.644	862.19
543.857	865.19
544.071	898.19
544.285	879.19
544.498	905.19
544.712	897.19
544.925	906.19
545.139	897.19
545.352	878.19
545.566	896.19
545.779	903.19
545.993	894.19
546.206	897.19
546.42	873.19
546.633	895.19
546.847	889.19
547.06	873.19
547.274	869.19
547.487	863.19
547.7	913.19
547.914	895.19
548.127	924.19
548.34	910.19
548.554	903.19
548.767	889.19
548.98	880.19
549.193	903.19
549.407	878.19
549.62	890.19
549.833	919.19
550.046	886.19
550.259	874.19
550.473	861.19
550.686	892.19
550.899	865.19
551.112	869.19
551.325	853.19
551.538	865.19
551.751	886.19
551.964	849.19
552.177	867.19
552.39	904.19
552.603	893.19
552.816	897.19
553.029	918.19
553.242	897.19
553.455	902.19
553.667	910.19
553.88	878.19
554.093	870.19
554.306	885.19
554.519	842.19
554.732	851.19
554.944	841.19
555.157	847.19
555.37	855.19
555.583	835.19
555.795	831.19
556.008	798.19
556.221	795.19
556.433	818.19
556.646	773.19
556.859	791.19
557.071	792.19
557.284	782.19
557.496	785.19
557.709	794.19
557.921	762.19
558.134	763.19
558.346	761.19
558.559	776.19
558.771	770.19
558.984	779.19
559.196	757.19
559.409	757.19
559.621	755.19
559.833	754.19
560.046	736.19
560.258	755.19
560.47	717.19
560.683	731.19
560.895	709.19
561.107	727.19
561.32	719.19
561.532	733.19
561.744	753.19
561.956	746.19
562.168	759.19
562.381	723.19
562.593	741.19
562.805	753.19
563.017	755.19
563.229	720.19
563.441	736.19
563.653	745.19
563.865	757.19
564.077	746.19
564.289	738.19
564.501	799.19
564.713	791.19
564.925	822.19
565.137	804.19
565.349	808.19
565.561	829.19
565.773	835.19
565.985	852.19
566.197	877.19
566.408	921.19
566.62	952.19
566.832	943.19
567.044	957.19
567.255	959.19
567.467	964.19
567.679	985.19
567.891	1016.19
568.102	974.19
568.314	999.19
568.526	949.19
568.737	901.19
568.949	866.19
569.161	818.19
569.372	808.19
569.584	782.19
569.795	757.19
570.007	750.19
570.218	725.19
570.43	734.19
570.641	721.19
570.853	710.19
571.064	718.19
571.276	709.19
571.487	702.19
571.698	682.19
571.91	679.19
572.121	677.19
572.333	654.19
572.544	627.19
572.755	621.19
572.966	653.19
573.178	658.19
573.389	618.19
573.6	607.19
573.811	600.19
574.023	605.19
574.234	600.19
574.445	607.19
574.656	615.19
574.867	604.19
575.078	615.19
575.289	605.19
575.501	588.19
575.712	566.19
575.923	561.19
576.134	565.19
576.345	544.19
576.556	567.19
576.767	583.19
576.978	554.19
577.188	536.19
577.399	565.19
577.61	575.19
577.821	557.19
578.032	530.19
578.243	543.19
578.454	548.19
578.665	543.19
578.875	544.19
579.086	535.19
579.297	512.19
579.508	521.19
579.718	533.19
579.929	532.19
580.14	530.19
580.35	520.19
580.561	534.19
580.772	497.19
580.982	498.19
581.193	501.19
581.403	523.19
581.614	498.19
581.825	519.19
582.035	522.19
582.246	496.19
582.456	513.19
582.667	506.19
582.877	514.19
583.087	516.19
583.298	497.19
583.508	491.19
583.719	485.19
583.929	496.19
584.139	486.19
584.35	472.19
584.56	494.19
584.77	479.19
584.981	477.19
585.191	476.19
585.401	478.19
585.611	485.19
585.821	486.19
586.032	475.19
586.242	484.19
586.452	470.19
586.662	482.19
586.872	481.19
587.082	475.19
587.292	486.19
587.502	472.19
587.713	471.19
587.923	482.19
588.133	486.19
588.343	483.19
588.553	471.19
588.762	461.19
588.972	474.19
589.182	537.19
589.392	522.19
589.602	496.19
589.812	508.19
590.022	503.19
590.232	474.19
590.441	470.19
590.651	485.19
590.861	470.19
591.071	498.19
591.281	503.19
591.49	475.19
591.7	501.19
591.91	485.19
592.119	494.19
592.329	493.19
592.539	482.19
592.748	492.19
592.958	503.19
593.167	528.19
593.377	532.19
593.587	521.19
593.796	529.19
594.006	487.19
594.215	506.19
594.424	533.19
594.634	508.19
594.843	513.19
595.053	472.19
595.262	493.19
595.472	482.19
595.681	463.19
595.89	465.19
596.1	451.19
596.309	459.19
596.518	448.19
596.727	439.19
596.937	439.19
597.146	423.19
597.355	445.19
597.564	443.19
597.774	431.19
597.983	432.19
598.192	422.19
598.401	396.19
598.61	421.19
598.819	410.19
599.028	408.19
599.237	413.19
599.446	412.19
599.655	406.19
599.864	386.19
600.073	382.19
600.282	395.19
600.491	396.19
600.7	383.19
600.909	412.19
601.118	417.19
601.327	393.19
601.536	397.19
601.745	394.19
601.953	385.19
602.162	390.19
602.371	393.19
602.58	376.19
602.789	385.19
602.997	392.19
603.206	385.19
603.415	397.19
603.623	370.19
603.832	375.19
604.041	377.19
604.249	370.19
604.458	371.19
604.666	361.19
604.875	350.19
605.084	362.19
605.292	378.19
605.501	369.19
605.709	379.19
605.918	373.19
606.126	348.19
606.334	379.19
606.543	369.19
606.751	370.19
606.96	362.19
607.168	370.19
607.376	346.19
607.585	389.19
607.793	353.19
608.001	361.19
608.21	348.19
608.418	354.19
608.626	359.19
608.834	361.19
609.043	342.19
609.251	354.19
609.459	335.19
609.667	343.19
609.875	359.19
610.083	347.19
610.291	361.19
610.499	353.19
610.707	359.19
610.916	337.19
611.124	366.19
611.332	351.19
611.54	339.19
611.748	351.19
611.955	340.19
612.163	341.19
612.371	329.19
612.579	358.19
612.787	339.19
612.995	353.19
613.203	330.19
613.411	335.19
613.618	336.19
613.826	339.19
614.034	334.19
614.242	328.19
614.449	336.19
614.657	333.19
614.865	332.19
615.072	358.19
615.28	330.19
615.488	332.19
615.695	336.19
615.903	315.19
616.111	328.19
616.318	328.19
616.526	335.19
616.733	340.19
616.941	331.19
617.148	344.19
617.356	327.19
617.563	333.19
617.771	336.19
617.978	349.19
618.185	323.19
618.393	333.19
618.6	328.19
618.807	326.19
619.015	324.19
619.222	314.19
619.429	309.19
619.637	312.19
619.844	319.19
620.051	301.19
620.258	313.19
620.466	314.19
620.673	309.19
620.88	297.19
621.087	307.19
621.294	307.19
621.501	306.19
621.708	327.19
621.915	305.19
622.122	309.19
622.329	321.19
622.536	293.19
622.743	289.19
622.95	290.19
623.157	300.19
623.364	297.19
623.571	309.19
623.778	296.19
623.985	304.19
624.192	303.19
624.399	317.19
624.606	302.19
624.812	265.19
625.019	291.19
625.226	290.19
625.433	284.19
625.639	289.19
625.846	278.19
626.053	267.19
626.259	268.19
626.466	301.19
626.673	276.19
626.879	256.19
627.086	295.19
627.293	281.19
627.499	273.19
627.706	287.19
627.912	284.19
628.119	263.19
628.325	279.19
628.532	274.19
628.738	282.19
628.945	266.19
629.151	263.19
629.357	260.19
629.564	261.19
629.77	275.19
629.976	281.19
630.183	278.19
630.389	282.19
630.595	270.19
630.802	263.19
631.008	268.19
631.214	238.19
631.42	284.19
631.627	270.19
631.833	239.19
632.039	251.19
632.245	253.19
632.451	259.19
632.657	282.19
632.863	259.19
633.069	240.19
633.275	267.19
633.481	253.19
633.688	254.19
633.893	250.19
634.099	257.19
634.305	260.19
634.511	247.19
634.717	261.19
634.923	249.19
635.129	247.19
635.335	252.19
635.541	270.19
635.747	245.19
635.952	231.19
636.158	255.19
636.364	260.19
636.57	251.19
636.775	247.19
636.981	260.19
637.187	255.19
637.392	254.19
637.598	238.19
637.804	245.19
638.009	241.19
638.215	243.19
638.421	250.19
638.626	248.19
638.832	235.19
639.037	243.19
639.243	229.19
639.448	245.19
639.654	234.19
639.859	231.19
640.065	248.19
640.27	269.19
640.475	249.19
640.681	225.19
640.886	231.19
641.091	237.19
641.297	229.19
641.502	232.19
641.707	233.19
641.913	219.19
642.118	219.19
642.323	220.19
642.528	227.19
642.733	237.19
642.939	253.19
643.144	221.19
643.349	228.19
643.554	232.19
643.759	232.19
643.964	216.19
644.169	217.19
644.374	210.19
644.579	233.19
644.784	222.19
644.989	227.19
645.194	236.19
645.399	218.19
645.604	230.19
645.809	204.19
646.014	241.19
646.219	234.19
646.423	241.19
646.628	221.19
646.833	239.19
647.038	226.19
647.243	233.19
647.447	231.19
647.652	242.19
647.857	214.19
648.062	230.19
648.266	225.19
648.471	227.19
648.676	232.19
648.88	231.19
649.085	219.19
649.289	236.19
649.494	223.19
649.698	215.19
649.903	235.19
650.107	235.19
650.312	232.19
650.516	233.19
650.721	220.19
650.925	211.19
651.13	217.19
651.334	217.19
651.539	207.19
651.743	203.19
651.947	213.19
652.152	210.19
652.356	185.19
652.56	200.19
652.764	195.19
652.969	223.19
653.173	197.19
653.377	199.19
653.581	182.19
653.785	178.19
653.99	197.19
654.194	189.19
654.398	193.19
654.602	188.19
654.806	187.19
655.01	179.19
655.214	189.19
655.418	191.19
655.622	175.19
655.826	186.19
656.03	180.19
656.234	187.19
656.438	181.19
656.642	161.19
656.846	165.19
657.049	169.19
657.253	167.19
657.457	157.19
657.661	142.19
657.865	149.19
658.068	144.19
658.272	137.19
658.476	123.19
658.68	126.19
658.883	127.19
659.087	120.19
659.291	118.19
659.494	128.19
659.698	116.19
659.901	114.19
660.105	126.19
660.309	114.19
660.512	106.19
660.716	98.19
660.919	121.19
661.123	114.19
661.326	102.19
661.53	96.19
661.733	116.19
661.936	107.19
662.14	100.19
662.343	108.19
662.546	92.19
662.75	94.19
662.953	91.19
663.156	86.19
663.36	91.19
663.563	90.19
663.766	92.19
663.969	83.19
664.173	83.19
664.376	88.19
664.579	81.19
664.782	77.19
664.985	93.19
665.188	87.19
665.391	86.19
665.594	81.19
665.797	77.19
666	89.19
666.203	91.19
666.406	96.19
666.609	77.19
666.812	94.19
667.015	78.19
667.218	99.19
667.421	109.19
667.624	95.19
667.827	104.19
668.03	81.19
668.232	95.19
668.435	89.19
668.638	85.19
668.841	98.19
669.043	79.19
669.246	79.19
669.449	89.19
669.651	92.19
669.854	78.19
670.057	81.19
670.259	82.19
670.462	80.19
670.665	87.19
670.867	82.19
671.07	76.19
671.272	78.19
671.475	88.19
671.677	77.19
671.88	85.19
672.082	78.19
672.284	91.19
672.487	90.19
672.689	93.19
672.892	97.19
