Data from NiCl2@0.0625M.TitratingCurve.Agarose3%dH2O.NegLispCup.LampEnergy10.LIBS07252019_HRD10591_18-32-31-576.txt Node
Date: Thu Jul 25 18:32:31 EDT 2019
User: cochatt
Spectrometer: HR+D1059
Trigger mode: 1
Integration Time (sec): 1.000000E-1
Scans to average: 1
Electric dark correction enabled: true
Nonlinearity correction enabled: false
Boxcar width: 0
XAxis mode: Wavelengths
Number of Pixels in Spectrum: 2048
>>>>>Begin Spectral Data<<<<<
223.165	-7.81
223.4	-7.81
223.635	-7.81
223.869	-12.81
224.104	-15.81
224.338	-11.81
224.573	-13.81
224.808	-23.81
225.042	8.19
225.277	-14.81
225.511	-5.81
225.746	2.19
225.98	5.19
226.215	8.19
226.449	12.19
226.683	12.19
226.918	29.19
227.152	29.19
227.387	44.19
227.621	45.19
227.856	65.19
228.09	43.19
228.324	42.19
228.559	70.19
228.793	62.19
229.027	139.19
229.262	126.19
229.496	135.19
229.73	142.19
229.964	136.19
230.199	140.19
230.433	144.19
230.667	143.19
230.901	145.19
231.136	146.19
231.37	168.19
231.604	152.19
231.838	146.19
232.072	162.19
232.306	171.19
232.541	162.19
232.775	153.19
233.009	173.19
233.243	176.19
233.477	169.19
233.711	157.19
233.945	181.19
234.179	176.19
234.413	189.19
234.647	165.19
234.881	171.19
235.115	190.19
235.349	172.19
235.583	185.19
235.817	184.19
236.051	185.19
236.285	187.19
236.519	187.19
236.753	188.19
236.987	195.19
237.221	196.19
237.455	183.19
237.689	201.19
237.922	182.19
238.156	180.19
238.39	193.19
238.624	190.19
238.858	192.19
239.091	196.19
239.325	196.19
239.559	210.19
239.793	209.19
240.027	223.19
240.26	225.19
240.494	214.19
240.728	224.19
240.961	219.19
241.195	225.19
241.429	221.19
241.662	245.19
241.896	222.19
242.13	232.19
242.363	228.19
242.597	216.19
242.83	236.19
243.064	252.19
243.298	246.19
243.531	229.19
243.765	257.19
243.998	242.19
244.232	238.19
244.465	273.19
244.699	257.19
244.932	267.19
245.166	259.19
245.399	264.19
245.633	256.19
245.866	265.19
246.099	269.19
246.333	271.19
246.566	275.19
246.8	270.19
247.033	271.19
247.266	271.19
247.5	267.19
247.733	271.19
247.966	295.19
248.2	291.19
248.433	299.19
248.666	306.19
248.899	299.19
249.133	278.19
249.366	309.19
249.599	293.19
249.832	299.19
250.066	290.19
250.299	280.19
250.532	297.19
250.765	310.19
250.998	307.19
251.231	310.19
251.465	322.19
251.698	312.19
251.931	315.19
252.164	329.19
252.397	348.19
252.63	328.19
252.863	337.19
253.096	317.19
253.329	347.19
253.562	329.19
253.795	341.19
254.028	361.19
254.261	352.19
254.494	329.19
254.727	346.19
254.96	369.19
255.193	352.19
255.426	352.19
255.659	362.19
255.892	345.19
256.124	358.19
256.357	354.19
256.59	364.19
256.823	344.19
257.056	364.19
257.289	347.19
257.521	368.19
257.754	362.19
257.987	361.19
258.22	369.19
258.452	373.19
258.685	376.19
258.918	374.19
259.151	388.19
259.383	387.19
259.616	378.19
259.849	380.19
260.081	407.19
260.314	390.19
260.547	388.19
260.779	380.19
261.012	386.19
261.244	394.19
261.477	403.19
261.71	400.19
261.942	401.19
262.175	389.19
262.407	390.19
262.64	422.19
262.872	388.19
263.105	413.19
263.337	414.19
263.57	390.19
263.802	395.19
264.035	423.19
264.267	416.19
264.499	406.19
264.732	426.19
264.964	414.19
265.197	416.19
265.429	433.19
265.661	428.19
265.894	425.19
266.126	429.19
266.358	420.19
266.591	430.19
266.823	433.19
267.055	442.19
267.287	440.19
267.52	451.19
267.752	438.19
267.984	443.19
268.216	440.19
268.448	466.19
268.681	460.19
268.913	471.19
269.145	452.19
269.377	454.19
269.609	471.19
269.841	478.19
270.073	462.19
270.306	469.19
270.538	458.19
270.77	462.19
271.002	449.19
271.234	472.19
271.466	457.19
271.698	487.19
271.93	483.19
272.162	498.19
272.394	484.19
272.626	513.19
272.858	490.19
273.09	489.19
273.322	499.19
273.553	492.19
273.785	514.19
274.017	500.19
274.249	491.19
274.481	489.19
274.713	489.19
274.945	513.19
275.176	513.19
275.408	512.19
275.64	511.19
275.872	540.19
276.104	521.19
276.335	520.19
276.567	501.19
276.799	522.19
277.031	536.19
277.262	528.19
277.494	511.19
277.726	542.19
277.957	526.19
278.189	526.19
278.421	527.19
278.652	526.19
278.884	551.19
279.115	574.19
279.347	545.19
279.579	558.19
279.81	555.19
280.042	552.19
280.273	563.19
280.505	549.19
280.736	554.19
280.968	583.19
281.199	595.19
281.431	574.19
281.662	557.19
281.894	574.19
282.125	543.19
282.356	585.19
282.588	565.19
282.819	586.19
283.051	610.19
283.282	589.19
283.513	594.19
283.745	604.19
283.976	587.19
284.207	593.19
284.439	609.19
284.67	609.19
284.901	617.19
285.132	610.19
285.364	582.19
285.595	597.19
285.826	620.19
286.057	610.19
286.288	599.19
286.52	613.19
286.751	595.19
286.982	611.19
287.213	612.19
287.444	618.19
287.675	598.19
287.906	612.19
288.138	636.19
288.369	626.19
288.6	638.19
288.831	627.19
289.062	636.19
289.293	652.19
289.524	640.19
289.755	652.19
289.986	637.19
290.217	635.19
290.448	653.19
290.679	651.19
290.91	637.19
291.141	640.19
291.371	670.19
291.602	662.19
291.833	662.19
292.064	670.19
292.295	640.19
292.526	637.19
292.757	652.19
292.987	643.19
293.218	628.19
293.449	665.19
293.68	653.19
293.91	649.19
294.141	672.19
294.372	662.19
294.603	665.19
294.833	657.19
295.064	651.19
295.295	674.19
295.525	651.19
295.756	667.19
295.987	637.19
296.217	657.19
296.448	663.19
296.679	665.19
296.909	654.19
297.14	675.19
297.37	662.19
297.601	695.19
297.831	688.19
298.062	717.19
298.292	696.19
298.523	709.19
298.753	714.19
298.984	704.19
299.214	692.19
299.445	717.19
299.675	693.19
299.905	699.19
300.136	713.19
300.366	716.19
300.597	694.19
300.827	720.19
301.057	724.19
301.288	719.19
301.518	753.19
301.748	760.19
301.979	761.19
302.209	738.19
302.439	764.19
302.669	716.19
302.9	744.19
303.13	736.19
303.36	749.19
303.59	755.19
303.82	756.19
304.051	726.19
304.281	756.19
304.511	734.19
304.741	737.19
304.971	724.19
305.201	699.19
305.431	733.19
305.661	739.19
305.891	753.19
306.121	732.19
306.352	716.19
306.582	712.19
306.812	707.19
307.042	704.19
307.272	723.19
307.502	727.19
307.731	725.19
307.961	721.19
308.191	745.19
308.421	730.19
308.651	764.19
308.881	746.19
309.111	723.19
309.341	700.19
309.571	738.19
309.8	741.19
310.03	724.19
310.26	716.19
310.49	730.19
310.72	727.19
310.949	723.19
311.179	740.19
311.409	733.19
311.639	768.19
311.868	740.19
312.098	748.19
312.328	784.19
312.557	762.19
312.787	763.19
313.017	764.19
313.246	775.19
313.476	769.19
313.706	767.19
313.935	772.19
314.165	792.19
314.394	764.19
314.624	781.19
314.853	788.19
315.083	779.19
315.312	789.19
315.542	788.19
315.771	772.19
316.001	787.19
316.23	781.19
316.46	786.19
316.689	784.19
316.919	777.19
317.148	771.19
317.377	770.19
317.607	758.19
317.836	737.19
318.065	758.19
318.295	790.19
318.524	777.19
318.753	783.19
318.983	786.19
319.212	763.19
319.441	777.19
319.67	780.19
319.9	772.19
320.129	811.19
320.358	786.19
320.587	772.19
320.816	798.19
321.046	788.19
321.275	796.19
321.504	801.19
321.733	790.19
321.962	806.19
322.191	824.19
322.42	755.19
322.649	796.19
322.878	774.19
323.108	798.19
323.337	795.19
323.566	816.19
323.795	797.19
324.024	788.19
324.253	780.19
324.482	791.19
324.71	816.19
324.939	832.19
325.168	842.19
325.397	812.19
325.626	812.19
325.855	832.19
326.084	835.19
326.313	851.19
326.542	872.19
326.77	837.19
326.999	842.19
327.228	832.19
327.457	824.19
327.686	846.19
327.914	855.19
328.143	859.19
328.372	873.19
328.6	873.19
328.829	836.19
329.058	827.19
329.287	869.19
329.515	846.19
329.744	851.19
329.972	851.19
330.201	867.19
330.43	867.19
330.658	844.19
330.887	861.19
331.115	887.19
331.344	875.19
331.572	902.19
331.801	897.19
332.03	935.19
332.258	931.19
332.486	950.19
332.715	954.19
332.943	1008.19
333.172	1018.19
333.4	1067.19
333.629	1089.19
333.857	1097.19
334.085	1088.19
334.314	1083.19
334.542	1061.19
334.771	1072.19
334.999	1040.19
335.227	1034.19
335.455	1038.19
335.684	1024.19
335.912	1026.19
336.14	1017.19
336.369	1033.19
336.597	1033.19
336.825	1005.19
337.053	1014.19
337.281	1001.19
337.51	996.19
337.738	947.19
337.966	930.19
338.194	952.19
338.422	955.19
338.65	923.19
338.878	902.19
339.106	906.19
339.334	916.19
339.562	893.19
339.79	911.19
340.018	904.19
340.246	875.19
340.474	898.19
340.702	860.19
340.93	902.19
341.158	905.19
341.386	922.19
341.614	938.19
341.842	894.19
342.07	898.19
342.298	886.19
342.526	906.19
342.754	878.19
342.981	902.19
343.209	907.19
343.437	930.19
343.665	1010.19
343.893	1018.19
344.12	1063.19
344.348	1032.19
344.576	1005.19
344.804	967.19
345.031	914.19
345.259	942.19
345.487	890.19
345.714	866.19
345.942	873.19
346.17	910.19
346.397	854.19
346.625	867.19
346.853	859.19
347.08	853.19
347.308	869.19
347.535	860.19
347.763	865.19
347.99	881.19
348.218	858.19
348.445	861.19
348.673	849.19
348.9	850.19
349.128	846.19
349.355	851.19
349.583	818.19
349.81	848.19
350.037	813.19
350.265	834.19
350.492	856.19
350.72	840.19
350.947	817.19
351.174	825.19
351.402	850.19
351.629	834.19
351.856	852.19
352.083	849.19
352.311	847.19
352.538	822.19
352.765	826.19
352.992	837.19
353.22	790.19
353.447	844.19
353.674	837.19
353.901	799.19
354.128	845.19
354.355	809.19
354.583	818.19
354.81	853.19
355.037	843.19
355.264	821.19
355.491	825.19
355.718	845.19
355.945	856.19
356.172	829.19
356.399	834.19
356.626	828.19
356.853	839.19
357.08	816.19
357.307	810.19
357.534	837.19
357.761	835.19
357.988	823.19
358.215	845.19
358.441	837.19
358.668	818.19
358.895	804.19
359.122	827.19
359.349	802.19
359.576	841.19
359.802	831.19
360.029	805.19
360.256	838.19
360.483	830.19
360.709	825.19
360.936	841.19
361.163	828.19
361.39	847.19
361.616	833.19
361.843	829.19
362.07	841.19
362.296	829.19
362.523	832.19
362.749	836.19
362.976	820.19
363.203	833.19
363.429	823.19
363.656	811.19
363.882	820.19
364.109	831.19
364.335	820.19
364.562	796.19
364.788	823.19
365.015	825.19
365.241	825.19
365.468	829.19
365.694	814.19
365.92	840.19
366.147	821.19
366.373	866.19
366.599	837.19
366.826	841.19
367.052	834.19
367.278	864.19
367.505	836.19
367.731	872.19
367.957	828.19
368.184	861.19
368.41	868.19
368.636	840.19
368.862	850.19
369.089	861.19
369.315	817.19
369.541	843.19
369.767	855.19
369.993	858.19
370.219	864.19
370.445	883.19
370.672	889.19
370.898	882.19
371.124	893.19
371.35	892.19
371.576	913.19
371.802	918.19
372.028	918.19
372.254	902.19
372.48	907.19
372.706	945.19
372.932	946.19
373.158	948.19
373.384	904.19
373.61	912.19
373.835	921.19
374.061	893.19
374.287	910.19
374.513	914.19
374.739	935.19
374.965	969.19
375.191	994.19
375.416	990.19
375.642	965.19
375.868	946.19
376.094	952.19
376.319	905.19
376.545	932.19
376.771	919.19
376.997	910.19
377.222	887.19
377.448	898.19
377.674	888.19
377.899	885.19
378.125	896.19
378.35	885.19
378.576	844.19
378.802	876.19
379.027	899.19
379.253	893.19
379.478	897.19
379.704	897.19
379.929	880.19
380.155	881.19
380.38	883.19
380.606	872.19
380.831	905.19
381.057	890.19
381.282	906.19
381.507	912.19
381.733	904.19
381.958	900.19
382.184	923.19
382.409	908.19
382.634	924.19
382.86	918.19
383.085	941.19
383.31	933.19
383.535	949.19
383.761	978.19
383.986	993.19
384.211	1010.19
384.436	1006.19
384.662	1037.19
384.887	1050.19
385.112	1053.19
385.337	1062.19
385.562	1056.19
385.787	1044.19
386.013	1101.19
386.238	1069.19
386.463	1033.19
386.688	1096.19
386.913	1061.19
387.138	1061.19
387.363	1065.19
387.588	1048.19
387.813	1073.19
388.038	1060.19
388.263	1087.19
388.488	1064.19
388.713	1049.19
388.938	1057.19
389.163	1030.19
389.387	1035.19
389.612	1069.19
389.837	1056.19
390.062	1021.19
390.287	1050.19
390.512	1042.19
390.736	1056.19
390.961	1098.19
391.186	1099.19
391.411	1132.19
391.636	1158.19
391.86	1178.19
392.085	1211.19
392.31	1188.19
392.534	1155.19
392.759	1162.19
392.984	1141.19
393.208	1149.19
393.433	1143.19
393.658	1184.19
393.882	1160.19
394.107	1148.19
394.331	1130.19
394.556	1115.19
394.78	1114.19
395.005	1149.19
395.229	1140.19
395.454	1167.19
395.678	1188.19
395.903	1179.19
396.127	1201.19
396.352	1146.19
396.576	1183.19
396.801	1150.19
397.025	1183.19
397.249	1182.19
397.474	1192.19
397.698	1214.19
397.922	1185.19
398.147	1202.19
398.371	1270.19
398.595	1268.19
398.82	1316.19
399.044	1407.19
399.268	1540.19
399.492	1682.19
399.717	1886.19
399.941	1880.19
400.165	1701.19
400.389	1600.19
400.613	1470.19
400.837	1390.19
401.062	1393.19
401.286	1352.19
401.51	1317.19
401.734	1342.19
401.958	1366.19
402.182	1366.19
402.406	1344.19
402.63	1354.19
402.854	1393.19
403.078	1402.19
403.302	1432.19
403.526	1418.19
403.75	1421.19
403.974	1484.19
404.198	1482.19
404.422	1482.19
404.645	1493.19
404.869	1427.19
405.093	1453.19
405.317	1434.19
405.541	1446.19
405.765	1447.19
405.988	1429.19
406.212	1434.19
406.436	1445.19
406.66	1501.19
406.883	1458.19
407.107	1590.19
407.331	1620.19
407.555	1659.19
407.778	1662.19
408.002	1614.19
408.226	1594.19
408.449	1546.19
408.673	1553.19
408.896	1491.19
409.12	1454.19
409.344	1496.19
409.567	1453.19
409.791	1467.19
410.014	1457.19
410.238	1451.19
410.461	1447.19
410.685	1429.19
410.908	1400.19
411.132	1408.19
411.355	1394.19
411.578	1401.19
411.802	1335.19
412.025	1369.19
412.249	1408.19
412.472	1396.19
412.695	1356.19
412.919	1319.19
413.142	1355.19
413.365	1326.19
413.589	1357.19
413.812	1332.19
414.035	1306.19
414.258	1288.19
414.482	1360.19
414.705	1344.19
414.928	1323.19
415.151	1365.19
415.374	1323.19
415.597	1324.19
415.821	1292.19
416.044	1294.19
416.267	1270.19
416.49	1270.19
416.713	1290.19
416.936	1286.19
417.159	1277.19
417.382	1277.19
417.605	1288.19
417.828	1292.19
418.051	1301.19
418.274	1296.19
418.497	1289.19
418.72	1340.19
418.943	1316.19
419.166	1362.19
419.389	1495.19
419.611	1421.19
419.834	1397.19
420.057	1334.19
420.28	1346.19
420.503	1266.19
420.726	1236.19
420.948	1295.19
421.171	1277.19
421.394	1304.19
421.617	1294.19
421.839	1281.19
422.062	1257.19
422.285	1268.19
422.507	1302.19
422.73	1288.19
422.953	1317.19
423.175	1364.19
423.398	1330.19
423.621	1342.19
423.843	1337.19
424.066	1315.19
424.288	1324.19
424.511	1330.19
424.733	1337.19
424.956	1356.19
425.178	1318.19
425.401	1290.19
425.623	1300.19
425.846	1255.19
426.068	1240.19
426.291	1234.19
426.513	1222.19
426.735	1220.19
426.958	1236.19
427.18	1190.19
427.402	1172.19
427.625	1199.19
427.847	1192.19
428.069	1189.19
428.292	1187.19
428.514	1141.19
428.736	1160.19
428.958	1172.19
429.181	1154.19
429.403	1151.19
429.625	1142.19
429.847	1137.19
430.069	1150.19
430.292	1126.19
430.514	1122.19
430.736	1134.19
430.958	1127.19
431.18	1142.19
431.402	1146.19
431.624	1185.19
431.846	1152.19
432.068	1193.19
432.29	1214.19
432.512	1168.19
432.734	1159.19
432.956	1151.19
433.178	1195.19
433.4	1175.19
433.622	1172.19
433.844	1188.19
434.066	1220.19
434.287	1225.19
434.509	1224.19
434.731	1258.19
434.953	1294.19
435.175	1257.19
435.397	1311.19
435.618	1239.19
435.84	1197.19
436.062	1190.19
436.284	1141.19
436.505	1173.19
436.727	1197.19
436.949	1163.19
437.17	1168.19
437.392	1180.19
437.614	1161.19
437.835	1141.19
438.057	1127.19
438.278	1126.19
438.5	1121.19
438.721	1108.19
438.943	1161.19
439.165	1138.19
439.386	1145.19
439.608	1163.19
439.829	1165.19
440.05	1122.19
440.272	1160.19
440.493	1146.19
440.715	1165.19
440.936	1183.19
441.158	1226.19
441.379	1272.19
441.6	1300.19
441.822	1329.19
442.043	1291.19
442.264	1255.19
442.486	1255.19
442.707	1271.19
442.928	1259.19
443.149	1220.19
443.371	1234.19
443.592	1298.19
443.813	1282.19
444.034	1268.19
444.255	1332.19
444.476	1350.19
444.698	1485.19
444.919	1494.19
445.14	1530.19
445.361	1419.19
445.582	1323.19
445.803	1251.19
446.024	1220.19
446.245	1244.19
446.466	1215.19
446.687	1184.19
446.908	1160.19
447.129	1115.19
447.35	1127.19
447.571	1129.19
447.792	1086.19
448.013	1098.19
448.234	1113.19
448.455	1082.19
448.675	1037.19
448.896	1060.19
449.117	1058.19
449.338	1044.19
449.559	1048.19
449.779	1047.19
450	1046.19
450.221	1044.19
450.442	1069.19
450.662	1046.19
450.883	1069.19
451.104	1107.19
451.324	1067.19
451.545	1050.19
451.766	1075.19
451.986	1058.19
452.207	1057.19
452.428	1056.19
452.648	1042.19
452.869	1029.19
453.089	1042.19
453.31	1059.19
453.53	1013.19
453.751	1021.19
453.971	1000.19
454.192	1024.19
454.412	1030.19
454.633	1024.19
454.853	1004.19
455.073	989.19
455.294	1011.19
455.514	974.19
455.734	1000.19
455.955	990.19
456.175	982.19
456.395	1010.19
456.616	986.19
456.836	997.19
457.056	986.19
457.276	979.19
457.497	1005.19
457.717	1012.19
457.937	1023.19
458.157	992.19
458.377	1024.19
458.598	1063.19
458.818	1072.19
459.038	1101.19
459.258	1114.19
459.478	1140.19
459.698	1212.19
459.918	1225.19
460.138	1272.19
460.358	1314.19
460.578	1299.19
460.798	1332.19
461.018	1360.19
461.238	1349.19
461.458	1342.19
461.678	1332.19
461.898	1354.19
462.118	1386.19
462.338	1416.19
462.558	1464.19
462.777	1514.19
462.997	1610.19
463.217	1667.19
463.437	1718.19
463.657	1617.19
463.876	1529.19
464.096	1569.19
464.316	1527.19
464.536	1536.19
464.755	1497.19
464.975	1442.19
465.195	1361.19
465.414	1314.19
465.634	1235.19
465.854	1211.19
466.073	1180.19
466.293	1136.19
466.512	1104.19
466.732	1128.19
466.951	1094.19
467.171	1115.19
467.391	1114.19
467.61	1108.19
467.829	1115.19
468.049	1108.19
468.268	1081.19
468.488	1076.19
468.707	1072.19
468.927	1079.19
469.146	1086.19
469.365	1076.19
469.585	1049.19
469.804	1124.19
470.023	1153.19
470.243	1142.19
470.462	1103.19
470.681	1120.19
470.901	1143.19
471.12	1100.19
471.339	1151.19
471.558	1088.19
471.777	1100.19
471.997	1066.19
472.216	1085.19
472.435	1046.19
472.654	1068.19
472.873	1031.19
473.092	1073.19
473.311	1057.19
473.53	1041.19
473.749	1049.19
473.968	1034.19
474.187	1004.19
474.406	1040.19
474.625	1020.19
474.844	1038.19
475.063	1057.19
475.282	1037.19
475.501	1062.19
475.72	1067.19
475.939	1064.19
476.158	1104.19
476.377	1087.19
476.596	1123.19
476.814	1122.19
477.033	1124.19
477.252	1158.19
477.471	1154.19
477.69	1179.19
477.908	1229.19
478.127	1253.19
478.346	1249.19
478.564	1284.19
478.783	1286.19
479.002	1313.19
479.22	1315.19
479.439	1319.19
479.658	1314.19
479.876	1313.19
480.095	1339.19
480.313	1401.19
480.532	1397.19
480.751	1364.19
480.969	1332.19
481.188	1302.19
481.406	1288.19
481.624	1258.19
481.843	1244.19
482.061	1224.19
482.28	1234.19
482.498	1207.19
482.717	1234.19
482.935	1220.19
483.153	1228.19
483.372	1256.19
483.59	1255.19
483.808	1259.19
484.027	1261.19
484.245	1263.19
484.463	1307.19
484.681	1279.19
484.9	1276.19
485.118	1288.19
485.336	1284.19
485.554	1318.19
485.772	1344.19
485.99	1328.19
486.209	1300.19
486.427	1298.19
486.645	1294.19
486.863	1295.19
487.081	1309.19
487.299	1324.19
487.517	1287.19
487.735	1295.19
487.953	1323.19
488.171	1312.19
488.389	1282.19
488.607	1265.19
488.825	1283.19
489.043	1272.19
489.261	1258.19
489.479	1260.19
489.696	1268.19
489.914	1284.19
490.132	1272.19
490.35	1278.19
490.568	1298.19
490.786	1281.19
491.003	1284.19
491.221	1322.19
491.439	1298.19
491.657	1299.19
491.874	1289.19
492.092	1309.19
492.31	1330.19
492.527	1291.19
492.745	1301.19
492.963	1282.19
493.18	1298.19
493.398	1282.19
493.615	1329.19
493.833	1300.19
494.05	1331.19
494.268	1348.19
494.485	1336.19
494.703	1347.19
494.92	1344.19
495.138	1309.19
495.355	1336.19
495.573	1324.19
495.79	1340.19
496.008	1358.19
496.225	1401.19
496.442	1384.19
496.66	1429.19
496.877	1402.19
497.094	1402.19
497.312	1469.19
497.529	1470.19
497.746	1497.19
497.963	1489.19
498.181	1588.19
498.398	1691.19
498.615	1730.19
498.832	1859.19
499.049	1982.19
499.267	2128.19
499.484	2292.19
499.701	2502.19
499.918	2725.19
500.135	3080.19
500.352	3386.19
500.569	3579.19
500.786	3446.19
501.003	3192.19
501.22	3014.19
501.437	2720.19
501.654	2418.19
501.871	2257.19
502.088	2068.19
502.305	1914.19
502.522	1888.19
502.739	1767.19
502.956	1718.19
503.172	1631.19
503.389	1610.19
503.606	1498.19
503.823	1485.19
504.04	1485.19
504.256	1473.19
504.473	1515.19
504.69	1562.19
504.907	1503.19
505.123	1399.19
505.34	1352.19
505.557	1311.19
505.773	1265.19
505.99	1235.19
506.207	1223.19
506.423	1223.19
506.64	1174.19
506.856	1152.19
507.073	1184.19
507.289	1171.19
507.506	1174.19
507.722	1154.19
507.939	1105.19
508.155	1114.19
508.372	1119.19
508.588	1112.19
508.805	1089.19
509.021	1092.19
509.238	1095.19
509.454	1106.19
509.67	1088.19
509.887	1045.19
510.103	1043.19
510.319	1057.19
510.536	1034.19
510.752	1052.19
510.968	1048.19
511.184	1065.19
511.401	1035.19
511.617	1031.19
511.833	1048.19
512.049	1048.19
512.265	1038.19
512.481	1036.19
512.698	1023.19
512.914	1033.19
513.13	1045.19
513.346	1024.19
513.562	1038.19
513.778	1048.19
513.994	1034.19
514.21	1063.19
514.426	1040.19
514.642	1078.19
514.858	1089.19
515.074	1079.19
515.29	1112.19
515.506	1094.19
515.721	1102.19
515.937	1125.19
516.153	1120.19
516.369	1152.19
516.585	1196.19
516.801	1220.19
517.016	1280.19
517.232	1314.19
517.448	1362.19
517.664	1380.19
517.879	1389.19
518.095	1389.19
518.311	1335.19
518.527	1306.19
518.742	1299.19
518.958	1267.19
519.173	1219.19
519.389	1174.19
519.605	1154.19
519.82	1100.19
520.036	1114.19
520.251	1088.19
520.467	1068.19
520.682	1080.19
520.898	1059.19
521.113	1033.19
521.329	1020.19
521.544	1044.19
521.76	993.19
521.975	1013.19
522.19	984.19
522.406	992.19
522.621	986.19
522.836	956.19
523.052	1000.19
523.267	970.19
523.482	946.19
523.698	951.19
523.913	1014.19
524.128	928.19
524.343	964.19
524.559	959.19
524.774	945.19
524.989	947.19
525.204	957.19
525.419	934.19
525.634	951.19
525.849	976.19
526.064	941.19
526.28	912.19
526.495	925.19
526.71	950.19
526.925	930.19
527.14	930.19
527.355	931.19
527.57	903.19
527.785	925.19
527.999	933.19
528.214	928.19
528.429	937.19
528.644	910.19
528.859	921.19
529.074	944.19
529.289	933.19
529.503	917.19
529.718	929.19
529.933	924.19
530.148	903.19
530.363	930.19
530.577	928.19
530.792	920.19
531.007	911.19
531.221	896.19
531.436	915.19
531.651	935.19
531.865	904.19
532.08	916.19
532.295	918.19
532.509	890.19
532.724	906.19
532.938	941.19
533.153	923.19
533.367	923.19
533.582	899.19
533.796	894.19
534.011	892.19
534.225	913.19
534.44	917.19
534.654	907.19
534.868	910.19
535.083	899.19
535.297	890.19
535.511	854.19
535.726	869.19
535.94	880.19
536.154	872.19
536.369	873.19
536.583	851.19
536.797	839.19
537.011	828.19
537.225	845.19
537.44	871.19
537.654	875.19
537.868	844.19
538.082	835.19
538.296	840.19
538.51	833.19
538.724	853.19
538.938	848.19
539.153	822.19
539.367	828.19
539.581	850.19
539.795	822.19
540.009	838.19
540.222	822.19
540.436	836.19
540.65	820.19
540.864	812.19
541.078	824.19
541.292	826.19
541.506	833.19
541.72	845.19
541.934	814.19
542.147	845.19
542.361	844.19
542.575	800.19
542.789	819.19
543.002	811.19
543.216	804.19
543.43	821.19
543.644	814.19
543.857	845.19
544.071	819.19
544.285	817.19
544.498	834.19
544.712	821.19
544.925	819.19
545.139	834.19
545.352	847.19
545.566	816.19
545.779	826.19
545.993	862.19
546.206	836.19
546.42	834.19
546.633	844.19
546.847	837.19
547.06	837.19
547.274	822.19
547.487	830.19
547.7	833.19
547.914	832.19
548.127	836.19
548.34	840.19
548.554	846.19
548.767	810.19
548.98	846.19
549.193	829.19
549.407	837.19
549.62	874.19
549.833	875.19
550.046	880.19
550.259	835.19
550.473	840.19
550.686	825.19
550.899	822.19
551.112	809.19
551.325	805.19
551.538	842.19
551.751	831.19
551.964	831.19
552.177	829.19
552.39	856.19
552.603	833.19
552.816	870.19
553.029	873.19
553.242	891.19
553.455	916.19
553.667	904.19
553.88	877.19
554.093	850.19
554.306	853.19
554.519	838.19
554.732	821.19
554.944	812.19
555.157	793.19
555.37	768.19
555.583	773.19
555.795	771.19
556.008	756.19
556.221	755.19
556.433	726.19
556.646	742.19
556.859	765.19
557.071	738.19
557.284	710.19
557.496	732.19
557.709	741.19
557.921	706.19
558.134	709.19
558.346	684.19
558.559	721.19
558.771	716.19
558.984	691.19
559.196	712.19
559.409	700.19
559.621	673.19
559.833	675.19
560.046	686.19
560.258	691.19
560.47	661.19
560.683	690.19
560.895	688.19
561.107	689.19
561.32	691.19
561.532	687.19
561.744	696.19
561.956	687.19
562.168	665.19
562.381	672.19
562.593	670.19
562.805	696.19
563.017	692.19
563.229	707.19
563.441	706.19
563.653	721.19
563.865	712.19
564.077	734.19
564.289	718.19
564.501	715.19
564.713	734.19
564.925	711.19
565.137	785.19
565.349	761.19
565.561	806.19
565.773	825.19
565.985	855.19
566.197	893.19
566.408	940.19
566.62	995.19
566.832	1061.19
567.044	1076.19
567.255	1065.19
567.467	1094.19
567.679	1165.19
567.891	1211.19
568.102	1193.19
568.314	1211.19
568.526	1070.19
568.737	984.19
568.949	932.19
569.161	878.19
569.372	820.19
569.584	796.19
569.795	766.19
570.007	705.19
570.218	725.19
570.43	696.19
570.641	713.19
570.853	683.19
571.064	695.19
571.276	697.19
571.487	675.19
571.698	676.19
571.91	645.19
572.121	629.19
572.333	630.19
572.544	590.19
572.755	596.19
572.966	601.19
573.178	597.19
573.389	588.19
573.6	579.19
573.811	563.19
574.023	570.19
574.234	569.19
574.445	556.19
574.656	533.19
574.867	564.19
575.078	573.19
575.289	570.19
575.501	550.19
575.712	546.19
575.923	544.19
576.134	555.19
576.345	545.19
576.556	533.19
576.767	521.19
576.978	516.19
577.188	550.19
577.399	533.19
577.61	530.19
577.821	515.19
578.032	519.19
578.243	523.19
578.454	529.19
578.665	499.19
578.875	500.19
579.086	509.19
579.297	526.19
579.508	507.19
579.718	509.19
579.929	498.19
580.14	488.19
580.35	496.19
580.561	479.19
580.772	457.19
580.982	493.19
581.193	489.19
581.403	476.19
581.614	484.19
581.825	467.19
582.035	483.19
582.246	478.19
582.456	485.19
582.667	480.19
582.877	458.19
583.087	462.19
583.298	468.19
583.508	485.19
583.719	464.19
583.929	486.19
584.139	478.19
584.35	465.19
584.56	480.19
584.77	480.19
584.981	453.19
585.191	467.19
585.401	453.19
585.611	461.19
585.821	453.19
586.032	472.19
586.242	477.19
586.452	459.19
586.662	428.19
586.872	442.19
587.082	443.19
587.292	434.19
587.502	447.19
587.713	460.19
587.923	437.19
588.133	451.19
588.343	443.19
588.553	442.19
588.762	461.19
588.972	462.19
589.182	468.19
589.392	476.19
589.602	453.19
589.812	468.19
590.022	452.19
590.232	451.19
590.441	458.19
590.651	462.19
590.861	454.19
591.071	481.19
591.281	451.19
591.49	452.19
591.7	467.19
591.91	479.19
592.119	481.19
592.329	484.19
592.539	515.19
592.748	497.19
592.958	530.19
593.167	566.19
593.377	550.19
593.587	533.19
593.796	570.19
594.006	550.19
594.215	554.19
594.424	550.19
594.634	569.19
594.843	523.19
595.053	510.19
595.262	498.19
595.472	481.19
595.681	471.19
595.89	466.19
596.1	435.19
596.309	441.19
596.518	457.19
596.727	416.19
596.937	411.19
597.146	412.19
597.355	442.19
597.564	417.19
597.774	424.19
597.983	414.19
598.192	406.19
598.401	383.19
598.61	388.19
598.819	394.19
599.028	389.19
599.237	380.19
599.446	408.19
599.655	382.19
599.864	381.19
600.073	376.19
600.282	379.19
600.491	379.19
600.7	386.19
600.909	370.19
601.118	390.19
601.327	374.19
601.536	373.19
601.745	362.19
601.953	384.19
602.162	366.19
602.371	373.19
602.58	379.19
602.789	356.19
602.997	357.19
603.206	369.19
603.415	375.19
603.623	358.19
603.832	368.19
604.041	357.19
604.249	375.19
604.458	363.19
604.666	342.19
604.875	344.19
605.084	345.19
605.292	359.19
605.501	342.19
605.709	364.19
605.918	360.19
606.126	325.19
606.334	330.19
606.543	347.19
606.751	320.19
606.96	351.19
607.168	343.19
607.376	346.19
607.585	342.19
607.793	343.19
608.001	344.19
608.21	355.19
608.418	340.19
608.626	336.19
608.834	322.19
609.043	353.19
609.251	363.19
609.459	337.19
609.667	343.19
609.875	327.19
610.083	340.19
610.291	336.19
610.499	335.19
610.707	350.19
610.916	349.19
611.124	347.19
611.332	337.19
611.54	343.19
611.748	320.19
611.955	330.19
612.163	320.19
612.371	344.19
612.579	341.19
612.787	332.19
612.995	323.19
613.203	315.19
613.411	317.19
613.618	335.19
613.826	332.19
614.034	319.19
614.242	322.19
614.449	322.19
614.657	308.19
614.865	340.19
615.072	333.19
615.28	347.19
615.488	332.19
615.695	305.19
615.903	331.19
616.111	328.19
616.318	340.19
616.526	328.19
616.733	318.19
616.941	320.19
617.148	333.19
617.356	324.19
617.563	332.19
617.771	339.19
617.978	319.19
618.185	312.19
618.393	326.19
618.6	310.19
618.807	321.19
619.015	316.19
619.222	318.19
619.429	321.19
619.637	310.19
619.844	305.19
620.051	329.19
620.258	314.19
620.466	306.19
620.673	290.19
620.88	289.19
621.087	304.19
621.294	293.19
621.501	298.19
621.708	300.19
621.915	292.19
622.122	306.19
622.329	299.19
622.536	304.19
622.743	305.19
622.95	300.19
623.157	296.19
623.364	299.19
623.571	304.19
623.778	282.19
623.985	283.19
624.192	290.19
624.399	277.19
624.606	289.19
624.812	296.19
625.019	272.19
625.226	296.19
625.433	313.19
625.639	265.19
625.846	280.19
626.053	278.19
626.259	273.19
626.466	286.19
626.673	257.19
626.879	256.19
627.086	289.19
627.293	258.19
627.499	280.19
627.706	282.19
627.912	249.19
628.119	261.19
628.325	271.19
628.532	274.19
628.738	275.19
628.945	257.19
629.151	274.19
629.357	258.19
629.564	263.19
629.77	259.19
629.976	256.19
630.183	267.19
630.389	249.19
630.595	247.19
630.802	237.19
631.008	260.19
631.214	260.19
631.42	258.19
631.627	278.19
631.833	260.19
632.039	258.19
632.245	232.19
632.451	240.19
632.657	243.19
632.863	230.19
633.069	249.19
633.275	243.19
633.481	244.19
633.688	235.19
633.893	243.19
634.099	240.19
634.305	231.19
634.511	268.19
634.717	242.19
634.923	237.19
635.129	229.19
635.335	230.19
635.541	245.19
635.747	225.19
635.952	216.19
636.158	226.19
636.364	231.19
636.57	234.19
636.775	241.19
636.981	238.19
637.187	228.19
637.392	224.19
637.598	233.19
637.804	237.19
638.009	247.19
638.215	233.19
638.421	233.19
638.626	213.19
638.832	242.19
639.037	221.19
639.243	222.19
639.448	217.19
639.654	222.19
639.859	226.19
640.065	231.19
640.27	210.19
640.475	214.19
640.681	238.19
640.886	220.19
641.091	215.19
641.297	220.19
641.502	228.19
641.707	221.19
641.913	214.19
642.118	206.19
642.323	220.19
642.528	238.19
642.733	227.19
642.939	236.19
643.144	218.19
643.349	241.19
643.554	215.19
643.759	221.19
643.964	220.19
644.169	217.19
644.374	209.19
644.579	228.19
644.784	224.19
644.989	213.19
645.194	234.19
645.399	234.19
645.604	208.19
645.809	222.19
646.014	218.19
646.219	203.19
646.423	213.19
646.628	235.19
646.833	214.19
647.038	219.19
647.243	216.19
647.447	214.19
647.652	233.19
647.857	223.19
648.062	227.19
648.266	248.19
648.471	220.19
648.676	232.19
648.88	224.19
649.085	238.19
649.289	219.19
649.494	215.19
649.698	229.19
649.903	225.19
650.107	235.19
650.312	224.19
650.516	213.19
650.721	222.19
650.925	226.19
651.13	221.19
651.334	211.19
651.539	198.19
651.743	213.19
651.947	215.19
652.152	204.19
652.356	209.19
652.56	197.19
652.764	209.19
652.969	186.19
653.173	205.19
653.377	216.19
653.581	198.19
653.785	197.19
653.99	218.19
654.194	219.19
654.398	202.19
654.602	186.19
654.806	188.19
655.01	218.19
655.214	196.19
655.418	203.19
655.622	217.19
655.826	212.19
656.03	210.19
656.234	221.19
656.438	235.19
656.642	211.19
656.846	205.19
657.049	199.19
657.253	198.19
657.457	178.19
657.661	180.19
657.865	157.19
658.068	169.19
658.272	146.19
658.476	137.19
658.68	135.19
658.883	117.19
659.087	123.19
659.291	127.19
659.494	129.19
659.698	126.19
659.901	116.19
660.105	108.19
660.309	109.19
660.512	103.19
660.716	109.19
660.919	101.19
661.123	104.19
661.326	93.19
661.53	89.19
661.733	87.19
661.936	99.19
662.14	105.19
662.343	96.19
662.546	112.19
662.75	86.19
662.953	97.19
663.156	84.19
663.36	90.19
663.563	99.19
663.766	95.19
663.969	82.19
664.173	81.19
664.376	86.19
664.579	96.19
664.782	87.19
664.985	85.19
665.188	68.19
665.391	74.19
665.594	66.19
665.797	80.19
666	83.19
666.203	67.19
666.406	71.19
666.609	93.19
666.812	99.19
667.015	77.19
667.218	81.19
667.421	82.19
667.624	76.19
667.827	77.19
668.03	83.19
668.232	88.19
668.435	85.19
668.638	89.19
668.841	70.19
669.043	83.19
669.246	85.19
669.449	86.19
669.651	83.19
669.854	90.19
670.057	89.19
670.259	106.19
670.462	84.19
670.665	88.19
670.867	92.19
671.07	79.19
671.272	82.19
671.475	84.19
671.677	76.19
671.88	93.19
672.082	87.19
672.284	89.19
672.487	71.19
672.689	74.19
672.892	81.19
