Data from NiCl2@0.0625M.TitratingCurve.Agarose3%dH2O.NegLispCup.LampEnergy10.LIBS07252019_HRD10591_18-35-24-576.txt Node
Date: Thu Jul 25 18:35:24 EDT 2019
User: cochatt
Spectrometer: HR+D1059
Trigger mode: 1
Integration Time (sec): 1.000000E-1
Scans to average: 1
Electric dark correction enabled: true
Nonlinearity correction enabled: false
Boxcar width: 0
XAxis mode: Wavelengths
Number of Pixels in Spectrum: 2048
>>>>>Begin Spectral Data<<<<<
223.165	-9.81
223.4	-9.81
223.635	-9.81
223.869	-15.81
224.104	-9.81
224.338	-9.81
224.573	-10.81
224.808	-13.81
225.042	-7.81
225.277	-10.81
225.511	1.19
225.746	-1.81
225.98	-3.81
226.215	7.19
226.449	21.19
226.683	21.19
226.918	21.19
227.152	22.19
227.387	19.19
227.621	35.19
227.856	40.19
228.09	36.19
228.324	45.19
228.559	59.19
228.793	80.19
229.027	133.19
229.262	144.19
229.496	144.19
229.73	145.19
229.964	146.19
230.199	165.19
230.433	177.19
230.667	158.19
230.901	197.19
231.136	182.19
231.37	172.19
231.604	170.19
231.838	183.19
232.072	190.19
232.306	200.19
232.541	189.19
232.775	197.19
233.009	191.19
233.243	186.19
233.477	198.19
233.711	200.19
233.945	208.19
234.179	208.19
234.413	205.19
234.647	192.19
234.881	193.19
235.115	196.19
235.349	201.19
235.583	223.19
235.817	201.19
236.051	212.19
236.285	194.19
236.519	221.19
236.753	228.19
236.987	224.19
237.221	210.19
237.455	214.19
237.689	232.19
237.922	214.19
238.156	214.19
238.39	210.19
238.624	226.19
238.858	231.19
239.091	233.19
239.325	255.19
239.559	228.19
239.793	270.19
240.027	253.19
240.26	250.19
240.494	248.19
240.728	261.19
240.961	248.19
241.195	266.19
241.429	265.19
241.662	275.19
241.896	272.19
242.13	255.19
242.363	283.19
242.597	290.19
242.83	266.19
243.064	271.19
243.298	300.19
243.531	302.19
243.765	315.19
243.998	310.19
244.232	298.19
244.465	308.19
244.699	304.19
244.932	323.19
245.166	309.19
245.399	330.19
245.633	320.19
245.866	329.19
246.099	322.19
246.333	317.19
246.566	325.19
246.8	323.19
247.033	333.19
247.266	340.19
247.5	341.19
247.733	328.19
247.966	340.19
248.2	360.19
248.433	365.19
248.666	354.19
248.899	346.19
249.133	363.19
249.366	368.19
249.599	372.19
249.832	352.19
250.066	359.19
250.299	360.19
250.532	374.19
250.765	382.19
250.998	413.19
251.231	389.19
251.465	391.19
251.698	394.19
251.931	407.19
252.164	390.19
252.397	409.19
252.63	406.19
252.863	433.19
253.096	422.19
253.329	419.19
253.562	418.19
253.795	418.19
254.028	411.19
254.261	417.19
254.494	431.19
254.727	402.19
254.96	414.19
255.193	431.19
255.426	432.19
255.659	434.19
255.892	445.19
256.124	421.19
256.357	440.19
256.59	436.19
256.823	457.19
257.056	448.19
257.289	457.19
257.521	464.19
257.754	471.19
257.987	457.19
258.22	455.19
258.452	460.19
258.685	482.19
258.918	476.19
259.151	459.19
259.383	463.19
259.616	496.19
259.849	452.19
260.081	493.19
260.314	494.19
260.547	478.19
260.779	504.19
261.012	494.19
261.244	480.19
261.477	510.19
261.71	484.19
261.942	508.19
262.175	492.19
262.407	522.19
262.64	496.19
262.872	529.19
263.105	510.19
263.337	543.19
263.57	511.19
263.802	520.19
264.035	528.19
264.267	529.19
264.499	519.19
264.732	534.19
264.964	539.19
265.197	532.19
265.429	553.19
265.661	536.19
265.894	552.19
266.126	557.19
266.358	549.19
266.591	562.19
266.823	561.19
267.055	557.19
267.287	568.19
267.52	542.19
267.752	566.19
267.984	577.19
268.216	596.19
268.448	582.19
268.681	590.19
268.913	580.19
269.145	592.19
269.377	599.19
269.609	601.19
269.841	585.19
270.073	597.19
270.306	573.19
270.538	597.19
270.77	600.19
271.002	616.19
271.234	612.19
271.466	616.19
271.698	624.19
271.93	604.19
272.162	601.19
272.394	627.19
272.626	636.19
272.858	630.19
273.09	616.19
273.322	629.19
273.553	638.19
273.785	624.19
274.017	638.19
274.249	650.19
274.481	641.19
274.713	646.19
274.945	654.19
275.176	652.19
275.408	651.19
275.64	678.19
275.872	658.19
276.104	676.19
276.335	645.19
276.567	669.19
276.799	665.19
277.031	678.19
277.262	686.19
277.494	696.19
277.726	693.19
277.957	693.19
278.189	707.19
278.421	669.19
278.652	696.19
278.884	688.19
279.115	705.19
279.347	729.19
279.579	699.19
279.81	737.19
280.042	725.19
280.273	715.19
280.505	729.19
280.736	736.19
280.968	703.19
281.199	737.19
281.431	727.19
281.662	714.19
281.894	720.19
282.125	719.19
282.356	757.19
282.588	749.19
282.819	712.19
283.051	756.19
283.282	739.19
283.513	750.19
283.745	750.19
283.976	772.19
284.207	768.19
284.439	775.19
284.67	751.19
284.901	787.19
285.132	766.19
285.364	776.19
285.595	790.19
285.826	793.19
286.057	802.19
286.288	765.19
286.52	780.19
286.751	817.19
286.982	809.19
287.213	790.19
287.444	809.19
287.675	784.19
287.906	825.19
288.138	807.19
288.369	838.19
288.6	839.19
288.831	809.19
289.062	830.19
289.293	817.19
289.524	833.19
289.755	838.19
289.986	836.19
290.217	834.19
290.448	810.19
290.679	821.19
290.91	826.19
291.141	850.19
291.371	822.19
291.602	841.19
291.833	842.19
292.064	841.19
292.295	840.19
292.526	840.19
292.757	828.19
292.987	850.19
293.218	822.19
293.449	840.19
293.68	827.19
293.91	825.19
294.141	840.19
294.372	829.19
294.603	854.19
294.833	861.19
295.064	832.19
295.295	854.19
295.525	845.19
295.756	846.19
295.987	846.19
296.217	855.19
296.448	889.19
296.679	886.19
296.909	875.19
297.14	863.19
297.37	884.19
297.601	906.19
297.831	915.19
298.062	914.19
298.292	907.19
298.523	915.19
298.753	934.19
298.984	889.19
299.214	909.19
299.445	889.19
299.675	910.19
299.905	908.19
300.136	904.19
300.366	911.19
300.597	958.19
300.827	931.19
301.057	927.19
301.288	905.19
301.518	937.19
301.748	960.19
301.979	1002.19
302.209	981.19
302.439	974.19
302.669	983.19
302.9	978.19
303.13	952.19
303.36	909.19
303.59	959.19
303.82	942.19
304.051	968.19
304.281	974.19
304.511	928.19
304.741	969.19
304.971	983.19
305.201	940.19
305.431	946.19
305.661	966.19
305.891	949.19
306.121	970.19
306.352	947.19
306.582	956.19
306.812	970.19
307.042	961.19
307.272	943.19
307.502	906.19
307.731	974.19
307.961	948.19
308.191	975.19
308.421	950.19
308.651	938.19
308.881	964.19
309.111	940.19
309.341	952.19
309.571	935.19
309.8	966.19
310.03	969.19
310.26	971.19
310.49	941.19
310.72	970.19
310.949	950.19
311.179	968.19
311.409	951.19
311.639	980.19
311.868	970.19
312.098	990.19
312.328	988.19
312.557	1031.19
312.787	967.19
313.017	963.19
313.246	989.19
313.476	1008.19
313.706	991.19
313.935	1033.19
314.165	1005.19
314.394	1005.19
314.624	1045.19
314.853	1028.19
315.083	1042.19
315.312	1031.19
315.542	1015.19
315.771	1008.19
316.001	1008.19
316.23	1009.19
316.46	1015.19
316.689	998.19
316.919	986.19
317.148	1033.19
317.377	1046.19
317.607	1004.19
317.836	990.19
318.065	993.19
318.295	982.19
318.524	1033.19
318.753	1009.19
318.983	1018.19
319.212	1007.19
319.441	1016.19
319.67	1026.19
319.9	984.19
320.129	1034.19
320.358	1009.19
320.587	1020.19
320.816	1026.19
321.046	1034.19
321.275	998.19
321.504	999.19
321.733	1014.19
321.962	998.19
322.191	1017.19
322.42	1024.19
322.649	1026.19
322.878	1012.19
323.108	997.19
323.337	1038.19
323.566	1033.19
323.795	1052.19
324.024	1057.19
324.253	1068.19
324.482	1067.19
324.71	1040.19
324.939	1042.19
325.168	1078.19
325.397	1085.19
325.626	1076.19
325.855	1065.19
326.084	1084.19
326.313	1073.19
326.542	1091.19
326.77	1109.19
326.999	1087.19
327.228	1105.19
327.457	1084.19
327.686	1098.19
327.914	1119.19
328.143	1088.19
328.372	1118.19
328.6	1119.19
328.829	1104.19
329.058	1086.19
329.287	1093.19
329.515	1109.19
329.744	1121.19
329.972	1112.19
330.201	1144.19
330.43	1117.19
330.658	1133.19
330.887	1165.19
331.115	1160.19
331.344	1170.19
331.572	1188.19
331.801	1203.19
332.03	1207.19
332.258	1232.19
332.486	1245.19
332.715	1256.19
332.943	1321.19
333.172	1328.19
333.4	1376.19
333.629	1357.19
333.857	1416.19
334.085	1410.19
334.314	1405.19
334.542	1394.19
334.771	1390.19
334.999	1374.19
335.227	1349.19
335.455	1360.19
335.684	1358.19
335.912	1325.19
336.14	1327.19
336.369	1369.19
336.597	1341.19
336.825	1290.19
337.053	1310.19
337.281	1294.19
337.51	1265.19
337.738	1287.19
337.966	1255.19
338.194	1219.19
338.422	1212.19
338.65	1208.19
338.878	1210.19
339.106	1218.19
339.334	1211.19
339.562	1198.19
339.79	1190.19
340.018	1160.19
340.246	1173.19
340.474	1145.19
340.702	1162.19
340.93	1183.19
341.158	1176.19
341.386	1196.19
341.614	1172.19
341.842	1182.19
342.07	1167.19
342.298	1166.19
342.526	1135.19
342.754	1143.19
342.981	1155.19
343.209	1202.19
343.437	1219.19
343.665	1263.19
343.893	1312.19
344.12	1332.19
344.348	1321.19
344.576	1309.19
344.804	1268.19
345.031	1218.19
345.259	1215.19
345.487	1189.19
345.714	1172.19
345.942	1121.19
346.17	1152.19
346.397	1133.19
346.625	1132.19
346.853	1123.19
347.08	1108.19
347.308	1153.19
347.535	1134.19
347.763	1114.19
347.99	1118.19
348.218	1109.19
348.445	1097.19
348.673	1131.19
348.9	1093.19
349.128	1097.19
349.355	1088.19
349.583	1083.19
349.81	1085.19
350.037	1073.19
350.265	1051.19
350.492	1091.19
350.72	1060.19
350.947	1080.19
351.174	1082.19
351.402	1077.19
351.629	1077.19
351.856	1073.19
352.083	1074.19
352.311	1069.19
352.538	1057.19
352.765	1104.19
352.992	1087.19
353.22	1044.19
353.447	1064.19
353.674	1066.19
353.901	1046.19
354.128	1060.19
354.355	1069.19
354.583	1089.19
354.81	1061.19
355.037	1093.19
355.264	1082.19
355.491	1054.19
355.718	1076.19
355.945	1084.19
356.172	1077.19
356.399	1061.19
356.626	1117.19
356.853	1104.19
357.08	1072.19
357.307	1080.19
357.534	1075.19
357.761	1071.19
357.988	1094.19
358.215	1068.19
358.441	1080.19
358.668	1065.19
358.895	1066.19
359.122	1077.19
359.349	1099.19
359.576	1050.19
359.802	1063.19
360.029	1077.19
360.256	1084.19
360.483	1086.19
360.709	1075.19
360.936	1068.19
361.163	1087.19
361.39	1052.19
361.616	1052.19
361.843	1118.19
362.07	1079.19
362.296	1104.19
362.523	1053.19
362.749	1062.19
362.976	1078.19
363.203	1085.19
363.429	1072.19
363.656	1070.19
363.882	1074.19
364.109	1073.19
364.335	1080.19
364.562	1095.19
364.788	1065.19
365.015	1038.19
365.241	1104.19
365.468	1059.19
365.694	1078.19
365.92	1056.19
366.147	1082.19
366.373	1090.19
366.599	1097.19
366.826	1086.19
367.052	1066.19
367.278	1081.19
367.505	1110.19
367.731	1092.19
367.957	1083.19
368.184	1080.19
368.41	1118.19
368.636	1093.19
368.862	1114.19
369.089	1137.19
369.315	1105.19
369.541	1112.19
369.767	1134.19
369.993	1117.19
370.219	1127.19
370.445	1149.19
370.672	1161.19
370.898	1116.19
371.124	1155.19
371.35	1190.19
371.576	1177.19
371.802	1174.19
372.028	1173.19
372.254	1190.19
372.48	1168.19
372.706	1173.19
372.932	1225.19
373.158	1184.19
373.384	1180.19
373.61	1200.19
373.835	1160.19
374.061	1167.19
374.287	1159.19
374.513	1168.19
374.739	1231.19
374.965	1276.19
375.191	1308.19
375.416	1259.19
375.642	1244.19
375.868	1233.19
376.094	1212.19
376.319	1180.19
376.545	1150.19
376.771	1182.19
376.997	1144.19
377.222	1166.19
377.448	1146.19
377.674	1171.19
377.899	1144.19
378.125	1149.19
378.35	1129.19
378.576	1129.19
378.802	1163.19
379.027	1157.19
379.253	1173.19
379.478	1171.19
379.704	1184.19
379.929	1123.19
380.155	1142.19
380.38	1137.19
380.606	1172.19
380.831	1168.19
381.057	1180.19
381.282	1156.19
381.507	1152.19
381.733	1179.19
381.958	1185.19
382.184	1176.19
382.409	1223.19
382.634	1199.19
382.86	1178.19
383.085	1244.19
383.31	1237.19
383.535	1255.19
383.761	1265.19
383.986	1298.19
384.211	1292.19
384.436	1315.19
384.662	1318.19
384.887	1324.19
385.112	1325.19
385.337	1369.19
385.562	1372.19
385.787	1368.19
386.013	1418.19
386.238	1388.19
386.463	1400.19
386.688	1409.19
386.913	1365.19
387.138	1397.19
387.363	1381.19
387.588	1372.19
387.813	1371.19
388.038	1364.19
388.263	1391.19
388.488	1394.19
388.713	1379.19
388.938	1380.19
389.163	1370.19
389.387	1358.19
389.612	1352.19
389.837	1375.19
390.062	1378.19
390.287	1393.19
390.512	1368.19
390.736	1358.19
390.961	1397.19
391.186	1442.19
391.411	1454.19
391.636	1490.19
391.86	1530.19
392.085	1538.19
392.31	1547.19
392.534	1512.19
392.759	1484.19
392.984	1463.19
393.208	1468.19
393.433	1444.19
393.658	1441.19
393.882	1478.19
394.107	1459.19
394.331	1482.19
394.556	1480.19
394.78	1437.19
395.005	1497.19
395.229	1482.19
395.454	1552.19
395.678	1520.19
395.903	1528.19
396.127	1526.19
396.352	1506.19
396.576	1472.19
396.801	1493.19
397.025	1516.19
397.249	1530.19
397.474	1536.19
397.698	1569.19
397.922	1598.19
398.147	1564.19
398.371	1627.19
398.595	1702.19
398.82	1708.19
399.044	1809.19
399.268	1964.19
399.492	2154.19
399.717	2358.19
399.941	2402.19
400.165	2193.19
400.389	2019.19
400.613	1937.19
400.837	1868.19
401.062	1802.19
401.286	1734.19
401.51	1748.19
401.734	1748.19
401.958	1759.19
402.182	1730.19
402.406	1745.19
402.63	1740.19
402.854	1785.19
403.078	1805.19
403.302	1812.19
403.526	1852.19
403.75	1874.19
403.974	1894.19
404.198	1902.19
404.422	1873.19
404.645	1873.19
404.869	1870.19
405.093	1862.19
405.317	1812.19
405.541	1903.19
405.765	1876.19
405.988	1846.19
406.212	1863.19
406.436	1833.19
406.66	1934.19
406.883	1943.19
407.107	2076.19
407.331	2112.19
407.555	2229.19
407.778	2136.19
408.002	2114.19
408.226	2050.19
408.449	2040.19
408.673	1961.19
408.896	1956.19
409.12	1932.19
409.344	1914.19
409.567	1878.19
409.791	1933.19
410.014	1914.19
410.238	1904.19
410.461	1886.19
410.685	1902.19
410.908	1811.19
411.132	1824.19
411.355	1772.19
411.578	1823.19
411.802	1786.19
412.025	1780.19
412.249	1832.19
412.472	1830.19
412.695	1779.19
412.919	1745.19
413.142	1744.19
413.365	1740.19
413.589	1758.19
413.812	1686.19
414.035	1696.19
414.258	1736.19
414.482	1694.19
414.705	1716.19
414.928	1708.19
415.151	1738.19
415.374	1727.19
415.597	1688.19
415.821	1669.19
416.044	1674.19
416.267	1648.19
416.49	1691.19
416.713	1650.19
416.936	1689.19
417.159	1665.19
417.382	1655.19
417.605	1613.19
417.828	1649.19
418.051	1678.19
418.274	1654.19
418.497	1664.19
418.72	1702.19
418.943	1715.19
419.166	1794.19
419.389	1889.19
419.611	1873.19
419.834	1806.19
420.057	1722.19
420.28	1674.19
420.503	1648.19
420.726	1652.19
420.948	1635.19
421.171	1620.19
421.394	1687.19
421.617	1664.19
421.839	1657.19
422.062	1639.19
422.285	1638.19
422.507	1681.19
422.73	1701.19
422.953	1651.19
423.175	1685.19
423.398	1713.19
423.621	1673.19
423.843	1686.19
424.066	1686.19
424.288	1708.19
424.511	1700.19
424.733	1698.19
424.956	1655.19
425.178	1635.19
425.401	1688.19
425.623	1710.19
425.846	1623.19
426.068	1598.19
426.291	1592.19
426.513	1628.19
426.735	1599.19
426.958	1606.19
427.18	1540.19
427.402	1561.19
427.625	1557.19
427.847	1491.19
428.069	1511.19
428.292	1494.19
428.514	1497.19
428.736	1512.19
428.958	1526.19
429.181	1448.19
429.403	1484.19
429.625	1499.19
429.847	1488.19
430.069	1480.19
430.292	1502.19
430.514	1460.19
430.736	1492.19
430.958	1501.19
431.18	1506.19
431.402	1532.19
431.624	1442.19
431.846	1546.19
432.068	1528.19
432.29	1575.19
432.512	1509.19
432.734	1544.19
432.956	1501.19
433.178	1542.19
433.4	1541.19
433.622	1558.19
433.844	1620.19
434.066	1565.19
434.287	1605.19
434.509	1616.19
434.731	1681.19
434.953	1661.19
435.175	1672.19
435.397	1668.19
435.618	1601.19
435.84	1558.19
436.062	1569.19
436.284	1529.19
436.505	1527.19
436.727	1533.19
436.949	1509.19
437.17	1518.19
437.392	1520.19
437.614	1488.19
437.835	1420.19
438.057	1436.19
438.278	1451.19
438.5	1451.19
438.721	1455.19
438.943	1462.19
439.165	1464.19
439.386	1439.19
439.608	1454.19
439.829	1493.19
440.05	1489.19
440.272	1486.19
440.493	1520.19
440.715	1524.19
440.936	1561.19
441.158	1581.19
441.379	1560.19
441.6	1686.19
441.822	1647.19
442.043	1613.19
442.264	1629.19
442.486	1570.19
442.707	1635.19
442.928	1622.19
443.149	1626.19
443.371	1637.19
443.592	1658.19
443.813	1608.19
444.034	1657.19
444.255	1724.19
444.476	1733.19
444.698	1796.19
444.919	1831.19
445.14	1974.19
445.361	1813.19
445.582	1701.19
445.803	1629.19
446.024	1614.19
446.245	1561.19
446.466	1505.19
446.687	1477.19
446.908	1502.19
447.129	1445.19
447.35	1467.19
447.571	1453.19
447.792	1393.19
448.013	1418.19
448.234	1414.19
448.455	1391.19
448.675	1390.19
448.896	1372.19
449.117	1339.19
449.338	1376.19
449.559	1319.19
449.779	1298.19
450	1337.19
450.221	1341.19
450.442	1364.19
450.662	1349.19
450.883	1347.19
451.104	1378.19
451.324	1362.19
451.545	1375.19
451.766	1347.19
451.986	1321.19
452.207	1326.19
452.428	1324.19
452.648	1339.19
452.869	1306.19
453.089	1300.19
453.31	1314.19
453.53	1282.19
453.751	1306.19
453.971	1296.19
454.192	1278.19
454.412	1290.19
454.633	1281.19
454.853	1299.19
455.073	1279.19
455.294	1248.19
455.514	1265.19
455.734	1264.19
455.955	1260.19
456.175	1212.19
456.395	1261.19
456.616	1239.19
456.836	1268.19
457.056	1279.19
457.276	1271.19
457.497	1288.19
457.717	1281.19
457.937	1284.19
458.157	1287.19
458.377	1306.19
458.598	1340.19
458.818	1364.19
459.038	1377.19
459.258	1441.19
459.478	1489.19
459.698	1522.19
459.918	1562.19
460.138	1629.19
460.358	1660.19
460.578	1686.19
460.798	1685.19
461.018	1706.19
461.238	1684.19
461.458	1676.19
461.678	1719.19
461.898	1673.19
462.118	1727.19
462.338	1807.19
462.558	1861.19
462.777	1964.19
462.997	2070.19
463.217	2130.19
463.437	2135.19
463.657	2004.19
463.876	1964.19
464.096	2002.19
464.316	1913.19
464.536	1940.19
464.755	1918.19
464.975	1856.19
465.195	1761.19
465.414	1662.19
465.634	1603.19
465.854	1572.19
466.073	1520.19
466.293	1498.19
466.512	1427.19
466.732	1446.19
466.951	1434.19
467.171	1429.19
467.391	1419.19
467.61	1412.19
467.829	1406.19
468.049	1380.19
468.268	1378.19
468.488	1386.19
468.707	1360.19
468.927	1378.19
469.146	1338.19
469.365	1396.19
469.585	1376.19
469.804	1438.19
470.023	1458.19
470.243	1440.19
470.462	1479.19
470.681	1453.19
470.901	1434.19
471.12	1444.19
471.339	1443.19
471.558	1429.19
471.777	1390.19
471.997	1372.19
472.216	1366.19
472.435	1362.19
472.654	1366.19
472.873	1337.19
473.092	1352.19
473.311	1366.19
473.53	1336.19
473.749	1349.19
473.968	1367.19
474.187	1363.19
474.406	1339.19
474.625	1373.19
474.844	1344.19
475.063	1334.19
475.282	1380.19
475.501	1391.19
475.72	1394.19
475.939	1393.19
476.158	1438.19
476.377	1460.19
476.596	1436.19
476.814	1450.19
477.033	1463.19
477.252	1452.19
477.471	1497.19
477.69	1512.19
477.908	1575.19
478.127	1587.19
478.346	1612.19
478.564	1599.19
478.783	1627.19
479.002	1678.19
479.22	1711.19
479.439	1692.19
479.658	1674.19
479.876	1722.19
480.095	1752.19
480.313	1753.19
480.532	1829.19
480.751	1768.19
480.969	1754.19
481.188	1721.19
481.406	1694.19
481.624	1654.19
481.843	1670.19
482.061	1662.19
482.28	1669.19
482.498	1650.19
482.717	1599.19
482.935	1640.19
483.153	1648.19
483.372	1685.19
483.59	1679.19
483.808	1693.19
484.027	1671.19
484.245	1721.19
484.463	1731.19
484.681	1742.19
484.9	1776.19
485.118	1799.19
485.336	1827.19
485.554	1830.19
485.772	1838.19
485.99	1818.19
486.209	1798.19
486.427	1828.19
486.645	1824.19
486.863	1794.19
487.081	1750.19
487.299	1815.19
487.517	1769.19
487.735	1767.19
487.953	1780.19
488.171	1786.19
488.389	1756.19
488.607	1720.19
488.825	1735.19
489.043	1695.19
489.261	1708.19
489.479	1693.19
489.696	1736.19
489.914	1732.19
490.132	1713.19
490.35	1710.19
490.568	1735.19
490.786	1712.19
491.003	1734.19
491.221	1724.19
491.439	1694.19
491.657	1722.19
491.874	1697.19
492.092	1691.19
492.31	1698.19
492.527	1708.19
492.745	1706.19
492.963	1703.19
493.18	1715.19
493.398	1717.19
493.615	1747.19
493.833	1763.19
494.05	1705.19
494.268	1717.19
494.485	1748.19
494.703	1753.19
494.92	1726.19
495.138	1750.19
495.355	1755.19
495.573	1775.19
495.79	1746.19
496.008	1766.19
496.225	1788.19
496.442	1780.19
496.66	1793.19
496.877	1821.19
497.094	1885.19
497.312	1873.19
497.529	1897.19
497.746	2007.19
497.963	2034.19
498.181	2146.19
498.398	2189.19
498.615	2308.19
498.832	2461.19
499.049	2584.19
499.267	2735.19
499.484	2945.19
499.701	3189.19
499.918	3526.19
500.135	3846.19
500.352	4202.19
500.569	4338.19
500.786	4359.19
501.003	4097.19
501.22	3771.19
501.437	3403.19
501.654	3140.19
501.871	2929.19
502.088	2717.19
502.305	2544.19
502.522	2469.19
502.739	2343.19
502.956	2210.19
503.172	2119.19
503.389	2048.19
503.606	2013.19
503.823	1927.19
504.04	1944.19
504.256	1933.19
504.473	1995.19
504.69	1999.19
504.907	1927.19
505.123	1849.19
505.34	1783.19
505.557	1725.19
505.773	1684.19
505.99	1605.19
506.207	1602.19
506.423	1581.19
506.64	1554.19
506.856	1526.19
507.073	1489.19
507.289	1520.19
507.506	1463.19
507.722	1468.19
507.939	1469.19
508.155	1466.19
508.372	1457.19
508.588	1427.19
508.805	1445.19
509.021	1400.19
509.238	1428.19
509.454	1393.19
509.67	1394.19
509.887	1405.19
510.103	1417.19
510.319	1392.19
510.536	1348.19
510.752	1354.19
510.968	1389.19
511.184	1354.19
511.401	1384.19
511.617	1379.19
511.833	1389.19
512.049	1322.19
512.265	1374.19
512.481	1349.19
512.698	1328.19
512.914	1320.19
513.13	1372.19
513.346	1336.19
513.562	1338.19
513.778	1346.19
513.994	1372.19
514.21	1366.19
514.426	1342.19
514.642	1360.19
514.858	1415.19
515.074	1396.19
515.29	1411.19
515.506	1437.19
515.721	1423.19
515.937	1420.19
516.153	1429.19
516.369	1458.19
516.585	1536.19
516.801	1588.19
517.016	1569.19
517.232	1687.19
517.448	1703.19
517.664	1777.19
517.879	1773.19
518.095	1761.19
518.311	1748.19
518.527	1694.19
518.742	1641.19
518.958	1621.19
519.173	1548.19
519.389	1518.19
519.605	1449.19
519.82	1447.19
520.036	1438.19
520.251	1398.19
520.467	1397.19
520.682	1349.19
520.898	1321.19
521.113	1338.19
521.329	1316.19
521.544	1297.19
521.76	1303.19
521.975	1293.19
522.19	1268.19
522.406	1268.19
522.621	1269.19
522.836	1228.19
523.052	1247.19
523.267	1285.19
523.482	1256.19
523.698	1222.19
523.913	1219.19
524.128	1232.19
524.343	1228.19
524.559	1230.19
524.774	1212.19
524.989	1230.19
525.204	1200.19
525.419	1178.19
525.634	1200.19
525.849	1198.19
526.064	1225.19
526.28	1219.19
526.495	1193.19
526.71	1221.19
526.925	1202.19
527.14	1181.19
527.355	1163.19
527.57	1191.19
527.785	1231.19
527.999	1164.19
528.214	1198.19
528.429	1174.19
528.644	1191.19
528.859	1186.19
529.074	1193.19
529.289	1200.19
529.503	1198.19
529.718	1161.19
529.933	1152.19
530.148	1158.19
530.363	1180.19
530.577	1157.19
530.792	1190.19
531.007	1189.19
531.221	1176.19
531.436	1164.19
531.651	1163.19
531.865	1192.19
532.08	1174.19
532.295	1189.19
532.509	1143.19
532.724	1182.19
532.938	1183.19
533.153	1171.19
533.367	1192.19
533.582	1150.19
533.796	1163.19
534.011	1183.19
534.225	1128.19
534.44	1188.19
534.654	1154.19
534.868	1181.19
535.083	1134.19
535.297	1132.19
535.511	1117.19
535.726	1107.19
535.94	1144.19
536.154	1119.19
536.369	1089.19
536.583	1107.19
536.797	1100.19
537.011	1084.19
537.225	1058.19
537.44	1089.19
537.654	1095.19
537.868	1090.19
538.082	1073.19
538.296	1084.19
538.51	1064.19
538.724	1057.19
538.938	1080.19
539.153	1040.19
539.367	1073.19
539.581	1033.19
539.795	1079.19
540.009	1080.19
540.222	1100.19
540.436	1065.19
540.65	1044.19
540.864	1052.19
541.078	1059.19
541.292	1083.19
541.506	1063.19
541.72	1014.19
541.934	1053.19
542.147	1057.19
542.361	1063.19
542.575	1026.19
542.789	1022.19
543.002	1021.19
543.216	1058.19
543.43	1029.19
543.644	1034.19
543.857	1018.19
544.071	1019.19
544.285	1061.19
544.498	1043.19
544.712	1053.19
544.925	1058.19
545.139	1047.19
545.352	1044.19
545.566	1045.19
545.779	1053.19
545.993	1062.19
546.206	1076.19
546.42	1027.19
546.633	1061.19
546.847	1065.19
547.06	1049.19
547.274	1069.19
547.487	1031.19
547.7	1056.19
547.914	1078.19
548.127	1100.19
548.34	1061.19
548.554	1087.19
548.767	1064.19
548.98	1051.19
549.193	1052.19
549.407	1058.19
549.62	1108.19
549.833	1097.19
550.046	1085.19
550.259	1062.19
550.473	1057.19
550.686	1081.19
550.899	1039.19
551.112	1070.19
551.325	1034.19
551.538	1068.19
551.751	1032.19
551.964	1050.19
552.177	1066.19
552.39	1047.19
552.603	1096.19
552.816	1098.19
553.029	1127.19
553.242	1126.19
553.455	1108.19
553.667	1143.19
553.88	1110.19
554.093	1073.19
554.306	1086.19
554.519	1052.19
554.732	1025.19
554.944	1036.19
555.157	1007.19
555.37	1014.19
555.583	988.19
555.795	976.19
556.008	928.19
556.221	972.19
556.433	950.19
556.646	933.19
556.859	901.19
557.071	903.19
557.284	911.19
557.496	919.19
557.709	905.19
557.921	897.19
558.134	876.19
558.346	915.19
558.559	883.19
558.771	896.19
558.984	904.19
559.196	878.19
559.409	884.19
559.621	879.19
559.833	871.19
560.046	884.19
560.258	864.19
560.47	886.19
560.683	879.19
560.895	886.19
561.107	854.19
561.32	870.19
561.532	912.19
561.744	888.19
561.956	872.19
562.168	879.19
562.381	848.19
562.593	879.19
562.805	868.19
563.017	900.19
563.229	882.19
563.441	886.19
563.653	889.19
563.865	913.19
564.077	906.19
564.289	920.19
564.501	909.19
564.713	954.19
564.925	924.19
565.137	946.19
565.349	999.19
565.561	1016.19
565.773	1058.19
565.985	1095.19
566.197	1106.19
566.408	1159.19
566.62	1275.19
566.832	1325.19
567.044	1346.19
567.255	1362.19
567.467	1389.19
567.679	1444.19
567.891	1481.19
568.102	1484.19
568.314	1452.19
568.526	1333.19
568.737	1245.19
568.949	1156.19
569.161	1114.19
569.372	1025.19
569.584	994.19
569.795	973.19
570.007	947.19
570.218	905.19
570.43	891.19
570.641	896.19
570.853	896.19
571.064	887.19
571.276	881.19
571.487	873.19
571.698	847.19
571.91	811.19
572.121	804.19
572.333	784.19
572.544	766.19
572.755	752.19
572.966	744.19
573.178	715.19
573.389	734.19
573.6	724.19
573.811	741.19
574.023	710.19
574.234	723.19
574.445	723.19
574.656	711.19
574.867	709.19
575.078	727.19
575.289	722.19
575.501	702.19
575.712	704.19
575.923	669.19
576.134	688.19
576.345	674.19
576.556	673.19
576.767	656.19
576.978	702.19
577.188	664.19
577.399	650.19
577.61	661.19
577.821	665.19
578.032	608.19
578.243	629.19
578.454	626.19
578.665	635.19
578.875	626.19
579.086	617.19
579.297	642.19
579.508	617.19
579.718	612.19
579.929	614.19
580.14	615.19
580.35	613.19
580.561	628.19
580.772	604.19
580.982	622.19
581.193	618.19
581.403	602.19
581.614	618.19
581.825	612.19
582.035	601.19
582.246	595.19
582.456	610.19
582.667	597.19
582.877	577.19
583.087	592.19
583.298	591.19
583.508	582.19
583.719	596.19
583.929	585.19
584.139	584.19
584.35	574.19
584.56	590.19
584.77	576.19
584.981	565.19
585.191	584.19
585.401	553.19
585.611	552.19
585.821	581.19
586.032	553.19
586.242	577.19
586.452	594.19
586.662	564.19
586.872	542.19
587.082	567.19
587.292	576.19
587.502	557.19
587.713	588.19
587.923	545.19
588.133	577.19
588.343	541.19
588.553	552.19
588.762	553.19
588.972	579.19
589.182	586.19
589.392	575.19
589.602	576.19
589.812	564.19
590.022	556.19
590.232	578.19
590.441	565.19
590.651	548.19
590.861	590.19
591.071	600.19
591.281	590.19
591.49	593.19
591.7	590.19
591.91	601.19
592.119	612.19
592.329	616.19
592.539	637.19
592.748	650.19
592.958	662.19
593.167	658.19
593.377	649.19
593.587	679.19
593.796	663.19
594.006	702.19
594.215	702.19
594.424	685.19
594.634	692.19
594.843	658.19
595.053	615.19
595.262	627.19
595.472	584.19
595.681	586.19
595.89	598.19
596.1	562.19
596.309	568.19
596.518	554.19
596.727	546.19
596.937	525.19
597.146	529.19
597.355	505.19
597.564	530.19
597.774	516.19
597.983	508.19
598.192	503.19
598.401	505.19
598.61	493.19
598.819	487.19
599.028	488.19
599.237	485.19
599.446	475.19
599.655	476.19
599.864	500.19
600.073	473.19
600.282	479.19
600.491	458.19
600.7	453.19
600.909	464.19
601.118	488.19
601.327	458.19
601.536	471.19
601.745	441.19
601.953	449.19
602.162	454.19
602.371	451.19
602.58	452.19
602.789	433.19
602.997	437.19
603.206	443.19
603.415	448.19
603.623	437.19
603.832	458.19
604.041	444.19
604.249	435.19
604.458	418.19
604.666	439.19
604.875	424.19
605.084	421.19
605.292	435.19
605.501	437.19
605.709	441.19
605.918	421.19
606.126	415.19
606.334	409.19
606.543	426.19
606.751	428.19
606.96	420.19
607.168	421.19
607.376	419.19
607.585	431.19
607.793	426.19
608.001	415.19
608.21	411.19
608.418	401.19
608.626	409.19
608.834	424.19
609.043	421.19
609.251	415.19
609.459	414.19
609.667	415.19
609.875	421.19
610.083	400.19
610.291	404.19
610.499	417.19
610.707	427.19
610.916	400.19
611.124	402.19
611.332	417.19
611.54	415.19
611.748	398.19
611.955	392.19
612.163	397.19
612.371	393.19
612.579	382.19
612.787	399.19
612.995	416.19
613.203	428.19
613.411	395.19
613.618	387.19
613.826	400.19
614.034	392.19
614.242	410.19
614.449	383.19
614.657	390.19
614.865	395.19
615.072	386.19
615.28	392.19
615.488	414.19
615.695	391.19
615.903	393.19
616.111	391.19
616.318	395.19
616.526	406.19
616.733	406.19
616.941	395.19
617.148	382.19
617.356	393.19
617.563	398.19
617.771	395.19
617.978	396.19
618.185	389.19
618.393	372.19
618.6	375.19
618.807	384.19
619.015	377.19
619.222	369.19
619.429	394.19
619.637	405.19
619.844	367.19
620.051	380.19
620.258	365.19
620.466	376.19
620.673	354.19
620.88	351.19
621.087	373.19
621.294	354.19
621.501	369.19
621.708	376.19
621.915	374.19
622.122	357.19
622.329	344.19
622.536	341.19
622.743	359.19
622.95	357.19
623.157	352.19
623.364	348.19
623.571	364.19
623.778	345.19
623.985	357.19
624.192	357.19
624.399	353.19
624.606	334.19
624.812	338.19
625.019	364.19
625.226	340.19
625.433	340.19
625.639	349.19
625.846	316.19
626.053	348.19
626.259	344.19
626.466	326.19
626.673	340.19
626.879	328.19
627.086	334.19
627.293	329.19
627.499	343.19
627.706	350.19
627.912	330.19
628.119	328.19
628.325	333.19
628.532	329.19
628.738	311.19
628.945	304.19
629.151	320.19
629.357	320.19
629.564	302.19
629.77	303.19
629.976	314.19
630.183	308.19
630.389	311.19
630.595	289.19
630.802	286.19
631.008	306.19
631.214	314.19
631.42	320.19
631.627	295.19
631.833	310.19
632.039	297.19
632.245	308.19
632.451	298.19
632.657	309.19
632.863	296.19
633.069	290.19
633.275	297.19
633.481	283.19
633.688	285.19
633.893	280.19
634.099	268.19
634.305	293.19
634.511	290.19
634.717	295.19
634.923	280.19
635.129	286.19
635.335	286.19
635.541	284.19
635.747	286.19
635.952	290.19
636.158	297.19
636.364	290.19
636.57	286.19
636.775	294.19
636.981	277.19
637.187	294.19
637.392	281.19
637.598	279.19
637.804	289.19
638.009	265.19
638.215	290.19
638.421	286.19
638.626	270.19
638.832	285.19
639.037	261.19
639.243	271.19
639.448	274.19
639.654	266.19
639.859	274.19
640.065	283.19
640.27	274.19
640.475	287.19
640.681	271.19
640.886	247.19
641.091	270.19
641.297	280.19
641.502	263.19
641.707	269.19
641.913	272.19
642.118	272.19
642.323	269.19
642.528	253.19
642.733	259.19
642.939	264.19
643.144	248.19
643.349	255.19
643.554	278.19
643.759	272.19
643.964	252.19
644.169	257.19
644.374	268.19
644.579	268.19
644.784	259.19
644.989	263.19
645.194	248.19
645.399	276.19
645.604	272.19
645.809	260.19
646.014	270.19
646.219	277.19
646.423	272.19
646.628	278.19
646.833	286.19
647.038	266.19
647.243	284.19
647.447	265.19
647.652	281.19
647.857	274.19
648.062	271.19
648.266	284.19
648.471	293.19
648.676	289.19
648.88	296.19
649.085	285.19
649.289	286.19
649.494	282.19
649.698	291.19
649.903	290.19
650.107	274.19
650.312	270.19
650.516	266.19
650.721	266.19
650.925	271.19
651.13	267.19
651.334	255.19
651.539	273.19
651.743	252.19
651.947	254.19
652.152	260.19
652.356	255.19
652.56	260.19
652.764	256.19
652.969	254.19
653.173	258.19
653.377	263.19
653.581	264.19
653.785	278.19
653.99	255.19
654.194	250.19
654.398	251.19
654.602	266.19
654.806	278.19
655.01	276.19
655.214	272.19
655.418	286.19
655.622	289.19
655.826	321.19
656.03	316.19
656.234	352.19
656.438	364.19
656.642	378.19
656.846	338.19
657.049	325.19
657.253	272.19
657.457	256.19
657.661	230.19
657.865	209.19
658.068	198.19
658.272	184.19
658.476	175.19
658.68	173.19
658.883	160.19
659.087	149.19
659.291	142.19
659.494	142.19
659.698	131.19
659.901	119.19
660.105	128.19
660.309	114.19
660.512	128.19
660.716	112.19
660.919	107.19
661.123	94.19
661.326	106.19
661.53	112.19
661.733	99.19
661.936	89.19
662.14	89.19
662.343	91.19
662.546	97.19
662.75	93.19
662.953	93.19
663.156	90.19
663.36	94.19
663.563	92.19
663.766	82.19
663.969	75.19
664.173	83.19
664.376	90.19
664.579	83.19
664.782	89.19
664.985	87.19
665.188	80.19
665.391	66.19
665.594	68.19
665.797	98.19
666	81.19
666.203	81.19
666.406	70.19
666.609	91.19
666.812	92.19
667.015	84.19
667.218	83.19
667.421	86.19
667.624	87.19
667.827	87.19
668.03	70.19
668.232	77.19
668.435	66.19
668.638	81.19
668.841	78.19
669.043	75.19
669.246	77.19
669.449	72.19
669.651	73.19
669.854	85.19
670.057	73.19
670.259	81.19
670.462	76.19
670.665	83.19
670.867	77.19
671.07	74.19
671.272	88.19
671.475	80.19
671.677	85.19
671.88	78.19
672.082	85.19
672.284	86.19
672.487	78.19
672.689	75.19
672.892	79.19
