Data from NiCl2@0.0625M.TitratingCurve.Agarose3%dH2O.NegLispCup.LampEnergy10.LIBS07252019_HRD10591_18-33-48-576.txt Node
Date: Thu Jul 25 18:33:48 EDT 2019
User: cochatt
Spectrometer: HR+D1059
Trigger mode: 1
Integration Time (sec): 1.000000E-1
Scans to average: 1
Electric dark correction enabled: true
Nonlinearity correction enabled: false
Boxcar width: 0
XAxis mode: Wavelengths
Number of Pixels in Spectrum: 2048
>>>>>Begin Spectral Data<<<<<
223.165	-9.81
223.4	-9.81
223.635	-9.81
223.869	-12.81
224.104	-21.81
224.338	-17.81
224.573	-22.81
224.808	-1.81
225.042	-13.81
225.277	2.19
225.511	-9.81
225.746	-4.81
225.98	11.19
226.215	4.19
226.449	10.19
226.683	27.19
226.918	31.19
227.152	29.19
227.387	31.19
227.621	30.19
227.856	40.19
228.09	51.19
228.324	46.19
228.559	62.19
228.793	94.19
229.027	144.19
229.262	163.19
229.496	160.19
229.73	166.19
229.964	157.19
230.199	179.19
230.433	189.19
230.667	183.19
230.901	198.19
231.136	175.19
231.37	175.19
231.604	199.19
231.838	199.19
232.072	205.19
232.306	201.19
232.541	190.19
232.775	195.19
233.009	201.19
233.243	204.19
233.477	197.19
233.711	199.19
233.945	219.19
234.179	210.19
234.413	222.19
234.647	209.19
234.881	207.19
235.115	199.19
235.349	222.19
235.583	207.19
235.817	224.19
236.051	220.19
236.285	222.19
236.519	225.19
236.753	236.19
236.987	238.19
237.221	227.19
237.455	233.19
237.689	245.19
237.922	261.19
238.156	268.19
238.39	247.19
238.624	262.19
238.858	278.19
239.091	285.19
239.325	266.19
239.559	273.19
239.793	268.19
240.027	284.19
240.26	262.19
240.494	286.19
240.728	286.19
240.961	272.19
241.195	284.19
241.429	306.19
241.662	275.19
241.896	301.19
242.13	292.19
242.363	298.19
242.597	313.19
242.83	326.19
243.064	292.19
243.298	315.19
243.531	316.19
243.765	323.19
243.998	332.19
244.232	319.19
244.465	329.19
244.699	344.19
244.932	358.19
245.166	362.19
245.399	356.19
245.633	349.19
245.866	339.19
246.099	362.19
246.333	366.19
246.566	355.19
246.8	374.19
247.033	362.19
247.266	370.19
247.5	354.19
247.733	383.19
247.966	382.19
248.2	394.19
248.433	397.19
248.666	374.19
248.899	401.19
249.133	383.19
249.366	391.19
249.599	385.19
249.832	384.19
250.066	397.19
250.299	394.19
250.532	434.19
250.765	405.19
250.998	417.19
251.231	395.19
251.465	446.19
251.698	451.19
251.931	452.19
252.164	429.19
252.397	438.19
252.63	430.19
252.863	422.19
253.096	450.19
253.329	452.19
253.562	467.19
253.795	457.19
254.028	477.19
254.261	467.19
254.494	460.19
254.727	481.19
254.96	466.19
255.193	467.19
255.426	464.19
255.659	473.19
255.892	459.19
256.124	469.19
256.357	489.19
256.59	484.19
256.823	494.19
257.056	500.19
257.289	490.19
257.521	499.19
257.754	526.19
257.987	505.19
258.22	507.19
258.452	509.19
258.685	523.19
258.918	516.19
259.151	505.19
259.383	541.19
259.616	514.19
259.849	521.19
260.081	527.19
260.314	543.19
260.547	493.19
260.779	536.19
261.012	525.19
261.244	548.19
261.477	553.19
261.71	549.19
261.942	533.19
262.175	565.19
262.407	569.19
262.64	520.19
262.872	558.19
263.105	583.19
263.337	554.19
263.57	588.19
263.802	558.19
264.035	582.19
264.267	569.19
264.499	563.19
264.732	579.19
264.964	590.19
265.197	597.19
265.429	609.19
265.661	579.19
265.894	585.19
266.126	580.19
266.358	589.19
266.591	589.19
266.823	623.19
267.055	601.19
267.287	596.19
267.52	609.19
267.752	620.19
267.984	615.19
268.216	647.19
268.448	631.19
268.681	642.19
268.913	632.19
269.145	641.19
269.377	616.19
269.609	645.19
269.841	643.19
270.073	655.19
270.306	631.19
270.538	645.19
270.77	628.19
271.002	657.19
271.234	652.19
271.466	661.19
271.698	661.19
271.93	665.19
272.162	699.19
272.394	689.19
272.626	681.19
272.858	669.19
273.09	699.19
273.322	701.19
273.553	692.19
273.785	691.19
274.017	702.19
274.249	725.19
274.481	719.19
274.713	714.19
274.945	712.19
275.176	743.19
275.408	723.19
275.64	736.19
275.872	738.19
276.104	748.19
276.335	713.19
276.567	715.19
276.799	746.19
277.031	725.19
277.262	751.19
277.494	731.19
277.726	724.19
277.957	742.19
278.189	745.19
278.421	761.19
278.652	784.19
278.884	759.19
279.115	738.19
279.347	776.19
279.579	749.19
279.81	755.19
280.042	759.19
280.273	793.19
280.505	786.19
280.736	780.19
280.968	767.19
281.199	814.19
281.431	796.19
281.662	782.19
281.894	804.19
282.125	799.19
282.356	827.19
282.588	804.19
282.819	814.19
283.051	843.19
283.282	809.19
283.513	836.19
283.745	801.19
283.976	855.19
284.207	819.19
284.439	869.19
284.67	867.19
284.901	860.19
285.132	858.19
285.364	814.19
285.595	853.19
285.826	883.19
286.057	852.19
286.288	865.19
286.52	852.19
286.751	857.19
286.982	887.19
287.213	874.19
287.444	895.19
287.675	871.19
287.906	883.19
288.138	933.19
288.369	887.19
288.6	906.19
288.831	888.19
289.062	915.19
289.293	929.19
289.524	900.19
289.755	920.19
289.986	908.19
290.217	888.19
290.448	905.19
290.679	902.19
290.91	890.19
291.141	889.19
291.371	915.19
291.602	921.19
291.833	918.19
292.064	943.19
292.295	911.19
292.526	923.19
292.757	921.19
292.987	909.19
293.218	892.19
293.449	908.19
293.68	912.19
293.91	936.19
294.141	919.19
294.372	909.19
294.603	920.19
294.833	921.19
295.064	922.19
295.295	917.19
295.525	931.19
295.756	965.19
295.987	933.19
296.217	940.19
296.448	943.19
296.679	965.19
296.909	955.19
297.14	957.19
297.37	981.19
297.601	975.19
297.831	963.19
298.062	967.19
298.292	996.19
298.523	981.19
298.753	1021.19
298.984	982.19
299.214	1000.19
299.445	1018.19
299.675	1006.19
299.905	1029.19
300.136	958.19
300.366	1006.19
300.597	1004.19
300.827	1023.19
301.057	1053.19
301.288	1034.19
301.518	1025.19
301.748	1053.19
301.979	1089.19
302.209	1075.19
302.439	1035.19
302.669	1048.19
302.9	1013.19
303.13	1023.19
303.36	1077.19
303.59	1039.19
303.82	995.19
304.051	1059.19
304.281	1068.19
304.511	1046.19
304.741	1029.19
304.971	1058.19
305.201	1021.19
305.431	1058.19
305.661	1023.19
305.891	1002.19
306.121	1034.19
306.352	1045.19
306.582	1047.19
306.812	1037.19
307.042	1058.19
307.272	1036.19
307.502	1036.19
307.731	1046.19
307.961	1049.19
308.191	1025.19
308.421	1013.19
308.651	1025.19
308.881	1029.19
309.111	1006.19
309.341	1010.19
309.571	1023.19
309.8	1039.19
310.03	1041.19
310.26	1063.19
310.49	1053.19
310.72	1032.19
310.949	1045.19
311.179	1065.19
311.409	1046.19
311.639	1045.19
311.868	1016.19
312.098	1066.19
312.328	1070.19
312.557	1088.19
312.787	1041.19
313.017	1070.19
313.246	1118.19
313.476	1114.19
313.706	1126.19
313.935	1108.19
314.165	1127.19
314.394	1118.19
314.624	1084.19
314.853	1122.19
315.083	1137.19
315.312	1138.19
315.542	1121.19
315.771	1093.19
316.001	1122.19
316.23	1111.19
316.46	1092.19
316.689	1092.19
316.919	1117.19
317.148	1147.19
317.377	1130.19
317.607	1107.19
317.836	1090.19
318.065	1083.19
318.295	1129.19
318.524	1108.19
318.753	1107.19
318.983	1116.19
319.212	1117.19
319.441	1120.19
319.67	1103.19
319.9	1086.19
320.129	1119.19
320.358	1114.19
320.587	1128.19
320.816	1110.19
321.046	1098.19
321.275	1090.19
321.504	1111.19
321.733	1117.19
321.962	1083.19
322.191	1149.19
322.42	1127.19
322.649	1121.19
322.878	1131.19
323.108	1101.19
323.337	1118.19
323.566	1130.19
323.795	1163.19
324.024	1118.19
324.253	1150.19
324.482	1144.19
324.71	1170.19
324.939	1188.19
325.168	1166.19
325.397	1171.19
325.626	1167.19
325.855	1177.19
326.084	1180.19
326.313	1187.19
326.542	1228.19
326.77	1211.19
326.999	1219.19
327.228	1188.19
327.457	1183.19
327.686	1196.19
327.914	1213.19
328.143	1234.19
328.372	1217.19
328.6	1238.19
328.829	1198.19
329.058	1212.19
329.287	1225.19
329.515	1251.19
329.744	1214.19
329.972	1258.19
330.201	1245.19
330.43	1239.19
330.658	1251.19
330.887	1231.19
331.115	1244.19
331.344	1271.19
331.572	1295.19
331.801	1294.19
332.03	1313.19
332.258	1390.19
332.486	1341.19
332.715	1386.19
332.943	1417.19
333.172	1495.19
333.4	1511.19
333.629	1569.19
333.857	1582.19
334.085	1577.19
334.314	1536.19
334.542	1511.19
334.771	1507.19
334.999	1486.19
335.227	1477.19
335.455	1483.19
335.684	1493.19
335.912	1492.19
336.14	1474.19
336.369	1491.19
336.597	1462.19
336.825	1437.19
337.053	1427.19
337.281	1420.19
337.51	1421.19
337.738	1358.19
337.966	1322.19
338.194	1385.19
338.422	1331.19
338.65	1317.19
338.878	1306.19
339.106	1345.19
339.334	1307.19
339.562	1316.19
339.79	1268.19
340.018	1306.19
340.246	1240.19
340.474	1257.19
340.702	1269.19
340.93	1287.19
341.158	1276.19
341.386	1251.19
341.614	1287.19
341.842	1282.19
342.07	1260.19
342.298	1257.19
342.526	1263.19
342.754	1231.19
342.981	1284.19
343.209	1269.19
343.437	1317.19
343.665	1396.19
343.893	1489.19
344.12	1484.19
344.348	1449.19
344.576	1442.19
344.804	1366.19
345.031	1326.19
345.259	1314.19
345.487	1303.19
345.714	1267.19
345.942	1257.19
346.17	1243.19
346.397	1225.19
346.625	1223.19
346.853	1177.19
347.08	1206.19
347.308	1227.19
347.535	1247.19
347.763	1238.19
347.99	1224.19
348.218	1217.19
348.445	1186.19
348.673	1201.19
348.9	1235.19
349.128	1213.19
349.355	1162.19
349.583	1193.19
349.81	1209.19
350.037	1191.19
350.265	1160.19
350.492	1183.19
350.72	1179.19
350.947	1172.19
351.174	1184.19
351.402	1198.19
351.629	1195.19
351.856	1190.19
352.083	1195.19
352.311	1189.19
352.538	1173.19
352.765	1159.19
352.992	1171.19
353.22	1181.19
353.447	1155.19
353.674	1187.19
353.901	1169.19
354.128	1167.19
354.355	1166.19
354.583	1159.19
354.81	1193.19
355.037	1164.19
355.264	1193.19
355.491	1143.19
355.718	1210.19
355.945	1181.19
356.172	1192.19
356.399	1194.19
356.626	1199.19
356.853	1196.19
357.08	1186.19
357.307	1168.19
357.534	1158.19
357.761	1225.19
357.988	1182.19
358.215	1163.19
358.441	1176.19
358.668	1196.19
358.895	1177.19
359.122	1181.19
359.349	1198.19
359.576	1158.19
359.802	1211.19
360.029	1175.19
360.256	1182.19
360.483	1191.19
360.709	1215.19
360.936	1172.19
361.163	1189.19
361.39	1166.19
361.616	1189.19
361.843	1197.19
362.07	1198.19
362.296	1177.19
362.523	1173.19
362.749	1165.19
362.976	1177.19
363.203	1195.19
363.429	1156.19
363.656	1183.19
363.882	1181.19
364.109	1154.19
364.335	1166.19
364.562	1148.19
364.788	1191.19
365.015	1190.19
365.241	1182.19
365.468	1177.19
365.694	1192.19
365.92	1168.19
366.147	1160.19
366.373	1160.19
366.599	1188.19
366.826	1174.19
367.052	1173.19
367.278	1159.19
367.505	1187.19
367.731	1192.19
367.957	1185.19
368.184	1210.19
368.41	1195.19
368.636	1194.19
368.862	1187.19
369.089	1191.19
369.315	1190.19
369.541	1212.19
369.767	1234.19
369.993	1240.19
370.219	1202.19
370.445	1228.19
370.672	1262.19
370.898	1269.19
371.124	1227.19
371.35	1265.19
371.576	1277.19
371.802	1247.19
372.028	1254.19
372.254	1289.19
372.48	1321.19
372.706	1335.19
372.932	1323.19
373.158	1305.19
373.384	1321.19
373.61	1295.19
373.835	1291.19
374.061	1304.19
374.287	1333.19
374.513	1296.19
374.739	1366.19
374.965	1369.19
375.191	1396.19
375.416	1381.19
375.642	1367.19
375.868	1347.19
376.094	1324.19
376.319	1319.19
376.545	1276.19
376.771	1317.19
376.997	1288.19
377.222	1270.19
377.448	1261.19
377.674	1290.19
377.899	1292.19
378.125	1262.19
378.35	1273.19
378.576	1285.19
378.802	1309.19
379.027	1286.19
379.253	1254.19
379.478	1293.19
379.704	1244.19
379.929	1252.19
380.155	1246.19
380.38	1248.19
380.606	1276.19
380.831	1265.19
381.057	1278.19
381.282	1281.19
381.507	1273.19
381.733	1290.19
381.958	1290.19
382.184	1300.19
382.409	1341.19
382.634	1331.19
382.86	1307.19
383.085	1351.19
383.31	1361.19
383.535	1399.19
383.761	1404.19
383.986	1422.19
384.211	1446.19
384.436	1405.19
384.662	1459.19
384.887	1466.19
385.112	1491.19
385.337	1523.19
385.562	1492.19
385.787	1495.19
386.013	1532.19
386.238	1565.19
386.463	1567.19
386.688	1564.19
386.913	1505.19
387.138	1498.19
387.363	1533.19
387.588	1514.19
387.813	1516.19
388.038	1501.19
388.263	1508.19
388.488	1512.19
388.713	1521.19
388.938	1484.19
389.163	1501.19
389.387	1509.19
389.612	1460.19
389.837	1506.19
390.062	1516.19
390.287	1534.19
390.512	1478.19
390.736	1484.19
390.961	1541.19
391.186	1611.19
391.411	1577.19
391.636	1648.19
391.86	1649.19
392.085	1698.19
392.31	1722.19
392.534	1651.19
392.759	1646.19
392.984	1613.19
393.208	1615.19
393.433	1651.19
393.658	1653.19
393.882	1608.19
394.107	1592.19
394.331	1609.19
394.556	1633.19
394.78	1613.19
395.005	1645.19
395.229	1657.19
395.454	1670.19
395.678	1721.19
395.903	1681.19
396.127	1698.19
396.352	1663.19
396.576	1671.19
396.801	1634.19
397.025	1681.19
397.249	1655.19
397.474	1739.19
397.698	1709.19
397.922	1766.19
398.147	1711.19
398.371	1754.19
398.595	1812.19
398.82	1880.19
399.044	2028.19
399.268	2134.19
399.492	2363.19
399.717	2575.19
399.941	2622.19
400.165	2388.19
400.389	2266.19
400.613	2091.19
400.837	1975.19
401.062	1969.19
401.286	1926.19
401.51	1925.19
401.734	1891.19
401.958	1910.19
402.182	1897.19
402.406	1937.19
402.63	1945.19
402.854	1922.19
403.078	1966.19
403.302	2004.19
403.526	2064.19
403.75	2044.19
403.974	2064.19
404.198	2043.19
404.422	2055.19
404.645	2067.19
404.869	2036.19
405.093	2067.19
405.317	2051.19
405.541	2034.19
405.765	2017.19
405.988	2025.19
406.212	2014.19
406.436	2074.19
406.66	2142.19
406.883	2119.19
407.107	2217.19
407.331	2324.19
407.555	2368.19
407.778	2394.19
408.002	2316.19
408.226	2283.19
408.449	2241.19
408.673	2163.19
408.896	2133.19
409.12	2095.19
409.344	2117.19
409.567	2092.19
409.791	2127.19
410.014	2077.19
410.238	2052.19
410.461	2074.19
410.685	2053.19
410.908	2019.19
411.132	1995.19
411.355	1966.19
411.578	1951.19
411.802	1962.19
412.025	1953.19
412.249	1998.19
412.472	1963.19
412.695	1945.19
412.919	1919.19
413.142	1928.19
413.365	1910.19
413.589	1921.19
413.812	1895.19
414.035	1882.19
414.258	1874.19
414.482	1914.19
414.705	1974.19
414.928	1891.19
415.151	1938.19
415.374	1868.19
415.597	1882.19
415.821	1848.19
416.044	1816.19
416.267	1853.19
416.49	1794.19
416.713	1811.19
416.936	1782.19
417.159	1802.19
417.382	1789.19
417.605	1783.19
417.828	1799.19
418.051	1830.19
418.274	1835.19
418.497	1832.19
418.72	1859.19
418.943	1894.19
419.166	1970.19
419.389	2100.19
419.611	2043.19
419.834	1976.19
420.057	1910.19
420.28	1851.19
420.503	1786.19
420.726	1799.19
420.948	1797.19
421.171	1817.19
421.394	1797.19
421.617	1812.19
421.839	1813.19
422.062	1831.19
422.285	1813.19
422.507	1847.19
422.73	1861.19
422.953	1859.19
423.175	1859.19
423.398	1869.19
423.621	1870.19
423.843	1861.19
424.066	1871.19
424.288	1834.19
424.511	1845.19
424.733	1837.19
424.956	1822.19
425.178	1853.19
425.401	1849.19
425.623	1825.19
425.846	1740.19
426.068	1799.19
426.291	1778.19
426.513	1713.19
426.735	1743.19
426.958	1731.19
427.18	1698.19
427.402	1704.19
427.625	1730.19
427.847	1675.19
428.069	1674.19
428.292	1707.19
428.514	1683.19
428.736	1649.19
428.958	1688.19
429.181	1633.19
429.403	1629.19
429.625	1624.19
429.847	1652.19
430.069	1639.19
430.292	1663.19
430.514	1605.19
430.736	1665.19
430.958	1626.19
431.18	1628.19
431.402	1660.19
431.624	1634.19
431.846	1707.19
432.068	1685.19
432.29	1685.19
432.512	1671.19
432.734	1657.19
432.956	1682.19
433.178	1715.19
433.4	1692.19
433.622	1657.19
433.844	1715.19
434.066	1709.19
434.287	1732.19
434.509	1780.19
434.731	1814.19
434.953	1875.19
435.175	1839.19
435.397	1827.19
435.618	1781.19
435.84	1734.19
436.062	1728.19
436.284	1707.19
436.505	1641.19
436.727	1688.19
436.949	1688.19
437.17	1647.19
437.392	1623.19
437.614	1620.19
437.835	1589.19
438.057	1593.19
438.278	1594.19
438.5	1567.19
438.721	1558.19
438.943	1596.19
439.165	1615.19
439.386	1582.19
439.608	1637.19
439.829	1608.19
440.05	1632.19
440.272	1661.19
440.493	1657.19
440.715	1669.19
440.936	1673.19
441.158	1693.19
441.379	1737.19
441.6	1774.19
441.822	1773.19
442.043	1754.19
442.264	1819.19
442.486	1749.19
442.707	1758.19
442.928	1789.19
443.149	1793.19
443.371	1750.19
443.592	1790.19
443.813	1789.19
444.034	1823.19
444.255	1863.19
444.476	1926.19
444.698	2024.19
444.919	2007.19
445.14	2153.19
445.361	1981.19
445.582	1835.19
445.803	1807.19
446.024	1722.19
446.245	1683.19
446.466	1669.19
446.687	1635.19
446.908	1657.19
447.129	1609.19
447.35	1587.19
447.571	1566.19
447.792	1565.19
448.013	1558.19
448.234	1493.19
448.455	1543.19
448.675	1541.19
448.896	1490.19
449.117	1480.19
449.338	1477.19
449.559	1466.19
449.779	1445.19
450	1489.19
450.221	1452.19
450.442	1476.19
450.662	1485.19
450.883	1445.19
451.104	1489.19
451.324	1494.19
451.545	1500.19
451.766	1457.19
451.986	1443.19
452.207	1469.19
452.428	1442.19
452.648	1445.19
452.869	1425.19
453.089	1388.19
453.31	1459.19
453.53	1415.19
453.751	1403.19
453.971	1407.19
454.192	1441.19
454.412	1364.19
454.633	1371.19
454.853	1406.19
455.073	1413.19
455.294	1386.19
455.514	1399.19
455.734	1366.19
455.955	1341.19
456.175	1377.19
456.395	1338.19
456.616	1371.19
456.836	1387.19
457.056	1400.19
457.276	1375.19
457.497	1413.19
457.717	1417.19
457.937	1391.19
458.157	1422.19
458.377	1434.19
458.598	1437.19
458.818	1514.19
459.038	1514.19
459.258	1582.19
459.478	1582.19
459.698	1700.19
459.918	1699.19
460.138	1744.19
460.358	1811.19
460.578	1805.19
460.798	1872.19
461.018	1871.19
461.238	1835.19
461.458	1807.19
461.678	1847.19
461.898	1871.19
462.118	1901.19
462.338	2022.19
462.558	2010.19
462.777	2104.19
462.997	2210.19
463.217	2315.19
463.437	2365.19
463.657	2223.19
463.876	2156.19
464.096	2161.19
464.316	2117.19
464.536	2094.19
464.755	2033.19
464.975	1985.19
465.195	1941.19
465.414	1860.19
465.634	1769.19
465.854	1702.19
466.073	1665.19
466.293	1621.19
466.512	1561.19
466.732	1584.19
466.951	1569.19
467.171	1553.19
467.391	1570.19
467.61	1522.19
467.829	1541.19
468.049	1545.19
468.268	1498.19
468.488	1473.19
468.707	1497.19
468.927	1466.19
469.146	1471.19
469.365	1522.19
469.585	1537.19
469.804	1569.19
470.023	1580.19
470.243	1549.19
470.462	1575.19
470.681	1577.19
470.901	1588.19
471.12	1565.19
471.339	1576.19
471.558	1541.19
471.777	1507.19
471.997	1525.19
472.216	1510.19
472.435	1499.19
472.654	1501.19
472.873	1433.19
473.092	1485.19
473.311	1486.19
473.53	1501.19
473.749	1501.19
473.968	1449.19
474.187	1467.19
474.406	1447.19
474.625	1433.19
474.844	1461.19
475.063	1471.19
475.282	1462.19
475.501	1512.19
475.72	1525.19
475.939	1517.19
476.158	1557.19
476.377	1506.19
476.596	1539.19
476.814	1594.19
477.033	1569.19
477.252	1603.19
477.471	1643.19
477.69	1658.19
477.908	1686.19
478.127	1753.19
478.346	1771.19
478.564	1795.19
478.783	1847.19
479.002	1853.19
479.22	1870.19
479.439	1841.19
479.658	1852.19
479.876	1852.19
480.095	1865.19
480.313	1953.19
480.532	1986.19
480.751	1973.19
480.969	1945.19
481.188	1907.19
481.406	1833.19
481.624	1825.19
481.843	1823.19
482.061	1793.19
482.28	1788.19
482.498	1820.19
482.717	1814.19
482.935	1826.19
483.153	1846.19
483.372	1832.19
483.59	1858.19
483.808	1849.19
484.027	1895.19
484.245	1903.19
484.463	1889.19
484.681	1977.19
484.9	1943.19
485.118	1979.19
485.336	1992.19
485.554	2026.19
485.772	2030.19
485.99	1980.19
486.209	1987.19
486.427	1974.19
486.645	2011.19
486.863	2003.19
487.081	1994.19
487.299	2013.19
487.517	1975.19
487.735	1952.19
487.953	1974.19
488.171	1976.19
488.389	1935.19
488.607	1907.19
488.825	1881.19
489.043	1867.19
489.261	1883.19
489.479	1886.19
489.696	1915.19
489.914	1879.19
490.132	1886.19
490.35	1883.19
490.568	1905.19
490.786	1902.19
491.003	1911.19
491.221	1891.19
491.439	1865.19
491.657	1855.19
491.874	1886.19
492.092	1889.19
492.31	1843.19
492.527	1862.19
492.745	1870.19
492.963	1877.19
493.18	1914.19
493.398	1918.19
493.615	1898.19
493.833	1919.19
494.05	1897.19
494.268	1901.19
494.485	1876.19
494.703	1909.19
494.92	1919.19
495.138	1882.19
495.355	1903.19
495.573	1944.19
495.79	1942.19
496.008	1954.19
496.225	1957.19
496.442	1955.19
496.66	2006.19
496.877	2003.19
497.094	2069.19
497.312	2087.19
497.529	2098.19
497.746	2160.19
497.963	2211.19
498.181	2302.19
498.398	2438.19
498.615	2520.19
498.832	2633.19
499.049	2842.19
499.267	3009.19
499.484	3252.19
499.701	3498.19
499.918	3757.19
500.135	4171.19
500.352	4631.19
500.569	4772.19
500.786	4774.19
501.003	4482.19
501.22	4118.19
501.437	3773.19
501.654	3435.19
501.871	3146.19
502.088	2980.19
502.305	2766.19
502.522	2597.19
502.739	2598.19
502.956	2390.19
503.172	2361.19
503.389	2256.19
503.606	2200.19
503.823	2122.19
504.04	2121.19
504.256	2156.19
504.473	2186.19
504.69	2133.19
504.907	2110.19
505.123	2005.19
505.34	1936.19
505.557	1870.19
505.773	1857.19
505.99	1806.19
506.207	1756.19
506.423	1727.19
506.64	1698.19
506.856	1691.19
507.073	1677.19
507.289	1644.19
507.506	1599.19
507.722	1661.19
507.939	1613.19
508.155	1560.19
508.372	1555.19
508.588	1565.19
508.805	1550.19
509.021	1547.19
509.238	1554.19
509.454	1501.19
509.67	1494.19
509.887	1490.19
510.103	1527.19
510.319	1467.19
510.536	1521.19
510.752	1477.19
510.968	1468.19
511.184	1486.19
511.401	1487.19
511.617	1502.19
511.833	1481.19
512.049	1475.19
512.265	1455.19
512.481	1497.19
512.698	1480.19
512.914	1482.19
513.13	1460.19
513.346	1485.19
513.562	1461.19
513.778	1510.19
513.994	1447.19
514.21	1506.19
514.426	1483.19
514.642	1529.19
514.858	1533.19
515.074	1522.19
515.29	1535.19
515.506	1511.19
515.721	1543.19
515.937	1557.19
516.153	1638.19
516.369	1639.19
516.585	1705.19
516.801	1725.19
517.016	1769.19
517.232	1859.19
517.448	1875.19
517.664	1939.19
517.879	1965.19
518.095	1966.19
518.311	1896.19
518.527	1851.19
518.742	1803.19
518.958	1770.19
519.173	1701.19
519.389	1665.19
519.605	1603.19
519.82	1580.19
520.036	1556.19
520.251	1528.19
520.467	1533.19
520.682	1483.19
520.898	1487.19
521.113	1447.19
521.329	1431.19
521.544	1429.19
521.76	1417.19
521.975	1430.19
522.19	1412.19
522.406	1406.19
522.621	1399.19
522.836	1381.19
523.052	1370.19
523.267	1353.19
523.482	1326.19
523.698	1366.19
523.913	1358.19
524.128	1371.19
524.343	1352.19
524.559	1345.19
524.774	1320.19
524.989	1333.19
525.204	1321.19
525.419	1326.19
525.634	1313.19
525.849	1330.19
526.064	1354.19
526.28	1295.19
526.495	1293.19
526.71	1317.19
526.925	1290.19
527.14	1293.19
527.355	1297.19
527.57	1316.19
527.785	1286.19
527.999	1314.19
528.214	1317.19
528.429	1334.19
528.644	1332.19
528.859	1302.19
529.074	1305.19
529.289	1335.19
529.503	1320.19
529.718	1317.19
529.933	1291.19
530.148	1315.19
530.363	1292.19
530.577	1285.19
530.792	1310.19
531.007	1303.19
531.221	1307.19
531.436	1282.19
531.651	1284.19
531.865	1298.19
532.08	1308.19
532.295	1261.19
532.509	1281.19
532.724	1274.19
532.938	1322.19
533.153	1304.19
533.367	1273.19
533.582	1303.19
533.796	1281.19
534.011	1278.19
534.225	1297.19
534.44	1251.19
534.654	1261.19
534.868	1288.19
535.083	1253.19
535.297	1248.19
535.511	1257.19
535.726	1272.19
535.94	1222.19
536.154	1220.19
536.369	1228.19
536.583	1217.19
536.797	1188.19
537.011	1231.19
537.225	1218.19
537.44	1241.19
537.654	1234.19
537.868	1178.19
538.082	1182.19
538.296	1191.19
538.51	1167.19
538.724	1184.19
538.938	1163.19
539.153	1151.19
539.367	1189.19
539.581	1189.19
539.795	1155.19
540.009	1179.19
540.222	1156.19
540.436	1167.19
540.65	1137.19
540.864	1116.19
541.078	1179.19
541.292	1159.19
541.506	1143.19
541.72	1130.19
541.934	1157.19
542.147	1147.19
542.361	1150.19
542.575	1111.19
542.789	1114.19
543.002	1112.19
543.216	1112.19
543.43	1128.19
543.644	1153.19
543.857	1117.19
544.071	1103.19
544.285	1142.19
544.498	1122.19
544.712	1122.19
544.925	1164.19
545.139	1181.19
545.352	1165.19
545.566	1153.19
545.779	1160.19
545.993	1152.19
546.206	1159.19
546.42	1167.19
546.633	1127.19
546.847	1137.19
547.06	1175.19
547.274	1153.19
547.487	1143.19
547.7	1163.19
547.914	1153.19
548.127	1157.19
548.34	1179.19
548.554	1157.19
548.767	1151.19
548.98	1162.19
549.193	1177.19
549.407	1167.19
549.62	1189.19
549.833	1179.19
550.046	1168.19
550.259	1166.19
550.473	1140.19
550.686	1148.19
550.899	1135.19
551.112	1175.19
551.325	1143.19
551.538	1145.19
551.751	1142.19
551.964	1151.19
552.177	1161.19
552.39	1148.19
552.603	1169.19
552.816	1194.19
553.029	1208.19
553.242	1242.19
553.455	1249.19
553.667	1233.19
553.88	1204.19
554.093	1219.19
554.306	1159.19
554.519	1151.19
554.732	1141.19
554.944	1128.19
555.157	1091.19
555.37	1113.19
555.583	1050.19
555.795	1078.19
556.008	1030.19
556.221	1037.19
556.433	1036.19
556.646	1021.19
556.859	1004.19
557.071	986.19
557.284	1018.19
557.496	1017.19
557.709	993.19
557.921	987.19
558.134	983.19
558.346	994.19
558.559	985.19
558.771	984.19
558.984	978.19
559.196	931.19
559.409	964.19
559.621	953.19
559.833	939.19
560.046	955.19
560.258	942.19
560.47	975.19
560.683	958.19
560.895	942.19
561.107	974.19
561.32	963.19
561.532	969.19
561.744	950.19
561.956	959.19
562.168	941.19
562.381	969.19
562.593	930.19
562.805	971.19
563.017	969.19
563.229	978.19
563.441	981.19
563.653	981.19
563.865	995.19
564.077	1008.19
564.289	1001.19
564.501	1021.19
564.713	1041.19
564.925	1027.19
565.137	1053.19
565.349	1060.19
565.561	1067.19
565.773	1135.19
565.985	1171.19
566.197	1241.19
566.408	1267.19
566.62	1361.19
566.832	1435.19
567.044	1450.19
567.255	1494.19
567.467	1517.19
567.679	1559.19
567.891	1660.19
568.102	1648.19
568.314	1605.19
568.526	1454.19
568.737	1365.19
568.949	1258.19
569.161	1175.19
569.372	1144.19
569.584	1108.19
569.795	1043.19
570.007	1020.19
570.218	982.19
570.43	983.19
570.641	960.19
570.853	970.19
571.064	962.19
571.276	966.19
571.487	941.19
571.698	931.19
571.91	909.19
572.121	871.19
572.333	870.19
572.544	830.19
572.755	809.19
572.966	817.19
573.178	804.19
573.389	801.19
573.6	808.19
573.811	793.19
574.023	778.19
574.234	760.19
574.445	799.19
574.656	766.19
574.867	775.19
575.078	810.19
575.289	782.19
575.501	766.19
575.712	732.19
575.923	733.19
576.134	727.19
576.345	757.19
576.556	723.19
576.767	725.19
576.978	736.19
577.188	707.19
577.399	727.19
577.61	707.19
577.821	691.19
578.032	690.19
578.243	684.19
578.454	733.19
578.665	717.19
578.875	714.19
579.086	675.19
579.297	682.19
579.508	697.19
579.718	683.19
579.929	681.19
580.14	670.19
580.35	655.19
580.561	667.19
580.772	661.19
580.982	673.19
581.193	666.19
581.403	669.19
581.614	662.19
581.825	666.19
582.035	643.19
582.246	630.19
582.456	649.19
582.667	633.19
582.877	664.19
583.087	629.19
583.298	620.19
583.508	633.19
583.719	646.19
583.929	653.19
584.139	641.19
584.35	625.19
584.56	623.19
584.77	627.19
584.981	645.19
585.191	643.19
585.401	629.19
585.611	630.19
585.821	639.19
586.032	619.19
586.242	622.19
586.452	630.19
586.662	613.19
586.872	618.19
587.082	605.19
587.292	634.19
587.502	633.19
587.713	627.19
587.923	610.19
588.133	573.19
588.343	611.19
588.553	622.19
588.762	629.19
588.972	587.19
589.182	620.19
589.392	623.19
589.602	616.19
589.812	651.19
590.022	627.19
590.232	628.19
590.441	612.19
590.651	614.19
590.861	614.19
591.071	634.19
591.281	635.19
591.49	653.19
591.7	637.19
591.91	659.19
592.119	678.19
592.329	689.19
592.539	677.19
592.748	692.19
592.958	725.19
593.167	699.19
593.377	716.19
593.587	760.19
593.796	750.19
594.006	739.19
594.215	750.19
594.424	734.19
594.634	742.19
594.843	703.19
595.053	684.19
595.262	679.19
595.472	657.19
595.681	635.19
595.89	638.19
596.1	599.19
596.309	611.19
596.518	604.19
596.727	584.19
596.937	553.19
597.146	557.19
597.355	527.19
597.564	566.19
597.774	572.19
597.983	537.19
598.192	542.19
598.401	528.19
598.61	529.19
598.819	529.19
599.028	522.19
599.237	541.19
599.446	501.19
599.655	537.19
599.864	533.19
600.073	513.19
600.282	513.19
600.491	507.19
600.7	522.19
600.909	501.19
601.118	511.19
601.327	515.19
601.536	515.19
601.745	505.19
601.953	503.19
602.162	525.19
602.371	493.19
602.58	504.19
602.789	494.19
602.997	495.19
603.206	492.19
603.415	485.19
603.623	498.19
603.832	486.19
604.041	484.19
604.249	467.19
604.458	469.19
604.666	483.19
604.875	476.19
605.084	473.19
605.292	474.19
605.501	481.19
605.709	474.19
605.918	444.19
606.126	458.19
606.334	467.19
606.543	467.19
606.751	442.19
606.96	479.19
607.168	463.19
607.376	464.19
607.585	462.19
607.793	462.19
608.001	448.19
608.21	435.19
608.418	451.19
608.626	461.19
608.834	441.19
609.043	458.19
609.251	435.19
609.459	445.19
609.667	457.19
609.875	447.19
610.083	436.19
610.291	425.19
610.499	447.19
610.707	441.19
610.916	445.19
611.124	443.19
611.332	444.19
611.54	449.19
611.748	444.19
611.955	437.19
612.163	411.19
612.371	431.19
612.579	443.19
612.787	425.19
612.995	439.19
613.203	444.19
613.411	418.19
613.618	412.19
613.826	417.19
614.034	438.19
614.242	430.19
614.449	413.19
614.657	426.19
614.865	420.19
615.072	438.19
615.28	422.19
615.488	456.19
615.695	437.19
615.903	417.19
616.111	431.19
616.318	434.19
616.526	430.19
616.733	431.19
616.941	444.19
617.148	436.19
617.356	438.19
617.563	425.19
617.771	429.19
617.978	408.19
618.185	429.19
618.393	413.19
618.6	421.19
618.807	424.19
619.015	417.19
619.222	415.19
619.429	407.19
619.637	422.19
619.844	409.19
620.051	428.19
620.258	400.19
620.466	395.19
620.673	395.19
620.88	377.19
621.087	387.19
621.294	393.19
621.501	405.19
621.708	388.19
621.915	409.19
622.122	403.19
622.329	398.19
622.536	396.19
622.743	368.19
622.95	403.19
623.157	365.19
623.364	373.19
623.571	379.19
623.778	394.19
623.985	376.19
624.192	371.19
624.399	391.19
624.606	373.19
624.812	367.19
625.019	366.19
625.226	372.19
625.433	364.19
625.639	355.19
625.846	354.19
626.053	359.19
626.259	368.19
626.466	360.19
626.673	374.19
626.879	349.19
627.086	359.19
627.293	362.19
627.499	350.19
627.706	338.19
627.912	351.19
628.119	346.19
628.325	351.19
628.532	361.19
628.738	359.19
628.945	342.19
629.151	362.19
629.357	343.19
629.564	332.19
629.77	327.19
629.976	331.19
630.183	347.19
630.389	322.19
630.595	338.19
630.802	338.19
631.008	333.19
631.214	333.19
631.42	317.19
631.627	347.19
631.833	330.19
632.039	330.19
632.245	314.19
632.451	316.19
632.657	325.19
632.863	343.19
633.069	330.19
633.275	322.19
633.481	325.19
633.688	311.19
633.893	313.19
634.099	311.19
634.305	326.19
634.511	309.19
634.717	307.19
634.923	322.19
635.129	301.19
635.335	303.19
635.541	323.19
635.747	315.19
635.952	302.19
636.158	313.19
636.364	319.19
636.57	315.19
636.775	314.19
636.981	302.19
637.187	298.19
637.392	317.19
637.598	309.19
637.804	302.19
638.009	305.19
638.215	306.19
638.421	301.19
638.626	305.19
638.832	293.19
639.037	299.19
639.243	304.19
639.448	308.19
639.654	310.19
639.859	303.19
640.065	285.19
640.27	287.19
640.475	290.19
640.681	280.19
640.886	297.19
641.091	304.19
641.297	302.19
641.502	289.19
641.707	287.19
641.913	285.19
642.118	282.19
642.323	298.19
642.528	298.19
642.733	311.19
642.939	306.19
643.144	286.19
643.349	272.19
643.554	278.19
643.759	287.19
643.964	287.19
644.169	294.19
644.374	292.19
644.579	293.19
644.784	296.19
644.989	308.19
645.194	287.19
645.399	302.19
645.604	277.19
645.809	276.19
646.014	303.19
646.219	292.19
646.423	292.19
646.628	311.19
646.833	294.19
647.038	292.19
647.243	293.19
647.447	314.19
647.652	300.19
647.857	303.19
648.062	296.19
648.266	291.19
648.471	320.19
648.676	315.19
648.88	321.19
649.085	318.19
649.289	326.19
649.494	311.19
649.698	320.19
649.903	281.19
650.107	295.19
650.312	318.19
650.516	281.19
650.721	288.19
650.925	286.19
651.13	296.19
651.334	284.19
651.539	268.19
651.743	300.19
651.947	293.19
652.152	281.19
652.356	276.19
652.56	287.19
652.764	269.19
652.969	285.19
653.173	270.19
653.377	277.19
653.581	267.19
653.785	284.19
653.99	297.19
654.194	314.19
654.398	301.19
654.602	289.19
654.806	318.19
655.01	291.19
655.214	307.19
655.418	323.19
655.622	350.19
655.826	365.19
656.03	380.19
656.234	402.19
656.438	440.19
656.642	435.19
656.846	403.19
657.049	363.19
657.253	339.19
657.457	308.19
657.661	259.19
657.865	242.19
658.068	225.19
658.272	209.19
658.476	199.19
658.68	173.19
658.883	171.19
659.087	154.19
659.291	150.19
659.494	146.19
659.698	128.19
659.901	138.19
660.105	130.19
660.309	131.19
660.512	108.19
660.716	109.19
660.919	108.19
661.123	113.19
661.326	116.19
661.53	114.19
661.733	104.19
661.936	95.19
662.14	99.19
662.343	108.19
662.546	95.19
662.75	86.19
662.953	89.19
663.156	97.19
663.36	88.19
663.563	88.19
663.766	94.19
663.969	83.19
664.173	94.19
664.376	72.19
664.579	90.19
664.782	78.19
664.985	89.19
665.188	80.19
665.391	94.19
665.594	90.19
665.797	88.19
666	73.19
666.203	95.19
666.406	78.19
666.609	93.19
666.812	87.19
667.015	75.19
667.218	81.19
667.421	99.19
667.624	94.19
667.827	90.19
668.03	94.19
668.232	88.19
668.435	86.19
668.638	78.19
668.841	87.19
669.043	84.19
669.246	90.19
669.449	78.19
669.651	92.19
669.854	83.19
670.057	78.19
670.259	75.19
670.462	81.19
670.665	67.19
670.867	86.19
671.07	91.19
671.272	81.19
671.475	84.19
671.677	93.19
671.88	83.19
672.082	92.19
672.284	79.19
672.487	85.19
672.689	76.19
672.892	76.19
