Data from NiCl2@0.25M.TitratingCurve.Agarose3%dH2O.NegLispCup.LampEnergy10.LIBS07252019_HRD10591_18-24-54-574.txt Node
Date: Thu Jul 25 18:24:54 EDT 2019
User: cochatt
Spectrometer: HR+D1059
Trigger mode: 1
Integration Time (sec): 1.000000E-1
Scans to average: 1
Electric dark correction enabled: true
Nonlinearity correction enabled: false
Boxcar width: 0
XAxis mode: Wavelengths
Number of Pixels in Spectrum: 2048
>>>>>Begin Spectral Data<<<<<
223.165	-17.69
223.4	-17.69
223.635	-17.69
223.869	-6.69
224.104	-11.69
224.338	-13.69
224.573	-18.69
224.808	-11.69
225.042	0.31
225.277	-10.69
225.511	-15.69
225.746	14.31
225.98	7.31
226.215	9.31
226.449	18.31
226.683	13.31
226.918	19.31
227.152	24.31
227.387	27.31
227.621	40.31
227.856	41.31
228.09	36.31
228.324	38.31
228.559	62.31
228.793	82.31
229.027	115.31
229.262	126.31
229.496	131.31
229.73	142.31
229.964	128.31
230.199	125.31
230.433	144.31
230.667	144.31
230.901	137.31
231.136	132.31
231.37	159.31
231.604	165.31
231.838	148.31
232.072	152.31
232.306	156.31
232.541	162.31
232.775	142.31
233.009	149.31
233.243	162.31
233.477	156.31
233.711	136.31
233.945	164.31
234.179	178.31
234.413	148.31
234.647	162.31
234.881	172.31
235.115	180.31
235.349	169.31
235.583	148.31
235.817	161.31
236.051	152.31
236.285	164.31
236.519	172.31
236.753	152.31
236.987	170.31
237.221	140.31
237.455	170.31
237.689	184.31
237.922	160.31
238.156	172.31
238.39	163.31
238.624	184.31
238.858	167.31
239.091	188.31
239.325	189.31
239.559	184.31
239.793	196.31
240.027	182.31
240.26	184.31
240.494	184.31
240.728	206.31
240.961	205.31
241.195	195.31
241.429	217.31
241.662	202.31
241.896	200.31
242.13	197.31
242.363	193.31
242.597	205.31
242.83	224.31
243.064	215.31
243.298	209.31
243.531	227.31
243.765	223.31
243.998	228.31
244.232	236.31
244.465	214.31
244.699	235.31
244.932	239.31
245.166	233.31
245.399	222.31
245.633	236.31
245.866	240.31
246.099	232.31
246.333	233.31
246.566	239.31
246.8	264.31
247.033	245.31
247.266	248.31
247.5	263.31
247.733	250.31
247.966	249.31
248.2	252.31
248.433	258.31
248.666	273.31
248.899	260.31
249.133	252.31
249.366	268.31
249.599	265.31
249.832	256.31
250.066	261.31
250.299	276.31
250.532	280.31
250.765	278.31
250.998	273.31
251.231	283.31
251.465	268.31
251.698	279.31
251.931	289.31
252.164	298.31
252.397	301.31
252.63	304.31
252.863	313.31
253.096	308.31
253.329	318.31
253.562	297.31
253.795	305.31
254.028	308.31
254.261	293.31
254.494	326.31
254.727	306.31
254.96	310.31
255.193	314.31
255.426	300.31
255.659	332.31
255.892	317.31
256.124	314.31
256.357	308.31
256.59	308.31
256.823	323.31
257.056	345.31
257.289	325.31
257.521	332.31
257.754	341.31
257.987	322.31
258.22	342.31
258.452	336.31
258.685	334.31
258.918	323.31
259.151	338.31
259.383	326.31
259.616	355.31
259.849	360.31
260.081	349.31
260.314	336.31
260.547	345.31
260.779	337.31
261.012	347.31
261.244	345.31
261.477	343.31
261.71	340.31
261.942	351.31
262.175	363.31
262.407	378.31
262.64	348.31
262.872	357.31
263.105	365.31
263.337	362.31
263.57	377.31
263.802	360.31
264.035	365.31
264.267	365.31
264.499	368.31
264.732	379.31
264.964	390.31
265.197	386.31
265.429	381.31
265.661	383.31
265.894	392.31
266.126	388.31
266.358	390.31
266.591	391.31
266.823	401.31
267.055	359.31
267.287	408.31
267.52	382.31
267.752	409.31
267.984	388.31
268.216	414.31
268.448	405.31
268.681	407.31
268.913	407.31
269.145	403.31
269.377	426.31
269.609	420.31
269.841	417.31
270.073	409.31
270.306	403.31
270.538	397.31
270.77	414.31
271.002	407.31
271.234	416.31
271.466	410.31
271.698	412.31
271.93	431.31
272.162	421.31
272.394	436.31
272.626	427.31
272.858	434.31
273.09	410.31
273.322	428.31
273.553	451.31
273.785	444.31
274.017	446.31
274.249	433.31
274.481	432.31
274.713	441.31
274.945	454.31
275.176	436.31
275.408	470.31
275.64	462.31
275.872	461.31
276.104	475.31
276.335	452.31
276.567	444.31
276.799	467.31
277.031	480.31
277.262	481.31
277.494	456.31
277.726	468.31
277.957	462.31
278.189	478.31
278.421	478.31
278.652	489.31
278.884	489.31
279.115	489.31
279.347	508.31
279.579	489.31
279.81	499.31
280.042	495.31
280.273	491.31
280.505	509.31
280.736	518.31
280.968	486.31
281.199	524.31
281.431	489.31
281.662	518.31
281.894	530.31
282.125	509.31
282.356	536.31
282.588	532.31
282.819	523.31
283.051	522.31
283.282	536.31
283.513	526.31
283.745	537.31
283.976	538.31
284.207	522.31
284.439	557.31
284.67	522.31
284.901	530.31
285.132	535.31
285.364	554.31
285.595	550.31
285.826	551.31
286.057	559.31
286.288	545.31
286.52	554.31
286.751	549.31
286.982	555.31
287.213	565.31
287.444	552.31
287.675	573.31
287.906	552.31
288.138	578.31
288.369	580.31
288.6	552.31
288.831	568.31
289.062	570.31
289.293	602.31
289.524	599.31
289.755	580.31
289.986	590.31
290.217	573.31
290.448	590.31
290.679	585.31
290.91	553.31
291.141	584.31
291.371	587.31
291.602	586.31
291.833	582.31
292.064	600.31
292.295	591.31
292.526	574.31
292.757	594.31
292.987	587.31
293.218	601.31
293.449	589.31
293.68	608.31
293.91	590.31
294.141	609.31
294.372	569.31
294.603	596.31
294.833	598.31
295.064	605.31
295.295	599.31
295.525	585.31
295.756	586.31
295.987	598.31
296.217	616.31
296.448	592.31
296.679	608.31
296.909	617.31
297.14	618.31
297.37	628.31
297.601	630.31
297.831	639.31
298.062	638.31
298.292	645.31
298.523	653.31
298.753	637.31
298.984	600.31
299.214	620.31
299.445	628.31
299.675	626.31
299.905	631.31
300.136	640.31
300.366	653.31
300.597	631.31
300.827	680.31
301.057	668.31
301.288	658.31
301.518	662.31
301.748	669.31
301.979	691.31
302.209	673.31
302.439	684.31
302.669	670.31
302.9	681.31
303.13	672.31
303.36	659.31
303.59	661.31
303.82	668.31
304.051	654.31
304.281	667.31
304.511	648.31
304.741	642.31
304.971	654.31
305.201	674.31
305.431	641.31
305.661	658.31
305.891	648.31
306.121	636.31
306.352	649.31
306.582	648.31
306.812	635.31
307.042	648.31
307.272	650.31
307.502	652.31
307.731	655.31
307.961	655.31
308.191	651.31
308.421	646.31
308.651	643.31
308.881	660.31
309.111	640.31
309.341	644.31
309.571	661.31
309.8	641.31
310.03	655.31
310.26	647.31
310.49	653.31
310.72	653.31
310.949	660.31
311.179	656.31
311.409	641.31
311.639	631.31
311.868	668.31
312.098	690.31
312.328	667.31
312.557	680.31
312.787	680.31
313.017	686.31
313.246	690.31
313.476	672.31
313.706	714.31
313.935	729.31
314.165	695.31
314.394	733.31
314.624	691.31
314.853	712.31
315.083	692.31
315.312	713.31
315.542	692.31
315.771	690.31
316.001	694.31
316.23	669.31
316.46	666.31
316.689	683.31
316.919	691.31
317.148	690.31
317.377	680.31
317.607	680.31
317.836	712.31
318.065	659.31
318.295	683.31
318.524	710.31
318.753	669.31
318.983	708.31
319.212	686.31
319.441	688.31
319.67	657.31
319.9	665.31
320.129	665.31
320.358	683.31
320.587	674.31
320.816	677.31
321.046	695.31
321.275	696.31
321.504	684.31
321.733	680.31
321.962	712.31
322.191	681.31
322.42	692.31
322.649	695.31
322.878	704.31
323.108	690.31
323.337	710.31
323.566	697.31
323.795	714.31
324.024	749.31
324.253	695.31
324.482	700.31
324.71	708.31
324.939	721.31
325.168	715.31
325.397	736.31
325.626	730.31
325.855	724.31
326.084	746.31
326.313	740.31
326.542	737.31
326.77	763.31
326.999	755.31
327.228	755.31
327.457	731.31
327.686	758.31
327.914	741.31
328.143	739.31
328.372	780.31
328.6	772.31
328.829	755.31
329.058	758.31
329.287	780.31
329.515	754.31
329.744	745.31
329.972	786.31
330.201	752.31
330.43	775.31
330.658	804.31
330.887	787.31
331.115	781.31
331.344	810.31
331.572	825.31
331.801	839.31
332.03	831.31
332.258	862.31
332.486	882.31
332.715	923.31
332.943	928.31
333.172	966.31
333.4	1030.31
333.629	1048.31
333.857	1028.31
334.085	1036.31
334.314	1028.31
334.542	1000.31
334.771	1027.31
334.999	979.31
335.227	975.31
335.455	958.31
335.684	932.31
335.912	940.31
336.14	924.31
336.369	923.31
336.597	918.31
336.825	930.31
337.053	909.31
337.281	869.31
337.51	881.31
337.738	875.31
337.966	848.31
338.194	850.31
338.422	830.31
338.65	806.31
338.878	840.31
339.106	831.31
339.334	834.31
339.562	834.31
339.79	806.31
340.018	798.31
340.246	811.31
340.474	782.31
340.702	807.31
340.93	792.31
341.158	809.31
341.386	813.31
341.614	795.31
341.842	794.31
342.07	772.31
342.298	794.31
342.526	783.31
342.754	790.31
342.981	786.31
343.209	832.31
343.437	858.31
343.665	904.31
343.893	962.31
344.12	987.31
344.348	986.31
344.576	902.31
344.804	877.31
345.031	844.31
345.259	816.31
345.487	798.31
345.714	786.31
345.942	760.31
346.17	749.31
346.397	788.31
346.625	746.31
346.853	759.31
347.08	747.31
347.308	767.31
347.535	754.31
347.763	763.31
347.99	747.31
348.218	797.31
348.445	756.31
348.673	748.31
348.9	773.31
349.128	754.31
349.355	733.31
349.583	757.31
349.81	739.31
350.037	753.31
350.265	772.31
350.492	750.31
350.72	728.31
350.947	726.31
351.174	747.31
351.402	748.31
351.629	747.31
351.856	730.31
352.083	712.31
352.311	731.31
352.538	732.31
352.765	738.31
352.992	717.31
353.22	702.31
353.447	710.31
353.674	716.31
353.901	745.31
354.128	733.31
354.355	714.31
354.583	714.31
354.81	725.31
355.037	749.31
355.264	741.31
355.491	729.31
355.718	748.31
355.945	740.31
356.172	749.31
356.399	747.31
356.626	770.31
356.853	752.31
357.08	727.31
357.307	743.31
357.534	731.31
357.761	720.31
357.988	735.31
358.215	720.31
358.441	722.31
358.668	727.31
358.895	733.31
359.122	729.31
359.349	757.31
359.576	758.31
359.802	732.31
360.029	730.31
360.256	731.31
360.483	724.31
360.709	741.31
360.936	744.31
361.163	739.31
361.39	722.31
361.616	736.31
361.843	746.31
362.07	731.31
362.296	754.31
362.523	724.31
362.749	741.31
362.976	718.31
363.203	747.31
363.429	708.31
363.656	734.31
363.882	733.31
364.109	731.31
364.335	717.31
364.562	702.31
364.788	710.31
365.015	732.31
365.241	729.31
365.468	717.31
365.694	734.31
365.92	746.31
366.147	722.31
366.373	740.31
366.599	722.31
366.826	734.31
367.052	726.31
367.278	745.31
367.505	741.31
367.731	732.31
367.957	756.31
368.184	739.31
368.41	721.31
368.636	749.31
368.862	752.31
369.089	734.31
369.315	764.31
369.541	728.31
369.767	772.31
369.993	780.31
370.219	760.31
370.445	772.31
370.672	762.31
370.898	784.31
371.124	785.31
371.35	805.31
371.576	804.31
371.802	792.31
372.028	770.31
372.254	810.31
372.48	825.31
372.706	818.31
372.932	859.31
373.158	828.31
373.384	813.31
373.61	816.31
373.835	808.31
374.061	794.31
374.287	812.31
374.513	828.31
374.739	838.31
374.965	867.31
375.191	880.31
375.416	918.31
375.642	860.31
375.868	848.31
376.094	853.31
376.319	809.31
376.545	806.31
376.771	804.31
376.997	790.31
377.222	822.31
377.448	801.31
377.674	838.31
377.899	802.31
378.125	806.31
378.35	792.31
378.576	796.31
378.802	812.31
379.027	783.31
379.253	783.31
379.478	806.31
379.704	787.31
379.929	780.31
380.155	781.31
380.38	780.31
380.606	793.31
380.831	769.31
381.057	809.31
381.282	799.31
381.507	801.31
381.733	810.31
381.958	816.31
382.184	809.31
382.409	808.31
382.634	843.31
382.86	828.31
383.085	842.31
383.31	844.31
383.535	864.31
383.761	894.31
383.986	908.31
384.211	901.31
384.436	928.31
384.662	928.31
384.887	968.31
385.112	975.31
385.337	967.31
385.562	971.31
385.787	969.31
386.013	982.31
386.238	1001.31
386.463	1011.31
386.688	1010.31
386.913	964.31
387.138	952.31
387.363	956.31
387.588	961.31
387.813	957.31
388.038	985.31
388.263	991.31
388.488	981.31
388.713	953.31
388.938	946.31
389.163	960.31
389.387	957.31
389.612	932.31
389.837	934.31
390.062	937.31
390.287	965.31
390.512	937.31
390.736	955.31
390.961	950.31
391.186	983.31
391.411	1020.31
391.636	1048.31
391.86	1070.31
392.085	1129.31
392.31	1118.31
392.534	1084.31
392.759	1052.31
392.984	1051.31
393.208	1034.31
393.433	1026.31
393.658	1052.31
393.882	1065.31
394.107	1015.31
394.331	1030.31
394.556	1044.31
394.78	1065.31
395.005	1095.31
395.229	1096.31
395.454	1086.31
395.678	1110.31
395.903	1122.31
396.127	1072.31
396.352	1058.31
396.576	1079.31
396.801	1036.31
397.025	1066.31
397.249	1090.31
397.474	1145.31
397.698	1099.31
397.922	1114.31
398.147	1114.31
398.371	1162.31
398.595	1173.31
398.82	1251.31
399.044	1328.31
399.268	1438.31
399.492	1712.31
399.717	1897.31
399.941	1939.31
400.165	1803.31
400.389	1552.31
400.613	1465.31
400.837	1310.31
401.062	1255.31
401.286	1266.31
401.51	1262.31
401.734	1244.31
401.958	1244.31
402.182	1263.31
402.406	1312.31
402.63	1288.31
402.854	1342.31
403.078	1304.31
403.302	1404.31
403.526	1422.31
403.75	1397.31
403.974	1469.31
404.198	1462.31
404.422	1462.31
404.645	1452.31
404.869	1410.31
405.093	1432.31
405.317	1382.31
405.541	1363.31
405.765	1384.31
405.988	1377.31
406.212	1371.31
406.436	1358.31
406.66	1390.31
406.883	1441.31
407.107	1510.31
407.331	1595.31
407.555	1649.31
407.778	1635.31
408.002	1584.31
408.226	1568.31
408.449	1522.31
408.673	1395.31
408.896	1399.31
409.12	1404.31
409.344	1407.31
409.567	1413.31
409.791	1409.31
410.014	1358.31
410.238	1367.31
410.461	1358.31
410.685	1377.31
410.908	1345.31
411.132	1296.31
411.355	1294.31
411.578	1282.31
411.802	1280.31
412.025	1299.31
412.249	1310.31
412.472	1314.31
412.695	1268.31
412.919	1256.31
413.142	1220.31
413.365	1245.31
413.589	1272.31
413.812	1236.31
414.035	1215.31
414.258	1222.31
414.482	1245.31
414.705	1256.31
414.928	1297.31
415.151	1236.31
415.374	1224.31
415.597	1213.31
415.821	1218.31
416.044	1240.31
416.267	1190.31
416.49	1189.31
416.713	1193.31
416.936	1206.31
417.159	1225.31
417.382	1225.31
417.605	1210.31
417.828	1191.31
418.051	1204.31
418.274	1222.31
418.497	1241.31
418.72	1266.31
418.943	1252.31
419.166	1320.31
419.389	1433.31
419.611	1419.31
419.834	1294.31
420.057	1285.31
420.28	1248.31
420.503	1229.31
420.726	1209.31
420.948	1218.31
421.171	1207.31
421.394	1232.31
421.617	1222.31
421.839	1233.31
422.062	1242.31
422.285	1214.31
422.507	1260.31
422.73	1245.31
422.953	1250.31
423.175	1313.31
423.398	1270.31
423.621	1299.31
423.843	1287.31
424.066	1294.31
424.288	1307.31
424.511	1281.31
424.733	1280.31
424.956	1254.31
425.178	1221.31
425.401	1248.31
425.623	1208.31
425.846	1181.31
426.068	1192.31
426.291	1174.31
426.513	1176.31
426.735	1158.31
426.958	1149.31
427.18	1104.31
427.402	1102.31
427.625	1131.31
427.847	1101.31
428.069	1097.31
428.292	1093.31
428.514	1081.31
428.736	1077.31
428.958	1068.31
429.181	1073.31
429.403	1055.31
429.625	1051.31
429.847	1042.31
430.069	1051.31
430.292	1050.31
430.514	1013.31
430.736	1055.31
430.958	1061.31
431.18	1051.31
431.402	1052.31
431.624	1036.31
431.846	1081.31
432.068	1104.31
432.29	1096.31
432.512	1079.31
432.734	1068.31
432.956	1050.31
433.178	1112.31
433.4	1058.31
433.622	1081.31
433.844	1088.31
434.066	1083.31
434.287	1129.31
434.509	1116.31
434.731	1147.31
434.953	1192.31
435.175	1229.31
435.397	1227.31
435.618	1137.31
435.84	1118.31
436.062	1085.31
436.284	1066.31
436.505	1062.31
436.727	1080.31
436.949	1056.31
437.17	1111.31
437.392	1053.31
437.614	1044.31
437.835	1038.31
438.057	1059.31
438.278	1024.31
438.5	1044.31
438.721	986.31
438.943	1056.31
439.165	1026.31
439.386	1043.31
439.608	1083.31
439.829	1068.31
440.05	1072.31
440.272	1044.31
440.493	1095.31
440.715	1087.31
440.936	1126.31
441.158	1101.31
441.379	1151.31
441.6	1182.31
441.822	1234.31
442.043	1216.31
442.264	1175.31
442.486	1196.31
442.707	1184.31
442.928	1206.31
443.149	1187.31
443.371	1170.31
443.592	1214.31
443.813	1213.31
444.034	1249.31
444.255	1248.31
444.476	1301.31
444.698	1387.31
444.919	1493.31
445.14	1577.31
445.361	1351.31
445.582	1259.31
445.803	1209.31
446.024	1150.31
446.245	1106.31
446.466	1102.31
446.687	1086.31
446.908	1089.31
447.129	1036.31
447.35	1044.31
447.571	1020.31
447.792	1004.31
448.013	989.31
448.234	982.31
448.455	981.31
448.675	985.31
448.896	973.31
449.117	973.31
449.338	936.31
449.559	971.31
449.779	961.31
450	957.31
450.221	956.31
450.442	975.31
450.662	967.31
450.883	958.31
451.104	1003.31
451.324	985.31
451.545	990.31
451.766	963.31
451.986	985.31
452.207	973.31
452.428	960.31
452.648	966.31
452.869	942.31
453.089	949.31
453.31	936.31
453.53	972.31
453.751	955.31
453.971	945.31
454.192	956.31
454.412	900.31
454.633	921.31
454.853	927.31
455.073	920.31
455.294	920.31
455.514	924.31
455.734	906.31
455.955	897.31
456.175	900.31
456.395	916.31
456.616	925.31
456.836	892.31
457.056	910.31
457.276	892.31
457.497	902.31
457.717	930.31
457.937	928.31
458.157	919.31
458.377	946.31
458.598	965.31
458.818	1014.31
459.038	1040.31
459.258	1055.31
459.478	1114.31
459.698	1129.31
459.918	1146.31
460.138	1200.31
460.358	1270.31
460.578	1302.31
460.798	1302.31
461.018	1272.31
461.238	1284.31
461.458	1300.31
461.678	1295.31
461.898	1285.31
462.118	1272.31
462.338	1402.31
462.558	1382.31
462.777	1451.31
462.997	1630.31
463.217	1746.31
463.437	1761.31
463.657	1653.31
463.876	1546.31
464.096	1546.31
464.316	1504.31
464.536	1524.31
464.755	1497.31
464.975	1399.31
465.195	1336.31
465.414	1233.31
465.634	1166.31
465.854	1128.31
466.073	1131.31
466.293	1070.31
466.512	1031.31
466.732	1041.31
466.951	1037.31
467.171	1040.31
467.391	1038.31
467.61	1020.31
467.829	1020.31
468.049	1005.31
468.268	972.31
468.488	971.31
468.707	957.31
468.927	986.31
469.146	993.31
469.365	1006.31
469.585	961.31
469.804	1004.31
470.023	1065.31
470.243	1082.31
470.462	1083.31
470.681	1059.31
470.901	1071.31
471.12	1058.31
471.339	1022.31
471.558	1000.31
471.777	1036.31
471.997	1025.31
472.216	1004.31
472.435	997.31
472.654	961.31
472.873	954.31
473.092	954.31
473.311	1010.31
473.53	971.31
473.749	972.31
473.968	939.31
474.187	960.31
474.406	962.31
474.625	928.31
474.844	950.31
475.063	944.31
475.282	966.31
475.501	977.31
475.72	965.31
475.939	972.31
476.158	1000.31
476.377	988.31
476.596	986.31
476.814	994.31
477.033	1010.31
477.252	1012.31
477.471	1062.31
477.69	1086.31
477.908	1093.31
478.127	1116.31
478.346	1171.31
478.564	1165.31
478.783	1170.31
479.002	1227.31
479.22	1212.31
479.439	1234.31
479.658	1202.31
479.876	1203.31
480.095	1231.31
480.313	1295.31
480.532	1314.31
480.751	1323.31
480.969	1253.31
481.188	1176.31
481.406	1128.31
481.624	1130.31
481.843	1108.31
482.061	1121.31
482.28	1114.31
482.498	1081.31
482.717	1077.31
482.935	1089.31
483.153	1102.31
483.372	1096.31
483.59	1087.31
483.808	1101.31
484.027	1100.31
484.245	1086.31
484.463	1092.31
484.681	1112.31
484.9	1103.31
485.118	1114.31
485.336	1134.31
485.554	1123.31
485.772	1141.31
485.99	1157.31
486.209	1152.31
486.427	1178.31
486.645	1152.31
486.863	1147.31
487.081	1164.31
487.299	1144.31
487.517	1155.31
487.735	1141.31
487.953	1164.31
488.171	1154.31
488.389	1158.31
488.607	1124.31
488.825	1087.31
489.043	1113.31
489.261	1120.31
489.479	1136.31
489.696	1144.31
489.914	1135.31
490.132	1152.31
490.35	1161.31
490.568	1156.31
490.786	1158.31
491.003	1141.31
491.221	1154.31
491.439	1158.31
491.657	1153.31
491.874	1166.31
492.092	1154.31
492.31	1172.31
492.527	1198.31
492.745	1187.31
492.963	1176.31
493.18	1191.31
493.398	1189.31
493.615	1194.31
493.833	1213.31
494.05	1216.31
494.268	1204.31
494.485	1201.31
494.703	1243.31
494.92	1243.31
495.138	1237.31
495.355	1244.31
495.573	1225.31
495.79	1261.31
496.008	1265.31
496.225	1265.31
496.442	1256.31
496.66	1312.31
496.877	1316.31
497.094	1361.31
497.312	1345.31
497.529	1373.31
497.746	1433.31
497.963	1466.31
498.181	1548.31
498.398	1595.31
498.615	1702.31
498.832	1780.31
499.049	1967.31
499.267	2161.31
499.484	2411.31
499.701	2684.31
499.918	2938.31
500.135	3331.31
500.352	3741.31
500.569	3926.31
500.786	3966.31
501.003	3671.31
501.22	3338.31
501.437	2915.31
501.654	2539.31
501.871	2324.31
502.088	2093.31
502.305	1953.31
502.522	1812.31
502.739	1774.31
502.956	1679.31
503.172	1586.31
503.389	1496.31
503.606	1437.31
503.823	1426.31
504.04	1437.31
504.256	1482.31
504.473	1515.31
504.69	1482.31
504.907	1480.31
505.123	1398.31
505.34	1275.31
505.557	1241.31
505.773	1216.31
505.99	1213.31
506.207	1155.31
506.423	1125.31
506.64	1157.31
506.856	1132.31
507.073	1078.31
507.289	1093.31
507.506	1088.31
507.722	1102.31
507.939	1090.31
508.155	1076.31
508.372	1061.31
508.588	1058.31
508.805	1028.31
509.021	1033.31
509.238	1033.31
509.454	1002.31
509.67	1030.31
509.887	998.31
510.103	1017.31
510.319	986.31
510.536	1024.31
510.752	1000.31
510.968	1005.31
511.184	967.31
511.401	989.31
511.617	992.31
511.833	986.31
512.049	977.31
512.265	1000.31
512.481	984.31
512.698	968.31
512.914	980.31
513.13	972.31
513.346	983.31
513.562	992.31
513.778	973.31
513.994	977.31
514.21	1010.31
514.426	989.31
514.642	1001.31
514.858	1019.31
515.074	1034.31
515.29	1043.31
515.506	1051.31
515.721	1068.31
515.937	1055.31
516.153	1096.31
516.369	1106.31
516.585	1138.31
516.801	1164.31
517.016	1245.31
517.232	1280.31
517.448	1353.31
517.664	1388.31
517.879	1422.31
518.095	1414.31
518.311	1417.31
518.527	1322.31
518.742	1255.31
518.958	1228.31
519.173	1184.31
519.389	1146.31
519.605	1094.31
519.82	1056.31
520.036	1061.31
520.251	1031.31
520.467	1043.31
520.682	997.31
520.898	995.31
521.113	970.31
521.329	969.31
521.544	956.31
521.76	962.31
521.975	969.31
522.19	945.31
522.406	944.31
522.621	926.31
522.836	950.31
523.052	919.31
523.267	930.31
523.482	921.31
523.698	920.31
523.913	914.31
524.128	905.31
524.343	909.31
524.559	928.31
524.774	903.31
524.989	902.31
525.204	895.31
525.419	892.31
525.634	916.31
525.849	904.31
526.064	922.31
526.28	898.31
526.495	906.31
526.71	902.31
526.925	871.31
527.14	876.31
527.355	856.31
527.57	896.31
527.785	900.31
527.999	885.31
528.214	891.31
528.429	872.31
528.644	872.31
528.859	898.31
529.074	908.31
529.289	893.31
529.503	913.31
529.718	917.31
529.933	874.31
530.148	858.31
530.363	884.31
530.577	898.31
530.792	873.31
531.007	862.31
531.221	875.31
531.436	883.31
531.651	893.31
531.865	901.31
532.08	901.31
532.295	901.31
532.509	893.31
532.724	897.31
532.938	902.31
533.153	870.31
533.367	872.31
533.582	854.31
533.796	854.31
534.011	870.31
534.225	870.31
534.44	883.31
534.654	873.31
534.868	886.31
535.083	876.31
535.297	884.31
535.511	836.31
535.726	852.31
535.94	841.31
536.154	834.31
536.369	829.31
536.583	799.31
536.797	822.31
537.011	813.31
537.225	820.31
537.44	818.31
537.654	812.31
537.868	811.31
538.082	801.31
538.296	776.31
538.51	803.31
538.724	790.31
538.938	804.31
539.153	805.31
539.367	789.31
539.581	806.31
539.795	787.31
540.009	814.31
540.222	811.31
540.436	785.31
540.65	792.31
540.864	762.31
541.078	792.31
541.292	794.31
541.506	788.31
541.72	781.31
541.934	769.31
542.147	802.31
542.361	788.31
542.575	774.31
542.789	782.31
543.002	787.31
543.216	764.31
543.43	774.31
543.644	765.31
543.857	772.31
544.071	802.31
544.285	779.31
544.498	790.31
544.712	794.31
544.925	804.31
545.139	821.31
545.352	807.31
545.566	806.31
545.779	794.31
545.993	829.31
546.206	827.31
546.42	805.31
546.633	816.31
546.847	824.31
547.06	823.31
547.274	820.31
547.487	814.31
547.7	804.31
547.914	795.31
548.127	828.31
548.34	850.31
548.554	837.31
548.767	820.31
548.98	833.31
549.193	805.31
549.407	839.31
549.62	846.31
549.833	848.31
550.046	848.31
550.259	808.31
550.473	838.31
550.686	805.31
550.899	808.31
551.112	790.31
551.325	800.31
551.538	797.31
551.751	782.31
551.964	802.31
552.177	819.31
552.39	828.31
552.603	845.31
552.816	891.31
553.029	853.31
553.242	923.31
553.455	913.31
553.667	913.31
553.88	910.31
554.093	878.31
554.306	874.31
554.519	809.31
554.732	815.31
554.944	762.31
555.157	758.31
555.37	781.31
555.583	750.31
555.795	753.31
556.008	730.31
556.221	714.31
556.433	695.31
556.646	711.31
556.859	705.31
557.071	718.31
557.284	703.31
557.496	708.31
557.709	710.31
557.921	684.31
558.134	654.31
558.346	676.31
558.559	713.31
558.771	670.31
558.984	672.31
559.196	686.31
559.409	681.31
559.621	680.31
559.833	652.31
560.046	660.31
560.258	647.31
560.47	680.31
560.683	677.31
560.895	672.31
561.107	668.31
561.32	655.31
561.532	683.31
561.744	649.31
561.956	680.31
562.168	677.31
562.381	672.31
562.593	664.31
562.805	680.31
563.017	654.31
563.229	655.31
563.441	680.31
563.653	651.31
563.865	671.31
564.077	692.31
564.289	691.31
564.501	693.31
564.713	702.31
564.925	717.31
565.137	749.31
565.349	777.31
565.561	770.31
565.773	792.31
565.985	830.31
566.197	869.31
566.408	969.31
566.62	1046.31
566.832	1116.31
567.044	1150.31
567.255	1136.31
567.467	1205.31
567.679	1289.31
567.891	1330.31
568.102	1327.31
568.314	1268.31
568.526	1156.31
568.737	1054.31
568.949	936.31
569.161	906.31
569.372	832.31
569.584	808.31
569.795	760.31
570.007	744.31
570.218	728.31
570.43	715.31
570.641	689.31
570.853	657.31
571.064	703.31
571.276	721.31
571.487	702.31
571.698	657.31
571.91	646.31
572.121	636.31
572.333	609.31
572.544	604.31
572.755	590.31
572.966	594.31
573.178	576.31
573.389	558.31
573.6	561.31
573.811	574.31
574.023	560.31
574.234	564.31
574.445	556.31
574.656	549.31
574.867	548.31
575.078	575.31
575.289	536.31
575.501	574.31
575.712	553.31
575.923	509.31
576.134	520.31
576.345	521.31
576.556	516.31
576.767	510.31
576.978	509.31
577.188	529.31
577.399	528.31
577.61	505.31
577.821	517.31
578.032	488.31
578.243	484.31
578.454	485.31
578.665	484.31
578.875	493.31
579.086	490.31
579.297	509.31
579.508	493.31
579.718	472.31
579.929	478.31
580.14	514.31
580.35	470.31
580.561	493.31
580.772	466.31
580.982	465.31
581.193	472.31
581.403	456.31
581.614	450.31
581.825	485.31
582.035	458.31
582.246	465.31
582.456	455.31
582.667	460.31
582.877	467.31
583.087	444.31
583.298	457.31
583.508	458.31
583.719	453.31
583.929	458.31
584.139	452.31
584.35	462.31
584.56	440.31
584.77	440.31
584.981	444.31
585.191	433.31
585.401	436.31
585.611	447.31
585.821	439.31
586.032	435.31
586.242	457.31
586.452	442.31
586.662	453.31
586.872	437.31
587.082	434.31
587.292	439.31
587.502	431.31
587.713	432.31
587.923	445.31
588.133	429.31
588.343	429.31
588.553	437.31
588.762	447.31
588.972	442.31
589.182	438.31
589.392	467.31
589.602	424.31
589.812	452.31
590.022	458.31
590.232	451.31
590.441	446.31
590.651	449.31
590.861	457.31
591.071	449.31
591.281	459.31
591.49	452.31
591.7	466.31
591.91	482.31
592.119	490.31
592.329	487.31
592.539	526.31
592.748	521.31
592.958	556.31
593.167	548.31
593.377	548.31
593.587	559.31
593.796	582.31
594.006	596.31
594.215	567.31
594.424	575.31
594.634	538.31
594.843	576.31
595.053	524.31
595.262	506.31
595.472	506.31
595.681	477.31
595.89	473.31
596.1	425.31
596.309	432.31
596.518	448.31
596.727	427.31
596.937	411.31
597.146	430.31
597.355	416.31
597.564	410.31
597.774	407.31
597.983	402.31
598.192	388.31
598.401	403.31
598.61	387.31
598.819	380.31
599.028	379.31
599.237	365.31
599.446	402.31
599.655	398.31
599.864	378.31
600.073	380.31
600.282	355.31
600.491	368.31
600.7	394.31
600.909	360.31
601.118	384.31
601.327	348.31
601.536	365.31
601.745	365.31
601.953	368.31
602.162	361.31
602.371	340.31
602.58	338.31
602.789	345.31
602.997	370.31
603.206	375.31
603.415	344.31
603.623	362.31
603.832	345.31
604.041	334.31
604.249	334.31
604.458	355.31
604.666	331.31
604.875	337.31
605.084	343.31
605.292	331.31
605.501	363.31
605.709	349.31
605.918	328.31
606.126	342.31
606.334	324.31
606.543	334.31
606.751	341.31
606.96	336.31
607.168	319.31
607.376	327.31
607.585	356.31
607.793	335.31
608.001	327.31
608.21	325.31
608.418	326.31
608.626	331.31
608.834	333.31
609.043	323.31
609.251	323.31
609.459	320.31
609.667	337.31
609.875	333.31
610.083	333.31
610.291	307.31
610.499	335.31
610.707	340.31
610.916	308.31
611.124	321.31
611.332	304.31
611.54	300.31
611.748	312.31
611.955	317.31
612.163	311.31
612.371	326.31
612.579	329.31
612.787	305.31
612.995	304.31
613.203	323.31
613.411	296.31
613.618	316.31
613.826	313.31
614.034	301.31
614.242	325.31
614.449	328.31
614.657	302.31
614.865	301.31
615.072	315.31
615.28	312.31
615.488	305.31
615.695	306.31
615.903	315.31
616.111	312.31
616.318	318.31
616.526	308.31
616.733	329.31
616.941	306.31
617.148	310.31
617.356	311.31
617.563	324.31
617.771	299.31
617.978	308.31
618.185	322.31
618.393	313.31
618.6	317.31
618.807	311.31
619.015	329.31
619.222	292.31
619.429	307.31
619.637	308.31
619.844	298.31
620.051	311.31
620.258	306.31
620.466	280.31
620.673	286.31
620.88	302.31
621.087	287.31
621.294	299.31
621.501	283.31
621.708	284.31
621.915	289.31
622.122	296.31
622.329	292.31
622.536	283.31
622.743	282.31
622.95	276.31
623.157	282.31
623.364	294.31
623.571	280.31
623.778	276.31
623.985	271.31
624.192	292.31
624.399	260.31
624.606	268.31
624.812	268.31
625.019	291.31
625.226	276.31
625.433	297.31
625.639	258.31
625.846	266.31
626.053	269.31
626.259	262.31
626.466	284.31
626.673	277.31
626.879	260.31
627.086	265.31
627.293	238.31
627.499	256.31
627.706	268.31
627.912	263.31
628.119	282.31
628.325	245.31
628.532	257.31
628.738	260.31
628.945	265.31
629.151	248.31
629.357	246.31
629.564	240.31
629.77	248.31
629.976	248.31
630.183	238.31
630.389	240.31
630.595	256.31
630.802	241.31
631.008	254.31
631.214	224.31
631.42	229.31
631.627	248.31
631.833	243.31
632.039	260.31
632.245	239.31
632.451	253.31
632.657	238.31
632.863	213.31
633.069	237.31
633.275	228.31
633.481	241.31
633.688	234.31
633.893	238.31
634.099	221.31
634.305	256.31
634.511	238.31
634.717	217.31
634.923	218.31
635.129	226.31
635.335	214.31
635.541	225.31
635.747	210.31
635.952	235.31
636.158	212.31
636.364	231.31
636.57	217.31
636.775	214.31
636.981	227.31
637.187	225.31
637.392	212.31
637.598	221.31
637.804	226.31
638.009	222.31
638.215	220.31
638.421	211.31
638.626	229.31
638.832	212.31
639.037	196.31
639.243	194.31
639.448	212.31
639.654	212.31
639.859	215.31
640.065	212.31
640.27	218.31
640.475	203.31
640.681	188.31
640.886	195.31
641.091	215.31
641.297	216.31
641.502	215.31
641.707	203.31
641.913	204.31
642.118	208.31
642.323	198.31
642.528	202.31
642.733	200.31
642.939	196.31
643.144	197.31
643.349	194.31
643.554	202.31
643.759	196.31
643.964	187.31
644.169	178.31
644.374	204.31
644.579	203.31
644.784	221.31
644.989	201.31
645.194	187.31
645.399	194.31
645.604	213.31
645.809	209.31
646.014	201.31
646.219	198.31
646.423	193.31
646.628	198.31
646.833	203.31
647.038	216.31
647.243	205.31
647.447	189.31
647.652	201.31
647.857	203.31
648.062	205.31
648.266	233.31
648.471	208.31
648.676	209.31
648.88	214.31
649.085	186.31
649.289	212.31
649.494	188.31
649.698	196.31
649.903	196.31
650.107	187.31
650.312	212.31
650.516	189.31
650.721	167.31
650.925	180.31
651.13	171.31
651.334	165.31
651.539	191.31
651.743	176.31
651.947	164.31
652.152	186.31
652.356	171.31
652.56	158.31
652.764	143.31
652.969	165.31
653.173	157.31
653.377	165.31
653.581	154.31
653.785	157.31
653.99	141.31
654.194	149.31
654.398	159.31
654.602	136.31
654.806	154.31
655.01	159.31
655.214	144.31
655.418	141.31
655.622	162.31
655.826	150.31
656.03	132.31
656.234	160.31
656.438	124.31
656.642	145.31
656.846	133.31
657.049	132.31
657.253	120.31
657.457	114.31
657.661	109.31
657.865	113.31
658.068	132.31
658.272	126.31
658.476	121.31
658.68	127.31
658.883	99.31
659.087	123.31
659.291	102.31
659.494	108.31
659.698	92.31
659.901	106.31
660.105	85.31
660.309	101.31
660.512	100.31
660.716	91.31
660.919	98.31
661.123	103.31
661.326	87.31
661.53	89.31
661.733	96.31
661.936	92.31
662.14	90.31
662.343	88.31
662.546	85.31
662.75	76.31
662.953	80.31
663.156	89.31
663.36	83.31
663.563	85.31
663.766	76.31
663.969	78.31
664.173	69.31
664.376	93.31
664.579	99.31
664.782	88.31
664.985	97.31
665.188	101.31
665.391	86.31
665.594	83.31
665.797	77.31
666	77.31
666.203	90.31
666.406	80.31
666.609	92.31
666.812	77.31
667.015	68.31
667.218	85.31
667.421	87.31
667.624	80.31
667.827	81.31
668.03	79.31
668.232	87.31
668.435	99.31
668.638	83.31
668.841	78.31
669.043	88.31
669.246	81.31
669.449	82.31
669.651	81.31
669.854	91.31
670.057	85.31
670.259	88.31
670.462	87.31
670.665	81.31
670.867	96.31
671.07	79.31
671.272	84.31
671.475	86.31
671.677	89.31
671.88	84.31
672.082	80.31
672.284	87.31
672.487	75.31
672.689	75.31
672.892	82.31
