Data from NiCl2@0.5M.TitratingCurve.Agarose3%dH2O.NegLispCup.LampEnergy10.LIBS07252019_HRD10591_18-21-09-575.txt Node
Date: Thu Jul 25 18:21:09 EDT 2019
User: cochatt
Spectrometer: HR+D1059
Trigger mode: 1
Integration Time (sec): 1.000000E-1
Scans to average: 1
Electric dark correction enabled: true
Nonlinearity correction enabled: false
Boxcar width: 0
XAxis mode: Wavelengths
Number of Pixels in Spectrum: 2048
>>>>>Begin Spectral Data<<<<<
223.165	-3.38
223.4	-3.38
223.635	-3.38
223.869	-33.38
224.104	-28.38
224.338	-18.38
224.573	-21.38
224.808	-3.38
225.042	-12.38
225.277	-12.38
225.511	-10.38
225.746	-10.38
225.98	14.62
226.215	13.62
226.449	25.62
226.683	23.62
226.918	27.62
227.152	48.62
227.387	42.62
227.621	42.62
227.856	56.62
228.09	44.62
228.324	56.62
228.559	67.62
228.793	73.62
229.027	88.62
229.262	102.62
229.496	95.62
229.73	115.62
229.964	115.62
230.199	121.62
230.433	122.62
230.667	100.62
230.901	126.62
231.136	117.62
231.37	129.62
231.604	118.62
231.838	123.62
232.072	133.62
232.306	140.62
232.541	125.62
232.775	114.62
233.009	132.62
233.243	121.62
233.477	125.62
233.711	118.62
233.945	134.62
234.179	143.62
234.413	139.62
234.647	146.62
234.881	131.62
235.115	139.62
235.349	118.62
235.583	129.62
235.817	132.62
236.051	142.62
236.285	132.62
236.519	134.62
236.753	126.62
236.987	140.62
237.221	125.62
237.455	132.62
237.689	151.62
237.922	144.62
238.156	121.62
238.39	133.62
238.624	137.62
238.858	140.62
239.091	150.62
239.325	143.62
239.559	135.62
239.793	142.62
240.027	150.62
240.26	144.62
240.494	170.62
240.728	146.62
240.961	149.62
241.195	140.62
241.429	157.62
241.662	134.62
241.896	160.62
242.13	157.62
242.363	158.62
242.597	159.62
242.83	166.62
243.064	162.62
243.298	154.62
243.531	155.62
243.765	156.62
243.998	163.62
244.232	168.62
244.465	159.62
244.699	142.62
244.932	168.62
245.166	168.62
245.399	164.62
245.633	158.62
245.866	179.62
246.099	169.62
246.333	185.62
246.566	165.62
246.8	167.62
247.033	168.62
247.266	170.62
247.5	161.62
247.733	181.62
247.966	179.62
248.2	198.62
248.433	188.62
248.666	185.62
248.899	184.62
249.133	204.62
249.366	196.62
249.599	170.62
249.832	184.62
250.066	190.62
250.299	184.62
250.532	180.62
250.765	197.62
250.998	195.62
251.231	207.62
251.465	207.62
251.698	216.62
251.931	200.62
252.164	209.62
252.397	217.62
252.63	203.62
252.863	199.62
253.096	201.62
253.329	193.62
253.562	214.62
253.795	217.62
254.028	227.62
254.261	207.62
254.494	212.62
254.727	203.62
254.96	217.62
255.193	213.62
255.426	223.62
255.659	211.62
255.892	221.62
256.124	228.62
256.357	231.62
256.59	228.62
256.823	218.62
257.056	223.62
257.289	209.62
257.521	217.62
257.754	235.62
257.987	215.62
258.22	231.62
258.452	229.62
258.685	237.62
258.918	233.62
259.151	221.62
259.383	236.62
259.616	221.62
259.849	238.62
260.081	229.62
260.314	233.62
260.547	258.62
260.779	230.62
261.012	250.62
261.244	255.62
261.477	234.62
261.71	234.62
261.942	247.62
262.175	242.62
262.407	243.62
262.64	252.62
262.872	257.62
263.105	237.62
263.337	253.62
263.57	263.62
263.802	251.62
264.035	267.62
264.267	261.62
264.499	267.62
264.732	271.62
264.964	259.62
265.197	250.62
265.429	261.62
265.661	261.62
265.894	262.62
266.126	273.62
266.358	261.62
266.591	261.62
266.823	270.62
267.055	273.62
267.287	275.62
267.52	259.62
267.752	269.62
267.984	277.62
268.216	273.62
268.448	265.62
268.681	287.62
268.913	285.62
269.145	283.62
269.377	285.62
269.609	287.62
269.841	280.62
270.073	287.62
270.306	281.62
270.538	289.62
270.77	294.62
271.002	309.62
271.234	283.62
271.466	285.62
271.698	294.62
271.93	277.62
272.162	298.62
272.394	302.62
272.626	295.62
272.858	296.62
273.09	311.62
273.322	290.62
273.553	300.62
273.785	295.62
274.017	295.62
274.249	305.62
274.481	324.62
274.713	313.62
274.945	307.62
275.176	312.62
275.408	314.62
275.64	323.62
275.872	326.62
276.104	329.62
276.335	313.62
276.567	322.62
276.799	323.62
277.031	313.62
277.262	320.62
277.494	335.62
277.726	312.62
277.957	309.62
278.189	310.62
278.421	305.62
278.652	318.62
278.884	325.62
279.115	323.62
279.347	329.62
279.579	331.62
279.81	311.62
280.042	333.62
280.273	319.62
280.505	357.62
280.736	334.62
280.968	347.62
281.199	348.62
281.431	355.62
281.662	336.62
281.894	348.62
282.125	337.62
282.356	339.62
282.588	346.62
282.819	357.62
283.051	344.62
283.282	364.62
283.513	346.62
283.745	350.62
283.976	377.62
284.207	349.62
284.439	364.62
284.67	357.62
284.901	345.62
285.132	356.62
285.364	366.62
285.595	347.62
285.826	341.62
286.057	356.62
286.288	371.62
286.52	362.62
286.751	389.62
286.982	373.62
287.213	367.62
287.444	380.62
287.675	377.62
287.906	391.62
288.138	381.62
288.369	386.62
288.6	397.62
288.831	377.62
289.062	383.62
289.293	406.62
289.524	362.62
289.755	373.62
289.986	381.62
290.217	415.62
290.448	387.62
290.679	387.62
290.91	397.62
291.141	393.62
291.371	374.62
291.602	411.62
291.833	377.62
292.064	393.62
292.295	415.62
292.526	401.62
292.757	398.62
292.987	401.62
293.218	399.62
293.449	409.62
293.68	395.62
293.91	407.62
294.141	380.62
294.372	401.62
294.603	396.62
294.833	409.62
295.064	386.62
295.295	412.62
295.525	408.62
295.756	426.62
295.987	404.62
296.217	422.62
296.448	395.62
296.679	422.62
296.909	428.62
297.14	419.62
297.37	409.62
297.601	399.62
297.831	425.62
298.062	435.62
298.292	435.62
298.523	431.62
298.753	416.62
298.984	419.62
299.214	466.62
299.445	428.62
299.675	421.62
299.905	427.62
300.136	438.62
300.366	435.62
300.597	422.62
300.827	444.62
301.057	437.62
301.288	441.62
301.518	442.62
301.748	450.62
301.979	466.62
302.209	452.62
302.439	457.62
302.669	437.62
302.9	445.62
303.13	454.62
303.36	454.62
303.59	444.62
303.82	466.62
304.051	441.62
304.281	464.62
304.511	447.62
304.741	450.62
304.971	458.62
305.201	465.62
305.431	467.62
305.661	459.62
305.891	457.62
306.121	456.62
306.352	459.62
306.582	442.62
306.812	453.62
307.042	465.62
307.272	445.62
307.502	422.62
307.731	413.62
307.961	449.62
308.191	451.62
308.421	447.62
308.651	454.62
308.881	446.62
309.111	460.62
309.341	439.62
309.571	444.62
309.8	440.62
310.03	456.62
310.26	457.62
310.49	469.62
310.72	457.62
310.949	447.62
311.179	457.62
311.409	449.62
311.639	438.62
311.868	473.62
312.098	491.62
312.328	459.62
312.557	471.62
312.787	464.62
313.017	489.62
313.246	445.62
313.476	488.62
313.706	503.62
313.935	493.62
314.165	503.62
314.394	498.62
314.624	471.62
314.853	490.62
315.083	489.62
315.312	475.62
315.542	473.62
315.771	480.62
316.001	448.62
316.23	477.62
316.46	487.62
316.689	484.62
316.919	460.62
317.148	461.62
317.377	491.62
317.607	482.62
317.836	460.62
318.065	458.62
318.295	480.62
318.524	468.62
318.753	467.62
318.983	471.62
319.212	475.62
319.441	466.62
319.67	464.62
319.9	470.62
320.129	450.62
320.358	467.62
320.587	481.62
320.816	482.62
321.046	482.62
321.275	499.62
321.504	472.62
321.733	472.62
321.962	493.62
322.191	487.62
322.42	476.62
322.649	481.62
322.878	481.62
323.108	459.62
323.337	501.62
323.566	502.62
323.795	502.62
324.024	487.62
324.253	484.62
324.482	513.62
324.71	503.62
324.939	498.62
325.168	515.62
325.397	517.62
325.626	518.62
325.855	505.62
326.084	511.62
326.313	521.62
326.542	498.62
326.77	523.62
326.999	525.62
327.228	519.62
327.457	503.62
327.686	522.62
327.914	491.62
328.143	516.62
328.372	526.62
328.6	516.62
328.829	522.62
329.058	509.62
329.287	525.62
329.515	528.62
329.744	518.62
329.972	525.62
330.201	530.62
330.43	533.62
330.658	542.62
330.887	551.62
331.115	562.62
331.344	560.62
331.572	547.62
331.801	561.62
332.03	579.62
332.258	579.62
332.486	606.62
332.715	592.62
332.943	635.62
333.172	643.62
333.4	668.62
333.629	682.62
333.857	710.62
334.085	676.62
334.314	651.62
334.542	681.62
334.771	648.62
334.999	635.62
335.227	661.62
335.455	644.62
335.684	649.62
335.912	621.62
336.14	652.62
336.369	631.62
336.597	614.62
336.825	651.62
337.053	647.62
337.281	655.62
337.51	629.62
337.738	602.62
337.966	578.62
338.194	628.62
338.422	600.62
338.65	551.62
338.878	586.62
339.106	573.62
339.334	577.62
339.562	557.62
339.79	561.62
340.018	581.62
340.246	538.62
340.474	549.62
340.702	553.62
340.93	574.62
341.158	560.62
341.386	563.62
341.614	556.62
341.842	547.62
342.07	537.62
342.298	542.62
342.526	549.62
342.754	556.62
342.981	543.62
343.209	559.62
343.437	582.62
343.665	638.62
343.893	635.62
344.12	654.62
344.348	629.62
344.576	620.62
344.804	609.62
345.031	563.62
345.259	573.62
345.487	550.62
345.714	563.62
345.942	566.62
346.17	567.62
346.397	557.62
346.625	528.62
346.853	539.62
347.08	537.62
347.308	536.62
347.535	532.62
347.763	547.62
347.99	529.62
348.218	513.62
348.445	514.62
348.673	548.62
348.9	545.62
349.128	538.62
349.355	528.62
349.583	544.62
349.81	521.62
350.037	502.62
350.265	522.62
350.492	517.62
350.72	491.62
350.947	525.62
351.174	516.62
351.402	525.62
351.629	519.62
351.856	510.62
352.083	524.62
352.311	512.62
352.538	489.62
352.765	518.62
352.992	508.62
353.22	498.62
353.447	485.62
353.674	488.62
353.901	474.62
354.128	499.62
354.355	501.62
354.583	498.62
354.81	505.62
355.037	507.62
355.264	482.62
355.491	491.62
355.718	497.62
355.945	517.62
356.172	506.62
356.399	520.62
356.626	494.62
356.853	535.62
357.08	513.62
357.307	490.62
357.534	509.62
357.761	509.62
357.988	500.62
358.215	489.62
358.441	511.62
358.668	499.62
358.895	493.62
359.122	516.62
359.349	514.62
359.576	517.62
359.802	498.62
360.029	517.62
360.256	530.62
360.483	498.62
360.709	501.62
360.936	515.62
361.163	504.62
361.39	513.62
361.616	521.62
361.843	512.62
362.07	543.62
362.296	522.62
362.523	485.62
362.749	506.62
362.976	495.62
363.203	509.62
363.429	477.62
363.656	493.62
363.882	511.62
364.109	489.62
364.335	494.62
364.562	477.62
364.788	501.62
365.015	513.62
365.241	487.62
365.468	511.62
365.694	496.62
365.92	498.62
366.147	489.62
366.373	500.62
366.599	515.62
366.826	493.62
367.052	509.62
367.278	487.62
367.505	517.62
367.731	508.62
367.957	511.62
368.184	508.62
368.41	488.62
368.636	503.62
368.862	513.62
369.089	535.62
369.315	509.62
369.541	520.62
369.767	519.62
369.993	530.62
370.219	507.62
370.445	514.62
370.672	536.62
370.898	515.62
371.124	525.62
371.35	536.62
371.576	544.62
371.802	544.62
372.028	518.62
372.254	532.62
372.48	543.62
372.706	574.62
372.932	583.62
373.158	547.62
373.384	548.62
373.61	555.62
373.835	566.62
374.061	555.62
374.287	553.62
374.513	545.62
374.739	578.62
374.965	598.62
375.191	599.62
375.416	621.62
375.642	574.62
375.868	573.62
376.094	566.62
376.319	545.62
376.545	544.62
376.771	545.62
376.997	543.62
377.222	539.62
377.448	532.62
377.674	527.62
377.899	507.62
378.125	517.62
378.35	514.62
378.576	515.62
378.802	529.62
379.027	539.62
379.253	509.62
379.478	528.62
379.704	531.62
379.929	535.62
380.155	533.62
380.38	533.62
380.606	519.62
380.831	521.62
381.057	535.62
381.282	535.62
381.507	531.62
381.733	533.62
381.958	555.62
382.184	554.62
382.409	546.62
382.634	594.62
382.86	558.62
383.085	590.62
383.31	577.62
383.535	589.62
383.761	590.62
383.986	605.62
384.211	612.62
384.436	610.62
384.662	632.62
384.887	622.62
385.112	630.62
385.337	634.62
385.562	602.62
385.787	629.62
386.013	633.62
386.238	651.62
386.463	635.62
386.688	617.62
386.913	621.62
387.138	621.62
387.363	613.62
387.588	629.62
387.813	611.62
388.038	636.62
388.263	631.62
388.488	659.62
388.713	643.62
388.938	604.62
389.163	612.62
389.387	625.62
389.612	610.62
389.837	592.62
390.062	642.62
390.287	614.62
390.512	627.62
390.736	632.62
390.961	617.62
391.186	642.62
391.411	661.62
391.636	694.62
391.86	701.62
392.085	706.62
392.31	717.62
392.534	682.62
392.759	671.62
392.984	675.62
393.208	646.62
393.433	661.62
393.658	663.62
393.882	664.62
394.107	675.62
394.331	699.62
394.556	671.62
394.78	673.62
395.005	685.62
395.229	653.62
395.454	691.62
395.678	723.62
395.903	700.62
396.127	679.62
396.352	677.62
396.576	662.62
396.801	669.62
397.025	674.62
397.249	726.62
397.474	691.62
397.698	727.62
397.922	705.62
398.147	711.62
398.371	737.62
398.595	754.62
398.82	799.62
399.044	828.62
399.268	901.62
399.492	1059.62
399.717	1116.62
399.941	1130.62
400.165	1024.62
400.389	932.62
400.613	860.62
400.837	805.62
401.062	821.62
401.286	795.62
401.51	791.62
401.734	768.62
401.958	804.62
402.182	794.62
402.406	790.62
402.63	839.62
402.854	856.62
403.078	806.62
403.302	829.62
403.526	889.62
403.75	891.62
403.974	890.62
404.198	892.62
404.422	911.62
404.645	892.62
404.869	899.62
405.093	881.62
405.317	845.62
405.541	869.62
405.765	861.62
405.988	854.62
406.212	871.62
406.436	846.62
406.66	899.62
406.883	887.62
407.107	932.62
407.331	990.62
407.555	1017.62
407.778	976.62
408.002	1029.62
408.226	935.62
408.449	919.62
408.673	908.62
408.896	901.62
409.12	918.62
409.344	876.62
409.567	889.62
409.791	909.62
410.014	883.62
410.238	841.62
410.461	876.62
410.685	882.62
410.908	870.62
411.132	859.62
411.355	855.62
411.578	809.62
411.802	832.62
412.025	827.62
412.249	836.62
412.472	830.62
412.695	800.62
412.919	777.62
413.142	801.62
413.365	802.62
413.589	806.62
413.812	786.62
414.035	780.62
414.258	789.62
414.482	797.62
414.705	791.62
414.928	811.62
415.151	812.62
415.374	799.62
415.597	796.62
415.821	788.62
416.044	786.62
416.267	766.62
416.49	775.62
416.713	749.62
416.936	774.62
417.159	768.62
417.382	764.62
417.605	783.62
417.828	795.62
418.051	797.62
418.274	806.62
418.497	801.62
418.72	820.62
418.943	792.62
419.166	860.62
419.389	901.62
419.611	865.62
419.834	843.62
420.057	825.62
420.28	804.62
420.503	781.62
420.726	801.62
420.948	787.62
421.171	803.62
421.394	792.62
421.617	795.62
421.839	781.62
422.062	807.62
422.285	780.62
422.507	797.62
422.73	791.62
422.953	803.62
423.175	836.62
423.398	839.62
423.621	825.62
423.843	856.62
424.066	831.62
424.288	836.62
424.511	808.62
424.733	821.62
424.956	823.62
425.178	822.62
425.401	801.62
425.623	790.62
425.846	773.62
426.068	801.62
426.291	780.62
426.513	773.62
426.735	741.62
426.958	752.62
427.18	748.62
427.402	729.62
427.625	745.62
427.847	728.62
428.069	723.62
428.292	718.62
428.514	723.62
428.736	720.62
428.958	717.62
429.181	715.62
429.403	699.62
429.625	705.62
429.847	703.62
430.069	697.62
430.292	712.62
430.514	713.62
430.736	714.62
430.958	714.62
431.18	697.62
431.402	713.62
431.624	707.62
431.846	721.62
432.068	723.62
432.29	732.62
432.512	698.62
432.734	717.62
432.956	720.62
433.178	718.62
433.4	712.62
433.622	738.62
433.844	725.62
434.066	733.62
434.287	757.62
434.509	776.62
434.731	769.62
434.953	811.62
435.175	837.62
435.397	804.62
435.618	775.62
435.84	772.62
436.062	719.62
436.284	721.62
436.505	734.62
436.727	753.62
436.949	717.62
437.17	745.62
437.392	707.62
437.614	709.62
437.835	695.62
438.057	685.62
438.278	687.62
438.5	713.62
438.721	695.62
438.943	706.62
439.165	701.62
439.386	715.62
439.608	722.62
439.829	727.62
440.05	729.62
440.272	713.62
440.493	729.62
440.715	733.62
440.936	750.62
441.158	742.62
441.379	794.62
441.6	784.62
441.822	838.62
442.043	837.62
442.264	814.62
442.486	808.62
442.707	788.62
442.928	818.62
443.149	801.62
443.371	808.62
443.592	813.62
443.813	804.62
444.034	818.62
444.255	844.62
444.476	857.62
444.698	928.62
444.919	971.62
445.14	1013.62
445.361	892.62
445.582	820.62
445.803	820.62
446.024	784.62
446.245	750.62
446.466	771.62
446.687	733.62
446.908	746.62
447.129	727.62
447.35	718.62
447.571	721.62
447.792	696.62
448.013	690.62
448.234	683.62
448.455	693.62
448.675	697.62
448.896	684.62
449.117	667.62
449.338	673.62
449.559	674.62
449.779	681.62
450	665.62
450.221	675.62
450.442	718.62
450.662	681.62
450.883	677.62
451.104	705.62
451.324	684.62
451.545	673.62
451.766	692.62
451.986	675.62
452.207	677.62
452.428	690.62
452.648	667.62
452.869	685.62
453.089	669.62
453.31	628.62
453.53	647.62
453.751	639.62
453.971	657.62
454.192	649.62
454.412	651.62
454.633	646.62
454.853	645.62
455.073	636.62
455.294	658.62
455.514	635.62
455.734	658.62
455.955	608.62
456.175	631.62
456.395	620.62
456.616	626.62
456.836	633.62
457.056	638.62
457.276	635.62
457.497	621.62
457.717	620.62
457.937	643.62
458.157	656.62
458.377	653.62
458.598	664.62
458.818	702.62
459.038	669.62
459.258	702.62
459.478	734.62
459.698	725.62
459.918	783.62
460.138	793.62
460.358	833.62
460.578	809.62
460.798	849.62
461.018	856.62
461.238	841.62
461.458	841.62
461.678	845.62
461.898	876.62
462.118	864.62
462.338	918.62
462.558	933.62
462.777	988.62
462.997	1047.62
463.217	1083.62
463.437	1108.62
463.657	1013.62
463.876	1001.62
464.096	1023.62
464.316	1000.62
464.536	1002.62
464.755	950.62
464.975	909.62
465.195	876.62
465.414	839.62
465.634	798.62
465.854	764.62
466.073	758.62
466.293	724.62
466.512	719.62
466.732	702.62
466.951	706.62
467.171	705.62
467.391	727.62
467.61	705.62
467.829	698.62
468.049	709.62
468.268	701.62
468.488	671.62
468.707	702.62
468.927	699.62
469.146	689.62
469.365	699.62
469.585	708.62
469.804	690.62
470.023	710.62
470.243	717.62
470.462	728.62
470.681	726.62
470.901	743.62
471.12	721.62
471.339	742.62
471.558	713.62
471.777	706.62
471.997	677.62
472.216	693.62
472.435	683.62
472.654	682.62
472.873	657.62
473.092	674.62
473.311	696.62
473.53	692.62
473.749	652.62
473.968	670.62
474.187	668.62
474.406	670.62
474.625	678.62
474.844	651.62
475.063	666.62
475.282	664.62
475.501	677.62
475.72	678.62
475.939	694.62
476.158	695.62
476.377	699.62
476.596	694.62
476.814	719.62
477.033	709.62
477.252	719.62
477.471	769.62
477.69	734.62
477.908	751.62
478.127	803.62
478.346	793.62
478.564	803.62
478.783	802.62
479.002	830.62
479.22	816.62
479.439	830.62
479.658	814.62
479.876	841.62
480.095	821.62
480.313	854.62
480.532	889.62
480.751	889.62
480.969	834.62
481.188	854.62
481.406	807.62
481.624	791.62
481.843	760.62
482.061	779.62
482.28	769.62
482.498	759.62
482.717	757.62
482.935	761.62
483.153	771.62
483.372	801.62
483.59	780.62
483.808	755.62
484.027	785.62
484.245	774.62
484.463	791.62
484.681	777.62
484.9	788.62
485.118	791.62
485.336	778.62
485.554	805.62
485.772	794.62
485.99	817.62
486.209	821.62
486.427	813.62
486.645	817.62
486.863	802.62
487.081	806.62
487.299	799.62
487.517	796.62
487.735	806.62
487.953	801.62
488.171	807.62
488.389	780.62
488.607	767.62
488.825	804.62
489.043	793.62
489.261	789.62
489.479	794.62
489.696	804.62
489.914	793.62
490.132	811.62
490.35	802.62
490.568	813.62
490.786	815.62
491.003	822.62
491.221	832.62
491.439	841.62
491.657	833.62
491.874	828.62
492.092	828.62
492.31	823.62
492.527	835.62
492.745	847.62
492.963	871.62
493.18	833.62
493.398	864.62
493.615	840.62
493.833	828.62
494.05	836.62
494.268	861.62
494.485	868.62
494.703	875.62
494.92	863.62
495.138	857.62
495.355	863.62
495.573	872.62
495.79	849.62
496.008	842.62
496.225	887.62
496.442	874.62
496.66	905.62
496.877	907.62
497.094	916.62
497.312	923.62
497.529	953.62
497.746	973.62
497.963	980.62
498.181	1043.62
498.398	1089.62
498.615	1130.62
498.832	1206.62
499.049	1309.62
499.267	1404.62
499.484	1499.62
499.701	1672.62
499.918	1841.62
500.135	2089.62
500.352	2292.62
500.569	2409.62
500.786	2371.62
501.003	2247.62
501.22	1966.62
501.437	1754.62
501.654	1587.62
501.871	1449.62
502.088	1339.62
502.305	1294.62
502.522	1211.62
502.739	1155.62
502.956	1077.62
503.172	1065.62
503.389	1003.62
503.606	962.62
503.823	967.62
504.04	973.62
504.256	991.62
504.473	995.62
504.69	994.62
504.907	975.62
505.123	948.62
505.34	877.62
505.557	847.62
505.773	850.62
505.99	804.62
506.207	800.62
506.423	772.62
506.64	761.62
506.856	761.62
507.073	757.62
507.289	774.62
507.506	743.62
507.722	760.62
507.939	748.62
508.155	726.62
508.372	722.62
508.588	709.62
508.805	734.62
509.021	713.62
509.238	710.62
509.454	694.62
509.67	695.62
509.887	696.62
510.103	700.62
510.319	690.62
510.536	693.62
510.752	679.62
510.968	685.62
511.184	667.62
511.401	679.62
511.617	675.62
511.833	681.62
512.049	686.62
512.265	695.62
512.481	691.62
512.698	673.62
512.914	670.62
513.13	692.62
513.346	685.62
513.562	685.62
513.778	670.62
513.994	681.62
514.21	683.62
514.426	669.62
514.642	671.62
514.858	717.62
515.074	704.62
515.29	700.62
515.506	701.62
515.721	705.62
515.937	747.62
516.153	737.62
516.369	755.62
516.585	804.62
516.801	797.62
517.016	852.62
517.232	871.62
517.448	891.62
517.664	938.62
517.879	908.62
518.095	941.62
518.311	903.62
518.527	838.62
518.742	842.62
518.958	812.62
519.173	778.62
519.389	748.62
519.605	736.62
519.82	733.62
520.036	729.62
520.251	703.62
520.467	678.62
520.682	706.62
520.898	708.62
521.113	698.62
521.329	681.62
521.544	662.62
521.76	683.62
521.975	662.62
522.19	643.62
522.406	635.62
522.621	666.62
522.836	631.62
523.052	637.62
523.267	644.62
523.482	629.62
523.698	633.62
523.913	654.62
524.128	634.62
524.343	620.62
524.559	639.62
524.774	628.62
524.989	627.62
525.204	662.62
525.419	629.62
525.634	636.62
525.849	629.62
526.064	633.62
526.28	629.62
526.495	611.62
526.71	604.62
526.925	612.62
527.14	625.62
527.355	616.62
527.57	596.62
527.785	595.62
527.999	597.62
528.214	618.62
528.429	613.62
528.644	638.62
528.859	633.62
529.074	608.62
529.289	625.62
529.503	625.62
529.718	633.62
529.933	612.62
530.148	617.62
530.363	612.62
530.577	616.62
530.792	587.62
531.007	594.62
531.221	619.62
531.436	622.62
531.651	612.62
531.865	604.62
532.08	626.62
532.295	613.62
532.509	607.62
532.724	610.62
532.938	611.62
533.153	596.62
533.367	621.62
533.582	598.62
533.796	627.62
534.011	625.62
534.225	604.62
534.44	590.62
534.654	611.62
534.868	583.62
535.083	597.62
535.297	588.62
535.511	595.62
535.726	586.62
535.94	582.62
536.154	579.62
536.369	589.62
536.583	556.62
536.797	568.62
537.011	573.62
537.225	574.62
537.44	586.62
537.654	565.62
537.868	555.62
538.082	556.62
538.296	576.62
538.51	565.62
538.724	577.62
538.938	571.62
539.153	571.62
539.367	553.62
539.581	574.62
539.795	534.62
540.009	557.62
540.222	575.62
540.436	546.62
540.65	542.62
540.864	565.62
541.078	572.62
541.292	557.62
541.506	567.62
541.72	586.62
541.934	563.62
542.147	567.62
542.361	567.62
542.575	523.62
542.789	546.62
543.002	553.62
543.216	570.62
543.43	562.62
543.644	542.62
543.857	545.62
544.071	564.62
544.285	580.62
544.498	547.62
544.712	563.62
544.925	568.62
545.139	572.62
545.352	573.62
545.566	574.62
545.779	597.62
545.993	561.62
546.206	571.62
546.42	566.62
546.633	575.62
546.847	556.62
547.06	578.62
547.274	556.62
547.487	564.62
547.7	570.62
547.914	582.62
548.127	597.62
548.34	574.62
548.554	579.62
548.767	590.62
548.98	577.62
549.193	599.62
549.407	583.62
549.62	597.62
549.833	582.62
550.046	584.62
550.259	564.62
550.473	563.62
550.686	579.62
550.899	573.62
551.112	546.62
551.325	557.62
551.538	579.62
551.751	561.62
551.964	555.62
552.177	576.62
552.39	580.62
552.603	604.62
552.816	610.62
553.029	611.62
553.242	614.62
553.455	603.62
553.667	620.62
553.88	625.62
554.093	583.62
554.306	604.62
554.519	575.62
554.732	568.62
554.944	535.62
555.157	570.62
555.37	547.62
555.583	530.62
555.795	541.62
556.008	519.62
556.221	511.62
556.433	532.62
556.646	519.62
556.859	500.62
557.071	479.62
557.284	481.62
557.496	480.62
557.709	485.62
557.921	503.62
558.134	495.62
558.346	466.62
558.559	484.62
558.771	497.62
558.984	489.62
559.196	475.62
559.409	483.62
559.621	499.62
559.833	473.62
560.046	445.62
560.258	470.62
560.47	473.62
560.683	455.62
560.895	481.62
561.107	489.62
561.32	456.62
561.532	488.62
561.744	472.62
561.956	478.62
562.168	468.62
562.381	461.62
562.593	473.62
562.805	462.62
563.017	466.62
563.229	475.62
563.441	448.62
563.653	477.62
563.865	472.62
564.077	488.62
564.289	503.62
564.501	501.62
564.713	486.62
564.925	478.62
565.137	504.62
565.349	514.62
565.561	534.62
565.773	559.62
565.985	570.62
566.197	595.62
566.408	656.62
566.62	674.62
566.832	698.62
567.044	748.62
567.255	758.62
567.467	739.62
567.679	767.62
567.891	835.62
568.102	871.62
568.314	805.62
568.526	744.62
568.737	688.62
568.949	639.62
569.161	587.62
569.372	531.62
569.584	528.62
569.795	530.62
570.007	494.62
570.218	477.62
570.43	473.62
570.641	456.62
570.853	502.62
571.064	475.62
571.276	485.62
571.487	452.62
571.698	453.62
571.91	436.62
572.121	425.62
572.333	419.62
572.544	409.62
572.755	422.62
572.966	417.62
573.178	421.62
573.389	393.62
573.6	415.62
573.811	385.62
574.023	383.62
574.234	387.62
574.445	390.62
574.656	409.62
574.867	403.62
575.078	407.62
575.289	377.62
575.501	383.62
575.712	378.62
575.923	375.62
576.134	373.62
576.345	377.62
576.556	357.62
576.767	370.62
576.978	371.62
577.188	366.62
577.399	375.62
577.61	362.62
577.821	381.62
578.032	360.62
578.243	334.62
578.454	366.62
578.665	353.62
578.875	345.62
579.086	338.62
579.297	339.62
579.508	353.62
579.718	333.62
579.929	339.62
580.14	350.62
580.35	327.62
580.561	342.62
580.772	351.62
580.982	352.62
581.193	335.62
581.403	343.62
581.614	354.62
581.825	340.62
582.035	331.62
582.246	336.62
582.456	318.62
582.667	352.62
582.877	332.62
583.087	317.62
583.298	340.62
583.508	328.62
583.719	345.62
583.929	325.62
584.139	322.62
584.35	334.62
584.56	306.62
584.77	326.62
584.981	338.62
585.191	326.62
585.401	299.62
585.611	319.62
585.821	315.62
586.032	316.62
586.242	290.62
586.452	321.62
586.662	311.62
586.872	296.62
587.082	319.62
587.292	299.62
587.502	293.62
587.713	315.62
587.923	307.62
588.133	314.62
588.343	317.62
588.553	316.62
588.762	311.62
588.972	311.62
589.182	373.62
589.392	372.62
589.602	320.62
589.812	356.62
590.022	333.62
590.232	305.62
590.441	326.62
590.651	313.62
590.861	307.62
591.071	306.62
591.281	322.62
591.49	327.62
591.7	334.62
591.91	327.62
592.119	339.62
592.329	359.62
592.539	350.62
592.748	360.62
592.958	353.62
593.167	386.62
593.377	374.62
593.587	390.62
593.796	398.62
594.006	382.62
594.215	382.62
594.424	407.62
594.634	411.62
594.843	374.62
595.053	364.62
595.262	361.62
595.472	332.62
595.681	325.62
595.89	329.62
596.1	309.62
596.309	301.62
596.518	302.62
596.727	305.62
596.937	302.62
597.146	291.62
597.355	290.62
597.564	307.62
597.774	283.62
597.983	283.62
598.192	289.62
598.401	287.62
598.61	277.62
598.819	287.62
599.028	286.62
599.237	285.62
599.446	268.62
599.655	273.62
599.864	247.62
600.073	285.62
600.282	263.62
600.491	262.62
600.7	269.62
600.909	276.62
601.118	251.62
601.327	276.62
601.536	273.62
601.745	266.62
601.953	269.62
602.162	263.62
602.371	263.62
602.58	273.62
602.789	256.62
602.997	251.62
603.206	255.62
603.415	265.62
603.623	264.62
603.832	282.62
604.041	257.62
604.249	256.62
604.458	249.62
604.666	270.62
604.875	242.62
605.084	261.62
605.292	241.62
605.501	251.62
605.709	262.62
605.918	253.62
606.126	257.62
606.334	257.62
606.543	257.62
606.751	259.62
606.96	253.62
607.168	253.62
607.376	242.62
607.585	241.62
607.793	244.62
608.001	250.62
608.21	259.62
608.418	248.62
608.626	243.62
608.834	248.62
609.043	256.62
609.251	254.62
609.459	243.62
609.667	240.62
609.875	230.62
610.083	236.62
610.291	247.62
610.499	236.62
610.707	241.62
610.916	225.62
611.124	239.62
611.332	243.62
611.54	239.62
611.748	246.62
611.955	245.62
612.163	237.62
612.371	230.62
612.579	237.62
612.787	251.62
612.995	218.62
613.203	233.62
613.411	227.62
613.618	230.62
613.826	229.62
614.034	227.62
614.242	230.62
614.449	241.62
614.657	241.62
614.865	228.62
615.072	229.62
615.28	228.62
615.488	230.62
615.695	233.62
615.903	242.62
616.111	239.62
616.318	225.62
616.526	228.62
616.733	239.62
616.941	233.62
617.148	234.62
617.356	247.62
617.563	230.62
617.771	215.62
617.978	231.62
618.185	233.62
618.393	230.62
618.6	233.62
618.807	220.62
619.015	227.62
619.222	247.62
619.429	234.62
619.637	231.62
619.844	223.62
620.051	218.62
620.258	226.62
620.466	208.62
620.673	193.62
620.88	228.62
621.087	229.62
621.294	212.62
621.501	225.62
621.708	214.62
621.915	206.62
622.122	230.62
622.329	236.62
622.536	219.62
622.743	211.62
622.95	215.62
623.157	207.62
623.364	228.62
623.571	233.62
623.778	224.62
623.985	201.62
624.192	210.62
624.399	197.62
624.606	193.62
624.812	207.62
625.019	206.62
625.226	213.62
625.433	199.62
625.639	218.62
625.846	216.62
626.053	215.62
626.259	199.62
626.466	197.62
626.673	202.62
626.879	201.62
627.086	187.62
627.293	209.62
627.499	194.62
627.706	198.62
627.912	199.62
628.119	191.62
628.325	183.62
628.532	190.62
628.738	206.62
628.945	187.62
629.151	195.62
629.357	181.62
629.564	194.62
629.77	198.62
629.976	195.62
630.183	187.62
630.389	196.62
630.595	183.62
630.802	193.62
631.008	186.62
631.214	187.62
631.42	198.62
631.627	202.62
631.833	195.62
632.039	190.62
632.245	199.62
632.451	197.62
632.657	168.62
632.863	201.62
633.069	177.62
633.275	180.62
633.481	181.62
633.688	178.62
633.893	185.62
634.099	187.62
634.305	186.62
634.511	188.62
634.717	175.62
634.923	188.62
635.129	175.62
635.335	185.62
635.541	179.62
635.747	184.62
635.952	171.62
636.158	173.62
636.364	169.62
636.57	181.62
636.775	171.62
636.981	196.62
637.187	179.62
637.392	188.62
637.598	162.62
637.804	158.62
638.009	172.62
638.215	167.62
638.421	172.62
638.626	170.62
638.832	174.62
639.037	175.62
639.243	174.62
639.448	171.62
639.654	167.62
639.859	185.62
640.065	175.62
640.27	161.62
640.475	175.62
640.681	164.62
640.886	166.62
641.091	161.62
641.297	172.62
641.502	158.62
641.707	173.62
641.913	155.62
642.118	167.62
642.323	165.62
642.528	167.62
642.733	166.62
642.939	167.62
643.144	166.62
643.349	154.62
643.554	160.62
643.759	163.62
643.964	165.62
644.169	160.62
644.374	164.62
644.579	172.62
644.784	161.62
644.989	157.62
645.194	155.62
645.399	175.62
645.604	174.62
645.809	158.62
646.014	177.62
646.219	169.62
646.423	158.62
646.628	169.62
646.833	171.62
647.038	161.62
647.243	155.62
647.447	152.62
647.652	171.62
647.857	179.62
648.062	178.62
648.266	161.62
648.471	169.62
648.676	179.62
648.88	173.62
649.085	157.62
649.289	162.62
649.494	178.62
649.698	172.62
649.903	135.62
650.107	168.62
650.312	154.62
650.516	141.62
650.721	153.62
650.925	158.62
651.13	153.62
651.334	159.62
651.539	155.62
651.743	141.62
651.947	150.62
652.152	145.62
652.356	149.62
652.56	136.62
652.764	153.62
652.969	140.62
653.173	151.62
653.377	132.62
653.581	143.62
653.785	138.62
653.99	121.62
654.194	135.62
654.398	138.62
654.602	141.62
654.806	133.62
655.01	133.62
655.214	133.62
655.418	134.62
655.622	135.62
655.826	127.62
656.03	133.62
656.234	121.62
656.438	131.62
656.642	131.62
656.846	130.62
657.049	141.62
657.253	142.62
657.457	117.62
657.661	118.62
657.865	123.62
658.068	115.62
658.272	95.62
658.476	108.62
658.68	119.62
658.883	100.62
659.087	106.62
659.291	105.62
659.494	106.62
659.698	110.62
659.901	101.62
660.105	85.62
660.309	86.62
660.512	94.62
660.716	104.62
660.919	104.62
661.123	95.62
661.326	94.62
661.53	97.62
661.733	103.62
661.936	105.62
662.14	96.62
662.343	98.62
662.546	85.62
662.75	86.62
662.953	95.62
663.156	86.62
663.36	99.62
663.563	100.62
663.766	82.62
663.969	106.62
664.173	76.62
664.376	86.62
664.579	82.62
664.782	83.62
664.985	66.62
665.188	77.62
665.391	87.62
665.594	83.62
665.797	88.62
666	83.62
666.203	77.62
666.406	83.62
666.609	71.62
666.812	88.62
667.015	81.62
667.218	89.62
667.421	77.62
667.624	91.62
667.827	86.62
668.03	89.62
668.232	91.62
668.435	87.62
668.638	93.62
668.841	84.62
669.043	86.62
669.246	96.62
669.449	82.62
669.651	74.62
669.854	88.62
670.057	87.62
670.259	85.62
670.462	89.62
670.665	91.62
670.867	69.62
671.07	63.62
671.272	66.62
671.475	80.62
671.677	93.62
671.88	85.62
672.082	83.62
672.284	92.62
672.487	103.62
672.689	76.62
672.892	90.62
