Data from NiCl2@0.0625M.TitratingCurve.Agarose3%dH2O.NegLispCup.LampEnergy10.LIBS07252019_HRD10591_18-33-32-576.txt Node
Date: Thu Jul 25 18:33:32 EDT 2019
User: cochatt
Spectrometer: HR+D1059
Trigger mode: 1
Integration Time (sec): 1.000000E-1
Scans to average: 1
Electric dark correction enabled: true
Nonlinearity correction enabled: false
Boxcar width: 0
XAxis mode: Wavelengths
Number of Pixels in Spectrum: 2048
>>>>>Begin Spectral Data<<<<<
223.165	-16.69
223.4	-16.69
223.635	-16.69
223.869	-19.69
224.104	-14.69
224.338	-26.69
224.573	-16.69
224.808	-11.69
225.042	-3.69
225.277	-6.69
225.511	4.31
225.746	7.31
225.98	12.31
226.215	17.31
226.449	7.31
226.683	15.31
226.918	27.31
227.152	25.31
227.387	32.31
227.621	46.31
227.856	55.31
228.09	59.31
228.324	68.31
228.559	50.31
228.793	88.31
229.027	144.31
229.262	149.31
229.496	155.31
229.73	180.31
229.964	165.31
230.199	191.31
230.433	202.31
230.667	204.31
230.901	196.31
231.136	200.31
231.37	207.31
231.604	190.31
231.838	216.31
232.072	209.31
232.306	220.31
232.541	218.31
232.775	206.31
233.009	200.31
233.243	219.31
233.477	208.31
233.711	198.31
233.945	207.31
234.179	218.31
234.413	217.31
234.647	216.31
234.881	215.31
235.115	229.31
235.349	219.31
235.583	203.31
235.817	228.31
236.051	216.31
236.285	232.31
236.519	236.31
236.753	222.31
236.987	236.31
237.221	225.31
237.455	240.31
237.689	259.31
237.922	241.31
238.156	247.31
238.39	227.31
238.624	255.31
238.858	253.31
239.091	271.31
239.325	266.31
239.559	264.31
239.793	286.31
240.027	279.31
240.26	261.31
240.494	268.31
240.728	271.31
240.961	297.31
241.195	299.31
241.429	289.31
241.662	283.31
241.896	300.31
242.13	311.31
242.363	300.31
242.597	318.31
242.83	319.31
243.064	319.31
243.298	315.31
243.531	308.31
243.765	335.31
243.998	323.31
244.232	329.31
244.465	335.31
244.699	344.31
244.932	325.31
245.166	334.31
245.399	363.31
245.633	360.31
245.866	355.31
246.099	360.31
246.333	349.31
246.566	357.31
246.8	365.31
247.033	329.31
247.266	351.31
247.5	371.31
247.733	371.31
247.966	395.31
248.2	390.31
248.433	391.31
248.666	400.31
248.899	407.31
249.133	393.31
249.366	384.31
249.599	406.31
249.832	394.31
250.066	407.31
250.299	400.31
250.532	407.31
250.765	417.31
250.998	413.31
251.231	425.31
251.465	447.31
251.698	429.31
251.931	442.31
252.164	444.31
252.397	443.31
252.63	464.31
252.863	441.31
253.096	456.31
253.329	454.31
253.562	456.31
253.795	451.31
254.028	459.31
254.261	449.31
254.494	461.31
254.727	447.31
254.96	456.31
255.193	484.31
255.426	473.31
255.659	449.31
255.892	472.31
256.124	462.31
256.357	484.31
256.59	487.31
256.823	478.31
257.056	481.31
257.289	507.31
257.521	496.31
257.754	504.31
257.987	497.31
258.22	508.31
258.452	507.31
258.685	517.31
258.918	537.31
259.151	515.31
259.383	517.31
259.616	503.31
259.849	519.31
260.081	525.31
260.314	517.31
260.547	526.31
260.779	525.31
261.012	556.31
261.244	538.31
261.477	553.31
261.71	573.31
261.942	551.31
262.175	551.31
262.407	554.31
262.64	544.31
262.872	577.31
263.105	559.31
263.337	567.31
263.57	567.31
263.802	586.31
264.035	589.31
264.267	588.31
264.499	569.31
264.732	591.31
264.964	597.31
265.197	606.31
265.429	580.31
265.661	595.31
265.894	601.31
266.126	600.31
266.358	604.31
266.591	629.31
266.823	621.31
267.055	609.31
267.287	618.31
267.52	620.31
267.752	611.31
267.984	634.31
268.216	613.31
268.448	635.31
268.681	631.31
268.913	622.31
269.145	663.31
269.377	654.31
269.609	691.31
269.841	633.31
270.073	662.31
270.306	657.31
270.538	643.31
270.77	661.31
271.002	657.31
271.234	678.31
271.466	677.31
271.698	683.31
271.93	659.31
272.162	661.31
272.394	667.31
272.626	669.31
272.858	683.31
273.09	696.31
273.322	693.31
273.553	659.31
273.785	713.31
274.017	675.31
274.249	707.31
274.481	720.31
274.713	701.31
274.945	701.31
275.176	724.31
275.408	711.31
275.64	727.31
275.872	723.31
276.104	711.31
276.335	743.31
276.567	712.31
276.799	713.31
277.031	737.31
277.262	723.31
277.494	724.31
277.726	757.31
277.957	741.31
278.189	750.31
278.421	721.31
278.652	760.31
278.884	752.31
279.115	763.31
279.347	774.31
279.579	765.31
279.81	751.31
280.042	778.31
280.273	769.31
280.505	783.31
280.736	757.31
280.968	795.31
281.199	778.31
281.431	803.31
281.662	810.31
281.894	796.31
282.125	807.31
282.356	821.31
282.588	822.31
282.819	795.31
283.051	800.31
283.282	813.31
283.513	845.31
283.745	835.31
283.976	839.31
284.207	839.31
284.439	829.31
284.67	855.31
284.901	861.31
285.132	856.31
285.364	857.31
285.595	853.31
285.826	851.31
286.057	888.31
286.288	858.31
286.52	853.31
286.751	869.31
286.982	854.31
287.213	874.31
287.444	880.31
287.675	866.31
287.906	925.31
288.138	897.31
288.369	906.31
288.6	897.31
288.831	901.31
289.062	904.31
289.293	878.31
289.524	896.31
289.755	905.31
289.986	892.31
290.217	903.31
290.448	927.31
290.679	918.31
290.91	908.31
291.141	903.31
291.371	905.31
291.602	935.31
291.833	925.31
292.064	899.31
292.295	919.31
292.526	934.31
292.757	931.31
292.987	940.31
293.218	908.31
293.449	933.31
293.68	912.31
293.91	886.31
294.141	923.31
294.372	906.31
294.603	909.31
294.833	929.31
295.064	936.31
295.295	922.31
295.525	897.31
295.756	956.31
295.987	953.31
296.217	955.31
296.448	951.31
296.679	935.31
296.909	970.31
297.14	935.31
297.37	985.31
297.601	991.31
297.831	982.31
298.062	976.31
298.292	994.31
298.523	1000.31
298.753	999.31
298.984	994.31
299.214	1005.31
299.445	992.31
299.675	996.31
299.905	1012.31
300.136	1017.31
300.366	1039.31
300.597	993.31
300.827	1029.31
301.057	1031.31
301.288	1043.31
301.518	1058.31
301.748	1063.31
301.979	1097.31
302.209	1064.31
302.439	1069.31
302.669	1039.31
302.9	1046.31
303.13	1052.31
303.36	1097.31
303.59	1053.31
303.82	1014.31
304.051	1075.31
304.281	1035.31
304.511	1058.31
304.741	1043.31
304.971	1035.31
305.201	1039.31
305.431	1065.31
305.661	1054.31
305.891	1031.31
306.121	1046.31
306.352	1043.31
306.582	1012.31
306.812	990.31
307.042	1023.31
307.272	1032.31
307.502	1029.31
307.731	1027.31
307.961	1054.31
308.191	1023.31
308.421	1043.31
308.651	1029.31
308.881	1022.31
309.111	1033.31
309.341	1011.31
309.571	1034.31
309.8	1044.31
310.03	1052.31
310.26	1027.31
310.49	1011.31
310.72	1051.31
310.949	1064.31
311.179	1069.31
311.409	1052.31
311.639	1030.31
311.868	1070.31
312.098	1086.31
312.328	1082.31
312.557	1113.31
312.787	1083.31
313.017	1093.31
313.246	1083.31
313.476	1116.31
313.706	1104.31
313.935	1115.31
314.165	1116.31
314.394	1101.31
314.624	1128.31
314.853	1122.31
315.083	1135.31
315.312	1125.31
315.542	1136.31
315.771	1111.31
316.001	1130.31
316.23	1132.31
316.46	1120.31
316.689	1110.31
316.919	1097.31
317.148	1083.31
317.377	1100.31
317.607	1106.31
317.836	1104.31
318.065	1075.31
318.295	1105.31
318.524	1110.31
318.753	1105.31
318.983	1097.31
319.212	1073.31
319.441	1068.31
319.67	1125.31
319.9	1081.31
320.129	1109.31
320.358	1141.31
320.587	1136.31
320.816	1137.31
321.046	1129.31
321.275	1081.31
321.504	1125.31
321.733	1140.31
321.962	1115.31
322.191	1121.31
322.42	1144.31
322.649	1126.31
322.878	1135.31
323.108	1140.31
323.337	1117.31
323.566	1158.31
323.795	1143.31
324.024	1139.31
324.253	1148.31
324.482	1168.31
324.71	1136.31
324.939	1173.31
325.168	1173.31
325.397	1155.31
325.626	1177.31
325.855	1205.31
326.084	1241.31
326.313	1219.31
326.542	1228.31
326.77	1224.31
326.999	1217.31
327.228	1192.31
327.457	1223.31
327.686	1201.31
327.914	1203.31
328.143	1206.31
328.372	1222.31
328.6	1197.31
328.829	1203.31
329.058	1215.31
329.287	1222.31
329.515	1218.31
329.744	1222.31
329.972	1237.31
330.201	1228.31
330.43	1206.31
330.658	1231.31
330.887	1268.31
331.115	1267.31
331.344	1272.31
331.572	1269.31
331.801	1286.31
332.03	1347.31
332.258	1312.31
332.486	1383.31
332.715	1399.31
332.943	1420.31
333.172	1471.31
333.4	1510.31
333.629	1579.31
333.857	1566.31
334.085	1565.31
334.314	1590.31
334.542	1553.31
334.771	1507.31
334.999	1510.31
335.227	1528.31
335.455	1528.31
335.684	1535.31
335.912	1511.31
336.14	1464.31
336.369	1471.31
336.597	1475.31
336.825	1441.31
337.053	1440.31
337.281	1427.31
337.51	1443.31
337.738	1412.31
337.966	1366.31
338.194	1345.31
338.422	1334.31
338.65	1352.31
338.878	1326.31
339.106	1350.31
339.334	1332.31
339.562	1318.31
339.79	1281.31
340.018	1303.31
340.246	1260.31
340.474	1272.31
340.702	1285.31
340.93	1307.31
341.158	1301.31
341.386	1301.31
341.614	1286.31
341.842	1255.31
342.07	1262.31
342.298	1269.31
342.526	1254.31
342.754	1281.31
342.981	1287.31
343.209	1292.31
343.437	1329.31
343.665	1409.31
343.893	1445.31
344.12	1479.31
344.348	1490.31
344.576	1421.31
344.804	1375.31
345.031	1337.31
345.259	1342.31
345.487	1310.31
345.714	1277.31
345.942	1283.31
346.17	1256.31
346.397	1241.31
346.625	1220.31
346.853	1217.31
347.08	1237.31
347.308	1223.31
347.535	1269.31
347.763	1231.31
347.99	1239.31
348.218	1238.31
348.445	1231.31
348.673	1199.31
348.9	1234.31
349.128	1221.31
349.355	1213.31
349.583	1195.31
349.81	1191.31
350.037	1188.31
350.265	1205.31
350.492	1206.31
350.72	1196.31
350.947	1167.31
351.174	1167.31
351.402	1175.31
351.629	1184.31
351.856	1187.31
352.083	1181.31
352.311	1174.31
352.538	1153.31
352.765	1137.31
352.992	1163.31
353.22	1132.31
353.447	1171.31
353.674	1153.31
353.901	1159.31
354.128	1143.31
354.355	1169.31
354.583	1164.31
354.81	1165.31
355.037	1207.31
355.264	1179.31
355.491	1171.31
355.718	1193.31
355.945	1180.31
356.172	1194.31
356.399	1187.31
356.626	1203.31
356.853	1224.31
357.08	1181.31
357.307	1181.31
357.534	1167.31
357.761	1175.31
357.988	1193.31
358.215	1197.31
358.441	1214.31
358.668	1175.31
358.895	1196.31
359.122	1176.31
359.349	1193.31
359.576	1195.31
359.802	1193.31
360.029	1175.31
360.256	1179.31
360.483	1154.31
360.709	1179.31
360.936	1196.31
361.163	1194.31
361.39	1162.31
361.616	1192.31
361.843	1189.31
362.07	1192.31
362.296	1188.31
362.523	1186.31
362.749	1207.31
362.976	1187.31
363.203	1191.31
363.429	1163.31
363.656	1175.31
363.882	1184.31
364.109	1170.31
364.335	1178.31
364.562	1177.31
364.788	1207.31
365.015	1192.31
365.241	1175.31
365.468	1193.31
365.694	1165.31
365.92	1184.31
366.147	1193.31
366.373	1199.31
366.599	1169.31
366.826	1177.31
367.052	1170.31
367.278	1188.31
367.505	1183.31
367.731	1213.31
367.957	1180.31
368.184	1204.31
368.41	1248.31
368.636	1238.31
368.862	1198.31
369.089	1201.31
369.315	1232.31
369.541	1222.31
369.767	1231.31
369.993	1237.31
370.219	1240.31
370.445	1258.31
370.672	1255.31
370.898	1237.31
371.124	1287.31
371.35	1266.31
371.576	1283.31
371.802	1290.31
372.028	1328.31
372.254	1300.31
372.48	1293.31
372.706	1316.31
372.932	1354.31
373.158	1294.31
373.384	1327.31
373.61	1302.31
373.835	1312.31
374.061	1262.31
374.287	1289.31
374.513	1339.31
374.739	1376.31
374.965	1397.31
375.191	1398.31
375.416	1387.31
375.642	1335.31
375.868	1392.31
376.094	1309.31
376.319	1309.31
376.545	1303.31
376.771	1287.31
376.997	1297.31
377.222	1306.31
377.448	1287.31
377.674	1292.31
377.899	1283.31
378.125	1271.31
378.35	1234.31
378.576	1272.31
378.802	1275.31
379.027	1261.31
379.253	1288.31
379.478	1258.31
379.704	1275.31
379.929	1235.31
380.155	1265.31
380.38	1290.31
380.606	1262.31
380.831	1293.31
381.057	1289.31
381.282	1276.31
381.507	1290.31
381.733	1314.31
381.958	1324.31
382.184	1326.31
382.409	1306.31
382.634	1356.31
382.86	1327.31
383.085	1352.31
383.31	1388.31
383.535	1380.31
383.761	1367.31
383.986	1424.31
384.211	1433.31
384.436	1484.31
384.662	1447.31
384.887	1488.31
385.112	1463.31
385.337	1501.31
385.562	1510.31
385.787	1537.31
386.013	1539.31
386.238	1572.31
386.463	1547.31
386.688	1557.31
386.913	1518.31
387.138	1506.31
387.363	1514.31
387.588	1520.31
387.813	1514.31
388.038	1540.31
388.263	1519.31
388.488	1546.31
388.713	1524.31
388.938	1513.31
389.163	1506.31
389.387	1551.31
389.612	1487.31
389.837	1531.31
390.062	1507.31
390.287	1507.31
390.512	1543.31
390.736	1559.31
390.961	1570.31
391.186	1553.31
391.411	1614.31
391.636	1659.31
391.86	1679.31
392.085	1738.31
392.31	1711.31
392.534	1665.31
392.759	1657.31
392.984	1629.31
393.208	1609.31
393.433	1587.31
393.658	1655.31
393.882	1603.31
394.107	1607.31
394.331	1626.31
394.556	1631.31
394.78	1643.31
395.005	1652.31
395.229	1620.31
395.454	1699.31
395.678	1716.31
395.903	1691.31
396.127	1719.31
396.352	1675.31
396.576	1665.31
396.801	1637.31
397.025	1659.31
397.249	1677.31
397.474	1725.31
397.698	1749.31
397.922	1768.31
398.147	1735.31
398.371	1744.31
398.595	1835.31
398.82	1899.31
399.044	2009.31
399.268	2171.31
399.492	2421.31
399.717	2626.31
399.941	2631.31
400.165	2464.31
400.389	2299.31
400.613	2115.31
400.837	2018.31
401.062	1984.31
401.286	1950.31
401.51	1923.31
401.734	1913.31
401.958	1911.31
402.182	1933.31
402.406	1922.31
402.63	1956.31
402.854	1967.31
403.078	1999.31
403.302	1999.31
403.526	2030.31
403.75	2046.31
403.974	2075.31
404.198	2026.31
404.422	2139.31
404.645	2090.31
404.869	2048.31
405.093	2023.31
405.317	2029.31
405.541	2058.31
405.765	2020.31
405.988	2037.31
406.212	2073.31
406.436	2070.31
406.66	2141.31
406.883	2111.31
407.107	2243.31
407.331	2375.31
407.555	2395.31
407.778	2372.31
408.002	2357.31
408.226	2299.31
408.449	2279.31
408.673	2156.31
408.896	2127.31
409.12	2131.31
409.344	2178.31
409.567	2131.31
409.791	2134.31
410.014	2082.31
410.238	2063.31
410.461	2148.31
410.685	2077.31
410.908	2065.31
411.132	2004.31
411.355	1986.31
411.578	1989.31
411.802	1973.31
412.025	1987.31
412.249	1984.31
412.472	1969.31
412.695	1951.31
412.919	1975.31
413.142	1907.31
413.365	1918.31
413.589	1945.31
413.812	1803.31
414.035	1843.31
414.258	1924.31
414.482	1935.31
414.705	1894.31
414.928	1909.31
415.151	1929.31
415.374	1891.31
415.597	1864.31
415.821	1854.31
416.044	1838.31
416.267	1806.31
416.49	1848.31
416.713	1860.31
416.936	1866.31
417.159	1847.31
417.382	1793.31
417.605	1792.31
417.828	1832.31
418.051	1827.31
418.274	1824.31
418.497	1835.31
418.72	1876.31
418.943	1861.31
419.166	2001.31
419.389	2091.31
419.611	2098.31
419.834	1983.31
420.057	1923.31
420.28	1883.31
420.503	1795.31
420.726	1823.31
420.948	1789.31
421.171	1806.31
421.394	1813.31
421.617	1848.31
421.839	1833.31
422.062	1840.31
422.285	1804.31
422.507	1879.31
422.73	1843.31
422.953	1870.31
423.175	1907.31
423.398	1873.31
423.621	1856.31
423.843	1910.31
424.066	1900.31
424.288	1879.31
424.511	1863.31
424.733	1868.31
424.956	1852.31
425.178	1837.31
425.401	1856.31
425.623	1833.31
425.846	1784.31
426.068	1737.31
426.291	1780.31
426.513	1735.31
426.735	1771.31
426.958	1741.31
427.18	1729.31
427.402	1696.31
427.625	1702.31
427.847	1690.31
428.069	1720.31
428.292	1711.31
428.514	1683.31
428.736	1669.31
428.958	1654.31
429.181	1646.31
429.403	1619.31
429.625	1659.31
429.847	1663.31
430.069	1634.31
430.292	1637.31
430.514	1624.31
430.736	1707.31
430.958	1673.31
431.18	1656.31
431.402	1666.31
431.624	1649.31
431.846	1728.31
432.068	1662.31
432.29	1704.31
432.512	1638.31
432.734	1687.31
432.956	1694.31
433.178	1705.31
433.4	1693.31
433.622	1709.31
433.844	1743.31
434.066	1715.31
434.287	1716.31
434.509	1822.31
434.731	1836.31
434.953	1862.31
435.175	1874.31
435.397	1854.31
435.618	1760.31
435.84	1747.31
436.062	1688.31
436.284	1653.31
436.505	1659.31
436.727	1671.31
436.949	1715.31
437.17	1659.31
437.392	1629.31
437.614	1612.31
437.835	1585.31
438.057	1598.31
438.278	1594.31
438.5	1598.31
438.721	1576.31
438.943	1630.31
439.165	1567.31
439.386	1606.31
439.608	1628.31
439.829	1623.31
440.05	1636.31
440.272	1656.31
440.493	1627.31
440.715	1635.31
440.936	1713.31
441.158	1704.31
441.379	1740.31
441.6	1786.31
441.822	1798.31
442.043	1851.31
442.264	1786.31
442.486	1749.31
442.707	1779.31
442.928	1776.31
443.149	1766.31
443.371	1773.31
443.592	1776.31
443.813	1781.31
444.034	1787.31
444.255	1844.31
444.476	1920.31
444.698	2012.31
444.919	2064.31
445.14	2175.31
445.361	1977.31
445.582	1873.31
445.803	1771.31
446.024	1753.31
446.245	1745.31
446.466	1698.31
446.687	1655.31
446.908	1653.31
447.129	1587.31
447.35	1575.31
447.571	1601.31
447.792	1538.31
448.013	1566.31
448.234	1523.31
448.455	1511.31
448.675	1493.31
448.896	1542.31
449.117	1487.31
449.338	1502.31
449.559	1481.31
449.779	1483.31
450	1425.31
450.221	1504.31
450.442	1462.31
450.662	1495.31
450.883	1488.31
451.104	1513.31
451.324	1483.31
451.545	1499.31
451.766	1473.31
451.986	1472.31
452.207	1452.31
452.428	1479.31
452.648	1453.31
452.869	1425.31
453.089	1422.31
453.31	1479.31
453.53	1441.31
453.751	1441.31
453.971	1415.31
454.192	1438.31
454.412	1377.31
454.633	1392.31
454.853	1411.31
455.073	1401.31
455.294	1421.31
455.514	1368.31
455.734	1382.31
455.955	1385.31
456.175	1381.31
456.395	1370.31
456.616	1364.31
456.836	1399.31
457.056	1365.31
457.276	1353.31
457.497	1430.31
457.717	1386.31
457.937	1435.31
458.157	1422.31
458.377	1447.31
458.598	1498.31
458.818	1507.31
459.038	1563.31
459.258	1575.31
459.478	1648.31
459.698	1682.31
459.918	1698.31
460.138	1779.31
460.358	1816.31
460.578	1806.31
460.798	1896.31
461.018	1903.31
461.238	1889.31
461.458	1832.31
461.678	1833.31
461.898	1915.31
462.118	1891.31
462.338	2005.31
462.558	2051.31
462.777	2126.31
462.997	2260.31
463.217	2400.31
463.437	2383.31
463.657	2263.31
463.876	2185.31
464.096	2168.31
464.316	2168.31
464.536	2161.31
464.755	2115.31
464.975	2022.31
465.195	1913.31
465.414	1830.31
465.634	1744.31
465.854	1737.31
466.073	1703.31
466.293	1651.31
466.512	1629.31
466.732	1596.31
466.951	1563.31
467.171	1542.31
467.391	1592.31
467.61	1567.31
467.829	1539.31
468.049	1517.31
468.268	1542.31
468.488	1511.31
468.707	1485.31
468.927	1497.31
469.146	1506.31
469.365	1548.31
469.585	1544.31
469.804	1544.31
470.023	1579.31
470.243	1569.31
470.462	1600.31
470.681	1599.31
470.901	1603.31
471.12	1600.31
471.339	1545.31
471.558	1527.31
471.777	1501.31
471.997	1531.31
472.216	1540.31
472.435	1496.31
472.654	1500.31
472.873	1462.31
473.092	1512.31
473.311	1471.31
473.53	1498.31
473.749	1453.31
473.968	1471.31
474.187	1468.31
474.406	1500.31
474.625	1516.31
474.844	1492.31
475.063	1511.31
475.282	1525.31
475.501	1519.31
475.72	1533.31
475.939	1573.31
476.158	1541.31
476.377	1565.31
476.596	1534.31
476.814	1568.31
477.033	1603.31
477.252	1652.31
477.471	1659.31
477.69	1679.31
477.908	1711.31
478.127	1760.31
478.346	1791.31
478.564	1795.31
478.783	1771.31
479.002	1830.31
479.22	1864.31
479.439	1900.31
479.658	1847.31
479.876	1874.31
480.095	1905.31
480.313	1975.31
480.532	1997.31
480.751	2036.31
480.969	1913.31
481.188	1874.31
481.406	1907.31
481.624	1819.31
481.843	1822.31
482.061	1807.31
482.28	1803.31
482.498	1808.31
482.717	1845.31
482.935	1819.31
483.153	1821.31
483.372	1831.31
483.59	1862.31
483.808	1848.31
484.027	1850.31
484.245	1917.31
484.463	1921.31
484.681	1915.31
484.9	1912.31
485.118	1971.31
485.336	1984.31
485.554	1945.31
485.772	2043.31
485.99	1999.31
486.209	2001.31
486.427	1978.31
486.645	1970.31
486.863	2001.31
487.081	1982.31
487.299	1987.31
487.517	1945.31
487.735	1990.31
487.953	1973.31
488.171	1973.31
488.389	1905.31
488.607	1927.31
488.825	1947.31
489.043	1919.31
489.261	1867.31
489.479	1899.31
489.696	1887.31
489.914	1869.31
490.132	1904.31
490.35	1873.31
490.568	1884.31
490.786	1881.31
491.003	1865.31
491.221	1878.31
491.439	1888.31
491.657	1851.31
491.874	1832.31
492.092	1835.31
492.31	1843.31
492.527	1862.31
492.745	1902.31
492.963	1879.31
493.18	1898.31
493.398	1898.31
493.615	1868.31
493.833	1895.31
494.05	1927.31
494.268	1918.31
494.485	1939.31
494.703	1904.31
494.92	1917.31
495.138	1933.31
495.355	1906.31
495.573	1919.31
495.79	1961.31
496.008	1935.31
496.225	1961.31
496.442	1968.31
496.66	2006.31
496.877	2032.31
497.094	2060.31
497.312	2070.31
497.529	2109.31
497.746	2149.31
497.963	2213.31
498.181	2316.31
498.398	2395.31
498.615	2530.31
498.832	2709.31
499.049	2835.31
499.267	3040.31
499.484	3317.31
499.701	3586.31
499.918	3844.31
500.135	4263.31
500.352	4693.31
500.569	4871.31
500.786	4847.31
501.003	4618.31
501.22	4172.31
501.437	3821.31
501.654	3437.31
501.871	3184.31
502.088	2958.31
502.305	2759.31
502.522	2636.31
502.739	2597.31
502.956	2471.31
503.172	2381.31
503.389	2275.31
503.606	2221.31
503.823	2147.31
504.04	2183.31
504.256	2155.31
504.473	2184.31
504.69	2204.31
504.907	2121.31
505.123	2039.31
505.34	1933.31
505.557	1867.31
505.773	1819.31
505.99	1799.31
506.207	1745.31
506.423	1740.31
506.64	1745.31
506.856	1666.31
507.073	1693.31
507.289	1635.31
507.506	1653.31
507.722	1649.31
507.939	1640.31
508.155	1578.31
508.372	1584.31
508.588	1567.31
508.805	1557.31
509.021	1587.31
509.238	1554.31
509.454	1565.31
509.67	1539.31
509.887	1537.31
510.103	1539.31
510.319	1512.31
510.536	1506.31
510.752	1485.31
510.968	1472.31
511.184	1482.31
511.401	1510.31
511.617	1507.31
511.833	1493.31
512.049	1476.31
512.265	1477.31
512.481	1446.31
512.698	1503.31
512.914	1498.31
513.13	1495.31
513.346	1499.31
513.562	1489.31
513.778	1502.31
513.994	1492.31
514.21	1515.31
514.426	1495.31
514.642	1513.31
514.858	1489.31
515.074	1557.31
515.29	1570.31
515.506	1558.31
515.721	1569.31
515.937	1632.31
516.153	1617.31
516.369	1663.31
516.585	1709.31
516.801	1749.31
517.016	1761.31
517.232	1851.31
517.448	1918.31
517.664	1959.31
517.879	1996.31
518.095	1963.31
518.311	1949.31
518.527	1896.31
518.742	1824.31
518.958	1768.31
519.173	1709.31
519.389	1674.31
519.605	1591.31
519.82	1603.31
520.036	1613.31
520.251	1523.31
520.467	1487.31
520.682	1543.31
520.898	1477.31
521.113	1470.31
521.329	1470.31
521.544	1424.31
521.76	1446.31
521.975	1425.31
522.19	1438.31
522.406	1429.31
522.621	1401.31
522.836	1365.31
523.052	1380.31
523.267	1348.31
523.482	1369.31
523.698	1341.31
523.913	1365.31
524.128	1360.31
524.343	1376.31
524.559	1359.31
524.774	1328.31
524.989	1361.31
525.204	1384.31
525.419	1319.31
525.634	1337.31
525.849	1306.31
526.064	1341.31
526.28	1311.31
526.495	1344.31
526.71	1316.31
526.925	1315.31
527.14	1287.31
527.355	1293.31
527.57	1311.31
527.785	1303.31
527.999	1313.31
528.214	1336.31
528.429	1351.31
528.644	1325.31
528.859	1311.31
529.074	1286.31
529.289	1313.31
529.503	1314.31
529.718	1317.31
529.933	1334.31
530.148	1302.31
530.363	1275.31
530.577	1305.31
530.792	1317.31
531.007	1293.31
531.221	1313.31
531.436	1321.31
531.651	1271.31
531.865	1309.31
532.08	1305.31
532.295	1326.31
532.509	1302.31
532.724	1284.31
532.938	1360.31
533.153	1287.31
533.367	1320.31
533.582	1269.31
533.796	1251.31
534.011	1318.31
534.225	1297.31
534.44	1272.31
534.654	1269.31
534.868	1301.31
535.083	1273.31
535.297	1280.31
535.511	1275.31
535.726	1252.31
535.94	1233.31
536.154	1269.31
536.369	1216.31
536.583	1199.31
536.797	1215.31
537.011	1204.31
537.225	1230.31
537.44	1193.31
537.654	1203.31
537.868	1167.31
538.082	1197.31
538.296	1190.31
538.51	1176.31
538.724	1194.31
538.938	1175.31
539.153	1173.31
539.367	1191.31
539.581	1173.31
539.795	1133.31
540.009	1172.31
540.222	1125.31
540.436	1161.31
540.65	1161.31
540.864	1134.31
541.078	1157.31
541.292	1150.31
541.506	1155.31
541.72	1155.31
541.934	1157.31
542.147	1150.31
542.361	1145.31
542.575	1124.31
542.789	1137.31
543.002	1149.31
543.216	1117.31
543.43	1120.31
543.644	1124.31
543.857	1135.31
544.071	1112.31
544.285	1162.31
544.498	1136.31
544.712	1174.31
544.925	1157.31
545.139	1177.31
545.352	1184.31
545.566	1165.31
545.779	1144.31
545.993	1181.31
546.206	1179.31
546.42	1140.31
546.633	1148.31
546.847	1176.31
547.06	1164.31
547.274	1149.31
547.487	1164.31
547.7	1174.31
547.914	1195.31
548.127	1183.31
548.34	1153.31
548.554	1185.31
548.767	1176.31
548.98	1153.31
549.193	1168.31
549.407	1184.31
549.62	1174.31
549.833	1215.31
550.046	1187.31
550.259	1187.31
550.473	1155.31
550.686	1173.31
550.899	1151.31
551.112	1163.31
551.325	1141.31
551.538	1137.31
551.751	1150.31
551.964	1160.31
552.177	1171.31
552.39	1154.31
552.603	1239.31
552.816	1209.31
553.029	1209.31
553.242	1210.31
553.455	1259.31
553.667	1240.31
553.88	1243.31
554.093	1192.31
554.306	1196.31
554.519	1171.31
554.732	1167.31
554.944	1115.31
555.157	1119.31
555.37	1111.31
555.583	1081.31
555.795	1031.31
556.008	1048.31
556.221	1027.31
556.433	1022.31
556.646	1026.31
556.859	1022.31
557.071	1028.31
557.284	1012.31
557.496	1008.31
557.709	1031.31
557.921	1035.31
558.134	999.31
558.346	994.31
558.559	1002.31
558.771	985.31
558.984	958.31
559.196	979.31
559.409	992.31
559.621	969.31
559.833	976.31
560.046	970.31
560.258	972.31
560.47	977.31
560.683	951.31
560.895	956.31
561.107	959.31
561.32	951.31
561.532	953.31
561.744	958.31
561.956	953.31
562.168	948.31
562.381	940.31
562.593	970.31
562.805	978.31
563.017	966.31
563.229	967.31
563.441	988.31
563.653	985.31
563.865	939.31
564.077	977.31
564.289	1006.31
564.501	1024.31
564.713	1005.31
564.925	1052.31
565.137	1060.31
565.349	1079.31
565.561	1128.31
565.773	1135.31
565.985	1177.31
566.197	1215.31
566.408	1305.31
566.62	1384.31
566.832	1469.31
567.044	1506.31
567.255	1488.31
567.467	1569.31
567.679	1626.31
567.891	1648.31
568.102	1671.31
568.314	1612.31
568.526	1517.31
568.737	1385.31
568.949	1308.31
569.161	1213.31
569.372	1144.31
569.584	1096.31
569.795	1082.31
570.007	1051.31
570.218	977.31
570.43	993.31
570.641	956.31
570.853	961.31
571.064	951.31
571.276	964.31
571.487	970.31
571.698	963.31
571.91	910.31
572.121	887.31
572.333	861.31
572.544	857.31
572.755	828.31
572.966	823.31
573.178	839.31
573.389	800.31
573.6	785.31
573.811	797.31
574.023	786.31
574.234	811.31
574.445	784.31
574.656	783.31
574.867	810.31
575.078	800.31
575.289	787.31
575.501	779.31
575.712	736.31
575.923	710.31
576.134	742.31
576.345	741.31
576.556	763.31
576.767	744.31
576.978	734.31
577.188	736.31
577.399	726.31
577.61	726.31
577.821	739.31
578.032	723.31
578.243	711.31
578.454	713.31
578.665	715.31
578.875	696.31
579.086	677.31
579.297	708.31
579.508	711.31
579.718	688.31
579.929	707.31
580.14	659.31
580.35	692.31
580.561	693.31
580.772	663.31
580.982	667.31
581.193	675.31
581.403	663.31
581.614	687.31
581.825	685.31
582.035	660.31
582.246	664.31
582.456	633.31
582.667	676.31
582.877	654.31
583.087	665.31
583.298	650.31
583.508	659.31
583.719	651.31
583.929	636.31
584.139	647.31
584.35	619.31
584.56	645.31
584.77	651.31
584.981	615.31
585.191	633.31
585.401	618.31
585.611	643.31
585.821	627.31
586.032	645.31
586.242	645.31
586.452	620.31
586.662	639.31
586.872	627.31
587.082	603.31
587.292	611.31
587.502	619.31
587.713	627.31
587.923	601.31
588.133	631.31
588.343	614.31
588.553	622.31
588.762	610.31
588.972	615.31
589.182	619.31
589.392	612.31
589.602	613.31
589.812	653.31
590.022	639.31
590.232	616.31
590.441	632.31
590.651	633.31
590.861	630.31
591.071	634.31
591.281	651.31
591.49	680.31
591.7	630.31
591.91	653.31
592.119	678.31
592.329	673.31
592.539	707.31
592.748	717.31
592.958	701.31
593.167	720.31
593.377	737.31
593.587	771.31
593.796	755.31
594.006	758.31
594.215	771.31
594.424	742.31
594.634	727.31
594.843	726.31
595.053	705.31
595.262	683.31
595.472	661.31
595.681	644.31
595.89	624.31
596.1	628.31
596.309	597.31
596.518	607.31
596.727	581.31
596.937	575.31
597.146	585.31
597.355	574.31
597.564	553.31
597.774	559.31
597.983	568.31
598.192	545.31
598.401	523.31
598.61	526.31
598.819	544.31
599.028	523.31
599.237	542.31
599.446	523.31
599.655	528.31
599.864	523.31
600.073	539.31
600.282	533.31
600.491	524.31
600.7	519.31
600.909	517.31
601.118	517.31
601.327	527.31
601.536	490.31
601.745	512.31
601.953	508.31
602.162	508.31
602.371	484.31
602.58	500.31
602.789	497.31
602.997	502.31
603.206	509.31
603.415	481.31
603.623	502.31
603.832	501.31
604.041	499.31
604.249	466.31
604.458	485.31
604.666	472.31
604.875	486.31
605.084	483.31
605.292	466.31
605.501	495.31
605.709	480.31
605.918	471.31
606.126	473.31
606.334	463.31
606.543	463.31
606.751	471.31
606.96	459.31
607.168	459.31
607.376	473.31
607.585	483.31
607.793	454.31
608.001	456.31
608.21	471.31
608.418	441.31
608.626	469.31
608.834	461.31
609.043	458.31
609.251	446.31
609.459	432.31
609.667	472.31
609.875	443.31
610.083	451.31
610.291	459.31
610.499	460.31
610.707	465.31
610.916	454.31
611.124	449.31
611.332	461.31
611.54	419.31
611.748	440.31
611.955	444.31
612.163	423.31
612.371	450.31
612.579	443.31
612.787	443.31
612.995	454.31
613.203	425.31
613.411	425.31
613.618	447.31
613.826	455.31
614.034	423.31
614.242	424.31
614.449	431.31
614.657	422.31
614.865	427.31
615.072	422.31
615.28	422.31
615.488	422.31
615.695	441.31
615.903	443.31
616.111	425.31
616.318	442.31
616.526	435.31
616.733	434.31
616.941	451.31
617.148	424.31
617.356	437.31
617.563	449.31
617.771	441.31
617.978	420.31
618.185	447.31
618.393	427.31
618.6	429.31
618.807	437.31
619.015	441.31
619.222	419.31
619.429	415.31
619.637	411.31
619.844	407.31
620.051	432.31
620.258	412.31
620.466	412.31
620.673	388.31
620.88	389.31
621.087	402.31
621.294	402.31
621.501	397.31
621.708	403.31
621.915	399.31
622.122	405.31
622.329	391.31
622.536	405.31
622.743	394.31
622.95	378.31
623.157	367.31
623.364	394.31
623.571	383.31
623.778	385.31
623.985	378.31
624.192	382.31
624.399	364.31
624.606	385.31
624.812	360.31
625.019	375.31
625.226	377.31
625.433	369.31
625.639	366.31
625.846	368.31
626.053	348.31
626.259	368.31
626.466	384.31
626.673	359.31
626.879	368.31
627.086	349.31
627.293	360.31
627.499	344.31
627.706	356.31
627.912	352.31
628.119	377.31
628.325	365.31
628.532	376.31
628.738	349.31
628.945	359.31
629.151	345.31
629.357	349.31
629.564	352.31
629.77	358.31
629.976	337.31
630.183	350.31
630.389	333.31
630.595	339.31
630.802	339.31
631.008	330.31
631.214	334.31
631.42	330.31
631.627	350.31
631.833	316.31
632.039	305.31
632.245	327.31
632.451	323.31
632.657	326.31
632.863	322.31
633.069	335.31
633.275	320.31
633.481	318.31
633.688	321.31
633.893	327.31
634.099	337.31
634.305	316.31
634.511	313.31
634.717	319.31
634.923	311.31
635.129	326.31
635.335	331.31
635.541	307.31
635.747	302.31
635.952	304.31
636.158	314.31
636.364	308.31
636.57	327.31
636.775	313.31
636.981	305.31
637.187	303.31
637.392	308.31
637.598	301.31
637.804	309.31
638.009	303.31
638.215	311.31
638.421	315.31
638.626	311.31
638.832	298.31
639.037	306.31
639.243	292.31
639.448	293.31
639.654	315.31
639.859	304.31
640.065	300.31
640.27	324.31
640.475	311.31
640.681	302.31
640.886	290.31
641.091	300.31
641.297	283.31
641.502	292.31
641.707	286.31
641.913	288.31
642.118	282.31
642.323	308.31
642.528	288.31
642.733	314.31
642.939	285.31
643.144	287.31
643.349	287.31
643.554	305.31
643.759	295.31
643.964	287.31
644.169	289.31
644.374	296.31
644.579	282.31
644.784	302.31
644.989	283.31
645.194	295.31
645.399	285.31
645.604	283.31
645.809	279.31
646.014	283.31
646.219	284.31
646.423	293.31
646.628	276.31
646.833	304.31
647.038	295.31
647.243	311.31
647.447	314.31
647.652	313.31
647.857	303.31
648.062	307.31
648.266	316.31
648.471	310.31
648.676	336.31
648.88	335.31
649.085	321.31
649.289	293.31
649.494	311.31
649.698	296.31
649.903	293.31
650.107	305.31
650.312	313.31
650.516	302.31
650.721	301.31
650.925	291.31
651.13	288.31
651.334	286.31
651.539	296.31
651.743	277.31
651.947	287.31
652.152	280.31
652.356	282.31
652.56	280.31
652.764	289.31
652.969	288.31
653.173	272.31
653.377	277.31
653.581	277.31
653.785	280.31
653.99	284.31
654.194	287.31
654.398	291.31
654.602	301.31
654.806	286.31
655.01	305.31
655.214	291.31
655.418	326.31
655.622	322.31
655.826	332.31
656.03	359.31
656.234	365.31
656.438	414.31
656.642	416.31
656.846	387.31
657.049	344.31
657.253	318.31
657.457	284.31
657.661	255.31
657.865	246.31
658.068	228.31
658.272	213.31
658.476	194.31
658.68	179.31
658.883	171.31
659.087	161.31
659.291	149.31
659.494	151.31
659.698	160.31
659.901	142.31
660.105	143.31
660.309	123.31
660.512	118.31
660.716	101.31
660.919	125.31
661.123	111.31
661.326	98.31
661.53	94.31
661.733	111.31
661.936	111.31
662.14	96.31
662.343	100.31
662.546	106.31
662.75	95.31
662.953	92.31
663.156	87.31
663.36	94.31
663.563	92.31
663.766	95.31
663.969	106.31
664.173	90.31
664.376	87.31
664.579	85.31
664.782	89.31
664.985	101.31
665.188	94.31
665.391	89.31
665.594	91.31
665.797	78.31
666	81.31
666.203	82.31
666.406	80.31
666.609	82.31
666.812	90.31
667.015	88.31
667.218	96.31
667.421	89.31
667.624	81.31
667.827	82.31
668.03	75.31
668.232	84.31
668.435	96.31
668.638	103.31
668.841	103.31
669.043	90.31
669.246	95.31
669.449	93.31
669.651	93.31
669.854	85.31
670.057	79.31
670.259	95.31
670.462	92.31
670.665	88.31
670.867	95.31
671.07	105.31
671.272	80.31
671.475	89.31
671.677	87.31
671.88	92.31
672.082	81.31
672.284	85.31
672.487	79.31
672.689	61.31
672.892	80.31
