Data from SnStandardFlinnAPT0064_QswitchEnergy10_LIBS07252019.E.O._I.C._HRD10591_15-28-44-973.txt Node
Date: Thu Jul 25 15:28:44 EDT 2019
User: cochatt
Spectrometer: HR+D1059
Trigger mode: 1
Integration Time (sec): 1.000000E-1
Scans to average: 1
Electric dark correction enabled: true
Nonlinearity correction enabled: false
Boxcar width: 0
XAxis mode: Wavelengths
Number of Pixels in Spectrum: 2048
>>>>>Begin Spectral Data<<<<<
223.165	-15.5
223.4	-15.5
223.635	-15.5
223.869	-26.5
224.104	-12.5
224.338	-18.5
224.573	-10.5
224.808	-14.5
225.042	1.5
225.277	-11.5
225.511	-5.5
225.746	12.5
225.98	-2.5
226.215	14.5
226.449	18.5
226.683	29.5
226.918	12.5
227.152	28.5
227.387	40.5
227.621	39.5
227.856	53.5
228.09	32.5
228.324	33.5
228.559	60.5
228.793	52.5
229.027	74.5
229.262	79.5
229.496	87.5
229.73	67.5
229.964	72.5
230.199	77.5
230.433	66.5
230.667	73.5
230.901	91.5
231.136	96.5
231.37	95.5
231.604	84.5
231.838	97.5
232.072	121.5
232.306	114.5
232.541	91.5
232.775	88.5
233.009	75.5
233.243	87.5
233.477	96.5
233.711	100.5
233.945	99.5
234.179	98.5
234.413	87.5
234.647	73.5
234.881	75.5
235.115	91.5
235.349	86.5
235.583	96.5
235.817	139.5
236.051	133.5
236.285	101.5
236.519	81.5
236.753	79.5
236.987	83.5
237.221	87.5
237.455	78.5
237.689	86.5
237.922	82.5
238.156	68.5
238.39	84.5
238.624	89.5
238.858	79.5
239.091	83.5
239.325	85.5
239.559	78.5
239.793	78.5
240.027	80.5
240.26	86.5
240.494	71.5
240.728	90.5
240.961	106.5
241.195	120.5
241.429	91.5
241.662	87.5
241.896	92.5
242.13	98.5
242.363	134.5
242.597	171.5
242.83	135.5
243.064	139.5
243.298	171.5
243.531	165.5
243.765	94.5
243.998	81.5
244.232	72.5
244.465	79.5
244.699	90.5
244.932	84.5
245.166	71.5
245.399	75.5
245.633	67.5
245.866	93.5
246.099	88.5
246.333	84.5
246.566	76.5
246.8	81.5
247.033	81.5
247.266	82.5
247.5	84.5
247.733	81.5
247.966	92.5
248.2	96.5
248.433	109.5
248.666	134.5
248.899	125.5
249.133	101.5
249.366	102.5
249.599	118.5
249.832	131.5
250.066	139.5
250.299	84.5
250.532	81.5
250.765	90.5
250.998	92.5
251.231	76.5
251.465	76.5
251.698	90.5
251.931	99.5
252.164	81.5
252.397	96.5
252.63	100.5
252.863	108.5
253.096	85.5
253.329	85.5
253.562	89.5
253.795	92.5
254.028	101.5
254.261	82.5
254.494	101.5
254.727	124.5
254.96	153.5
255.193	118.5
255.426	105.5
255.659	87.5
255.892	93.5
256.124	106.5
256.357	100.5
256.59	98.5
256.823	91.5
257.056	111.5
257.289	149.5
257.521	183.5
257.754	131.5
257.987	104.5
258.22	97.5
258.452	90.5
258.685	82.5
258.918	85.5
259.151	103.5
259.383	97.5
259.616	145.5
259.849	148.5
260.081	116.5
260.314	84.5
260.547	84.5
260.779	89.5
261.012	83.5
261.244	92.5
261.477	83.5
261.71	87.5
261.942	84.5
262.175	80.5
262.407	75.5
262.64	88.5
262.872	84.5
263.105	82.5
263.337	98.5
263.57	76.5
263.802	91.5
264.035	115.5
264.267	97.5
264.499	99.5
264.732	95.5
264.964	83.5
265.197	98.5
265.429	92.5
265.661	92.5
265.894	112.5
266.126	136.5
266.358	169.5
266.591	150.5
266.823	102.5
267.055	91.5
267.287	95.5
267.52	90.5
267.752	79.5
267.984	97.5
268.216	83.5
268.448	96.5
268.681	81.5
268.913	86.5
269.145	95.5
269.377	95.5
269.609	92.5
269.841	104.5
270.073	105.5
270.306	127.5
270.538	209.5
270.77	340.5
271.002	396.5
271.234	215.5
271.466	113.5
271.698	88.5
271.93	82.5
272.162	96.5
272.394	83.5
272.626	85.5
272.858	101.5
273.09	86.5
273.322	95.5
273.553	85.5
273.785	79.5
274.017	96.5
274.249	94.5
274.481	79.5
274.713	87.5
274.945	83.5
275.176	90.5
275.408	91.5
275.64	82.5
275.872	96.5
276.104	91.5
276.335	104.5
276.567	107.5
276.799	105.5
277.031	102.5
277.262	103.5
277.494	108.5
277.726	138.5
277.957	189.5
278.189	247.5
278.421	235.5
278.652	210.5
278.884	190.5
279.115	151.5
279.347	112.5
279.579	91.5
279.81	103.5
280.042	93.5
280.273	110.5
280.505	104.5
280.736	121.5
280.968	135.5
281.199	180.5
281.431	282.5
281.662	288.5
281.894	155.5
282.125	115.5
282.356	107.5
282.588	117.5
282.819	119.5
283.051	114.5
283.282	139.5
283.513	204.5
283.745	332.5
283.976	586.5
284.207	819.5
284.439	633.5
284.67	299.5
284.901	284.5
285.132	372.5
285.364	413.5
285.595	245.5
285.826	178.5
286.057	269.5
286.288	427.5
286.52	650.5
286.751	521.5
286.982	204.5
287.213	125.5
287.444	106.5
287.675	109.5
287.906	100.5
288.138	93.5
288.369	100.5
288.6	107.5
288.831	97.5
289.062	117.5
289.293	101.5
289.524	99.5
289.755	108.5
289.986	111.5
290.217	108.5
290.448	107.5
290.679	111.5
290.91	133.5
291.141	179.5
291.371	267.5
291.602	335.5
291.833	223.5
292.064	119.5
292.295	106.5
292.526	105.5
292.757	86.5
292.987	104.5
293.218	107.5
293.449	99.5
293.68	101.5
293.91	99.5
294.141	91.5
294.372	83.5
294.603	91.5
294.833	99.5
295.064	98.5
295.295	83.5
295.525	90.5
295.756	100.5
295.987	102.5
296.217	96.5
296.448	97.5
296.679	92.5
296.909	91.5
297.14	118.5
297.37	103.5
297.601	100.5
297.831	99.5
298.062	114.5
298.292	103.5
298.523	114.5
298.753	115.5
298.984	105.5
299.214	113.5
299.445	105.5
299.675	115.5
299.905	124.5
300.136	140.5
300.366	175.5
300.597	299.5
300.827	491.5
301.057	756.5
301.288	663.5
301.518	269.5
301.748	156.5
301.979	143.5
302.209	138.5
302.439	141.5
302.669	164.5
302.9	279.5
303.13	566.5
303.36	970.5
303.59	1328.5
303.82	895.5
304.051	312.5
304.281	158.5
304.511	133.5
304.741	131.5
304.971	124.5
305.201	126.5
305.431	107.5
305.661	113.5
305.891	98.5
306.121	100.5
306.352	120.5
306.582	121.5
306.812	111.5
307.042	125.5
307.272	114.5
307.502	113.5
307.731	120.5
307.961	97.5
308.191	113.5
308.421	101.5
308.651	106.5
308.881	103.5
309.111	116.5
309.341	111.5
309.571	115.5
309.8	96.5
310.03	103.5
310.26	103.5
310.49	108.5
310.72	119.5
310.949	114.5
311.179	112.5
311.409	107.5
311.639	119.5
311.868	105.5
312.098	133.5
312.328	119.5
312.557	109.5
312.787	121.5
313.017	121.5
313.246	117.5
313.476	124.5
313.706	138.5
313.935	160.5
314.165	217.5
314.394	276.5
314.624	185.5
314.853	158.5
315.083	143.5
315.312	141.5
315.542	140.5
315.771	148.5
316.001	151.5
316.23	144.5
316.46	163.5
316.689	186.5
316.919	273.5
317.148	527.5
317.377	1017.5
317.607	1609.5
317.836	1463.5
318.065	567.5
318.295	249.5
318.524	160.5
318.753	139.5
318.983	139.5
319.212	137.5
319.441	137.5
319.67	132.5
319.9	127.5
320.129	135.5
320.358	139.5
320.587	119.5
320.816	126.5
321.046	128.5
321.275	140.5
321.504	146.5
321.733	161.5
321.962	171.5
322.191	166.5
322.42	153.5
322.649	143.5
322.878	135.5
323.108	111.5
323.337	147.5
323.566	136.5
323.795	140.5
324.024	149.5
324.253	157.5
324.482	188.5
324.71	260.5
324.939	312.5
325.168	268.5
325.397	204.5
325.626	299.5
325.855	529.5
326.084	1039.5
326.313	1716.5
326.542	1681.5
326.77	662.5
326.999	297.5
327.228	241.5
327.457	276.5
327.686	260.5
327.914	177.5
328.143	156.5
328.372	133.5
328.6	138.5
328.829	153.5
329.058	127.5
329.287	124.5
329.515	127.5
329.744	115.5
329.972	111.5
330.201	134.5
330.43	119.5
330.658	124.5
330.887	113.5
331.115	130.5
331.344	115.5
331.572	125.5
331.801	117.5
332.03	124.5
332.258	151.5
332.486	205.5
332.715	331.5
332.943	555.5
333.172	832.5
333.4	679.5
333.629	275.5
333.857	161.5
334.085	125.5
334.314	128.5
334.542	126.5
334.771	133.5
334.999	116.5
335.227	145.5
335.455	127.5
335.684	131.5
335.912	138.5
336.14	116.5
336.369	118.5
336.597	123.5
336.825	109.5
337.053	129.5
337.281	126.5
337.51	111.5
337.738	125.5
337.966	107.5
338.194	134.5
338.422	123.5
338.65	121.5
338.878	119.5
339.106	138.5
339.334	140.5
339.562	124.5
339.79	136.5
340.018	108.5
340.246	105.5
340.474	115.5
340.702	123.5
340.93	136.5
341.158	123.5
341.386	117.5
341.614	131.5
341.842	129.5
342.07	120.5
342.298	127.5
342.526	129.5
342.754	120.5
342.981	127.5
343.209	102.5
343.437	135.5
343.665	109.5
343.893	117.5
344.12	113.5
344.348	119.5
344.576	123.5
344.804	128.5
345.031	131.5
345.259	129.5
345.487	120.5
345.714	111.5
345.942	119.5
346.17	124.5
346.397	114.5
346.625	99.5
346.853	95.5
347.08	98.5
347.308	117.5
347.535	126.5
347.763	113.5
347.99	120.5
348.218	115.5
348.445	118.5
348.673	134.5
348.9	124.5
349.128	125.5
349.355	139.5
349.583	127.5
349.81	132.5
350.037	123.5
350.265	121.5
350.492	108.5
350.72	117.5
350.947	131.5
351.174	105.5
351.402	129.5
351.629	129.5
351.856	128.5
352.083	132.5
352.311	123.5
352.538	125.5
352.765	109.5
352.992	121.5
353.22	120.5
353.447	121.5
353.674	111.5
353.901	104.5
354.128	123.5
354.355	111.5
354.583	120.5
354.81	106.5
355.037	121.5
355.264	105.5
355.491	108.5
355.718	112.5
355.945	101.5
356.172	121.5
356.399	111.5
356.626	101.5
356.853	123.5
357.08	99.5
357.307	116.5
357.534	117.5
357.761	104.5
357.988	108.5
358.215	98.5
358.441	117.5
358.668	113.5
358.895	127.5
359.122	128.5
359.349	129.5
359.576	130.5
359.802	147.5
360.029	128.5
360.256	129.5
360.483	120.5
360.709	128.5
360.936	137.5
361.163	113.5
361.39	104.5
361.616	102.5
361.843	123.5
362.07	125.5
362.296	116.5
362.523	105.5
362.749	105.5
362.976	132.5
363.203	125.5
363.429	117.5
363.656	120.5
363.882	114.5
364.109	118.5
364.335	129.5
364.562	113.5
364.788	120.5
365.015	121.5
365.241	157.5
365.468	228.5
365.694	295.5
365.92	238.5
366.147	135.5
366.373	126.5
366.599	98.5
366.826	86.5
367.052	100.5
367.278	111.5
367.505	109.5
367.731	112.5
367.957	111.5
368.184	114.5
368.41	132.5
368.636	124.5
368.862	117.5
369.089	105.5
369.315	116.5
369.541	112.5
369.767	117.5
369.993	135.5
370.219	104.5
370.445	107.5
370.672	119.5
370.898	123.5
371.124	109.5
371.35	99.5
371.576	108.5
371.802	114.5
372.028	119.5
372.254	129.5
372.48	112.5
372.706	126.5
372.932	138.5
373.158	120.5
373.384	121.5
373.61	138.5
373.835	135.5
374.061	125.5
374.287	108.5
374.513	125.5
374.739	129.5
374.965	109.5
375.191	115.5
375.416	107.5
375.642	108.5
375.868	113.5
376.094	112.5
376.319	120.5
376.545	111.5
376.771	115.5
376.997	102.5
377.222	111.5
377.448	121.5
377.674	115.5
377.899	113.5
378.125	122.5
378.35	119.5
378.576	108.5
378.802	123.5
379.027	131.5
379.253	152.5
379.478	187.5
379.704	326.5
379.929	858.5
380.155	1725.5
380.38	1773.5
380.606	575.5
380.831	215.5
381.057	154.5
381.282	111.5
381.507	127.5
381.733	113.5
381.958	124.5
382.184	108.5
382.409	127.5
382.634	108.5
382.86	98.5
383.085	105.5
383.31	111.5
383.535	117.5
383.761	117.5
383.986	119.5
384.211	125.5
384.436	111.5
384.662	100.5
384.887	120.5
385.112	106.5
385.337	103.5
385.562	120.5
385.787	102.5
386.013	118.5
386.238	122.5
386.463	125.5
386.688	112.5
386.913	104.5
387.138	102.5
387.363	111.5
387.588	113.5
387.813	120.5
388.038	116.5
388.263	126.5
388.488	113.5
388.713	105.5
388.938	86.5
389.163	101.5
389.387	99.5
389.612	108.5
389.837	117.5
390.062	115.5
390.287	123.5
390.512	97.5
390.736	94.5
390.961	116.5
391.186	102.5
391.411	99.5
391.636	104.5
391.86	111.5
392.085	103.5
392.31	111.5
392.534	120.5
392.759	106.5
392.984	118.5
393.208	134.5
393.433	156.5
393.658	167.5
393.882	98.5
394.107	99.5
394.331	95.5
394.556	98.5
394.78	115.5
395.005	91.5
395.229	96.5
395.454	105.5
395.678	111.5
395.903	113.5
396.127	104.5
396.352	98.5
396.576	116.5
396.801	131.5
397.025	141.5
397.249	124.5
397.474	111.5
397.698	105.5
397.922	97.5
398.147	108.5
398.371	107.5
398.595	115.5
398.82	110.5
399.044	95.5
399.268	107.5
399.492	105.5
399.717	101.5
399.941	111.5
400.165	99.5
400.389	92.5
400.613	94.5
400.837	96.5
401.062	102.5
401.286	103.5
401.51	111.5
401.734	120.5
401.958	99.5
402.182	105.5
402.406	80.5
402.63	99.5
402.854	115.5
403.078	89.5
403.302	103.5
403.526	103.5
403.75	98.5
403.974	95.5
404.198	99.5
404.422	83.5
404.645	97.5
404.869	113.5
405.093	91.5
405.317	94.5
405.541	136.5
405.765	151.5
405.988	170.5
406.212	141.5
406.436	102.5
406.66	98.5
406.883	96.5
407.107	90.5
407.331	118.5
407.555	108.5
407.778	105.5
408.002	92.5
408.226	97.5
408.449	108.5
408.673	103.5
408.896	109.5
409.12	88.5
409.344	103.5
409.567	107.5
409.791	100.5
410.014	108.5
410.238	113.5
410.461	127.5
410.685	98.5
410.908	95.5
411.132	102.5
411.355	101.5
411.578	105.5
411.802	103.5
412.025	92.5
412.249	103.5
412.472	96.5
412.695	101.5
412.919	101.5
413.142	112.5
413.365	96.5
413.589	90.5
413.812	106.5
414.035	121.5
414.258	101.5
414.482	98.5
414.705	92.5
414.928	128.5
415.151	107.5
415.374	101.5
415.597	97.5
415.821	101.5
416.044	116.5
416.267	98.5
416.49	106.5
416.713	111.5
416.936	90.5
417.159	95.5
417.382	99.5
417.605	102.5
417.828	108.5
418.051	101.5
418.274	98.5
418.497	108.5
418.72	107.5
418.943	108.5
419.166	107.5
419.389	105.5
419.611	115.5
419.834	88.5
420.057	100.5
420.28	100.5
420.503	112.5
420.726	100.5
420.948	90.5
421.171	103.5
421.394	100.5
421.617	108.5
421.839	96.5
422.062	113.5
422.285	106.5
422.507	116.5
422.73	160.5
422.953	149.5
423.175	119.5
423.398	103.5
423.621	94.5
423.843	90.5
424.066	89.5
424.288	125.5
424.511	100.5
424.733	89.5
424.956	100.5
425.178	91.5
425.401	95.5
425.623	98.5
425.846	98.5
426.068	104.5
426.291	104.5
426.513	102.5
426.735	100.5
426.958	116.5
427.18	100.5
427.402	111.5
427.625	92.5
427.847	98.5
428.069	95.5
428.292	99.5
428.514	106.5
428.736	113.5
428.958	97.5
429.181	102.5
429.403	101.5
429.625	120.5
429.847	99.5
430.069	115.5
430.292	122.5
430.514	118.5
430.736	115.5
430.958	101.5
431.18	112.5
431.402	94.5
431.624	101.5
431.846	100.5
432.068	86.5
432.29	89.5
432.512	99.5
432.734	96.5
432.956	97.5
433.178	103.5
433.4	97.5
433.622	100.5
433.844	95.5
434.066	96.5
434.287	96.5
434.509	106.5
434.731	96.5
434.953	94.5
435.175	102.5
435.397	109.5
435.618	99.5
435.84	110.5
436.062	105.5
436.284	88.5
436.505	90.5
436.727	101.5
436.949	91.5
437.17	89.5
437.392	89.5
437.614	104.5
437.835	109.5
438.057	83.5
438.278	91.5
438.5	97.5
438.721	104.5
438.943	105.5
439.165	127.5
439.386	115.5
439.608	97.5
439.829	120.5
440.05	111.5
440.272	114.5
440.493	108.5
440.715	98.5
440.936	91.5
441.158	94.5
441.379	100.5
441.6	93.5
441.822	99.5
442.043	113.5
442.264	137.5
442.486	113.5
442.707	103.5
442.928	97.5
443.149	109.5
443.371	96.5
443.592	102.5
443.813	107.5
444.034	99.5
444.255	97.5
444.476	102.5
444.698	98.5
444.919	110.5
445.14	174.5
445.361	137.5
445.582	96.5
445.803	95.5
446.024	100.5
446.245	99.5
446.466	127.5
446.687	105.5
446.908	117.5
447.129	106.5
447.35	92.5
447.571	86.5
447.792	94.5
448.013	101.5
448.234	99.5
448.455	102.5
448.675	97.5
448.896	115.5
449.117	105.5
449.338	129.5
449.559	152.5
449.779	126.5
450	102.5
450.221	112.5
450.442	111.5
450.662	117.5
450.883	116.5
451.104	122.5
451.324	134.5
451.545	123.5
451.766	128.5
451.986	152.5
452.207	221.5
452.428	627.5
452.648	1563.5
452.869	863.5
453.089	210.5
453.31	131.5
453.53	125.5
453.751	152.5
453.971	165.5
454.192	146.5
454.412	103.5
454.633	111.5
454.853	102.5
455.073	95.5
455.294	93.5
455.514	107.5
455.734	109.5
455.955	105.5
456.175	105.5
456.395	98.5
456.616	104.5
456.836	96.5
457.056	99.5
457.276	99.5
457.497	131.5
457.717	127.5
457.937	104.5
458.157	89.5
458.377	97.5
458.598	76.5
458.818	76.5
459.038	95.5
459.258	88.5
459.478	87.5
459.698	90.5
459.918	89.5
460.138	102.5
460.358	101.5
460.578	104.5
460.798	91.5
461.018	99.5
461.238	86.5
461.458	93.5
461.678	94.5
461.898	101.5
462.118	103.5
462.338	101.5
462.558	113.5
462.777	105.5
462.997	104.5
463.217	117.5
463.437	131.5
463.657	181.5
463.876	186.5
464.096	118.5
464.316	92.5
464.536	99.5
464.755	111.5
464.975	106.5
465.195	92.5
465.414	92.5
465.634	99.5
465.854	98.5
466.073	96.5
466.293	92.5
466.512	97.5
466.732	115.5
466.951	118.5
467.171	159.5
467.391	144.5
467.61	111.5
467.829	112.5
468.049	106.5
468.268	102.5
468.488	100.5
468.707	98.5
468.927	119.5
469.146	98.5
469.365	109.5
469.585	103.5
469.804	104.5
470.023	91.5
470.243	92.5
470.462	106.5
470.681	109.5
470.901	124.5
471.12	198.5
471.339	213.5
471.558	138.5
471.777	119.5
471.997	114.5
472.216	100.5
472.435	103.5
472.654	99.5
472.873	91.5
473.092	97.5
473.311	107.5
473.53	99.5
473.749	94.5
473.968	100.5
474.187	94.5
474.406	98.5
474.625	96.5
474.844	101.5
475.063	96.5
475.282	99.5
475.501	89.5
475.72	103.5
475.939	108.5
476.158	98.5
476.377	128.5
476.596	119.5
476.814	106.5
477.033	115.5
477.252	100.5
477.471	97.5
477.69	96.5
477.908	88.5
478.127	106.5
478.346	100.5
478.564	108.5
478.783	95.5
479.002	109.5
479.22	113.5
479.439	97.5
479.658	90.5
479.876	101.5
480.095	102.5
480.313	90.5
480.532	104.5
480.751	112.5
480.969	111.5
481.188	106.5
481.406	100.5
481.624	100.5
481.843	120.5
482.061	119.5
482.28	113.5
482.498	109.5
482.717	106.5
482.935	104.5
483.153	113.5
483.372	119.5
483.59	101.5
483.808	105.5
484.027	104.5
484.245	142.5
484.463	175.5
484.681	239.5
484.9	161.5
485.118	109.5
485.336	105.5
485.554	118.5
485.772	126.5
485.99	174.5
486.209	248.5
486.427	168.5
486.645	113.5
486.863	106.5
487.081	114.5
487.299	96.5
487.517	120.5
487.735	97.5
487.953	94.5
488.171	112.5
488.389	107.5
488.607	113.5
488.825	97.5
489.043	108.5
489.261	96.5
489.479	101.5
489.696	105.5
489.914	101.5
490.132	98.5
490.35	115.5
490.568	108.5
490.786	118.5
491.003	100.5
491.221	106.5
491.439	126.5
491.657	97.5
491.874	115.5
492.092	123.5
492.31	115.5
492.527	117.5
492.745	103.5
492.963	108.5
493.18	100.5
493.398	103.5
493.615	109.5
493.833	108.5
494.05	94.5
494.268	95.5
494.485	108.5
494.703	94.5
494.92	105.5
495.138	106.5
495.355	119.5
495.573	115.5
495.79	109.5
496.008	125.5
496.225	113.5
496.442	112.5
496.66	135.5
496.877	166.5
497.094	162.5
497.312	112.5
497.529	119.5
497.746	111.5
497.963	106.5
498.181	108.5
498.398	128.5
498.615	107.5
498.832	109.5
499.049	99.5
499.267	137.5
499.484	169.5
499.701	109.5
499.918	114.5
500.135	103.5
500.352	121.5
500.569	109.5
500.786	102.5
501.003	116.5
501.22	111.5
501.437	93.5
501.654	96.5
501.871	91.5
502.088	110.5
502.305	111.5
502.522	106.5
502.739	103.5
502.956	88.5
503.172	99.5
503.389	93.5
503.606	114.5
503.823	88.5
504.04	95.5
504.256	112.5
504.473	98.5
504.69	100.5
504.907	109.5
505.123	123.5
505.34	101.5
505.557	104.5
505.773	97.5
505.99	92.5
506.207	106.5
506.423	107.5
506.64	111.5
506.856	97.5
507.073	107.5
507.289	94.5
507.506	106.5
507.722	105.5
507.939	109.5
508.155	93.5
508.372	104.5
508.588	94.5
508.805	108.5
509.021	92.5
509.238	112.5
509.454	152.5
509.67	161.5
509.887	112.5
510.103	101.5
510.319	93.5
510.536	100.5
510.752	130.5
510.968	106.5
511.184	102.5
511.401	102.5
511.617	91.5
511.833	118.5
512.049	107.5
512.265	101.5
512.481	102.5
512.698	102.5
512.914	106.5
513.13	112.5
513.346	103.5
513.562	107.5
513.778	95.5
513.994	113.5
514.21	125.5
514.426	139.5
514.642	195.5
514.858	128.5
515.074	108.5
515.29	105.5
515.506	117.5
515.721	121.5
515.937	99.5
516.153	92.5
516.369	103.5
516.585	106.5
516.801	89.5
517.016	103.5
517.232	98.5
517.448	105.5
517.664	115.5
517.879	107.5
518.095	109.5
518.311	112.5
518.527	90.5
518.742	100.5
518.958	129.5
519.173	165.5
519.389	124.5
519.605	108.5
519.82	102.5
520.036	90.5
520.251	92.5
520.467	104.5
520.682	104.5
520.898	104.5
521.113	99.5
521.329	99.5
521.544	94.5
521.76	99.5
521.975	113.5
522.19	113.5
522.406	99.5
522.621	86.5
522.836	105.5
523.052	121.5
523.267	99.5
523.482	110.5
523.698	113.5
523.913	84.5
524.128	97.5
524.343	92.5
524.559	97.5
524.774	99.5
524.989	91.5
525.204	98.5
525.419	94.5
525.634	94.5
525.849	93.5
526.064	106.5
526.28	99.5
526.495	97.5
526.71	97.5
526.925	97.5
527.14	97.5
527.355	90.5
527.57	95.5
527.785	99.5
527.999	91.5
528.214	88.5
528.429	105.5
528.644	108.5
528.859	111.5
529.074	98.5
529.289	103.5
529.503	114.5
529.718	100.5
529.933	106.5
530.148	92.5
530.363	103.5
530.577	107.5
530.792	100.5
531.007	101.5
531.221	106.5
531.436	102.5
531.651	105.5
531.865	100.5
532.08	104.5
532.295	120.5
532.509	155.5
532.724	127.5
532.938	111.5
533.153	104.5
533.367	101.5
533.582	111.5
533.796	90.5
534.011	100.5
534.225	107.5
534.44	102.5
534.654	100.5
534.868	82.5
535.083	103.5
535.297	108.5
535.511	94.5
535.726	92.5
535.94	92.5
536.154	91.5
536.369	85.5
536.583	86.5
536.797	96.5
537.011	106.5
537.225	87.5
537.44	97.5
537.654	106.5
537.868	101.5
538.082	99.5
538.296	96.5
538.51	97.5
538.724	99.5
538.938	100.5
539.153	116.5
539.367	115.5
539.581	115.5
539.795	96.5
540.009	83.5
540.222	101.5
540.436	112.5
540.65	93.5
540.864	115.5
541.078	122.5
541.292	131.5
541.506	214.5
541.72	210.5
541.934	128.5
542.147	106.5
542.361	122.5
542.575	112.5
542.789	107.5
543.002	104.5
543.216	107.5
543.43	95.5
543.644	113.5
543.857	102.5
544.071	111.5
544.285	119.5
544.498	113.5
544.712	100.5
544.925	117.5
545.139	101.5
545.352	112.5
545.566	119.5
545.779	101.5
545.993	92.5
546.206	107.5
546.42	111.5
546.633	107.5
546.847	107.5
547.06	108.5
547.274	99.5
547.487	109.5
547.7	101.5
547.914	93.5
548.127	119.5
548.34	99.5
548.554	108.5
548.767	91.5
548.98	110.5
549.193	97.5
549.407	115.5
549.62	99.5
549.833	98.5
550.046	99.5
550.259	101.5
550.473	102.5
550.686	118.5
550.899	103.5
551.112	101.5
551.325	105.5
551.538	92.5
551.751	100.5
551.964	90.5
552.177	102.5
552.39	104.5
552.603	109.5
552.816	95.5
553.029	100.5
553.242	99.5
553.455	108.5
553.667	103.5
553.88	105.5
554.093	93.5
554.306	90.5
554.519	128.5
554.732	113.5
554.944	113.5
555.157	98.5
555.37	99.5
555.583	122.5
555.795	118.5
556.008	106.5
556.221	156.5
556.433	134.5
556.646	113.5
556.859	111.5
557.071	117.5
557.284	134.5
557.496	121.5
557.709	101.5
557.921	111.5
558.134	99.5
558.346	103.5
558.559	105.5
558.771	102.5
558.984	109.5
559.196	109.5
559.409	99.5
559.621	109.5
559.833	115.5
560.046	91.5
560.258	100.5
560.47	102.5
560.683	95.5
560.895	90.5
561.107	103.5
561.32	105.5
561.532	94.5
561.744	99.5
561.956	92.5
562.168	102.5
562.381	114.5
562.593	117.5
562.805	135.5
563.017	193.5
563.229	298.5
563.441	693.5
563.653	218.5
563.865	120.5
564.077	107.5
564.289	105.5
564.501	116.5
564.713	94.5
564.925	87.5
565.137	117.5
565.349	90.5
565.561	102.5
565.773	84.5
565.985	84.5
566.197	96.5
566.408	96.5
566.62	96.5
566.832	105.5
567.044	105.5
567.255	100.5
567.467	114.5
567.679	100.5
567.891	127.5
568.102	183.5
568.314	252.5
568.526	175.5
568.737	127.5
568.949	115.5
569.161	115.5
569.372	113.5
569.584	101.5
569.795	107.5
570.007	92.5
570.218	119.5
570.43	155.5
570.641	115.5
570.853	112.5
571.064	109.5
571.276	100.5
571.487	91.5
571.698	102.5
571.91	95.5
572.121	103.5
572.333	104.5
572.544	119.5
572.755	143.5
572.966	201.5
573.178	147.5
573.389	113.5
573.6	100.5
573.811	82.5
574.023	96.5
574.234	87.5
574.445	94.5
574.656	102.5
574.867	101.5
575.078	95.5
575.289	93.5
575.501	103.5
575.712	90.5
575.923	96.5
576.134	99.5
576.345	94.5
576.556	80.5
576.767	103.5
576.978	99.5
577.188	89.5
577.399	113.5
577.61	81.5
577.821	99.5
578.032	91.5
578.243	98.5
578.454	97.5
578.665	93.5
578.875	104.5
579.086	96.5
579.297	104.5
579.508	99.5
579.718	79.5
579.929	89.5
580.14	101.5
580.35	98.5
580.561	86.5
580.772	106.5
580.982	90.5
581.193	82.5
581.403	106.5
581.614	106.5
581.825	92.5
582.035	96.5
582.246	100.5
582.456	99.5
582.667	90.5
582.877	124.5
583.087	121.5
583.298	115.5
583.508	84.5
583.719	99.5
583.929	100.5
584.139	90.5
584.35	80.5
584.56	84.5
584.77	90.5
584.981	93.5
585.191	105.5
585.401	96.5
585.611	99.5
585.821	96.5
586.032	95.5
586.242	95.5
586.452	89.5
586.662	88.5
586.872	93.5
587.082	97.5
587.292	94.5
587.502	83.5
587.713	89.5
587.923	98.5
588.133	89.5
588.343	105.5
588.553	103.5
588.762	76.5
588.972	96.5
589.182	131.5
589.392	119.5
589.602	113.5
589.812	115.5
590.022	119.5
590.232	93.5
590.441	98.5
590.651	89.5
590.861	99.5
591.071	83.5
591.281	92.5
591.49	97.5
591.7	92.5
591.91	91.5
592.119	89.5
592.329	100.5
592.539	104.5
592.748	89.5
592.958	106.5
593.167	99.5
593.377	90.5
593.587	101.5
593.796	104.5
594.006	92.5
594.215	89.5
594.424	87.5
594.634	85.5
594.843	98.5
595.053	102.5
595.262	98.5
595.472	100.5
595.681	104.5
595.89	76.5
596.1	90.5
596.309	90.5
596.518	101.5
596.727	119.5
596.937	92.5
597.146	100.5
597.355	94.5
597.564	86.5
597.774	79.5
597.983	92.5
598.192	83.5
598.401	82.5
598.61	97.5
598.819	88.5
599.028	93.5
599.237	93.5
599.446	98.5
599.655	87.5
599.864	92.5
600.073	99.5
600.282	81.5
600.491	97.5
600.7	92.5
600.909	76.5
601.118	81.5
601.327	97.5
601.536	90.5
601.745	91.5
601.953	129.5
602.162	150.5
602.371	127.5
602.58	104.5
602.789	99.5
602.997	89.5
603.206	94.5
603.415	106.5
603.623	96.5
603.832	96.5
604.041	102.5
604.249	101.5
604.458	85.5
604.666	102.5
604.875	91.5
605.084	85.5
605.292	101.5
605.501	105.5
605.709	111.5
605.918	104.5
606.126	113.5
606.334	99.5
606.543	111.5
606.751	131.5
606.96	171.5
607.168	175.5
607.376	134.5
607.585	115.5
607.793	112.5
608.001	102.5
608.21	85.5
608.418	88.5
608.626	98.5
608.834	90.5
609.043	111.5
609.251	89.5
609.459	93.5
609.667	93.5
609.875	86.5
610.083	82.5
610.291	100.5
610.499	106.5
610.707	112.5
610.916	92.5
611.124	106.5
611.332	106.5
611.54	91.5
611.748	93.5
611.955	93.5
612.163	84.5
612.371	95.5
612.579	84.5
612.787	94.5
612.995	95.5
613.203	101.5
613.411	96.5
613.618	83.5
613.826	84.5
614.034	77.5
614.242	101.5
614.449	91.5
614.657	91.5
614.865	101.5
615.072	117.5
615.28	128.5
615.488	112.5
615.695	111.5
615.903	101.5
616.111	104.5
616.318	92.5
616.526	92.5
616.733	102.5
616.941	101.5
617.148	112.5
617.356	109.5
617.563	100.5
617.771	95.5
617.978	94.5
618.185	92.5
618.393	98.5
618.6	89.5
618.807	97.5
619.015	98.5
619.222	92.5
619.429	93.5
619.637	99.5
619.844	94.5
620.051	93.5
620.258	88.5
620.466	87.5
620.673	98.5
620.88	84.5
621.087	77.5
621.294	98.5
621.501	93.5
621.708	94.5
621.915	93.5
622.122	91.5
622.329	99.5
622.536	79.5
622.743	94.5
622.95	94.5
623.157	83.5
623.364	89.5
623.571	88.5
623.778	95.5
623.985	88.5
624.192	93.5
624.399	101.5
624.606	94.5
624.812	97.5
625.019	77.5
625.226	80.5
625.433	95.5
625.639	98.5
625.846	86.5
626.053	81.5
626.259	90.5
626.466	92.5
626.673	80.5
626.879	92.5
627.086	85.5
627.293	93.5
627.499	97.5
627.706	98.5
627.912	87.5
628.119	89.5
628.325	103.5
628.532	81.5
628.738	105.5
628.945	84.5
629.151	97.5
629.357	93.5
629.564	85.5
629.77	90.5
629.976	106.5
630.183	93.5
630.389	96.5
630.595	87.5
630.802	92.5
631.008	95.5
631.214	89.5
631.42	98.5
631.627	87.5
631.833	99.5
632.039	78.5
632.245	86.5
632.451	80.5
632.657	90.5
632.863	91.5
633.069	92.5
633.275	87.5
633.481	82.5
633.688	79.5
633.893	83.5
634.099	90.5
634.305	100.5
634.511	105.5
634.717	93.5
634.923	89.5
635.129	122.5
635.335	115.5
635.541	115.5
635.747	104.5
635.952	101.5
636.158	93.5
636.364	95.5
636.57	93.5
636.775	89.5
636.981	85.5
637.187	93.5
637.392	97.5
637.598	89.5
637.804	100.5
638.009	73.5
638.215	85.5
638.421	79.5
638.626	103.5
638.832	103.5
639.037	75.5
639.243	97.5
639.448	90.5
639.654	89.5
639.859	78.5
640.065	76.5
640.27	107.5
640.475	101.5
640.681	92.5
640.886	98.5
641.091	96.5
641.297	85.5
641.502	89.5
641.707	84.5
641.913	100.5
642.118	88.5
642.323	81.5
642.528	89.5
642.733	91.5
642.939	99.5
643.144	97.5
643.349	88.5
643.554	88.5
643.759	87.5
643.964	82.5
644.169	85.5
644.374	87.5
644.579	84.5
644.784	85.5
644.989	93.5
645.194	87.5
645.399	93.5
645.604	107.5
645.809	101.5
646.014	80.5
646.219	83.5
646.423	85.5
646.628	81.5
646.833	100.5
647.038	83.5
647.243	86.5
647.447	85.5
647.652	100.5
647.857	71.5
648.062	89.5
648.266	76.5
648.471	95.5
648.676	89.5
648.88	99.5
649.085	81.5
649.289	86.5
649.494	82.5
649.698	84.5
649.903	100.5
650.107	91.5
650.312	92.5
650.516	82.5
650.721	82.5
650.925	92.5
651.13	80.5
651.334	84.5
651.539	76.5
651.743	83.5
651.947	85.5
652.152	84.5
652.356	90.5
652.56	97.5
652.764	113.5
652.969	95.5
653.173	88.5
653.377	91.5
653.581	91.5
653.785	92.5
653.99	68.5
654.194	96.5
654.398	78.5
654.602	95.5
654.806	79.5
655.01	93.5
655.214	86.5
655.418	76.5
655.622	88.5
655.826	82.5
656.03	95.5
656.234	97.5
656.438	91.5
656.642	90.5
656.846	82.5
657.049	80.5
657.253	100.5
657.457	88.5
657.661	81.5
657.865	95.5
658.068	88.5
658.272	81.5
658.476	86.5
658.68	89.5
658.883	75.5
659.087	67.5
659.291	76.5
659.494	80.5
659.698	90.5
659.901	75.5
660.105	89.5
660.309	76.5
660.512	86.5
660.716	77.5
660.919	79.5
661.123	80.5
661.326	86.5
661.53	77.5
661.733	90.5
661.936	93.5
662.14	86.5
662.343	92.5
662.546	89.5
662.75	89.5
662.953	99.5
663.156	74.5
663.36	71.5
663.563	87.5
663.766	98.5
663.969	84.5
664.173	83.5
664.376	81.5
664.579	75.5
664.782	80.5
664.985	74.5
665.188	91.5
665.391	96.5
665.594	86.5
665.797	86.5
666	92.5
666.203	76.5
666.406	76.5
666.609	83.5
666.812	85.5
667.015	78.5
667.218	82.5
667.421	77.5
667.624	91.5
667.827	79.5
668.03	80.5
668.232	92.5
668.435	95.5
668.638	83.5
668.841	87.5
669.043	77.5
669.246	67.5
669.449	87.5
669.651	74.5
669.854	84.5
670.057	78.5
670.259	77.5
670.462	73.5
670.665	94.5
670.867	89.5
671.07	90.5
671.272	81.5
671.475	73.5
671.677	74.5
671.88	83.5
672.082	81.5
672.284	80.5
672.487	83.5
672.689	88.5
672.892	78.5
