Data from SnStandardFlinnAPT0064_LampEnergy10_LIBS07252019.E.O._I.C._HRD10591_15-20-02-493.txt Node
Date: Thu Jul 25 15:20:02 EDT 2019
User: cochatt
Spectrometer: HR+D1059
Trigger mode: 1
Integration Time (sec): 1.000000E-1
Scans to average: 1
Electric dark correction enabled: true
Nonlinearity correction enabled: false
Boxcar width: 0
XAxis mode: Wavelengths
Number of Pixels in Spectrum: 2048
>>>>>Begin Spectral Data<<<<<
223.165	-22.56
223.4	-22.56
223.635	-22.56
223.869	-10.56
224.104	-16.56
224.338	-15.56
224.573	-15.56
224.808	-4.56
225.042	-23.56
225.277	-10.56
225.511	1.44
225.746	8.44
225.98	3.44
226.215	12.44
226.449	23.44
226.683	24.44
226.918	20.44
227.152	25.44
227.387	36.44
227.621	49.44
227.856	47.44
228.09	36.44
228.324	49.44
228.559	62.44
228.793	134.44
229.027	310.44
229.262	350.44
229.496	326.44
229.73	293.44
229.964	296.44
230.199	309.44
230.433	306.44
230.667	328.44
230.901	346.44
231.136	343.44
231.37	354.44
231.604	411.44
231.838	467.44
232.072	549.44
232.306	596.44
232.541	489.44
232.775	439.44
233.009	403.44
233.243	451.44
233.477	470.44
233.711	541.44
233.945	624.44
234.179	521.44
234.413	459.44
234.647	453.44
234.881	488.44
235.115	547.44
235.349	659.44
235.583	824.44
235.817	1062.44
236.051	1026.44
236.285	693.44
236.519	538.44
236.753	517.44
236.987	511.44
237.221	532.44
237.455	531.44
237.689	472.44
237.922	477.44
238.156	475.44
238.39	490.44
238.624	485.44
238.858	476.44
239.091	497.44
239.325	489.44
239.559	498.44
239.793	503.44
240.027	525.44
240.26	556.44
240.494	581.44
240.728	600.44
240.961	608.44
241.195	670.44
241.429	687.44
241.662	736.44
241.896	839.44
242.13	1008.44
242.363	1289.44
242.597	1685.44
242.83	1619.44
243.064	1644.44
243.298	1899.44
243.531	1555.44
243.765	999.44
243.998	820.44
244.232	738.44
244.465	673.44
244.699	687.44
244.932	666.44
245.166	688.44
245.399	669.44
245.633	706.44
245.866	724.44
246.099	693.44
246.333	654.44
246.566	650.44
246.8	653.44
247.033	648.44
247.266	650.44
247.5	680.44
247.733	701.44
247.966	720.44
248.2	750.44
248.433	916.44
248.666	1031.44
248.899	1018.44
249.133	845.44
249.366	892.44
249.599	979.44
249.832	1126.44
250.066	1131.44
250.299	906.44
250.532	812.44
250.765	789.44
250.998	733.44
251.231	736.44
251.465	728.44
251.698	765.44
251.931	762.44
252.164	728.44
252.397	788.44
252.63	805.44
252.863	800.44
253.096	813.44
253.329	776.44
253.562	776.44
253.795	773.44
254.028	813.44
254.261	842.44
254.494	904.44
254.727	1037.44
254.96	1293.44
255.193	1274.44
255.426	1002.44
255.659	893.44
255.892	868.44
256.124	865.44
256.357	891.44
256.59	949.44
256.823	1014.44
257.056	1180.44
257.289	1413.44
257.521	1574.44
257.754	1252.44
257.987	1031.44
258.22	949.44
258.452	967.44
258.685	956.44
258.918	960.44
259.151	1033.44
259.383	1109.44
259.616	1259.44
259.849	1305.44
260.081	1094.44
260.314	1019.44
260.547	960.44
260.779	963.44
261.012	939.44
261.244	995.44
261.477	980.44
261.71	1000.44
261.942	982.44
262.175	1036.44
262.407	1043.44
262.64	1092.44
262.872	1109.44
263.105	1151.44
263.337	1221.44
263.57	1273.44
263.802	1293.44
264.035	1263.44
264.267	1354.44
264.499	1321.44
264.732	1437.44
264.964	1443.44
265.197	1418.44
265.429	1423.44
265.661	1484.44
265.894	1580.44
266.126	1768.44
266.358	1989.44
266.591	1945.44
266.823	1662.44
267.055	1453.44
267.287	1391.44
267.52	1359.44
267.752	1293.44
267.984	1281.44
268.216	1233.44
268.448	1274.44
268.681	1268.44
268.913	1234.44
269.145	1247.44
269.377	1249.44
269.609	1258.44
269.841	1292.44
270.073	1383.44
270.306	1665.44
270.538	2251.44
270.77	3367.44
271.002	4136.44
271.234	2948.44
271.466	1964.44
271.698	1587.44
271.93	1435.44
272.162	1355.44
272.394	1307.44
272.626	1299.44
272.858	1252.44
273.09	1270.44
273.322	1265.44
273.553	1237.44
273.785	1219.44
274.017	1217.44
274.249	1237.44
274.481	1234.44
274.713	1236.44
274.945	1253.44
275.176	1224.44
275.408	1240.44
275.64	1268.44
275.872	1301.44
276.104	1296.44
276.335	1296.44
276.567	1306.44
276.799	1289.44
277.031	1346.44
277.262	1379.44
277.494	1411.44
277.726	1619.44
277.957	1954.44
278.189	2241.44
278.421	2053.44
278.652	1840.44
278.884	1723.44
279.115	1520.44
279.347	1484.44
279.579	1448.44
279.81	1419.44
280.042	1436.44
280.273	1441.44
280.505	1495.44
280.736	1531.44
280.968	1611.44
281.199	1846.44
281.431	2098.44
281.662	2173.44
281.894	1856.44
282.125	1698.44
282.356	1672.44
282.588	1711.44
282.819	1760.44
283.051	1854.44
283.282	2078.44
283.513	2601.44
283.745	3750.44
283.976	5917.44
284.207	8339.44
284.439	7683.44
284.67	4824.44
284.901	3942.44
285.132	3988.44
285.364	3733.44
285.595	2865.44
285.826	2471.44
286.057	3001.44
286.288	4035.44
286.52	5456.44
286.751	5092.44
286.982	3192.44
287.213	2427.44
287.444	2101.44
287.675	1940.44
287.906	1840.44
288.138	1807.44
288.369	1723.44
288.6	1725.44
288.831	1705.44
289.062	1721.44
289.293	1720.44
289.524	1719.44
289.755	1763.44
289.986	1748.44
290.217	1748.44
290.448	1730.44
290.679	1749.44
290.91	1836.44
291.141	1947.44
291.371	2115.44
291.602	2165.44
291.833	2034.44
292.064	1790.44
292.295	1693.44
292.526	1677.44
292.757	1648.44
292.987	1633.44
293.218	1591.44
293.449	1617.44
293.68	1629.44
293.91	1599.44
294.141	1659.44
294.372	1578.44
294.603	1593.44
294.833	1587.44
295.064	1590.44
295.295	1582.44
295.525	1558.44
295.756	1601.44
295.987	1583.44
296.217	1555.44
296.448	1591.44
296.679	1596.44
296.909	1593.44
297.14	1636.44
297.37	1657.44
297.601	1655.44
297.831	1660.44
298.062	1619.44
298.292	1651.44
298.523	1684.44
298.753	1702.44
298.984	1706.44
299.214	1765.44
299.445	1752.44
299.675	1828.44
299.905	1867.44
300.136	1976.44
300.366	2229.44
300.597	2855.44
300.827	3983.44
301.057	5505.44
301.288	5500.44
301.518	3587.44
301.748	2660.44
301.979	2458.44
302.209	2389.44
302.439	2360.44
302.669	2518.44
302.9	3101.44
303.13	4377.44
303.36	6443.44
303.59	8650.44
303.82	7518.44
304.051	4531.44
304.281	3196.44
304.511	2684.44
304.741	2423.44
304.971	2252.44
305.201	2175.44
305.431	2074.44
305.661	2045.44
305.891	1964.44
306.121	1927.44
306.352	1924.44
306.582	1877.44
306.812	1888.44
307.042	1871.44
307.272	1873.44
307.502	1831.44
307.731	1853.44
307.961	1839.44
308.191	1823.44
308.421	1833.44
308.651	1849.44
308.881	1801.44
309.111	1868.44
309.341	1851.44
309.571	1860.44
309.8	1895.44
310.03	1850.44
310.26	1910.44
310.49	1880.44
310.72	1908.44
310.949	1839.44
311.179	1956.44
311.409	1949.44
311.639	1975.44
311.868	1961.44
312.098	1985.44
312.328	1985.44
312.557	2000.44
312.787	2008.44
313.017	2073.44
313.246	2038.44
313.476	2035.44
313.706	2128.44
313.935	2255.44
314.165	2447.44
314.394	2576.44
314.624	2396.44
314.853	2171.44
315.083	2195.44
315.312	2234.44
315.542	2173.44
315.771	2257.44
316.001	2315.44
316.23	2372.44
316.46	2492.44
316.689	2759.44
316.919	3362.44
317.148	4806.44
317.377	7401.44
317.607	10955.44
317.836	11282.44
318.065	6929.44
318.295	4492.44
318.524	3606.44
318.753	3069.44
318.983	2843.44
319.212	2622.44
319.441	2575.44
319.67	2525.44
319.9	2430.44
320.129	2419.44
320.358	2397.44
320.587	2420.44
320.816	2388.44
321.046	2381.44
321.275	2377.44
321.504	2463.44
321.733	2479.44
321.962	2536.44
322.191	2595.44
322.42	2572.44
322.649	2568.44
322.878	2517.44
323.108	2529.44
323.337	2603.44
323.566	2631.44
323.795	2683.44
324.024	2697.44
324.253	2773.44
324.482	2893.44
324.71	3101.44
324.939	3339.44
325.168	3431.44
325.397	3487.44
325.626	4208.44
325.855	5884.44
326.084	9138.44
326.313	13163.44
326.542	13843.44
326.77	9576.44
326.999	6321.44
327.228	5155.44
327.457	4954.44
327.686	5064.44
327.914	5312.44
328.143	6158.44
328.372	7292.44
328.6	7961.44
328.829	7179.44
329.058	5923.44
329.287	5319.44
329.515	4766.44
329.744	4379.44
329.972	4177.44
330.201	3964.44
330.43	3858.44
330.658	3720.44
330.887	3633.44
331.115	3609.44
331.344	3549.44
331.572	3532.44
331.801	3548.44
332.03	3537.44
332.258	3567.44
332.486	3880.44
332.715	4422.44
332.943	5496.44
333.172	6882.44
333.4	6854.44
333.629	5159.44
333.857	4672.44
334.085	4583.44
334.314	4864.44
334.542	5243.44
334.771	6199.44
334.999	7519.44
335.227	9455.44
335.455	10656.44
335.684	9619.44
335.912	7940.44
336.14	6736.44
336.369	5860.44
336.597	5396.44
336.825	4913.44
337.053	4633.44
337.281	4382.44
337.51	4155.44
337.738	3902.44
337.966	3751.44
338.194	3635.44
338.422	3587.44
338.65	3425.44
338.878	3392.44
339.106	3244.44
339.334	3198.44
339.562	3214.44
339.79	3156.44
340.018	3069.44
340.246	3077.44
340.474	3041.44
340.702	3040.44
340.93	3066.44
341.158	3012.44
341.386	3025.44
341.614	2984.44
341.842	2922.44
342.07	2883.44
342.298	2779.44
342.526	2781.44
342.754	2772.44
342.981	2794.44
343.209	2724.44
343.437	2759.44
343.665	2855.44
343.893	2830.44
344.12	2815.44
344.348	2821.44
344.576	2722.44
344.804	2698.44
345.031	2671.44
345.259	2652.44
345.487	2597.44
345.714	2589.44
345.942	2565.44
346.17	2561.44
346.397	2573.44
346.625	2563.44
346.853	2551.44
347.08	2545.44
347.308	2562.44
347.535	2553.44
347.763	2561.44
347.99	2532.44
348.218	2505.44
348.445	2497.44
348.673	2473.44
348.9	2507.44
349.128	2473.44
349.355	2474.44
349.583	2455.44
349.81	2447.44
350.037	2426.44
350.265	2441.44
350.492	2435.44
350.72	2421.44
350.947	2404.44
351.174	2421.44
351.402	2435.44
351.629	2400.44
351.856	2423.44
352.083	2412.44
352.311	2360.44
352.538	2409.44
352.765	2388.44
352.992	2330.44
353.22	2433.44
353.447	2380.44
353.674	2386.44
353.901	2419.44
354.128	2424.44
354.355	2376.44
354.583	2400.44
354.81	2451.44
355.037	2410.44
355.264	2415.44
355.491	2439.44
355.718	2458.44
355.945	2431.44
356.172	2473.44
356.399	2519.44
356.626	2510.44
356.853	2551.44
357.08	2565.44
357.307	2507.44
357.534	2585.44
357.761	2588.44
357.988	2623.44
358.215	2603.44
358.441	2570.44
358.668	2600.44
358.895	2585.44
359.122	2559.44
359.349	2546.44
359.576	2543.44
359.802	2559.44
360.029	2553.44
360.256	2588.44
360.483	2532.44
360.709	2571.44
360.936	2567.44
361.163	2600.44
361.39	2544.44
361.616	2545.44
361.843	2584.44
362.07	2602.44
362.296	2614.44
362.523	2587.44
362.749	2585.44
362.976	2588.44
363.203	2560.44
363.429	2571.44
363.656	2575.44
363.882	2576.44
364.109	2555.44
364.335	2547.44
364.562	2576.44
364.788	2558.44
365.015	2597.44
365.241	2698.44
365.468	2850.44
365.694	3009.44
365.92	2908.44
366.147	2647.44
366.373	2649.44
366.599	2631.44
366.826	2601.44
367.052	2659.44
367.278	2608.44
367.505	2621.44
367.731	2624.44
367.957	2593.44
368.184	2651.44
368.41	2655.44
368.636	2705.44
368.862	2696.44
369.089	2671.44
369.315	2655.44
369.541	2689.44
369.767	2648.44
369.993	2625.44
370.219	2601.44
370.445	2665.44
370.672	2697.44
370.898	2666.44
371.124	2737.44
371.35	2726.44
371.576	2761.44
371.802	2705.44
372.028	2732.44
372.254	2753.44
372.48	2788.44
372.706	2793.44
372.932	2769.44
373.158	2783.44
373.384	2812.44
373.61	2821.44
373.835	2793.44
374.061	2819.44
374.287	2848.44
374.513	2854.44
374.739	2908.44
374.965	2882.44
375.191	2965.44
375.416	2938.44
375.642	2883.44
375.868	2831.44
376.094	2825.44
376.319	2790.44
376.545	2764.44
376.771	2791.44
376.997	2766.44
377.222	2746.44
377.448	2769.44
377.674	2761.44
377.899	2711.44
378.125	2737.44
378.35	2783.44
378.576	2755.44
378.802	2775.44
379.027	2825.44
379.253	2907.44
379.478	3042.44
379.704	3678.44
379.929	5356.44
380.155	8303.44
380.38	9037.44
380.606	5522.44
380.831	3815.44
381.057	3356.44
381.282	2997.44
381.507	2916.44
381.733	2825.44
381.958	2788.44
382.184	2723.44
382.409	2749.44
382.634	2684.44
382.86	2645.44
383.085	2698.44
383.31	2703.44
383.535	2684.44
383.761	2713.44
383.986	2753.44
384.211	2760.44
384.436	2800.44
384.662	2780.44
384.887	2812.44
385.112	2784.44
385.337	2772.44
385.562	2779.44
385.787	2829.44
386.013	2771.44
386.238	2777.44
386.463	2821.44
386.688	2790.44
386.913	2757.44
387.138	2763.44
387.363	2822.44
387.588	2749.44
387.813	2769.44
388.038	2767.44
388.263	2738.44
388.488	2789.44
388.713	2769.44
388.938	2770.44
389.163	2743.44
389.387	2791.44
389.612	2730.44
389.837	2747.44
390.062	2755.44
390.287	2815.44
390.512	2815.44
390.736	2814.44
390.961	2818.44
391.186	2836.44
391.411	2890.44
391.636	2918.44
391.86	2924.44
392.085	2881.44
392.31	2927.44
392.534	2892.44
392.759	2870.44
392.984	2878.44
393.208	2800.44
393.433	2898.44
393.658	2845.44
393.882	2810.44
394.107	2769.44
394.331	2793.44
394.556	2821.44
394.78	2886.44
395.005	2830.44
395.229	2841.44
395.454	2945.44
395.678	2912.44
395.903	2885.44
396.127	2897.44
396.352	2871.44
396.576	2822.44
396.801	2895.44
397.025	2961.44
397.249	2963.44
397.474	2925.44
397.698	2896.44
397.922	2931.44
398.147	2957.44
398.371	2963.44
398.595	3030.44
398.82	3112.44
399.044	3269.44
399.268	3359.44
399.492	3552.44
399.717	3669.44
399.941	3650.44
400.165	3588.44
400.389	3435.44
400.613	3261.44
400.837	3159.44
401.062	3144.44
401.286	3116.44
401.51	3052.44
401.734	3021.44
401.958	3051.44
402.182	3058.44
402.406	3038.44
402.63	3136.44
402.854	3104.44
403.078	3183.44
403.302	3160.44
403.526	3173.44
403.75	3171.44
403.974	3220.44
404.198	3129.44
404.422	3183.44
404.645	3141.44
404.869	3135.44
405.093	3191.44
405.317	3181.44
405.541	3201.44
405.765	3267.44
405.988	3337.44
406.212	3272.44
406.436	3240.44
406.66	3259.44
406.883	3253.44
407.107	3435.44
407.331	3385.44
407.555	3469.44
407.778	3469.44
408.002	3401.44
408.226	3418.44
408.449	3419.44
408.673	3313.44
408.896	3266.44
409.12	3251.44
409.344	3253.44
409.567	3165.44
409.791	3193.44
410.014	3152.44
410.238	3168.44
410.461	3145.44
410.685	3201.44
410.908	3093.44
411.132	3102.44
411.355	3037.44
411.578	3006.44
411.802	3059.44
412.025	3031.44
412.249	3085.44
412.472	3088.44
412.695	3031.44
412.919	3018.44
413.142	3033.44
413.365	2994.44
413.589	3021.44
413.812	3015.44
414.035	2961.44
414.258	3002.44
414.482	2999.44
414.705	3007.44
414.928	2979.44
415.151	3006.44
415.374	2965.44
415.597	2909.44
415.821	2894.44
416.044	2929.44
416.267	2900.44
416.49	2854.44
416.713	2867.44
416.936	2873.44
417.159	2848.44
417.382	2841.44
417.605	2844.44
417.828	2821.44
418.051	2875.44
418.274	2924.44
418.497	2925.44
418.72	2940.44
418.943	2908.44
419.166	3045.44
419.389	3189.44
419.611	3147.44
419.834	3083.44
420.057	3008.44
420.28	2891.44
420.503	2865.44
420.726	2847.44
420.948	2855.44
421.171	2901.44
421.394	2899.44
421.617	2917.44
421.839	2900.44
422.062	2933.44
422.285	2849.44
422.507	2948.44
422.73	3011.44
422.953	2991.44
423.175	3009.44
423.398	2897.44
423.621	2906.44
423.843	2863.44
424.066	2872.44
424.288	2841.44
424.511	2893.44
424.733	2849.44
424.956	2860.44
425.178	2872.44
425.401	2885.44
425.623	2857.44
425.846	2773.44
426.068	2784.44
426.291	2800.44
426.513	2749.44
426.735	2736.44
426.958	2769.44
427.18	2737.44
427.402	2727.44
427.625	2753.44
427.847	2717.44
428.069	2646.44
428.292	2750.44
428.514	2706.44
428.736	2668.44
428.958	2707.44
429.181	2641.44
429.403	2585.44
429.625	2629.44
429.847	2657.44
430.069	2731.44
430.292	2856.44
430.514	2867.44
430.736	2927.44
430.958	2745.44
431.18	2650.44
431.402	2675.44
431.624	2620.44
431.846	2612.44
432.068	2641.44
432.29	2624.44
432.512	2593.44
432.734	2652.44
432.956	2674.44
433.178	2632.44
433.4	2631.44
433.622	2682.44
433.844	2719.44
434.066	2651.44
434.287	2635.44
434.509	2643.44
434.731	2784.44
434.953	2832.44
435.175	2743.44
435.397	2713.44
435.618	2739.44
435.84	2693.44
436.062	2675.44
436.284	2657.44
436.505	2671.44
436.727	2646.44
436.949	2623.44
437.17	2634.44
437.392	2578.44
437.614	2604.44
437.835	2507.44
438.057	2615.44
438.278	2520.44
438.5	2628.44
438.721	2611.44
438.943	2754.44
439.165	2768.44
439.386	2770.44
439.608	2744.44
439.829	2774.44
440.05	2860.44
440.272	2896.44
440.493	2753.44
440.715	2716.44
440.936	2731.44
441.158	2791.44
441.379	2745.44
441.6	2848.44
441.822	2977.44
442.043	3108.44
442.264	3236.44
442.486	2967.44
442.707	2920.44
442.928	2863.44
443.149	2879.44
443.371	2825.44
443.592	2855.44
443.813	2854.44
444.034	2801.44
444.255	2867.44
444.476	2903.44
444.698	2980.44
444.919	3048.44
445.14	3055.44
445.361	2973.44
445.582	2942.44
445.803	2829.44
446.024	2842.44
446.245	2795.44
446.466	2823.44
446.687	2772.44
446.908	2751.44
447.129	2719.44
447.35	2651.44
447.571	2657.44
447.792	2594.44
448.013	2593.44
448.234	2631.44
448.455	2611.44
448.675	2664.44
448.896	2724.44
449.117	2819.44
449.338	3035.44
449.559	3140.44
449.779	2875.44
450	2626.44
450.221	2592.44
450.442	2619.44
450.662	2603.44
450.883	2506.44
451.104	2516.44
451.324	2491.44
451.545	2566.44
451.766	2607.44
451.986	2657.44
452.207	2860.44
452.428	3711.44
452.648	5756.44
452.869	4775.44
453.089	3258.44
453.31	3013.44
453.53	2917.44
453.751	3085.44
453.971	3311.44
454.192	3195.44
454.412	2740.44
454.633	2579.44
454.853	2515.44
455.073	2520.44
455.294	2487.44
455.514	2405.44
455.734	2497.44
455.955	2415.44
456.175	2444.44
456.395	2411.44
456.616	2459.44
456.836	2507.44
457.056	2487.44
457.276	2491.44
457.497	2658.44
457.717	2724.44
457.937	2569.44
458.157	2555.44
458.377	2536.44
458.598	2617.44
458.818	2667.44
459.038	2661.44
459.258	2637.44
459.478	2677.44
459.698	2683.44
459.918	2748.44
460.138	2790.44
460.358	2809.44
460.578	2877.44
460.798	2889.44
461.018	2891.44
461.238	2859.44
461.458	2911.44
461.678	2993.44
461.898	3005.44
462.118	3022.44
462.338	3070.44
462.558	3135.44
462.777	3120.44
462.997	3294.44
463.217	3417.44
463.437	3526.44
463.657	3595.44
463.876	3627.44
464.096	3404.44
464.316	3229.44
464.536	3180.44
464.755	3105.44
464.975	3027.44
465.195	2934.44
465.414	2817.44
465.634	2733.44
465.854	2724.44
466.073	2744.44
466.293	2722.44
466.512	2677.44
466.732	2688.44
466.951	2807.44
467.171	3015.44
467.391	2999.44
467.61	2725.44
467.829	2636.44
468.049	2666.44
468.268	2557.44
468.488	2605.44
468.707	2591.44
468.927	2579.44
469.146	2574.44
469.365	2640.44
469.585	2709.44
469.804	2719.44
470.023	2820.44
470.243	2769.44
470.462	2923.44
470.681	3035.44
470.901	3369.44
471.12	3863.44
471.339	3859.44
471.558	3199.44
471.777	2978.44
471.997	2845.44
472.216	2769.44
472.435	2725.44
472.654	2649.44
472.873	2602.44
473.092	2668.44
473.311	2633.44
473.53	2651.44
473.749	2702.44
473.968	2823.44
474.187	2639.44
474.406	2592.44
474.625	2641.44
474.844	2624.44
475.063	2669.44
475.282	2643.44
475.501	2654.44
475.72	2707.44
475.939	2695.44
476.158	2763.44
476.377	2802.44
476.596	2819.44
476.814	2803.44
477.033	2777.44
477.252	2727.44
477.471	2829.44
477.69	2880.44
477.908	3000.44
478.127	3026.44
478.346	3011.44
478.564	3027.44
478.783	3058.44
479.002	3113.44
479.22	3111.44
479.439	3127.44
479.658	3149.44
479.876	3198.44
480.095	3164.44
480.313	3346.44
480.532	3272.44
480.751	3251.44
480.969	3211.44
481.188	3196.44
481.406	3189.44
481.624	3184.44
481.843	3268.44
482.061	3197.44
482.28	3203.44
482.498	3196.44
482.717	3153.44
482.935	3210.44
483.153	3222.44
483.372	3333.44
483.59	3352.44
483.808	3366.44
484.027	3503.44
484.245	3667.44
484.463	4139.44
484.681	4532.44
484.9	4171.44
485.118	3855.44
485.336	3831.44
485.554	3941.44
485.772	4123.44
485.99	4651.44
486.209	4922.44
486.427	4229.44
486.645	3740.44
486.863	3603.44
487.081	3524.44
487.299	3463.44
487.517	3415.44
487.735	3444.44
487.953	3398.44
488.171	3345.44
488.389	3366.44
488.607	3344.44
488.825	3284.44
489.043	3254.44
489.261	3236.44
489.479	3276.44
489.696	3237.44
489.914	3334.44
490.132	3307.44
490.35	3361.44
490.568	3339.44
490.786	3416.44
491.003	3379.44
491.221	3418.44
491.439	3475.44
491.657	3465.44
491.874	3449.44
492.092	3418.44
492.31	3470.44
492.527	3417.44
492.745	3415.44
492.963	3442.44
493.18	3440.44
493.398	3426.44
493.615	3423.44
493.833	3418.44
494.05	3417.44
494.268	3460.44
494.485	3473.44
494.703	3500.44
494.92	3541.44
495.138	3432.44
495.355	3427.44
495.573	3455.44
495.79	3520.44
496.008	3567.44
496.225	3576.44
496.442	3641.44
496.66	3782.44
496.877	3929.44
497.094	3901.44
497.312	3713.44
497.529	3696.44
497.746	3773.44
497.963	3821.44
498.181	3913.44
498.398	3993.44
498.615	4070.44
498.832	4283.44
499.049	4439.44
499.267	4823.44
499.484	5106.44
499.701	5057.44
499.918	5140.44
500.135	5433.44
500.352	5701.44
500.569	5799.44
500.786	5648.44
501.003	5550.44
501.22	5319.44
501.437	5003.44
501.654	4739.44
501.871	4627.44
502.088	4423.44
502.305	4233.44
502.522	4148.44
502.739	4026.44
502.956	3946.44
503.172	3807.44
503.389	3724.44
503.606	3670.44
503.823	3556.44
504.04	3587.44
504.256	3555.44
504.473	3555.44
504.69	3541.44
504.907	3558.44
505.123	3495.44
505.34	3385.44
505.557	3317.44
505.773	3282.44
505.99	3264.44
506.207	3182.44
506.423	3147.44
506.64	3134.44
506.856	3059.44
507.073	3071.44
507.289	3055.44
507.506	3030.44
507.722	3035.44
507.939	3087.44
508.155	2981.44
508.372	2959.44
508.588	3000.44
508.805	2943.44
509.021	2963.44
509.238	2996.44
509.454	3222.44
509.67	3419.44
509.887	3162.44
510.103	2985.44
510.319	2995.44
510.536	3032.44
510.752	2960.44
510.968	2900.44
511.184	2885.44
511.401	2873.44
511.617	2874.44
511.833	2904.44
512.049	2854.44
512.265	2826.44
512.481	2819.44
512.698	2777.44
512.914	2824.44
513.13	2837.44
513.346	2859.44
513.562	2870.44
513.778	2852.44
513.994	2883.44
514.21	2971.44
514.426	3152.44
514.642	3417.44
514.858	3103.44
515.074	2958.44
515.29	2970.44
515.506	2912.44
515.721	2915.44
515.937	2983.44
516.153	2977.44
516.369	3009.44
516.585	3013.44
516.801	3082.44
517.016	3139.44
517.232	3209.44
517.448	3196.44
517.664	3264.44
517.879	3196.44
518.095	3226.44
518.311	3260.44
518.527	3139.44
518.742	3169.44
518.958	3334.44
519.173	3315.44
519.389	3159.44
519.605	3018.44
519.82	2936.44
520.036	2973.44
520.251	2918.44
520.467	2861.44
520.682	2850.44
520.898	2778.44
521.113	2819.44
521.329	2805.44
521.544	2823.44
521.76	2893.44
521.975	2825.44
522.19	2785.44
522.406	2762.44
522.621	2769.44
522.836	2716.44
523.052	2783.44
523.267	2775.44
523.482	2719.44
523.698	2747.44
523.913	2664.44
524.128	2728.44
524.343	2726.44
524.559	2753.44
524.774	2708.44
524.989	2711.44
525.204	2723.44
525.419	2696.44
525.634	2694.44
525.849	2720.44
526.064	2762.44
526.28	2711.44
526.495	2768.44
526.71	2777.44
526.925	2744.44
527.14	2711.44
527.355	2756.44
527.57	2754.44
527.785	2764.44
527.999	2797.44
528.214	2824.44
528.429	2873.44
528.644	2850.44
528.859	2869.44
529.074	2918.44
529.289	2924.44
529.503	2960.44
529.718	2924.44
529.933	2854.44
530.148	2897.44
530.363	2977.44
530.577	2889.44
530.792	2915.44
531.007	2925.44
531.221	3016.44
531.436	3013.44
531.651	3008.44
531.865	3115.44
532.08	3107.44
532.295	3212.44
532.509	3477.44
532.724	3474.44
532.938	3498.44
533.153	3640.44
533.367	3854.44
533.582	4085.44
533.796	3999.44
534.011	3848.44
534.225	3701.44
534.44	3572.44
534.654	3478.44
534.868	3434.44
535.083	3383.44
535.297	3309.44
535.511	3237.44
535.726	3163.44
535.94	3154.44
536.154	3101.44
536.369	3004.44
536.583	2965.44
536.797	2985.44
537.011	2930.44
537.225	2890.44
537.44	2847.44
537.654	2817.44
537.868	2795.44
538.082	2780.44
538.296	2772.44
538.51	2724.44
538.724	2820.44
538.938	2736.44
539.153	2744.44
539.367	2707.44
539.581	2685.44
539.795	2645.44
540.009	2629.44
540.222	2685.44
540.436	2678.44
540.65	2705.44
540.864	2651.44
541.078	2722.44
541.292	2916.44
541.506	3403.44
541.72	3621.44
541.934	3071.44
542.147	2969.44
542.361	2829.44
542.575	2693.44
542.789	2700.44
543.002	2602.44
543.216	2567.44
543.43	2588.44
543.644	2539.44
543.857	2570.44
544.071	2591.44
544.285	2618.44
544.498	2569.44
544.712	2589.44
544.925	2578.44
545.139	2546.44
545.352	2565.44
545.566	2573.44
545.779	2577.44
545.993	2600.44
546.206	2598.44
546.42	2592.44
546.633	2623.44
546.847	2532.44
547.06	2585.44
547.274	2573.44
547.487	2538.44
547.7	2549.44
547.914	2593.44
548.127	2557.44
548.34	2571.44
548.554	2537.44
548.767	2583.44
548.98	2583.44
549.193	2587.44
549.407	2531.44
549.62	2567.44
549.833	2607.44
550.046	2576.44
550.259	2545.44
550.473	2540.44
550.686	2599.44
550.899	2601.44
551.112	2592.44
551.325	2620.44
551.538	2617.44
551.751	2620.44
551.964	2609.44
552.177	2643.44
552.39	2637.44
552.603	2745.44
552.816	2765.44
553.029	2774.44
553.242	2811.44
553.455	2881.44
553.667	2859.44
553.88	2869.44
554.093	2897.44
554.306	2922.44
554.519	2947.44
554.732	3002.44
554.944	3042.44
555.157	3127.44
555.37	3242.44
555.583	3367.44
555.795	3517.44
556.008	3821.44
556.221	4296.44
556.433	4523.44
556.646	4563.44
556.859	4401.44
557.071	4221.44
557.284	4112.44
557.496	3933.44
557.709	3892.44
557.921	3838.44
558.134	3799.44
558.346	3828.44
558.559	4067.44
558.771	4229.44
558.984	4596.44
559.196	4877.44
559.409	4777.44
559.621	4323.44
559.833	4149.44
560.046	3814.44
560.258	3708.44
560.47	3493.44
560.683	3357.44
560.895	3203.44
561.107	3089.44
561.32	2997.44
561.532	2922.44
561.744	2825.44
561.956	2777.44
562.168	2730.44
562.381	2765.44
562.593	2688.44
562.805	2771.44
563.017	2771.44
563.229	2796.44
563.441	3318.44
563.653	2706.44
563.865	2546.44
564.077	2487.44
564.289	2457.44
564.501	2388.44
564.713	2425.44
564.925	2393.44
565.137	2420.44
565.349	2436.44
565.561	2415.44
565.773	2414.44
565.985	2469.44
566.197	2460.44
566.408	2520.44
566.62	2577.44
566.832	2600.44
567.044	2656.44
567.255	2618.44
567.467	2664.44
567.679	2732.44
567.891	2902.44
568.102	3225.44
568.314	3688.44
568.526	3189.44
568.737	2725.44
568.949	2591.44
569.161	2378.44
569.372	2250.44
569.584	2237.44
569.795	2218.44
570.007	2181.44
570.218	2257.44
570.43	2323.44
570.641	2097.44
570.853	2060.44
571.064	1989.44
571.276	1988.44
571.487	1995.44
571.698	1911.44
571.91	1907.44
572.121	1905.44
572.333	1888.44
572.544	1912.44
572.755	2040.44
572.966	2400.44
573.178	2155.44
573.389	1930.44
573.6	1856.44
573.811	1847.44
574.023	1770.44
574.234	1752.44
574.445	1764.44
574.656	1767.44
574.867	1767.44
575.078	1744.44
575.289	1759.44
575.501	1718.44
575.712	1695.44
575.923	1692.44
576.134	1759.44
576.345	1748.44
576.556	1781.44
576.767	1726.44
576.978	1738.44
577.188	1749.44
577.399	1747.44
577.61	1763.44
577.821	1805.44
578.032	1813.44
578.243	1842.44
578.454	1864.44
578.665	1896.44
578.875	1953.44
579.086	2024.44
579.297	2150.44
579.508	2263.44
579.718	2534.44
579.929	2817.44
580.14	3317.44
580.35	3407.44
580.561	3155.44
580.772	2783.44
580.982	2622.44
581.193	2415.44
581.403	2250.44
581.614	2178.44
581.825	2090.44
582.035	1993.44
582.246	1905.44
582.456	1846.44
582.667	1809.44
582.877	1849.44
583.087	1766.44
583.298	1719.44
583.508	1632.44
583.719	1612.44
583.929	1595.44
584.139	1534.44
584.35	1528.44
584.56	1554.44
584.77	1485.44
584.981	1443.44
585.191	1481.44
585.401	1428.44
585.611	1400.44
585.821	1399.44
586.032	1405.44
586.242	1345.44
586.452	1332.44
586.662	1339.44
586.872	1342.44
587.082	1344.44
587.292	1329.44
587.502	1316.44
587.713	1289.44
587.923	1267.44
588.133	1245.44
588.343	1252.44
588.553	1224.44
588.762	1227.44
588.972	1222.44
589.182	1284.44
589.392	1239.44
589.602	1209.44
589.812	1207.44
590.022	1220.44
590.232	1207.44
590.441	1173.44
590.651	1179.44
590.861	1201.44
591.071	1193.44
591.281	1171.44
591.49	1164.44
591.7	1193.44
591.91	1155.44
592.119	1200.44
592.329	1195.44
592.539	1209.44
592.748	1227.44
592.958	1208.44
593.167	1256.44
593.377	1233.44
593.587	1201.44
593.796	1247.44
594.006	1223.44
594.215	1245.44
594.424	1245.44
594.634	1235.44
594.843	1202.44
595.053	1176.44
595.262	1145.44
595.472	1134.44
595.681	1094.44
595.89	1093.44
596.1	1116.44
596.309	1093.44
596.518	1047.44
596.727	1040.44
596.937	1067.44
597.146	1077.44
597.355	1060.44
597.564	1024.44
597.774	1019.44
597.983	999.44
598.192	1014.44
598.401	1011.44
598.61	986.44
598.819	983.44
599.028	984.44
599.237	984.44
599.446	959.44
599.655	977.44
599.864	949.44
600.073	959.44
600.282	936.44
600.491	943.44
600.7	932.44
600.909	983.44
601.118	947.44
601.327	960.44
601.536	927.44
601.745	986.44
601.953	1079.44
602.162	1225.44
602.371	1100.44
602.58	973.44
602.789	991.44
602.997	964.44
603.206	946.44
603.415	925.44
603.623	904.44
603.832	900.44
604.041	924.44
604.249	918.44
604.458	904.44
604.666	915.44
604.875	869.44
605.084	905.44
605.292	888.44
605.501	895.44
605.709	926.44
605.918	902.44
606.126	913.44
606.334	922.44
606.543	922.44
606.751	1018.44
606.96	1161.44
607.168	1232.44
607.376	1060.44
607.585	990.44
607.793	930.44
608.001	911.44
608.21	916.44
608.418	899.44
608.626	883.44
608.834	894.44
609.043	885.44
609.251	864.44
609.459	833.44
609.667	856.44
609.875	849.44
610.083	852.44
610.291	881.44
610.499	858.44
610.707	849.44
610.916	823.44
611.124	828.44
611.332	823.44
611.54	793.44
611.748	811.44
611.955	828.44
612.163	817.44
612.371	805.44
612.579	812.44
612.787	819.44
612.995	829.44
613.203	825.44
613.411	818.44
613.618	787.44
613.826	793.44
614.034	809.44
614.242	809.44
614.449	804.44
614.657	793.44
614.865	787.44
615.072	831.44
615.28	823.44
615.488	815.44
615.695	817.44
615.903	790.44
616.111	796.44
616.318	782.44
616.526	784.44
616.733	778.44
616.941	774.44
617.148	752.44
617.356	757.44
617.563	769.44
617.771	763.44
617.978	764.44
618.185	759.44
618.393	747.44
618.6	771.44
618.807	759.44
619.015	781.44
619.222	778.44
619.429	755.44
619.637	744.44
619.844	746.44
620.051	726.44
620.258	715.44
620.466	711.44
620.673	695.44
620.88	683.44
621.087	701.44
621.294	721.44
621.501	720.44
621.708	713.44
621.915	691.44
622.122	709.44
622.329	707.44
622.536	703.44
622.743	701.44
622.95	707.44
623.157	695.44
623.364	717.44
623.571	709.44
623.778	714.44
623.985	687.44
624.192	681.44
624.399	665.44
624.606	682.44
624.812	681.44
625.019	683.44
625.226	673.44
625.433	671.44
625.639	649.44
625.846	641.44
626.053	649.44
626.259	648.44
626.466	646.44
626.673	642.44
626.879	628.44
627.086	634.44
627.293	620.44
627.499	634.44
627.706	619.44
627.912	632.44
628.119	619.44
628.325	625.44
628.532	653.44
628.738	642.44
628.945	645.44
629.151	621.44
629.357	634.44
629.564	608.44
629.77	613.44
629.976	627.44
630.183	615.44
630.389	618.44
630.595	601.44
630.802	599.44
631.008	600.44
631.214	629.44
631.42	607.44
631.627	597.44
631.833	602.44
632.039	613.44
632.245	584.44
632.451	597.44
632.657	617.44
632.863	614.44
633.069	586.44
633.275	563.44
633.481	581.44
633.688	584.44
633.893	597.44
634.099	583.44
634.305	591.44
634.511	580.44
634.717	611.44
634.923	627.44
635.129	700.44
635.335	754.44
635.541	707.44
635.747	654.44
635.952	588.44
636.158	624.44
636.364	599.44
636.57	605.44
636.775	611.44
636.981	584.44
637.187	584.44
637.392	610.44
637.598	589.44
637.804	591.44
638.009	603.44
638.215	632.44
638.421	588.44
638.626	611.44
638.832	591.44
639.037	599.44
639.243	599.44
639.448	621.44
639.654	614.44
639.859	634.44
640.065	620.44
640.27	618.44
640.475	614.44
640.681	649.44
640.886	637.44
641.091	661.44
641.297	632.44
641.502	645.44
641.707	637.44
641.913	652.44
642.118	665.44
642.323	651.44
642.528	692.44
642.733	704.44
642.939	735.44
643.144	760.44
643.349	773.44
643.554	805.44
643.759	830.44
643.964	876.44
644.169	933.44
644.374	997.44
644.579	1086.44
644.784	1185.44
644.989	1354.44
645.194	1610.44
645.399	1961.44
645.604	2104.44
645.809	1545.44
646.014	1185.44
646.219	1009.44
646.423	863.44
646.628	799.44
646.833	738.44
647.038	680.44
647.243	659.44
647.447	649.44
647.652	617.44
647.857	590.44
648.062	576.44
648.266	587.44
648.471	589.44
648.676	557.44
648.88	556.44
649.085	565.44
649.289	535.44
649.494	499.44
649.698	506.44
649.903	501.44
650.107	483.44
650.312	483.44
650.516	480.44
650.721	495.44
650.925	449.44
651.13	466.44
651.334	460.44
651.539	445.44
651.743	440.44
651.947	433.44
652.152	442.44
652.356	417.44
652.56	455.44
652.764	512.44
652.969	477.44
653.173	438.44
653.377	426.44
653.581	392.44
653.785	390.44
653.99	377.44
654.194	380.44
654.398	375.44
654.602	372.44
654.806	343.44
655.01	362.44
655.214	342.44
655.418	368.44
655.622	352.44
655.826	365.44
656.03	358.44
656.234	385.44
656.438	372.44
656.642	385.44
656.846	383.44
657.049	363.44
657.253	340.44
657.457	310.44
657.661	298.44
657.865	298.44
658.068	267.44
658.272	240.44
658.476	260.44
658.68	227.44
658.883	230.44
659.087	214.44
659.291	199.44
659.494	195.44
659.698	179.44
659.901	176.44
660.105	182.44
660.309	165.44
660.512	167.44
660.716	161.44
660.919	152.44
661.123	147.44
661.326	148.44
661.53	148.44
661.733	134.44
661.936	123.44
662.14	122.44
662.343	122.44
662.546	101.44
662.75	112.44
662.953	116.44
663.156	118.44
663.36	97.44
663.563	108.44
663.766	103.44
663.969	98.44
664.173	106.44
664.376	90.44
664.579	81.44
664.782	98.44
664.985	100.44
665.188	90.44
665.391	103.44
665.594	95.44
665.797	90.44
666	84.44
666.203	74.44
666.406	75.44
666.609	74.44
666.812	92.44
667.015	83.44
667.218	96.44
667.421	101.44
667.624	92.44
667.827	79.44
668.03	80.44
668.232	85.44
668.435	85.44
668.638	85.44
668.841	95.44
669.043	83.44
669.246	78.44
669.449	71.44
669.651	92.44
669.854	80.44
670.057	95.44
670.259	85.44
670.462	93.44
670.665	81.44
670.867	101.44
671.07	90.44
671.272	89.44
671.475	98.44
671.677	95.44
671.88	82.44
672.082	83.44
672.284	72.44
672.487	89.44
672.689	90.44
672.892	75.44
