Data from SnStandardFlinnAPT0064_QswitchEnergy10_LIBS07252019.E.O._I.C._HRD10591_15-26-33-972.txt Node
Date: Thu Jul 25 15:26:33 EDT 2019
User: cochatt
Spectrometer: HR+D1059
Trigger mode: 1
Integration Time (sec): 1.000000E-1
Scans to average: 1
Electric dark correction enabled: true
Nonlinearity correction enabled: false
Boxcar width: 0
XAxis mode: Wavelengths
Number of Pixels in Spectrum: 2048
>>>>>Begin Spectral Data<<<<<
223.165	-16.38
223.4	-16.38
223.635	-16.38
223.869	-24.38
224.104	-23.38
224.338	-10.38
224.573	-2.38
224.808	-20.38
225.042	-0.38
225.277	8.62
225.511	-3.38
225.746	-5.38
225.98	-3.38
226.215	6.62
226.449	19.62
226.683	21.62
226.918	23.62
227.152	29.62
227.387	51.62
227.621	39.62
227.856	30.62
228.09	37.62
228.324	37.62
228.559	52.62
228.793	68.62
229.027	58.62
229.262	75.62
229.496	76.62
229.73	76.62
229.964	58.62
230.199	79.62
230.433	68.62
230.667	82.62
230.901	84.62
231.136	68.62
231.37	104.62
231.604	89.62
231.838	96.62
232.072	120.62
232.306	123.62
232.541	83.62
232.775	86.62
233.009	87.62
233.243	76.62
233.477	100.62
233.711	95.62
233.945	92.62
234.179	103.62
234.413	75.62
234.647	76.62
234.881	91.62
235.115	85.62
235.349	91.62
235.583	104.62
235.817	102.62
236.051	120.62
236.285	91.62
236.519	86.62
236.753	77.62
236.987	84.62
237.221	82.62
237.455	87.62
237.689	81.62
237.922	89.62
238.156	84.62
238.39	85.62
238.624	86.62
238.858	93.62
239.091	81.62
239.325	72.62
239.559	82.62
239.793	81.62
240.027	87.62
240.26	80.62
240.494	79.62
240.728	89.62
240.961	70.62
241.195	90.62
241.429	94.62
241.662	87.62
241.896	88.62
242.13	93.62
242.363	128.62
242.597	152.62
242.83	123.62
243.064	118.62
243.298	161.62
243.531	142.62
243.765	97.62
243.998	81.62
244.232	87.62
244.465	84.62
244.699	84.62
244.932	83.62
245.166	87.62
245.399	82.62
245.633	84.62
245.866	96.62
246.099	87.62
246.333	90.62
246.566	59.62
246.8	76.62
247.033	91.62
247.266	75.62
247.5	88.62
247.733	67.62
247.966	89.62
248.2	83.62
248.433	91.62
248.666	116.62
248.899	108.62
249.133	86.62
249.366	99.62
249.599	90.62
249.832	104.62
250.066	117.62
250.299	79.62
250.532	84.62
250.765	82.62
250.998	90.62
251.231	86.62
251.465	83.62
251.698	81.62
251.931	97.62
252.164	97.62
252.397	93.62
252.63	93.62
252.863	93.62
253.096	86.62
253.329	104.62
253.562	91.62
253.795	88.62
254.028	92.62
254.261	81.62
254.494	103.62
254.727	111.62
254.96	116.62
255.193	140.62
255.426	97.62
255.659	64.62
255.892	86.62
256.124	103.62
256.357	94.62
256.59	107.62
256.823	92.62
257.056	106.62
257.289	127.62
257.521	160.62
257.754	122.62
257.987	82.62
258.22	92.62
258.452	72.62
258.685	86.62
258.918	84.62
259.151	106.62
259.383	117.62
259.616	138.62
259.849	130.62
260.081	106.62
260.314	88.62
260.547	82.62
260.779	79.62
261.012	99.62
261.244	90.62
261.477	89.62
261.71	74.62
261.942	72.62
262.175	88.62
262.407	76.62
262.64	97.62
262.872	93.62
263.105	84.62
263.337	70.62
263.57	89.62
263.802	92.62
264.035	96.62
264.267	76.62
264.499	81.62
264.732	99.62
264.964	84.62
265.197	88.62
265.429	89.62
265.661	71.62
265.894	112.62
266.126	128.62
266.358	138.62
266.591	135.62
266.823	92.62
267.055	89.62
267.287	72.62
267.52	89.62
267.752	90.62
267.984	110.62
268.216	86.62
268.448	79.62
268.681	80.62
268.913	88.62
269.145	99.62
269.377	90.62
269.609	84.62
269.841	83.62
270.073	90.62
270.306	105.62
270.538	168.62
270.77	293.62
271.002	323.62
271.234	166.62
271.466	114.62
271.698	95.62
271.93	85.62
272.162	81.62
272.394	85.62
272.626	73.62
272.858	81.62
273.09	105.62
273.322	79.62
273.553	79.62
273.785	81.62
274.017	82.62
274.249	73.62
274.481	88.62
274.713	97.62
274.945	90.62
275.176	81.62
275.408	90.62
275.64	91.62
275.872	90.62
276.104	99.62
276.335	108.62
276.567	93.62
276.799	99.62
277.031	95.62
277.262	102.62
277.494	102.62
277.726	136.62
277.957	154.62
278.189	232.62
278.421	205.62
278.652	180.62
278.884	183.62
279.115	145.62
279.347	107.62
279.579	89.62
279.81	89.62
280.042	87.62
280.273	88.62
280.505	114.62
280.736	122.62
280.968	130.62
281.199	162.62
281.431	230.62
281.662	250.62
281.894	146.62
282.125	115.62
282.356	97.62
282.588	119.62
282.819	93.62
283.051	122.62
283.282	134.62
283.513	200.62
283.745	291.62
283.976	463.62
284.207	678.62
284.439	546.62
284.67	231.62
284.901	217.62
285.132	323.62
285.364	332.62
285.595	214.62
285.826	172.62
286.057	231.62
286.288	366.62
286.52	520.62
286.751	432.62
286.982	177.62
287.213	99.62
287.444	98.62
287.675	110.62
287.906	102.62
288.138	80.62
288.369	91.62
288.6	80.62
288.831	95.62
289.062	96.62
289.293	86.62
289.524	83.62
289.755	90.62
289.986	92.62
290.217	90.62
290.448	103.62
290.679	96.62
290.91	129.62
291.141	154.62
291.371	240.62
291.602	262.62
291.833	178.62
292.064	105.62
292.295	85.62
292.526	97.62
292.757	104.62
292.987	85.62
293.218	120.62
293.449	106.62
293.68	98.62
293.91	91.62
294.141	92.62
294.372	86.62
294.603	94.62
294.833	90.62
295.064	86.62
295.295	101.62
295.525	103.62
295.756	99.62
295.987	91.62
296.217	97.62
296.448	100.62
296.679	97.62
296.909	90.62
297.14	95.62
297.37	103.62
297.601	97.62
297.831	75.62
298.062	100.62
298.292	111.62
298.523	108.62
298.753	101.62
298.984	99.62
299.214	105.62
299.445	95.62
299.675	111.62
299.905	121.62
300.136	113.62
300.366	141.62
300.597	218.62
300.827	385.62
301.057	626.62
301.288	542.62
301.518	230.62
301.748	132.62
301.979	134.62
302.209	117.62
302.439	133.62
302.669	162.62
302.9	241.62
303.13	480.62
303.36	784.62
303.59	1055.62
303.82	750.62
304.051	278.62
304.281	156.62
304.511	112.62
304.741	106.62
304.971	122.62
305.201	100.62
305.431	107.62
305.661	108.62
305.891	109.62
306.121	110.62
306.352	100.62
306.582	98.62
306.812	112.62
307.042	119.62
307.272	104.62
307.502	114.62
307.731	108.62
307.961	120.62
308.191	104.62
308.421	91.62
308.651	115.62
308.881	107.62
309.111	112.62
309.341	102.62
309.571	108.62
309.8	115.62
310.03	117.62
310.26	114.62
310.49	126.62
310.72	102.62
310.949	113.62
311.179	99.62
311.409	128.62
311.639	108.62
311.868	116.62
312.098	108.62
312.328	103.62
312.557	117.62
312.787	116.62
313.017	107.62
313.246	117.62
313.476	107.62
313.706	128.62
313.935	142.62
314.165	210.62
314.394	228.62
314.624	185.62
314.853	137.62
315.083	118.62
315.312	125.62
315.542	132.62
315.771	123.62
316.001	134.62
316.23	134.62
316.46	127.62
316.689	148.62
316.919	244.62
317.148	439.62
317.377	807.62
317.607	1294.62
317.836	1210.62
318.065	488.62
318.295	196.62
318.524	150.62
318.753	132.62
318.983	133.62
319.212	128.62
319.441	129.62
319.67	125.62
319.9	115.62
320.129	115.62
320.358	119.62
320.587	107.62
320.816	117.62
321.046	125.62
321.275	119.62
321.504	139.62
321.733	134.62
321.962	148.62
322.191	168.62
322.42	128.62
322.649	108.62
322.878	112.62
323.108	128.62
323.337	114.62
323.566	119.62
323.795	135.62
324.024	135.62
324.253	139.62
324.482	156.62
324.71	204.62
324.939	252.62
325.168	219.62
325.397	173.62
325.626	230.62
325.855	455.62
326.084	828.62
326.313	1396.62
326.542	1351.62
326.77	566.62
326.999	221.62
327.228	212.62
327.457	223.62
327.686	226.62
327.914	151.62
328.143	129.62
328.372	140.62
328.6	140.62
328.829	124.62
329.058	112.62
329.287	114.62
329.515	110.62
329.744	107.62
329.972	107.62
330.201	123.62
330.43	114.62
330.658	122.62
330.887	95.62
331.115	122.62
331.344	122.62
331.572	110.62
331.801	118.62
332.03	114.62
332.258	141.62
332.486	167.62
332.715	283.62
332.943	449.62
333.172	683.62
333.4	578.62
333.629	243.62
333.857	139.62
334.085	135.62
334.314	123.62
334.542	115.62
334.771	116.62
334.999	125.62
335.227	104.62
335.455	128.62
335.684	119.62
335.912	111.62
336.14	105.62
336.369	121.62
336.597	102.62
336.825	115.62
337.053	107.62
337.281	108.62
337.51	115.62
337.738	116.62
337.966	105.62
338.194	103.62
338.422	113.62
338.65	113.62
338.878	114.62
339.106	128.62
339.334	116.62
339.562	103.62
339.79	114.62
340.018	112.62
340.246	107.62
340.474	100.62
340.702	117.62
340.93	118.62
341.158	115.62
341.386	110.62
341.614	106.62
341.842	113.62
342.07	119.62
342.298	115.62
342.526	111.62
342.754	95.62
342.981	112.62
343.209	114.62
343.437	118.62
343.665	105.62
343.893	103.62
344.12	102.62
344.348	105.62
344.576	115.62
344.804	109.62
345.031	107.62
345.259	118.62
345.487	108.62
345.714	110.62
345.942	122.62
346.17	118.62
346.397	98.62
346.625	111.62
346.853	110.62
347.08	110.62
347.308	111.62
347.535	94.62
347.763	116.62
347.99	85.62
348.218	120.62
348.445	120.62
348.673	115.62
348.9	120.62
349.128	134.62
349.355	117.62
349.583	119.62
349.81	111.62
350.037	118.62
350.265	126.62
350.492	88.62
350.72	112.62
350.947	107.62
351.174	122.62
351.402	114.62
351.629	117.62
351.856	117.62
352.083	106.62
352.311	113.62
352.538	121.62
352.765	102.62
352.992	98.62
353.22	111.62
353.447	108.62
353.674	89.62
353.901	101.62
354.128	93.62
354.355	119.62
354.583	104.62
354.81	104.62
355.037	88.62
355.264	111.62
355.491	114.62
355.718	106.62
355.945	97.62
356.172	103.62
356.399	86.62
356.626	110.62
356.853	107.62
357.08	90.62
357.307	114.62
357.534	96.62
357.761	101.62
357.988	115.62
358.215	120.62
358.441	104.62
358.668	112.62
358.895	112.62
359.122	115.62
359.349	111.62
359.576	125.62
359.802	103.62
360.029	112.62
360.256	113.62
360.483	112.62
360.709	108.62
360.936	106.62
361.163	111.62
361.39	96.62
361.616	107.62
361.843	110.62
362.07	108.62
362.296	121.62
362.523	103.62
362.749	110.62
362.976	98.62
363.203	97.62
363.429	97.62
363.656	94.62
363.882	124.62
364.109	117.62
364.335	112.62
364.562	105.62
364.788	108.62
365.015	114.62
365.241	128.62
365.468	183.62
365.694	229.62
365.92	196.62
366.147	112.62
366.373	106.62
366.599	107.62
366.826	97.62
367.052	92.62
367.278	112.62
367.505	111.62
367.731	106.62
367.957	118.62
368.184	120.62
368.41	118.62
368.636	129.62
368.862	129.62
369.089	98.62
369.315	112.62
369.541	110.62
369.767	98.62
369.993	124.62
370.219	104.62
370.445	90.62
370.672	105.62
370.898	107.62
371.124	106.62
371.35	98.62
371.576	98.62
371.802	96.62
372.028	104.62
372.254	110.62
372.48	105.62
372.706	130.62
372.932	115.62
373.158	114.62
373.384	123.62
373.61	118.62
373.835	115.62
374.061	128.62
374.287	123.62
374.513	104.62
374.739	98.62
374.965	107.62
375.191	105.62
375.416	116.62
375.642	102.62
375.868	102.62
376.094	115.62
376.319	104.62
376.545	103.62
376.771	107.62
376.997	115.62
377.222	105.62
377.448	110.62
377.674	94.62
377.899	105.62
378.125	123.62
378.35	116.62
378.576	118.62
378.802	114.62
379.027	110.62
379.253	143.62
379.478	155.62
379.704	282.62
379.929	680.62
380.155	1362.62
380.38	1419.62
380.606	470.62
380.831	184.62
381.057	139.62
381.282	124.62
381.507	111.62
381.733	101.62
381.958	103.62
382.184	103.62
382.409	106.62
382.634	105.62
382.86	113.62
383.085	104.62
383.31	102.62
383.535	111.62
383.761	101.62
383.986	95.62
384.211	125.62
384.436	103.62
384.662	102.62
384.887	107.62
385.112	103.62
385.337	108.62
385.562	104.62
385.787	102.62
386.013	97.62
386.238	107.62
386.463	106.62
386.688	97.62
386.913	111.62
387.138	110.62
387.363	107.62
387.588	104.62
387.813	94.62
388.038	102.62
388.263	98.62
388.488	90.62
388.713	105.62
388.938	102.62
389.163	100.62
389.387	97.62
389.612	111.62
389.837	104.62
390.062	105.62
390.287	115.62
390.512	77.62
390.736	87.62
390.961	98.62
391.186	90.62
391.411	102.62
391.636	96.62
391.86	96.62
392.085	101.62
392.31	100.62
392.534	100.62
392.759	111.62
392.984	94.62
393.208	115.62
393.433	149.62
393.658	124.62
393.882	118.62
394.107	100.62
394.331	106.62
394.556	111.62
394.78	92.62
395.005	90.62
395.229	89.62
395.454	93.62
395.678	114.62
395.903	105.62
396.127	96.62
396.352	111.62
396.576	106.62
396.801	107.62
397.025	131.62
397.249	110.62
397.474	111.62
397.698	112.62
397.922	105.62
398.147	103.62
398.371	104.62
398.595	111.62
398.82	92.62
399.044	98.62
399.268	86.62
399.492	110.62
399.717	114.62
399.941	83.62
400.165	97.62
400.389	106.62
400.613	100.62
400.837	103.62
401.062	102.62
401.286	94.62
401.51	91.62
401.734	82.62
401.958	104.62
402.182	102.62
402.406	101.62
402.63	97.62
402.854	97.62
403.078	89.62
403.302	95.62
403.526	99.62
403.75	88.62
403.974	84.62
404.198	101.62
404.422	94.62
404.645	91.62
404.869	82.62
405.093	96.62
405.317	80.62
405.541	99.62
405.765	123.62
405.988	135.62
406.212	114.62
406.436	104.62
406.66	105.62
406.883	104.62
407.107	87.62
407.331	95.62
407.555	88.62
407.778	100.62
408.002	103.62
408.226	98.62
408.449	104.62
408.673	104.62
408.896	91.62
409.12	100.62
409.344	98.62
409.567	88.62
409.791	100.62
410.014	104.62
410.238	114.62
410.461	91.62
410.685	91.62
410.908	94.62
411.132	100.62
411.355	100.62
411.578	97.62
411.802	84.62
412.025	96.62
412.249	103.62
412.472	103.62
412.695	110.62
412.919	98.62
413.142	112.62
413.365	90.62
413.589	102.62
413.812	88.62
414.035	123.62
414.258	106.62
414.482	99.62
414.705	106.62
414.928	108.62
415.151	89.62
415.374	80.62
415.597	98.62
415.821	102.62
416.044	100.62
416.267	98.62
416.49	76.62
416.713	97.62
416.936	91.62
417.159	82.62
417.382	93.62
417.605	91.62
417.828	103.62
418.051	121.62
418.274	116.62
418.497	113.62
418.72	104.62
418.943	91.62
419.166	116.62
419.389	115.62
419.611	110.62
419.834	110.62
420.057	89.62
420.28	100.62
420.503	109.62
420.726	107.62
420.948	98.62
421.171	78.62
421.394	82.62
421.617	87.62
421.839	84.62
422.062	91.62
422.285	99.62
422.507	95.62
422.73	129.62
422.953	146.62
423.175	120.62
423.398	89.62
423.621	93.62
423.843	95.62
424.066	99.62
424.288	107.62
424.511	94.62
424.733	102.62
424.956	101.62
425.178	77.62
425.401	92.62
425.623	113.62
425.846	100.62
426.068	90.62
426.291	96.62
426.513	100.62
426.735	91.62
426.958	98.62
427.18	86.62
427.402	104.62
427.625	81.62
427.847	97.62
428.069	118.62
428.292	94.62
428.514	86.62
428.736	96.62
428.958	103.62
429.181	86.62
429.403	99.62
429.625	94.62
429.847	97.62
430.069	115.62
430.292	97.62
430.514	108.62
430.736	114.62
430.958	103.62
431.18	91.62
431.402	89.62
431.624	103.62
431.846	85.62
432.068	105.62
432.29	89.62
432.512	111.62
432.734	95.62
432.956	87.62
433.178	89.62
433.4	97.62
433.622	102.62
433.844	84.62
434.066	106.62
434.287	103.62
434.509	98.62
434.731	94.62
434.953	94.62
435.175	88.62
435.397	84.62
435.618	97.62
435.84	95.62
436.062	86.62
436.284	86.62
436.505	91.62
436.727	99.62
436.949	104.62
437.17	80.62
437.392	96.62
437.614	100.62
437.835	90.62
438.057	94.62
438.278	92.62
438.5	108.62
438.721	102.62
438.943	115.62
439.165	110.62
439.386	99.62
439.608	93.62
439.829	112.62
440.05	107.62
440.272	122.62
440.493	114.62
440.715	88.62
440.936	87.62
441.158	105.62
441.379	100.62
441.6	103.62
441.822	100.62
442.043	114.62
442.264	137.62
442.486	118.62
442.707	97.62
442.928	95.62
443.149	91.62
443.371	101.62
443.592	92.62
443.813	98.62
444.034	95.62
444.255	102.62
444.476	95.62
444.698	93.62
444.919	86.62
445.14	202.62
445.361	161.62
445.582	116.62
445.803	112.62
446.024	98.62
446.245	103.62
446.466	94.62
446.687	94.62
446.908	94.62
447.129	97.62
447.35	83.62
447.571	101.62
447.792	96.62
448.013	90.62
448.234	104.62
448.455	97.62
448.675	105.62
448.896	96.62
449.117	119.62
449.338	123.62
449.559	137.62
449.779	98.62
450	99.62
450.221	106.62
450.442	119.62
450.662	95.62
450.883	102.62
451.104	118.62
451.324	122.62
451.545	126.62
451.766	115.62
451.986	131.62
452.207	199.62
452.428	500.62
452.648	1243.62
452.869	716.62
453.089	196.62
453.31	118.62
453.53	116.62
453.751	137.62
453.971	150.62
454.192	147.62
454.412	98.62
454.633	82.62
454.853	88.62
455.073	87.62
455.294	86.62
455.514	103.62
455.734	95.62
455.955	102.62
456.175	84.62
456.395	104.62
456.616	95.62
456.836	102.62
457.056	97.62
457.276	99.62
457.497	116.62
457.717	128.62
457.937	107.62
458.157	99.62
458.377	91.62
458.598	90.62
458.818	98.62
459.038	86.62
459.258	91.62
459.478	91.62
459.698	97.62
459.918	87.62
460.138	97.62
460.358	93.62
460.578	98.62
460.798	110.62
461.018	91.62
461.238	82.62
461.458	86.62
461.678	80.62
461.898	103.62
462.118	94.62
462.338	93.62
462.558	90.62
462.777	97.62
462.997	104.62
463.217	99.62
463.437	146.62
463.657	180.62
463.876	177.62
464.096	115.62
464.316	104.62
464.536	99.62
464.755	94.62
464.975	107.62
465.195	102.62
465.414	90.62
465.634	97.62
465.854	92.62
466.073	95.62
466.293	93.62
466.512	102.62
466.732	94.62
466.951	105.62
467.171	128.62
467.391	130.62
467.61	123.62
467.829	94.62
468.049	88.62
468.268	108.62
468.488	75.62
468.707	93.62
468.927	94.62
469.146	99.62
469.365	94.62
469.585	106.62
469.804	82.62
470.023	105.62
470.243	103.62
470.462	104.62
470.681	104.62
470.901	117.62
471.12	182.62
471.339	201.62
471.558	122.62
471.777	97.62
471.997	99.62
472.216	81.62
472.435	94.62
472.654	94.62
472.873	99.62
473.092	107.62
473.311	88.62
473.53	103.62
473.749	110.62
473.968	96.62
474.187	100.62
474.406	97.62
474.625	90.62
474.844	99.62
475.063	94.62
475.282	106.62
475.501	90.62
475.72	114.62
475.939	90.62
476.158	102.62
476.377	101.62
476.596	104.62
476.814	104.62
477.033	119.62
477.252	104.62
477.471	105.62
477.69	102.62
477.908	91.62
478.127	99.62
478.346	114.62
478.564	97.62
478.783	91.62
479.002	101.62
479.22	97.62
479.439	101.62
479.658	108.62
479.876	103.62
480.095	98.62
480.313	90.62
480.532	84.62
480.751	107.62
480.969	95.62
481.188	82.62
481.406	114.62
481.624	85.62
481.843	108.62
482.061	122.62
482.28	96.62
482.498	103.62
482.717	102.62
482.935	100.62
483.153	112.62
483.372	105.62
483.59	91.62
483.808	103.62
484.027	117.62
484.245	119.62
484.463	179.62
484.681	192.62
484.9	138.62
485.118	106.62
485.336	98.62
485.554	115.62
485.772	122.62
485.99	170.62
486.209	220.62
486.427	142.62
486.645	112.62
486.863	104.62
487.081	112.62
487.299	89.62
487.517	111.62
487.735	99.62
487.953	99.62
488.171	111.62
488.389	120.62
488.607	105.62
488.825	96.62
489.043	87.62
489.261	95.62
489.479	93.62
489.696	91.62
489.914	99.62
490.132	113.62
490.35	91.62
490.568	94.62
490.786	104.62
491.003	112.62
491.221	122.62
491.439	115.62
491.657	110.62
491.874	119.62
492.092	92.62
492.31	112.62
492.527	89.62
492.745	100.62
492.963	103.62
493.18	107.62
493.398	100.62
493.615	119.62
493.833	115.62
494.05	91.62
494.268	88.62
494.485	105.62
494.703	110.62
494.92	113.62
495.138	104.62
495.355	95.62
495.573	93.62
495.79	101.62
496.008	105.62
496.225	98.62
496.442	110.62
496.66	126.62
496.877	142.62
497.094	126.62
497.312	107.62
497.529	100.62
497.746	103.62
497.963	103.62
498.181	110.62
498.398	113.62
498.615	97.62
498.832	105.62
499.049	110.62
499.267	116.62
499.484	144.62
499.701	106.62
499.918	98.62
500.135	106.62
500.352	82.62
500.569	103.62
500.786	109.62
501.003	112.62
501.22	100.62
501.437	110.62
501.654	94.62
501.871	113.62
502.088	99.62
502.305	86.62
502.522	116.62
502.739	110.62
502.956	108.62
503.172	103.62
503.389	105.62
503.606	107.62
503.823	95.62
504.04	95.62
504.256	90.62
504.473	90.62
504.69	97.62
504.907	90.62
505.123	122.62
505.34	106.62
505.557	113.62
505.773	110.62
505.99	99.62
506.207	97.62
506.423	112.62
506.64	102.62
506.856	110.62
507.073	111.62
507.289	113.62
507.506	92.62
507.722	101.62
507.939	99.62
508.155	103.62
508.372	90.62
508.588	91.62
508.805	102.62
509.021	102.62
509.238	107.62
509.454	132.62
509.67	160.62
509.887	105.62
510.103	108.62
510.319	106.62
510.536	100.62
510.752	121.62
510.968	105.62
511.184	100.62
511.401	90.62
511.617	102.62
511.833	105.62
512.049	105.62
512.265	103.62
512.481	94.62
512.698	90.62
512.914	98.62
513.13	101.62
513.346	89.62
513.562	110.62
513.778	104.62
513.994	102.62
514.21	98.62
514.426	143.62
514.642	168.62
514.858	119.62
515.074	121.62
515.29	117.62
515.506	92.62
515.721	88.62
515.937	102.62
516.153	91.62
516.369	97.62
516.585	97.62
516.801	105.62
517.016	95.62
517.232	94.62
517.448	110.62
517.664	102.62
517.879	91.62
518.095	120.62
518.311	90.62
518.527	90.62
518.742	106.62
518.958	107.62
519.173	136.62
519.389	126.62
519.605	91.62
519.82	102.62
520.036	88.62
520.251	93.62
520.467	76.62
520.682	99.62
520.898	92.62
521.113	95.62
521.329	96.62
521.544	99.62
521.76	89.62
521.975	113.62
522.19	111.62
522.406	95.62
522.621	98.62
522.836	97.62
523.052	103.62
523.267	97.62
523.482	99.62
523.698	105.62
523.913	96.62
524.128	104.62
524.343	84.62
524.559	96.62
524.774	114.62
524.989	102.62
525.204	103.62
525.419	101.62
525.634	98.62
525.849	104.62
526.064	90.62
526.28	90.62
526.495	89.62
526.71	96.62
526.925	102.62
527.14	85.62
527.355	100.62
527.57	91.62
527.785	104.62
527.999	78.62
528.214	77.62
528.429	94.62
528.644	97.62
528.859	95.62
529.074	110.62
529.289	92.62
529.503	95.62
529.718	118.62
529.933	106.62
530.148	87.62
530.363	94.62
530.577	101.62
530.792	88.62
531.007	92.62
531.221	102.62
531.436	87.62
531.651	94.62
531.865	91.62
532.08	103.62
532.295	123.62
532.509	130.62
532.724	118.62
532.938	97.62
533.153	91.62
533.367	88.62
533.582	82.62
533.796	99.62
534.011	96.62
534.225	94.62
534.44	83.62
534.654	91.62
534.868	81.62
535.083	104.62
535.297	87.62
535.511	91.62
535.726	88.62
535.94	110.62
536.154	94.62
536.369	89.62
536.583	99.62
536.797	101.62
537.011	95.62
537.225	91.62
537.44	83.62
537.654	96.62
537.868	89.62
538.082	83.62
538.296	99.62
538.51	111.62
538.724	98.62
538.938	98.62
539.153	97.62
539.367	98.62
539.581	94.62
539.795	100.62
540.009	95.62
540.222	94.62
540.436	101.62
540.65	100.62
540.864	104.62
541.078	116.62
541.292	119.62
541.506	207.62
541.72	181.62
541.934	118.62
542.147	116.62
542.361	113.62
542.575	89.62
542.789	99.62
543.002	91.62
543.216	113.62
543.43	106.62
543.644	116.62
543.857	103.62
544.071	97.62
544.285	98.62
544.498	106.62
544.712	105.62
544.925	103.62
545.139	86.62
545.352	90.62
545.566	104.62
545.779	102.62
545.993	104.62
546.206	97.62
546.42	108.62
546.633	124.62
546.847	92.62
547.06	97.62
547.274	103.62
547.487	91.62
547.7	96.62
547.914	102.62
548.127	100.62
548.34	110.62
548.554	94.62
548.767	107.62
548.98	98.62
549.193	86.62
549.407	106.62
549.62	104.62
549.833	98.62
550.046	106.62
550.259	104.62
550.473	112.62
550.686	103.62
550.899	110.62
551.112	111.62
551.325	101.62
551.538	102.62
551.751	102.62
551.964	89.62
552.177	102.62
552.39	94.62
552.603	108.62
552.816	92.62
553.029	110.62
553.242	101.62
553.455	91.62
553.667	104.62
553.88	111.62
554.093	115.62
554.306	112.62
554.519	90.62
554.732	93.62
554.944	92.62
555.157	101.62
555.37	105.62
555.583	107.62
555.795	104.62
556.008	120.62
556.221	135.62
556.433	133.62
556.646	97.62
556.859	112.62
557.071	99.62
557.284	132.62
557.496	111.62
557.709	107.62
557.921	112.62
558.134	114.62
558.346	89.62
558.559	102.62
558.771	97.62
558.984	106.62
559.196	104.62
559.409	95.62
559.621	104.62
559.833	88.62
560.046	101.62
560.258	97.62
560.47	91.62
560.683	101.62
560.895	89.62
561.107	98.62
561.32	94.62
561.532	90.62
561.744	115.62
561.956	97.62
562.168	96.62
562.381	97.62
562.593	114.62
562.805	131.62
563.017	165.62
563.229	243.62
563.441	559.62
563.653	203.62
563.865	94.62
564.077	105.62
564.289	104.62
564.501	107.62
564.713	98.62
564.925	103.62
565.137	107.62
565.349	99.62
565.561	102.62
565.773	86.62
565.985	95.62
566.197	80.62
566.408	104.62
566.62	103.62
566.832	91.62
567.044	108.62
567.255	85.62
567.467	93.62
567.679	103.62
567.891	114.62
568.102	158.62
568.314	231.62
568.526	150.62
568.737	104.62
568.949	90.62
569.161	92.62
569.372	85.62
569.584	81.62
569.795	89.62
570.007	90.62
570.218	114.62
570.43	147.62
570.641	120.62
570.853	94.62
571.064	100.62
571.276	95.62
571.487	79.62
571.698	84.62
571.91	87.62
572.121	100.62
572.333	97.62
572.544	103.62
572.755	128.62
572.966	182.62
573.178	137.62
573.389	102.62
573.6	97.62
573.811	89.62
574.023	103.62
574.234	94.62
574.445	89.62
574.656	103.62
574.867	98.62
575.078	98.62
575.289	80.62
575.501	95.62
575.712	89.62
575.923	94.62
576.134	84.62
576.345	76.62
576.556	106.62
576.767	92.62
576.978	99.62
577.188	94.62
577.399	98.62
577.61	95.62
577.821	100.62
578.032	93.62
578.243	89.62
578.454	95.62
578.665	98.62
578.875	83.62
579.086	85.62
579.297	83.62
579.508	103.62
579.718	92.62
579.929	93.62
580.14	103.62
580.35	100.62
580.561	102.62
580.772	83.62
580.982	96.62
581.193	88.62
581.403	89.62
581.614	103.62
581.825	89.62
582.035	83.62
582.246	97.62
582.456	99.62
582.667	108.62
582.877	107.62
583.087	132.62
583.298	96.62
583.508	94.62
583.719	87.62
583.929	100.62
584.139	96.62
584.35	86.62
584.56	94.62
584.77	89.62
584.981	89.62
585.191	100.62
585.401	96.62
585.611	86.62
585.821	101.62
586.032	86.62
586.242	87.62
586.452	86.62
586.662	97.62
586.872	85.62
587.082	82.62
587.292	89.62
587.502	100.62
587.713	95.62
587.923	88.62
588.133	107.62
588.343	90.62
588.553	98.62
588.762	86.62
588.972	89.62
589.182	114.62
589.392	108.62
589.602	114.62
589.812	118.62
590.022	110.62
590.232	94.62
590.441	84.62
590.651	88.62
590.861	84.62
591.071	92.62
591.281	86.62
591.49	88.62
591.7	95.62
591.91	84.62
592.119	86.62
592.329	101.62
592.539	71.62
592.748	84.62
592.958	101.62
593.167	105.62
593.377	87.62
593.587	93.62
593.796	83.62
594.006	87.62
594.215	98.62
594.424	98.62
594.634	84.62
594.843	80.62
595.053	83.62
595.262	91.62
595.472	99.62
595.681	83.62
595.89	93.62
596.1	110.62
596.309	92.62
596.518	94.62
596.727	103.62
596.937	87.62
597.146	91.62
597.355	110.62
597.564	101.62
597.774	105.62
597.983	80.62
598.192	92.62
598.401	86.62
598.61	92.62
598.819	94.62
599.028	78.62
599.237	81.62
599.446	89.62
599.655	94.62
599.864	99.62
600.073	77.62
600.282	96.62
600.491	93.62
600.7	84.62
600.909	105.62
601.118	99.62
601.327	81.62
601.536	95.62
601.745	98.62
601.953	127.62
602.162	155.62
602.371	119.62
602.58	102.62
602.789	93.62
602.997	99.62
603.206	89.62
603.415	99.62
603.623	98.62
603.832	94.62
604.041	114.62
604.249	89.62
604.458	101.62
604.666	92.62
604.875	89.62
605.084	95.62
605.292	87.62
605.501	86.62
605.709	102.62
605.918	98.62
606.126	98.62
606.334	112.62
606.543	88.62
606.751	136.62
606.96	161.62
607.168	166.62
607.376	122.62
607.585	104.62
607.793	107.62
608.001	110.62
608.21	109.62
608.418	85.62
608.626	89.62
608.834	91.62
609.043	78.62
609.251	78.62
609.459	85.62
609.667	92.62
609.875	92.62
610.083	89.62
610.291	100.62
610.499	90.62
610.707	86.62
610.916	87.62
611.124	86.62
611.332	92.62
611.54	97.62
611.748	104.62
611.955	94.62
612.163	89.62
612.371	89.62
612.579	79.62
612.787	81.62
612.995	81.62
613.203	95.62
613.411	80.62
613.618	90.62
613.826	77.62
614.034	93.62
614.242	106.62
614.449	103.62
614.657	80.62
614.865	95.62
615.072	105.62
615.28	114.62
615.488	100.62
615.695	96.62
615.903	99.62
616.111	96.62
616.318	94.62
616.526	79.62
616.733	101.62
616.941	97.62
617.148	98.62
617.356	97.62
617.563	97.62
617.771	102.62
617.978	103.62
618.185	88.62
618.393	80.62
618.6	91.62
618.807	88.62
619.015	100.62
619.222	81.62
619.429	81.62
619.637	93.62
619.844	92.62
620.051	75.62
620.258	85.62
620.466	91.62
620.673	96.62
620.88	99.62
621.087	103.62
621.294	96.62
621.501	110.62
621.708	83.62
621.915	100.62
622.122	98.62
622.329	90.62
622.536	94.62
622.743	92.62
622.95	89.62
623.157	95.62
623.364	89.62
623.571	82.62
623.778	69.62
623.985	99.62
624.192	96.62
624.399	93.62
624.606	88.62
624.812	88.62
625.019	96.62
625.226	91.62
625.433	94.62
625.639	93.62
625.846	89.62
626.053	88.62
626.259	87.62
626.466	83.62
626.673	94.62
626.879	92.62
627.086	87.62
627.293	81.62
627.499	91.62
627.706	94.62
627.912	107.62
628.119	83.62
628.325	83.62
628.532	96.62
628.738	86.62
628.945	84.62
629.151	95.62
629.357	96.62
629.564	88.62
629.77	91.62
629.976	96.62
630.183	85.62
630.389	92.62
630.595	97.62
630.802	82.62
631.008	81.62
631.214	95.62
631.42	93.62
631.627	100.62
631.833	83.62
632.039	97.62
632.245	97.62
632.451	88.62
632.657	80.62
632.863	79.62
633.069	89.62
633.275	91.62
633.481	89.62
633.688	86.62
633.893	91.62
634.099	92.62
634.305	81.62
634.511	63.62
634.717	85.62
634.923	96.62
635.129	113.62
635.335	133.62
635.541	84.62
635.747	98.62
635.952	94.62
636.158	92.62
636.364	83.62
636.57	83.62
636.775	86.62
636.981	85.62
637.187	95.62
637.392	90.62
637.598	92.62
637.804	91.62
638.009	85.62
638.215	79.62
638.421	76.62
638.626	90.62
638.832	97.62
639.037	78.62
639.243	84.62
639.448	86.62
639.654	100.62
639.859	83.62
640.065	89.62
640.27	88.62
640.475	86.62
640.681	94.62
640.886	81.62
641.091	73.62
641.297	83.62
641.502	93.62
641.707	82.62
641.913	100.62
642.118	95.62
642.323	108.62
642.528	78.62
642.733	81.62
642.939	87.62
643.144	91.62
643.349	88.62
643.554	73.62
643.759	88.62
643.964	88.62
644.169	89.62
644.374	73.62
644.579	89.62
644.784	99.62
644.989	92.62
645.194	82.62
645.399	95.62
645.604	112.62
645.809	89.62
646.014	80.62
646.219	74.62
646.423	75.62
646.628	97.62
646.833	84.62
647.038	82.62
647.243	86.62
647.447	76.62
647.652	88.62
647.857	99.62
648.062	98.62
648.266	85.62
648.471	81.62
648.676	87.62
648.88	88.62
649.085	82.62
649.289	84.62
649.494	84.62
649.698	87.62
649.903	87.62
650.107	77.62
650.312	105.62
650.516	87.62
650.721	83.62
650.925	92.62
651.13	88.62
651.334	97.62
651.539	79.62
651.743	81.62
651.947	98.62
652.152	92.62
652.356	87.62
652.56	79.62
652.764	113.62
652.969	96.62
653.173	78.62
653.377	97.62
653.581	93.62
653.785	77.62
653.99	79.62
654.194	88.62
654.398	78.62
654.602	76.62
654.806	86.62
655.01	86.62
655.214	102.62
655.418	83.62
655.622	77.62
655.826	84.62
656.03	79.62
656.234	75.62
656.438	87.62
656.642	85.62
656.846	87.62
657.049	77.62
657.253	94.62
657.457	73.62
657.661	86.62
657.865	83.62
658.068	94.62
658.272	85.62
658.476	75.62
658.68	91.62
658.883	100.62
659.087	94.62
659.291	89.62
659.494	102.62
659.698	90.62
659.901	76.62
660.105	97.62
660.309	90.62
660.512	94.62
660.716	95.62
660.919	83.62
661.123	80.62
661.326	70.62
661.53	82.62
661.733	83.62
661.936	83.62
662.14	91.62
662.343	88.62
662.546	82.62
662.75	101.62
662.953	81.62
663.156	89.62
663.36	91.62
663.563	71.62
663.766	82.62
663.969	89.62
664.173	96.62
664.376	95.62
664.579	86.62
664.782	80.62
664.985	72.62
665.188	80.62
665.391	87.62
665.594	83.62
665.797	103.62
666	74.62
666.203	79.62
666.406	86.62
666.609	85.62
666.812	85.62
667.015	90.62
667.218	79.62
667.421	73.62
667.624	81.62
667.827	92.62
668.03	86.62
668.232	80.62
668.435	89.62
668.638	76.62
668.841	92.62
669.043	85.62
669.246	79.62
669.449	81.62
669.651	81.62
669.854	81.62
670.057	80.62
670.259	75.62
670.462	72.62
670.665	89.62
670.867	82.62
671.07	81.62
671.272	74.62
671.475	91.62
671.677	86.62
671.88	85.62
672.082	81.62
672.284	82.62
672.487	84.62
672.689	82.62
672.892	79.62
