Data from SnStandardFlinnAPT0064_QswitchEnergy10_LIBS07252019.E.O._I.C._HRD10591_15-29-03-974.txt Node
Date: Thu Jul 25 15:29:03 EDT 2019
User: cochatt
Spectrometer: HR+D1059
Trigger mode: 1
Integration Time (sec): 1.000000E-1
Scans to average: 1
Electric dark correction enabled: true
Nonlinearity correction enabled: false
Boxcar width: 0
XAxis mode: Wavelengths
Number of Pixels in Spectrum: 2048
>>>>>Begin Spectral Data<<<<<
223.165	-10.81
223.4	-10.81
223.635	-10.81
223.869	-23.81
224.104	-7.81
224.338	-9.81
224.573	-10.81
224.808	-18.81
225.042	-6.81
225.277	-6.81
225.511	-14.81
225.746	-0.81
225.98	13.19
226.215	8.19
226.449	13.19
226.683	17.19
226.918	24.19
227.152	35.19
227.387	14.19
227.621	43.19
227.856	55.19
228.09	35.19
228.324	65.19
228.559	65.19
228.793	72.19
229.027	94.19
229.262	92.19
229.496	59.19
229.73	74.19
229.964	77.19
230.199	72.19
230.433	92.19
230.667	75.19
230.901	70.19
231.136	104.19
231.37	88.19
231.604	107.19
231.838	112.19
232.072	128.19
232.306	145.19
232.541	104.19
232.775	88.19
233.009	96.19
233.243	97.19
233.477	94.19
233.711	97.19
233.945	112.19
234.179	97.19
234.413	100.19
234.647	92.19
234.881	94.19
235.115	82.19
235.349	88.19
235.583	116.19
235.817	142.19
236.051	142.19
236.285	110.19
236.519	100.19
236.753	80.19
236.987	85.19
237.221	81.19
237.455	77.19
237.689	82.19
237.922	87.19
238.156	102.19
238.39	106.19
238.624	103.19
238.858	89.19
239.091	78.19
239.325	76.19
239.559	93.19
239.793	73.19
240.027	88.19
240.26	100.19
240.494	96.19
240.728	74.19
240.961	95.19
241.195	113.19
241.429	101.19
241.662	89.19
241.896	104.19
242.13	114.19
242.363	140.19
242.597	184.19
242.83	149.19
243.064	136.19
243.298	205.19
243.531	167.19
243.765	109.19
243.998	110.19
244.232	108.19
244.465	88.19
244.699	92.19
244.932	95.19
245.166	85.19
245.399	83.19
245.633	92.19
245.866	92.19
246.099	100.19
246.333	87.19
246.566	86.19
246.8	81.19
247.033	85.19
247.266	83.19
247.5	103.19
247.733	78.19
247.966	87.19
248.2	105.19
248.433	125.19
248.666	119.19
248.899	139.19
249.133	104.19
249.366	98.19
249.599	122.19
249.832	132.19
250.066	141.19
250.299	100.19
250.532	99.19
250.765	80.19
250.998	92.19
251.231	89.19
251.465	89.19
251.698	96.19
251.931	85.19
252.164	86.19
252.397	101.19
252.63	108.19
252.863	119.19
253.096	107.19
253.329	99.19
253.562	101.19
253.795	113.19
254.028	110.19
254.261	89.19
254.494	118.19
254.727	126.19
254.96	175.19
255.193	152.19
255.426	102.19
255.659	103.19
255.892	97.19
256.124	120.19
256.357	101.19
256.59	122.19
256.823	112.19
257.056	127.19
257.289	173.19
257.521	208.19
257.754	142.19
257.987	109.19
258.22	87.19
258.452	89.19
258.685	103.19
258.918	108.19
259.151	116.19
259.383	119.19
259.616	136.19
259.849	166.19
260.081	109.19
260.314	101.19
260.547	89.19
260.779	89.19
261.012	93.19
261.244	95.19
261.477	96.19
261.71	94.19
261.942	87.19
262.175	113.19
262.407	101.19
262.64	92.19
262.872	77.19
263.105	103.19
263.337	95.19
263.57	93.19
263.802	90.19
264.035	103.19
264.267	99.19
264.499	117.19
264.732	98.19
264.964	101.19
265.197	87.19
265.429	102.19
265.661	106.19
265.894	107.19
266.126	128.19
266.358	192.19
266.591	158.19
266.823	106.19
267.055	103.19
267.287	93.19
267.52	95.19
267.752	97.19
267.984	101.19
268.216	92.19
268.448	112.19
268.681	94.19
268.913	91.19
269.145	100.19
269.377	96.19
269.609	94.19
269.841	111.19
270.073	124.19
270.306	143.19
270.538	234.19
270.77	392.19
271.002	432.19
271.234	231.19
271.466	128.19
271.698	109.19
271.93	92.19
272.162	89.19
272.394	112.19
272.626	97.19
272.858	106.19
273.09	88.19
273.322	98.19
273.553	97.19
273.785	93.19
274.017	97.19
274.249	102.19
274.481	93.19
274.713	91.19
274.945	100.19
275.176	89.19
275.408	104.19
275.64	96.19
275.872	85.19
276.104	108.19
276.335	112.19
276.567	109.19
276.799	104.19
277.031	114.19
277.262	108.19
277.494	116.19
277.726	146.19
277.957	214.19
278.189	299.19
278.421	273.19
278.652	229.19
278.884	238.19
279.115	166.19
279.347	113.19
279.579	101.19
279.81	96.19
280.042	102.19
280.273	90.19
280.505	114.19
280.736	117.19
280.968	146.19
281.199	208.19
281.431	287.19
281.662	330.19
281.894	176.19
282.125	128.19
282.356	112.19
282.588	134.19
282.819	132.19
283.051	131.19
283.282	163.19
283.513	231.19
283.745	376.19
283.976	650.19
284.207	932.19
284.439	698.19
284.67	331.19
284.901	296.19
285.132	428.19
285.364	468.19
285.595	268.19
285.826	198.19
286.057	287.19
286.288	501.19
286.52	730.19
286.751	558.19
286.982	214.19
287.213	136.19
287.444	130.19
287.675	113.19
287.906	101.19
288.138	107.19
288.369	99.19
288.6	105.19
288.831	114.19
289.062	105.19
289.293	104.19
289.524	106.19
289.755	113.19
289.986	97.19
290.217	110.19
290.448	101.19
290.679	120.19
290.91	154.19
291.141	207.19
291.371	300.19
291.602	369.19
291.833	248.19
292.064	134.19
292.295	113.19
292.526	101.19
292.757	98.19
292.987	96.19
293.218	91.19
293.449	94.19
293.68	107.19
293.91	92.19
294.141	101.19
294.372	96.19
294.603	102.19
294.833	106.19
295.064	97.19
295.295	105.19
295.525	103.19
295.756	114.19
295.987	110.19
296.217	101.19
296.448	103.19
296.679	98.19
296.909	104.19
297.14	128.19
297.37	106.19
297.601	96.19
297.831	121.19
298.062	106.19
298.292	112.19
298.523	121.19
298.753	96.19
298.984	113.19
299.214	128.19
299.445	112.19
299.675	128.19
299.905	126.19
300.136	138.19
300.366	215.19
300.597	328.19
300.827	532.19
301.057	812.19
301.288	733.19
301.518	302.19
301.748	164.19
301.979	146.19
302.209	164.19
302.439	162.19
302.669	186.19
302.9	338.19
303.13	621.19
303.36	1048.19
303.59	1474.19
303.82	1000.19
304.051	368.19
304.281	172.19
304.511	142.19
304.741	135.19
304.971	136.19
305.201	126.19
305.431	139.19
305.661	129.19
305.891	113.19
306.121	126.19
306.352	114.19
306.582	122.19
306.812	130.19
307.042	144.19
307.272	125.19
307.502	107.19
307.731	107.19
307.961	117.19
308.191	108.19
308.421	134.19
308.651	118.19
308.881	105.19
309.111	113.19
309.341	124.19
309.571	116.19
309.8	108.19
310.03	128.19
310.26	137.19
310.49	120.19
310.72	122.19
310.949	125.19
311.179	121.19
311.409	125.19
311.639	124.19
311.868	124.19
312.098	137.19
312.328	121.19
312.557	138.19
312.787	138.19
313.017	124.19
313.246	140.19
313.476	144.19
313.706	147.19
313.935	187.19
314.165	230.19
314.394	296.19
314.624	211.19
314.853	152.19
315.083	138.19
315.312	149.19
315.542	155.19
315.771	152.19
316.001	159.19
316.23	165.19
316.46	182.19
316.689	215.19
316.919	327.19
317.148	590.19
317.377	1099.19
317.607	1741.19
317.836	1635.19
318.065	632.19
318.295	278.19
318.524	184.19
318.753	160.19
318.983	151.19
319.212	154.19
319.441	164.19
319.67	137.19
319.9	140.19
320.129	139.19
320.358	130.19
320.587	129.19
320.816	142.19
321.046	149.19
321.275	140.19
321.504	169.19
321.733	159.19
321.962	188.19
322.191	183.19
322.42	173.19
322.649	164.19
322.878	139.19
323.108	123.19
323.337	134.19
323.566	143.19
323.795	154.19
324.024	152.19
324.253	152.19
324.482	202.19
324.71	265.19
324.939	322.19
325.168	277.19
325.397	244.19
325.626	322.19
325.855	598.19
326.084	1119.19
326.313	1904.19
326.542	1892.19
326.77	749.19
326.999	316.19
327.228	246.19
327.457	273.19
327.686	258.19
327.914	198.19
328.143	162.19
328.372	150.19
328.6	153.19
328.829	151.19
329.058	141.19
329.287	140.19
329.515	155.19
329.744	136.19
329.972	144.19
330.201	133.19
330.43	132.19
330.658	128.19
330.887	152.19
331.115	129.19
331.344	130.19
331.572	142.19
331.801	132.19
332.03	145.19
332.258	153.19
332.486	217.19
332.715	351.19
332.943	594.19
333.172	908.19
333.4	766.19
333.629	303.19
333.857	177.19
334.085	148.19
334.314	150.19
334.542	123.19
334.771	135.19
334.999	126.19
335.227	139.19
335.455	150.19
335.684	140.19
335.912	123.19
336.14	136.19
336.369	129.19
336.597	111.19
336.825	137.19
337.053	128.19
337.281	112.19
337.51	138.19
337.738	126.19
337.966	120.19
338.194	132.19
338.422	132.19
338.65	126.19
338.878	141.19
339.106	139.19
339.334	136.19
339.562	142.19
339.79	134.19
340.018	126.19
340.246	128.19
340.474	128.19
340.702	138.19
340.93	130.19
341.158	119.19
341.386	143.19
341.614	144.19
341.842	148.19
342.07	148.19
342.298	127.19
342.526	126.19
342.754	133.19
342.981	123.19
343.209	142.19
343.437	130.19
343.665	120.19
343.893	116.19
344.12	112.19
344.348	130.19
344.576	131.19
344.804	124.19
345.031	123.19
345.259	125.19
345.487	124.19
345.714	126.19
345.942	120.19
346.17	127.19
346.397	124.19
346.625	128.19
346.853	118.19
347.08	138.19
347.308	126.19
347.535	108.19
347.763	109.19
347.99	127.19
348.218	116.19
348.445	120.19
348.673	132.19
348.9	142.19
349.128	133.19
349.355	138.19
349.583	143.19
349.81	131.19
350.037	132.19
350.265	139.19
350.492	141.19
350.72	121.19
350.947	122.19
351.174	123.19
351.402	120.19
351.629	125.19
351.856	118.19
352.083	124.19
352.311	105.19
352.538	123.19
352.765	118.19
352.992	107.19
353.22	121.19
353.447	120.19
353.674	118.19
353.901	117.19
354.128	110.19
354.355	121.19
354.583	121.19
354.81	127.19
355.037	109.19
355.264	113.19
355.491	114.19
355.718	112.19
355.945	111.19
356.172	133.19
356.399	109.19
356.626	131.19
356.853	123.19
357.08	115.19
357.307	124.19
357.534	116.19
357.761	112.19
357.988	128.19
358.215	121.19
358.441	122.19
358.668	125.19
358.895	142.19
359.122	139.19
359.349	138.19
359.576	135.19
359.802	142.19
360.029	137.19
360.256	125.19
360.483	125.19
360.709	120.19
360.936	127.19
361.163	120.19
361.39	124.19
361.616	124.19
361.843	124.19
362.07	136.19
362.296	112.19
362.523	127.19
362.749	125.19
362.976	122.19
363.203	118.19
363.429	123.19
363.656	124.19
363.882	129.19
364.109	141.19
364.335	135.19
364.562	102.19
364.788	117.19
365.015	140.19
365.241	166.19
365.468	228.19
365.694	303.19
365.92	255.19
366.147	134.19
366.373	112.19
366.599	109.19
366.826	101.19
367.052	124.19
367.278	92.19
367.505	110.19
367.731	106.19
367.957	95.19
368.184	128.19
368.41	147.19
368.636	132.19
368.862	117.19
369.089	120.19
369.315	118.19
369.541	124.19
369.767	122.19
369.993	110.19
370.219	126.19
370.445	138.19
370.672	130.19
370.898	114.19
371.124	120.19
371.35	107.19
371.576	136.19
371.802	118.19
372.028	124.19
372.254	139.19
372.48	125.19
372.706	137.19
372.932	122.19
373.158	138.19
373.384	136.19
373.61	143.19
373.835	142.19
374.061	134.19
374.287	125.19
374.513	128.19
374.739	133.19
374.965	134.19
375.191	123.19
375.416	119.19
375.642	136.19
375.868	123.19
376.094	120.19
376.319	118.19
376.545	113.19
376.771	126.19
376.997	111.19
377.222	138.19
377.448	122.19
377.674	133.19
377.899	127.19
378.125	126.19
378.35	112.19
378.576	137.19
378.802	126.19
379.027	136.19
379.253	168.19
379.478	195.19
379.704	355.19
379.929	944.19
380.155	1942.19
380.38	1996.19
380.606	644.19
380.831	239.19
381.057	156.19
381.282	138.19
381.507	126.19
381.733	128.19
381.958	119.19
382.184	118.19
382.409	103.19
382.634	112.19
382.86	107.19
383.085	113.19
383.31	108.19
383.535	127.19
383.761	136.19
383.986	129.19
384.211	105.19
384.436	138.19
384.662	124.19
384.887	122.19
385.112	122.19
385.337	117.19
385.562	125.19
385.787	110.19
386.013	118.19
386.238	114.19
386.463	121.19
386.688	116.19
386.913	111.19
387.138	140.19
387.363	119.19
387.588	125.19
387.813	122.19
388.038	117.19
388.263	116.19
388.488	127.19
388.713	112.19
388.938	118.19
389.163	116.19
389.387	125.19
389.612	111.19
389.837	107.19
390.062	117.19
390.287	113.19
390.512	107.19
390.736	114.19
390.961	102.19
391.186	111.19
391.411	116.19
391.636	118.19
391.86	108.19
392.085	111.19
392.31	112.19
392.534	116.19
392.759	118.19
392.984	125.19
393.208	134.19
393.433	166.19
393.658	164.19
393.882	118.19
394.107	87.19
394.331	111.19
394.556	118.19
394.78	108.19
395.005	112.19
395.229	123.19
395.454	125.19
395.678	119.19
395.903	107.19
396.127	120.19
396.352	113.19
396.576	119.19
396.801	142.19
397.025	150.19
397.249	113.19
397.474	105.19
397.698	110.19
397.922	109.19
398.147	110.19
398.371	99.19
398.595	104.19
398.82	104.19
399.044	118.19
399.268	122.19
399.492	116.19
399.717	112.19
399.941	127.19
400.165	103.19
400.389	96.19
400.613	101.19
400.837	111.19
401.062	109.19
401.286	105.19
401.51	116.19
401.734	107.19
401.958	108.19
402.182	102.19
402.406	105.19
402.63	108.19
402.854	111.19
403.078	112.19
403.302	110.19
403.526	113.19
403.75	108.19
403.974	105.19
404.198	92.19
404.422	110.19
404.645	118.19
404.869	125.19
405.093	110.19
405.317	107.19
405.541	119.19
405.765	151.19
405.988	181.19
406.212	133.19
406.436	119.19
406.66	115.19
406.883	121.19
407.107	105.19
407.331	98.19
407.555	122.19
407.778	116.19
408.002	112.19
408.226	109.19
408.449	116.19
408.673	116.19
408.896	108.19
409.12	118.19
409.344	122.19
409.567	97.19
409.791	105.19
410.014	120.19
410.238	128.19
410.461	110.19
410.685	115.19
410.908	95.19
411.132	118.19
411.355	108.19
411.578	105.19
411.802	98.19
412.025	98.19
412.249	92.19
412.472	100.19
412.695	103.19
412.919	105.19
413.142	111.19
413.365	121.19
413.589	104.19
413.812	118.19
414.035	88.19
414.258	101.19
414.482	126.19
414.705	118.19
414.928	121.19
415.151	117.19
415.374	119.19
415.597	119.19
415.821	103.19
416.044	121.19
416.267	120.19
416.49	100.19
416.713	116.19
416.936	106.19
417.159	105.19
417.382	99.19
417.605	116.19
417.828	130.19
418.051	109.19
418.274	113.19
418.497	96.19
418.72	97.19
418.943	114.19
419.166	123.19
419.389	130.19
419.611	117.19
419.834	111.19
420.057	113.19
420.28	108.19
420.503	111.19
420.726	112.19
420.948	103.19
421.171	114.19
421.394	102.19
421.617	92.19
421.839	107.19
422.062	105.19
422.285	128.19
422.507	119.19
422.73	143.19
422.953	166.19
423.175	119.19
423.398	104.19
423.621	95.19
423.843	107.19
424.066	94.19
424.288	95.19
424.511	108.19
424.733	118.19
424.956	116.19
425.178	92.19
425.401	103.19
425.623	108.19
425.846	112.19
426.068	103.19
426.291	98.19
426.513	114.19
426.735	103.19
426.958	102.19
427.18	103.19
427.402	109.19
427.625	109.19
427.847	118.19
428.069	116.19
428.292	111.19
428.514	108.19
428.736	105.19
428.958	102.19
429.181	101.19
429.403	109.19
429.625	113.19
429.847	106.19
430.069	119.19
430.292	111.19
430.514	120.19
430.736	93.19
430.958	119.19
431.18	97.19
431.402	109.19
431.624	117.19
431.846	109.19
432.068	101.19
432.29	100.19
432.512	99.19
432.734	103.19
432.956	99.19
433.178	103.19
433.4	92.19
433.622	105.19
433.844	105.19
434.066	92.19
434.287	104.19
434.509	94.19
434.731	122.19
434.953	102.19
435.175	96.19
435.397	100.19
435.618	105.19
435.84	103.19
436.062	101.19
436.284	101.19
436.505	86.19
436.727	104.19
436.949	98.19
437.17	86.19
437.392	103.19
437.614	106.19
437.835	81.19
438.057	107.19
438.278	95.19
438.5	110.19
438.721	110.19
438.943	117.19
439.165	130.19
439.386	129.19
439.608	124.19
439.829	113.19
440.05	121.19
440.272	133.19
440.493	113.19
440.715	116.19
440.936	100.19
441.158	95.19
441.379	94.19
441.6	101.19
441.822	114.19
442.043	127.19
442.264	161.19
442.486	135.19
442.707	103.19
442.928	110.19
443.149	110.19
443.371	111.19
443.592	98.19
443.813	109.19
444.034	105.19
444.255	118.19
444.476	100.19
444.698	98.19
444.919	111.19
445.14	189.19
445.361	136.19
445.582	117.19
445.803	117.19
446.024	97.19
446.245	116.19
446.466	122.19
446.687	127.19
446.908	123.19
447.129	120.19
447.35	113.19
447.571	109.19
447.792	121.19
448.013	113.19
448.234	117.19
448.455	120.19
448.675	109.19
448.896	120.19
449.117	126.19
449.338	143.19
449.559	169.19
449.779	132.19
450	111.19
450.221	115.19
450.442	121.19
450.662	128.19
450.883	130.19
451.104	128.19
451.324	145.19
451.545	136.19
451.766	119.19
451.986	160.19
452.207	259.19
452.428	703.19
452.648	1674.19
452.869	928.19
453.089	232.19
453.31	136.19
453.53	131.19
453.751	172.19
453.971	199.19
454.192	172.19
454.412	129.19
454.633	125.19
454.853	108.19
455.073	98.19
455.294	100.19
455.514	109.19
455.734	102.19
455.955	106.19
456.175	110.19
456.395	121.19
456.616	118.19
456.836	110.19
457.056	110.19
457.276	110.19
457.497	121.19
457.717	135.19
457.937	111.19
458.157	105.19
458.377	115.19
458.598	97.19
458.818	95.19
459.038	91.19
459.258	103.19
459.478	91.19
459.698	93.19
459.918	102.19
460.138	113.19
460.358	99.19
460.578	101.19
460.798	109.19
461.018	104.19
461.238	111.19
461.458	98.19
461.678	106.19
461.898	108.19
462.118	102.19
462.338	108.19
462.558	122.19
462.777	123.19
462.997	120.19
463.217	116.19
463.437	151.19
463.657	199.19
463.876	218.19
464.096	145.19
464.316	109.19
464.536	104.19
464.755	90.19
464.975	113.19
465.195	115.19
465.414	115.19
465.634	109.19
465.854	108.19
466.073	97.19
466.293	106.19
466.512	109.19
466.732	108.19
466.951	112.19
467.171	153.19
467.391	158.19
467.61	113.19
467.829	93.19
468.049	126.19
468.268	124.19
468.488	107.19
468.707	97.19
468.927	102.19
469.146	104.19
469.365	118.19
469.585	109.19
469.804	109.19
470.023	113.19
470.243	110.19
470.462	125.19
470.681	118.19
470.901	133.19
471.12	215.19
471.339	228.19
471.558	151.19
471.777	132.19
471.997	113.19
472.216	116.19
472.435	96.19
472.654	105.19
472.873	112.19
473.092	113.19
473.311	108.19
473.53	112.19
473.749	108.19
473.968	109.19
474.187	100.19
474.406	96.19
474.625	104.19
474.844	97.19
475.063	106.19
475.282	101.19
475.501	107.19
475.72	108.19
475.939	103.19
476.158	112.19
476.377	116.19
476.596	126.19
476.814	97.19
477.033	106.19
477.252	93.19
477.471	101.19
477.69	109.19
477.908	122.19
478.127	109.19
478.346	90.19
478.564	96.19
478.783	113.19
479.002	115.19
479.22	102.19
479.439	114.19
479.658	104.19
479.876	104.19
480.095	117.19
480.313	116.19
480.532	124.19
480.751	113.19
480.969	104.19
481.188	124.19
481.406	109.19
481.624	111.19
481.843	132.19
482.061	130.19
482.28	107.19
482.498	109.19
482.717	102.19
482.935	105.19
483.153	108.19
483.372	117.19
483.59	122.19
483.808	114.19
484.027	125.19
484.245	137.19
484.463	210.19
484.681	240.19
484.9	183.19
485.118	138.19
485.336	123.19
485.554	116.19
485.772	142.19
485.99	208.19
486.209	286.19
486.427	183.19
486.645	144.19
486.863	124.19
487.081	120.19
487.299	117.19
487.517	116.19
487.735	124.19
487.953	111.19
488.171	111.19
488.389	100.19
488.607	105.19
488.825	98.19
489.043	113.19
489.261	105.19
489.479	122.19
489.696	98.19
489.914	103.19
490.132	111.19
490.35	121.19
490.568	120.19
490.786	104.19
491.003	120.19
491.221	128.19
491.439	126.19
491.657	117.19
491.874	121.19
492.092	121.19
492.31	108.19
492.527	105.19
492.745	118.19
492.963	122.19
493.18	121.19
493.398	124.19
493.615	111.19
493.833	106.19
494.05	113.19
494.268	119.19
494.485	119.19
494.703	107.19
494.92	110.19
495.138	121.19
495.355	114.19
495.573	136.19
495.79	122.19
496.008	104.19
496.225	113.19
496.442	101.19
496.66	132.19
496.877	178.19
497.094	190.19
497.312	119.19
497.529	113.19
497.746	112.19
497.963	108.19
498.181	121.19
498.398	119.19
498.615	112.19
498.832	111.19
499.049	117.19
499.267	167.19
499.484	198.19
499.701	129.19
499.918	120.19
500.135	102.19
500.352	105.19
500.569	115.19
500.786	102.19
501.003	120.19
501.22	110.19
501.437	107.19
501.654	119.19
501.871	90.19
502.088	100.19
502.305	111.19
502.522	110.19
502.739	105.19
502.956	112.19
503.172	107.19
503.389	108.19
503.606	122.19
503.823	116.19
504.04	108.19
504.256	112.19
504.473	100.19
504.69	114.19
504.907	122.19
505.123	130.19
505.34	128.19
505.557	114.19
505.773	116.19
505.99	107.19
506.207	112.19
506.423	116.19
506.64	122.19
506.856	110.19
507.073	102.19
507.289	117.19
507.506	109.19
507.722	92.19
507.939	105.19
508.155	102.19
508.372	111.19
508.588	123.19
508.805	112.19
509.021	110.19
509.238	117.19
509.454	143.19
509.67	174.19
509.887	137.19
510.103	116.19
510.319	111.19
510.536	122.19
510.752	126.19
510.968	113.19
511.184	108.19
511.401	106.19
511.617	90.19
511.833	103.19
512.049	101.19
512.265	113.19
512.481	103.19
512.698	103.19
512.914	117.19
513.13	104.19
513.346	105.19
513.562	98.19
513.778	106.19
513.994	119.19
514.21	122.19
514.426	154.19
514.642	208.19
514.858	144.19
515.074	117.19
515.29	118.19
515.506	119.19
515.721	116.19
515.937	109.19
516.153	103.19
516.369	112.19
516.585	105.19
516.801	99.19
517.016	104.19
517.232	105.19
517.448	108.19
517.664	120.19
517.879	109.19
518.095	105.19
518.311	118.19
518.527	106.19
518.742	120.19
518.958	138.19
519.173	173.19
519.389	134.19
519.605	117.19
519.82	121.19
520.036	125.19
520.251	105.19
520.467	105.19
520.682	108.19
520.898	105.19
521.113	96.19
521.329	102.19
521.544	107.19
521.76	110.19
521.975	134.19
522.19	123.19
522.406	104.19
522.621	107.19
522.836	109.19
523.052	109.19
523.267	123.19
523.482	97.19
523.698	109.19
523.913	106.19
524.128	104.19
524.343	121.19
524.559	118.19
524.774	114.19
524.989	94.19
525.204	96.19
525.419	102.19
525.634	103.19
525.849	105.19
526.064	119.19
526.28	108.19
526.495	107.19
526.71	113.19
526.925	102.19
527.14	101.19
527.355	110.19
527.57	108.19
527.785	105.19
527.999	98.19
528.214	108.19
528.429	117.19
528.644	107.19
528.859	98.19
529.074	110.19
529.289	108.19
529.503	107.19
529.718	106.19
529.933	105.19
530.148	97.19
530.363	109.19
530.577	93.19
530.792	89.19
531.007	108.19
531.221	104.19
531.436	103.19
531.651	101.19
531.865	107.19
532.08	106.19
532.295	119.19
532.509	152.19
532.724	138.19
532.938	105.19
533.153	97.19
533.367	118.19
533.582	123.19
533.796	123.19
534.011	107.19
534.225	98.19
534.44	102.19
534.654	117.19
534.868	107.19
535.083	102.19
535.297	102.19
535.511	121.19
535.726	110.19
535.94	102.19
536.154	109.19
536.369	102.19
536.583	92.19
536.797	97.19
537.011	106.19
537.225	114.19
537.44	111.19
537.654	106.19
537.868	92.19
538.082	98.19
538.296	103.19
538.51	106.19
538.724	104.19
538.938	106.19
539.153	109.19
539.367	110.19
539.581	106.19
539.795	103.19
540.009	124.19
540.222	131.19
540.436	105.19
540.65	106.19
540.864	106.19
541.078	121.19
541.292	157.19
541.506	245.19
541.72	218.19
541.934	141.19
542.147	127.19
542.361	118.19
542.575	110.19
542.789	128.19
543.002	109.19
543.216	97.19
543.43	109.19
543.644	105.19
543.857	123.19
544.071	119.19
544.285	116.19
544.498	111.19
544.712	112.19
544.925	108.19
545.139	129.19
545.352	118.19
545.566	96.19
545.779	124.19
545.993	108.19
546.206	101.19
546.42	106.19
546.633	125.19
546.847	109.19
547.06	105.19
547.274	113.19
547.487	120.19
547.7	125.19
547.914	100.19
548.127	99.19
548.34	106.19
548.554	110.19
548.767	107.19
548.98	114.19
549.193	103.19
549.407	125.19
549.62	120.19
549.833	115.19
550.046	114.19
550.259	118.19
550.473	108.19
550.686	121.19
550.899	108.19
551.112	107.19
551.325	96.19
551.538	111.19
551.751	99.19
551.964	101.19
552.177	122.19
552.39	106.19
552.603	105.19
552.816	127.19
553.029	120.19
553.242	108.19
553.455	114.19
553.667	124.19
553.88	109.19
554.093	125.19
554.306	110.19
554.519	130.19
554.732	104.19
554.944	116.19
555.157	102.19
555.37	110.19
555.583	116.19
555.795	112.19
556.008	118.19
556.221	165.19
556.433	148.19
556.646	132.19
556.859	119.19
557.071	126.19
557.284	141.19
557.496	133.19
557.709	108.19
557.921	120.19
558.134	105.19
558.346	113.19
558.559	103.19
558.771	97.19
558.984	130.19
559.196	124.19
559.409	107.19
559.621	117.19
559.833	109.19
560.046	125.19
560.258	100.19
560.47	113.19
560.683	102.19
560.895	114.19
561.107	114.19
561.32	112.19
561.532	116.19
561.744	113.19
561.956	126.19
562.168	108.19
562.381	114.19
562.593	132.19
562.805	157.19
563.017	193.19
563.229	311.19
563.441	757.19
563.653	268.19
563.865	141.19
564.077	107.19
564.289	109.19
564.501	111.19
564.713	113.19
564.925	98.19
565.137	110.19
565.349	101.19
565.561	103.19
565.773	116.19
565.985	102.19
566.197	102.19
566.408	102.19
566.62	101.19
566.832	113.19
567.044	99.19
567.255	105.19
567.467	111.19
567.679	119.19
567.891	129.19
568.102	210.19
568.314	278.19
568.526	177.19
568.737	142.19
568.949	121.19
569.161	103.19
569.372	106.19
569.584	121.19
569.795	137.19
570.007	106.19
570.218	127.19
570.43	186.19
570.641	122.19
570.853	107.19
571.064	106.19
571.276	111.19
571.487	127.19
571.698	118.19
571.91	117.19
572.121	98.19
572.333	93.19
572.544	108.19
572.755	170.19
572.966	222.19
573.178	170.19
573.389	115.19
573.6	96.19
573.811	110.19
574.023	93.19
574.234	112.19
574.445	91.19
574.656	111.19
574.867	100.19
575.078	91.19
575.289	104.19
575.501	104.19
575.712	98.19
575.923	96.19
576.134	105.19
576.345	100.19
576.556	99.19
576.767	95.19
576.978	91.19
577.188	106.19
577.399	97.19
577.61	97.19
577.821	89.19
578.032	94.19
578.243	106.19
578.454	101.19
578.665	99.19
578.875	90.19
579.086	105.19
579.297	119.19
579.508	107.19
579.718	103.19
579.929	98.19
580.14	116.19
580.35	105.19
580.561	113.19
580.772	102.19
580.982	92.19
581.193	96.19
581.403	119.19
581.614	85.19
581.825	102.19
582.035	104.19
582.246	104.19
582.456	103.19
582.667	106.19
582.877	135.19
583.087	124.19
583.298	106.19
583.508	99.19
583.719	98.19
583.929	112.19
584.139	97.19
584.35	103.19
584.56	92.19
584.77	102.19
584.981	94.19
585.191	108.19
585.401	91.19
585.611	107.19
585.821	105.19
586.032	98.19
586.242	88.19
586.452	110.19
586.662	102.19
586.872	109.19
587.082	103.19
587.292	97.19
587.502	114.19
587.713	104.19
587.923	92.19
588.133	95.19
588.343	108.19
588.553	113.19
588.762	106.19
588.972	118.19
589.182	135.19
589.392	106.19
589.602	97.19
589.812	119.19
590.022	120.19
590.232	107.19
590.441	104.19
590.651	102.19
590.861	115.19
591.071	102.19
591.281	100.19
591.49	94.19
591.7	96.19
591.91	99.19
592.119	113.19
592.329	106.19
592.539	103.19
592.748	114.19
592.958	105.19
593.167	97.19
593.377	92.19
593.587	102.19
593.796	119.19
594.006	108.19
594.215	93.19
594.424	100.19
594.634	106.19
594.843	107.19
595.053	89.19
595.262	104.19
595.472	102.19
595.681	101.19
595.89	106.19
596.1	105.19
596.309	97.19
596.518	92.19
596.727	102.19
596.937	114.19
597.146	101.19
597.355	121.19
597.564	116.19
597.774	104.19
597.983	99.19
598.192	98.19
598.401	96.19
598.61	103.19
598.819	92.19
599.028	92.19
599.237	98.19
599.446	104.19
599.655	110.19
599.864	98.19
600.073	103.19
600.282	81.19
600.491	100.19
600.7	100.19
600.909	91.19
601.118	117.19
601.327	105.19
601.536	102.19
601.745	123.19
601.953	144.19
602.162	160.19
602.371	116.19
602.58	99.19
602.789	105.19
602.997	113.19
603.206	117.19
603.415	113.19
603.623	110.19
603.832	103.19
604.041	106.19
604.249	117.19
604.458	100.19
604.666	95.19
604.875	93.19
605.084	101.19
605.292	118.19
605.501	107.19
605.709	114.19
605.918	109.19
606.126	111.19
606.334	114.19
606.543	124.19
606.751	149.19
606.96	196.19
607.168	201.19
607.376	150.19
607.585	114.19
607.793	128.19
608.001	111.19
608.21	95.19
608.418	106.19
608.626	93.19
608.834	105.19
609.043	115.19
609.251	107.19
609.459	99.19
609.667	103.19
609.875	100.19
610.083	96.19
610.291	98.19
610.499	92.19
610.707	106.19
610.916	116.19
611.124	106.19
611.332	108.19
611.54	95.19
611.748	96.19
611.955	91.19
612.163	115.19
612.371	118.19
612.579	102.19
612.787	109.19
612.995	89.19
613.203	106.19
613.411	97.19
613.618	104.19
613.826	112.19
614.034	102.19
614.242	104.19
614.449	87.19
614.657	97.19
614.865	107.19
615.072	109.19
615.28	128.19
615.488	120.19
615.695	122.19
615.903	116.19
616.111	107.19
616.318	114.19
616.526	99.19
616.733	100.19
616.941	100.19
617.148	105.19
617.356	117.19
617.563	109.19
617.771	100.19
617.978	90.19
618.185	98.19
618.393	105.19
618.6	104.19
618.807	89.19
619.015	107.19
619.222	106.19
619.429	96.19
619.637	97.19
619.844	96.19
620.051	93.19
620.258	100.19
620.466	108.19
620.673	98.19
620.88	102.19
621.087	108.19
621.294	102.19
621.501	99.19
621.708	103.19
621.915	87.19
622.122	95.19
622.329	107.19
622.536	98.19
622.743	91.19
622.95	90.19
623.157	94.19
623.364	95.19
623.571	86.19
623.778	93.19
623.985	110.19
624.192	104.19
624.399	96.19
624.606	100.19
624.812	98.19
625.019	95.19
625.226	105.19
625.433	82.19
625.639	84.19
625.846	92.19
626.053	98.19
626.259	90.19
626.466	101.19
626.673	96.19
626.879	106.19
627.086	97.19
627.293	92.19
627.499	90.19
627.706	90.19
627.912	101.19
628.119	110.19
628.325	111.19
628.532	113.19
628.738	103.19
628.945	108.19
629.151	100.19
629.357	97.19
629.564	102.19
629.77	88.19
629.976	96.19
630.183	96.19
630.389	109.19
630.595	96.19
630.802	87.19
631.008	101.19
631.214	108.19
631.42	96.19
631.627	103.19
631.833	98.19
632.039	103.19
632.245	101.19
632.451	96.19
632.657	106.19
632.863	100.19
633.069	88.19
633.275	106.19
633.481	108.19
633.688	98.19
633.893	94.19
634.099	107.19
634.305	98.19
634.511	102.19
634.717	103.19
634.923	107.19
635.129	129.19
635.335	150.19
635.541	112.19
635.747	96.19
635.952	102.19
636.158	99.19
636.364	99.19
636.57	87.19
636.775	96.19
636.981	99.19
637.187	96.19
637.392	90.19
637.598	112.19
637.804	87.19
638.009	90.19
638.215	93.19
638.421	78.19
638.626	86.19
638.832	87.19
639.037	92.19
639.243	108.19
639.448	97.19
639.654	109.19
639.859	104.19
640.065	91.19
640.27	112.19
640.475	81.19
640.681	103.19
640.886	100.19
641.091	90.19
641.297	91.19
641.502	90.19
641.707	98.19
641.913	96.19
642.118	96.19
642.323	93.19
642.528	87.19
642.733	90.19
642.939	102.19
643.144	107.19
643.349	97.19
643.554	87.19
643.759	102.19
643.964	94.19
644.169	102.19
644.374	92.19
644.579	103.19
644.784	93.19
644.989	88.19
645.194	92.19
645.399	94.19
645.604	122.19
645.809	103.19
646.014	103.19
646.219	89.19
646.423	105.19
646.628	105.19
646.833	111.19
647.038	89.19
647.243	92.19
647.447	81.19
647.652	99.19
647.857	95.19
648.062	97.19
648.266	85.19
648.471	85.19
648.676	95.19
648.88	89.19
649.085	94.19
649.289	88.19
649.494	89.19
649.698	97.19
649.903	88.19
650.107	103.19
650.312	106.19
650.516	97.19
650.721	102.19
650.925	109.19
651.13	89.19
651.334	78.19
651.539	84.19
651.743	102.19
651.947	90.19
652.152	87.19
652.356	94.19
652.56	112.19
652.764	126.19
652.969	97.19
653.173	103.19
653.377	88.19
653.581	90.19
653.785	81.19
653.99	97.19
654.194	83.19
654.398	97.19
654.602	96.19
654.806	91.19
655.01	86.19
655.214	96.19
655.418	85.19
655.622	77.19
655.826	84.19
656.03	98.19
656.234	95.19
656.438	92.19
656.642	100.19
656.846	97.19
657.049	79.19
657.253	89.19
657.457	94.19
657.661	88.19
657.865	88.19
658.068	93.19
658.272	84.19
658.476	82.19
658.68	81.19
658.883	94.19
659.087	100.19
659.291	95.19
659.494	99.19
659.698	78.19
659.901	93.19
660.105	85.19
660.309	95.19
660.512	99.19
660.716	86.19
660.919	95.19
661.123	72.19
661.326	91.19
661.53	85.19
661.733	103.19
661.936	91.19
662.14	78.19
662.343	79.19
662.546	95.19
662.75	87.19
662.953	103.19
663.156	87.19
663.36	92.19
663.563	82.19
663.766	85.19
663.969	88.19
664.173	79.19
664.376	84.19
664.579	80.19
664.782	95.19
664.985	93.19
665.188	92.19
665.391	86.19
665.594	83.19
665.797	84.19
666	88.19
666.203	116.19
666.406	82.19
666.609	86.19
666.812	72.19
667.015	98.19
667.218	93.19
667.421	82.19
667.624	100.19
667.827	104.19
668.03	95.19
668.232	89.19
668.435	88.19
668.638	73.19
668.841	102.19
669.043	96.19
669.246	89.19
669.449	101.19
669.651	92.19
669.854	81.19
670.057	95.19
670.259	88.19
670.462	96.19
670.665	95.19
670.867	81.19
671.07	89.19
671.272	86.19
671.475	94.19
671.677	86.19
671.88	77.19
672.082	100.19
672.284	77.19
672.487	64.19
672.689	95.19
672.892	83.19
