Data from SnStandardFlinnAPT0064_QswitchEnergy10_LIBS07252019.E.O._I.C._HRD10591_15-27-27-973.txt Node
Date: Thu Jul 25 15:27:27 EDT 2019
User: cochatt
Spectrometer: HR+D1059
Trigger mode: 1
Integration Time (sec): 1.000000E-1
Scans to average: 1
Electric dark correction enabled: true
Nonlinearity correction enabled: false
Boxcar width: 0
XAxis mode: Wavelengths
Number of Pixels in Spectrum: 2048
>>>>>Begin Spectral Data<<<<<
223.165	-19.44
223.4	-19.44
223.635	-19.44
223.869	-2.44
224.104	-11.44
224.338	-8.44
224.573	-27.44
224.808	-27.44
225.042	-3.44
225.277	-22.44
225.511	-4.44
225.746	-3.44
225.98	18.56
226.215	9.56
226.449	27.56
226.683	25.56
226.918	27.56
227.152	21.56
227.387	38.56
227.621	36.56
227.856	38.56
228.09	39.56
228.324	52.56
228.559	55.56
228.793	56.56
229.027	58.56
229.262	75.56
229.496	73.56
229.73	69.56
229.964	70.56
230.199	87.56
230.433	71.56
230.667	93.56
230.901	74.56
231.136	93.56
231.37	94.56
231.604	80.56
231.838	106.56
232.072	112.56
232.306	125.56
232.541	94.56
232.775	99.56
233.009	101.56
233.243	84.56
233.477	83.56
233.711	93.56
233.945	108.56
234.179	95.56
234.413	89.56
234.647	88.56
234.881	77.56
235.115	91.56
235.349	100.56
235.583	95.56
235.817	131.56
236.051	120.56
236.285	97.56
236.519	88.56
236.753	74.56
236.987	81.56
237.221	75.56
237.455	67.56
237.689	83.56
237.922	101.56
238.156	73.56
238.39	92.56
238.624	79.56
238.858	95.56
239.091	90.56
239.325	79.56
239.559	77.56
239.793	86.56
240.027	83.56
240.26	75.56
240.494	83.56
240.728	98.56
240.961	87.56
241.195	103.56
241.429	91.56
241.662	84.56
241.896	91.56
242.13	115.56
242.363	127.56
242.597	165.56
242.83	129.56
243.064	129.56
243.298	164.56
243.531	161.56
243.765	104.56
243.998	90.56
244.232	103.56
244.465	81.56
244.699	86.56
244.932	89.56
245.166	68.56
245.399	107.56
245.633	81.56
245.866	81.56
246.099	92.56
246.333	77.56
246.566	88.56
246.8	75.56
247.033	73.56
247.266	80.56
247.5	82.56
247.733	81.56
247.966	82.56
248.2	100.56
248.433	114.56
248.666	131.56
248.899	113.56
249.133	89.56
249.366	83.56
249.599	120.56
249.832	129.56
250.066	123.56
250.299	86.56
250.532	89.56
250.765	78.56
250.998	76.56
251.231	76.56
251.465	84.56
251.698	84.56
251.931	94.56
252.164	77.56
252.397	84.56
252.63	100.56
252.863	94.56
253.096	93.56
253.329	83.56
253.562	98.56
253.795	86.56
254.028	90.56
254.261	89.56
254.494	92.56
254.727	113.56
254.96	149.56
255.193	126.56
255.426	92.56
255.659	81.56
255.892	95.56
256.124	88.56
256.357	83.56
256.59	91.56
256.823	99.56
257.056	108.56
257.289	149.56
257.521	168.56
257.754	141.56
257.987	86.56
258.22	83.56
258.452	78.56
258.685	92.56
258.918	82.56
259.151	88.56
259.383	114.56
259.616	146.56
259.849	153.56
260.081	112.56
260.314	82.56
260.547	84.56
260.779	83.56
261.012	86.56
261.244	82.56
261.477	77.56
261.71	81.56
261.942	98.56
262.175	71.56
262.407	89.56
262.64	91.56
262.872	87.56
263.105	85.56
263.337	75.56
263.57	77.56
263.802	76.56
264.035	84.56
264.267	72.56
264.499	91.56
264.732	83.56
264.964	88.56
265.197	85.56
265.429	89.56
265.661	97.56
265.894	100.56
266.126	120.56
266.358	153.56
266.591	144.56
266.823	107.56
267.055	76.56
267.287	91.56
267.52	106.56
267.752	88.56
267.984	85.56
268.216	90.56
268.448	82.56
268.681	98.56
268.913	102.56
269.145	93.56
269.377	100.56
269.609	90.56
269.841	99.56
270.073	91.56
270.306	127.56
270.538	199.56
270.77	324.56
271.002	367.56
271.234	185.56
271.466	131.56
271.698	105.56
271.93	93.56
272.162	105.56
272.394	98.56
272.626	92.56
272.858	76.56
273.09	77.56
273.322	95.56
273.553	75.56
273.785	80.56
274.017	91.56
274.249	95.56
274.481	82.56
274.713	90.56
274.945	86.56
275.176	103.56
275.408	89.56
275.64	102.56
275.872	97.56
276.104	93.56
276.335	102.56
276.567	110.56
276.799	97.56
277.031	71.56
277.262	102.56
277.494	99.56
277.726	119.56
277.957	196.56
278.189	243.56
278.421	217.56
278.652	181.56
278.884	173.56
279.115	140.56
279.347	104.56
279.579	95.56
279.81	104.56
280.042	86.56
280.273	111.56
280.505	112.56
280.736	98.56
280.968	127.56
281.199	155.56
281.431	240.56
281.662	257.56
281.894	145.56
282.125	103.56
282.356	105.56
282.588	114.56
282.819	98.56
283.051	118.56
283.282	135.56
283.513	188.56
283.745	327.56
283.976	560.56
284.207	793.56
284.439	609.56
284.67	288.56
284.901	249.56
285.132	363.56
285.364	381.56
285.595	226.56
285.826	178.56
286.057	247.56
286.288	448.56
286.52	631.56
286.751	511.56
286.982	193.56
287.213	131.56
287.444	99.56
287.675	95.56
287.906	109.56
288.138	103.56
288.369	88.56
288.6	78.56
288.831	107.56
289.062	89.56
289.293	106.56
289.524	84.56
289.755	90.56
289.986	92.56
290.217	98.56
290.448	95.56
290.679	113.56
290.91	116.56
291.141	156.56
291.371	219.56
291.602	264.56
291.833	183.56
292.064	110.56
292.295	97.56
292.526	101.56
292.757	91.56
292.987	101.56
293.218	90.56
293.449	96.56
293.68	88.56
293.91	92.56
294.141	93.56
294.372	93.56
294.603	104.56
294.833	98.56
295.064	90.56
295.295	84.56
295.525	88.56
295.756	77.56
295.987	90.56
296.217	93.56
296.448	107.56
296.679	88.56
296.909	101.56
297.14	94.56
297.37	96.56
297.601	118.56
297.831	91.56
298.062	89.56
298.292	84.56
298.523	113.56
298.753	113.56
298.984	108.56
299.214	124.56
299.445	115.56
299.675	110.56
299.905	113.56
300.136	143.56
300.366	164.56
300.597	268.56
300.827	471.56
301.057	700.56
301.288	650.56
301.518	269.56
301.748	155.56
301.979	132.56
302.209	127.56
302.439	141.56
302.669	166.56
302.9	267.56
303.13	498.56
303.36	875.56
303.59	1216.56
303.82	876.56
304.051	294.56
304.281	173.56
304.511	138.56
304.741	111.56
304.971	111.56
305.201	112.56
305.431	100.56
305.661	78.56
305.891	107.56
306.121	112.56
306.352	91.56
306.582	101.56
306.812	110.56
307.042	117.56
307.272	98.56
307.502	107.56
307.731	112.56
307.961	108.56
308.191	111.56
308.421	116.56
308.651	103.56
308.881	109.56
309.111	109.56
309.341	112.56
309.571	105.56
309.8	107.56
310.03	104.56
310.26	103.56
310.49	105.56
310.72	113.56
310.949	121.56
311.179	121.56
311.409	105.56
311.639	108.56
311.868	102.56
312.098	105.56
312.328	113.56
312.557	99.56
312.787	96.56
313.017	108.56
313.246	107.56
313.476	113.56
313.706	119.56
313.935	139.56
314.165	183.56
314.394	222.56
314.624	165.56
314.853	124.56
315.083	133.56
315.312	131.56
315.542	139.56
315.771	123.56
316.001	133.56
316.23	120.56
316.46	149.56
316.689	179.56
316.919	239.56
317.148	499.56
317.377	899.56
317.607	1494.56
317.836	1391.56
318.065	524.56
318.295	203.56
318.524	153.56
318.753	129.56
318.983	124.56
319.212	115.56
319.441	112.56
319.67	106.56
319.9	111.56
320.129	112.56
320.358	119.56
320.587	111.56
320.816	124.56
321.046	116.56
321.275	129.56
321.504	116.56
321.733	131.56
321.962	147.56
322.191	156.56
322.42	135.56
322.649	122.56
322.878	102.56
323.108	123.56
323.337	133.56
323.566	129.56
323.795	122.56
324.024	122.56
324.253	138.56
324.482	167.56
324.71	216.56
324.939	261.56
325.168	218.56
325.397	177.56
325.626	235.56
325.855	455.56
326.084	909.56
326.313	1596.56
326.542	1559.56
326.77	593.56
326.999	259.56
327.228	205.56
327.457	228.56
327.686	201.56
327.914	156.56
328.143	131.56
328.372	126.56
328.6	125.56
328.829	133.56
329.058	126.56
329.287	111.56
329.515	107.56
329.744	116.56
329.972	107.56
330.201	109.56
330.43	106.56
330.658	97.56
330.887	115.56
331.115	116.56
331.344	109.56
331.572	111.56
331.801	124.56
332.03	119.56
332.258	133.56
332.486	164.56
332.715	290.56
332.943	487.56
333.172	753.56
333.4	659.56
333.629	259.56
333.857	154.56
334.085	114.56
334.314	108.56
334.542	112.56
334.771	119.56
334.999	116.56
335.227	128.56
335.455	109.56
335.684	111.56
335.912	115.56
336.14	112.56
336.369	94.56
336.597	111.56
336.825	106.56
337.053	104.56
337.281	107.56
337.51	106.56
337.738	99.56
337.966	102.56
338.194	99.56
338.422	117.56
338.65	119.56
338.878	124.56
339.106	108.56
339.334	119.56
339.562	113.56
339.79	127.56
340.018	110.56
340.246	104.56
340.474	123.56
340.702	116.56
340.93	92.56
341.158	113.56
341.386	103.56
341.614	113.56
341.842	124.56
342.07	118.56
342.298	111.56
342.526	106.56
342.754	109.56
342.981	127.56
343.209	96.56
343.437	114.56
343.665	98.56
343.893	107.56
344.12	91.56
344.348	108.56
344.576	113.56
344.804	111.56
345.031	104.56
345.259	107.56
345.487	99.56
345.714	110.56
345.942	100.56
346.17	101.56
346.397	95.56
346.625	107.56
346.853	108.56
347.08	100.56
347.308	106.56
347.535	100.56
347.763	93.56
347.99	113.56
348.218	107.56
348.445	91.56
348.673	108.56
348.9	120.56
349.128	107.56
349.355	103.56
349.583	126.56
349.81	119.56
350.037	124.56
350.265	103.56
350.492	108.56
350.72	114.56
350.947	111.56
351.174	107.56
351.402	111.56
351.629	99.56
351.856	121.56
352.083	116.56
352.311	112.56
352.538	92.56
352.765	113.56
352.992	108.56
353.22	91.56
353.447	97.56
353.674	113.56
353.901	96.56
354.128	122.56
354.355	89.56
354.583	100.56
354.81	106.56
355.037	101.56
355.264	106.56
355.491	105.56
355.718	100.56
355.945	106.56
356.172	102.56
356.399	109.56
356.626	112.56
356.853	104.56
357.08	87.56
357.307	101.56
357.534	89.56
357.761	98.56
357.988	115.56
358.215	110.56
358.441	122.56
358.668	102.56
358.895	111.56
359.122	108.56
359.349	118.56
359.576	122.56
359.802	115.56
360.029	109.56
360.256	117.56
360.483	117.56
360.709	111.56
360.936	117.56
361.163	109.56
361.39	115.56
361.616	113.56
361.843	105.56
362.07	99.56
362.296	105.56
362.523	99.56
362.749	104.56
362.976	105.56
363.203	111.56
363.429	103.56
363.656	120.56
363.882	110.56
364.109	102.56
364.335	100.56
364.562	111.56
364.788	100.56
365.015	122.56
365.241	139.56
365.468	190.56
365.694	220.56
365.92	204.56
366.147	115.56
366.373	111.56
366.599	102.56
366.826	96.56
367.052	96.56
367.278	111.56
367.505	93.56
367.731	105.56
367.957	119.56
368.184	118.56
368.41	131.56
368.636	111.56
368.862	98.56
369.089	113.56
369.315	98.56
369.541	117.56
369.767	100.56
369.993	107.56
370.219	89.56
370.445	88.56
370.672	104.56
370.898	99.56
371.124	107.56
371.35	107.56
371.576	104.56
371.802	109.56
372.028	101.56
372.254	100.56
372.48	100.56
372.706	119.56
372.932	105.56
373.158	106.56
373.384	111.56
373.61	99.56
373.835	99.56
374.061	103.56
374.287	115.56
374.513	110.56
374.739	103.56
374.965	99.56
375.191	113.56
375.416	109.56
375.642	104.56
375.868	118.56
376.094	117.56
376.319	99.56
376.545	90.56
376.771	110.56
376.997	94.56
377.222	114.56
377.448	110.56
377.674	106.56
377.899	97.56
378.125	111.56
378.35	108.56
378.576	111.56
378.802	129.56
379.027	122.56
379.253	132.56
379.478	175.56
379.704	309.56
379.929	763.56
380.155	1526.56
380.38	1569.56
380.606	499.56
380.831	188.56
381.057	129.56
381.282	137.56
381.507	115.56
381.733	126.56
381.958	113.56
382.184	97.56
382.409	106.56
382.634	102.56
382.86	100.56
383.085	105.56
383.31	99.56
383.535	108.56
383.761	113.56
383.986	113.56
384.211	88.56
384.436	113.56
384.662	115.56
384.887	113.56
385.112	113.56
385.337	103.56
385.562	109.56
385.787	119.56
386.013	99.56
386.238	99.56
386.463	101.56
386.688	112.56
386.913	99.56
387.138	106.56
387.363	96.56
387.588	101.56
387.813	101.56
388.038	108.56
388.263	107.56
388.488	101.56
388.713	111.56
388.938	98.56
389.163	103.56
389.387	115.56
389.612	97.56
389.837	114.56
390.062	106.56
390.287	99.56
390.512	101.56
390.736	97.56
390.961	103.56
391.186	106.56
391.411	102.56
391.636	99.56
391.86	92.56
392.085	108.56
392.31	97.56
392.534	81.56
392.759	109.56
392.984	102.56
393.208	103.56
393.433	131.56
393.658	133.56
393.882	108.56
394.107	106.56
394.331	88.56
394.556	109.56
394.78	100.56
395.005	94.56
395.229	95.56
395.454	100.56
395.678	93.56
395.903	99.56
396.127	103.56
396.352	87.56
396.576	111.56
396.801	115.56
397.025	129.56
397.249	111.56
397.474	96.56
397.698	83.56
397.922	107.56
398.147	86.56
398.371	92.56
398.595	95.56
398.82	97.56
399.044	107.56
399.268	114.56
399.492	112.56
399.717	81.56
399.941	103.56
400.165	95.56
400.389	97.56
400.613	109.56
400.837	89.56
401.062	96.56
401.286	107.56
401.51	91.56
401.734	97.56
401.958	95.56
402.182	106.56
402.406	80.56
402.63	95.56
402.854	89.56
403.078	90.56
403.302	81.56
403.526	101.56
403.75	92.56
403.974	98.56
404.198	113.56
404.422	102.56
404.645	95.56
404.869	90.56
405.093	97.56
405.317	102.56
405.541	107.56
405.765	126.56
405.988	139.56
406.212	122.56
406.436	102.56
406.66	89.56
406.883	105.56
407.107	100.56
407.331	93.56
407.555	97.56
407.778	107.56
408.002	100.56
408.226	93.56
408.449	108.56
408.673	111.56
408.896	102.56
409.12	84.56
409.344	92.56
409.567	101.56
409.791	91.56
410.014	79.56
410.238	95.56
410.461	106.56
410.685	94.56
410.908	89.56
411.132	100.56
411.355	85.56
411.578	103.56
411.802	107.56
412.025	100.56
412.249	95.56
412.472	89.56
412.695	112.56
412.919	94.56
413.142	100.56
413.365	108.56
413.589	107.56
413.812	116.56
414.035	95.56
414.258	97.56
414.482	100.56
414.705	100.56
414.928	109.56
415.151	95.56
415.374	92.56
415.597	99.56
415.821	102.56
416.044	94.56
416.267	90.56
416.49	95.56
416.713	89.56
416.936	102.56
417.159	93.56
417.382	105.56
417.605	93.56
417.828	95.56
418.051	99.56
418.274	97.56
418.497	80.56
418.72	99.56
418.943	105.56
419.166	112.56
419.389	109.56
419.611	102.56
419.834	99.56
420.057	99.56
420.28	98.56
420.503	101.56
420.726	109.56
420.948	91.56
421.171	95.56
421.394	85.56
421.617	87.56
421.839	96.56
422.062	89.56
422.285	97.56
422.507	105.56
422.73	118.56
422.953	131.56
423.175	116.56
423.398	86.56
423.621	77.56
423.843	80.56
424.066	80.56
424.288	98.56
424.511	101.56
424.733	86.56
424.956	98.56
425.178	86.56
425.401	104.56
425.623	103.56
425.846	84.56
426.068	93.56
426.291	85.56
426.513	90.56
426.735	90.56
426.958	93.56
427.18	99.56
427.402	93.56
427.625	100.56
427.847	92.56
428.069	102.56
428.292	114.56
428.514	82.56
428.736	111.56
428.958	108.56
429.181	99.56
429.403	93.56
429.625	85.56
429.847	99.56
430.069	95.56
430.292	103.56
430.514	84.56
430.736	85.56
430.958	108.56
431.18	95.56
431.402	89.56
431.624	104.56
431.846	91.56
432.068	85.56
432.29	84.56
432.512	108.56
432.734	110.56
432.956	100.56
433.178	113.56
433.4	107.56
433.622	87.56
433.844	80.56
434.066	87.56
434.287	100.56
434.509	95.56
434.731	89.56
434.953	106.56
435.175	85.56
435.397	90.56
435.618	105.56
435.84	81.56
436.062	91.56
436.284	95.56
436.505	89.56
436.727	95.56
436.949	95.56
437.17	107.56
437.392	89.56
437.614	111.56
437.835	94.56
438.057	86.56
438.278	84.56
438.5	94.56
438.721	91.56
438.943	104.56
439.165	103.56
439.386	111.56
439.608	99.56
439.829	103.56
440.05	108.56
440.272	113.56
440.493	99.56
440.715	100.56
440.936	98.56
441.158	105.56
441.379	92.56
441.6	102.56
441.822	105.56
442.043	122.56
442.264	136.56
442.486	127.56
442.707	104.56
442.928	105.56
443.149	98.56
443.371	97.56
443.592	98.56
443.813	103.56
444.034	87.56
444.255	90.56
444.476	86.56
444.698	112.56
444.919	100.56
445.14	198.56
445.361	146.56
445.582	102.56
445.803	93.56
446.024	115.56
446.245	101.56
446.466	111.56
446.687	121.56
446.908	88.56
447.129	92.56
447.35	88.56
447.571	103.56
447.792	86.56
448.013	105.56
448.234	102.56
448.455	106.56
448.675	101.56
448.896	92.56
449.117	107.56
449.338	137.56
449.559	151.56
449.779	149.56
450	82.56
450.221	116.56
450.442	123.56
450.662	122.56
450.883	116.56
451.104	96.56
451.324	116.56
451.545	111.56
451.766	111.56
451.986	140.56
452.207	187.56
452.428	500.56
452.648	1242.56
452.869	690.56
453.089	196.56
453.31	117.56
453.53	112.56
453.751	138.56
453.971	144.56
454.192	155.56
454.412	112.56
454.633	97.56
454.853	99.56
455.073	92.56
455.294	84.56
455.514	87.56
455.734	90.56
455.955	108.56
456.175	93.56
456.395	96.56
456.616	95.56
456.836	98.56
457.056	78.56
457.276	104.56
457.497	107.56
457.717	123.56
457.937	92.56
458.157	95.56
458.377	84.56
458.598	96.56
458.818	92.56
459.038	91.56
459.258	83.56
459.478	85.56
459.698	100.56
459.918	92.56
460.138	82.56
460.358	96.56
460.578	97.56
460.798	94.56
461.018	93.56
461.238	90.56
461.458	74.56
461.678	104.56
461.898	82.56
462.118	100.56
462.338	89.56
462.558	107.56
462.777	97.56
462.997	107.56
463.217	104.56
463.437	151.56
463.657	186.56
463.876	194.56
464.096	132.56
464.316	105.56
464.536	89.56
464.755	90.56
464.975	101.56
465.195	107.56
465.414	101.56
465.634	81.56
465.854	88.56
466.073	83.56
466.293	94.56
466.512	84.56
466.732	108.56
466.951	117.56
467.171	138.56
467.391	132.56
467.61	103.56
467.829	88.56
468.049	89.56
468.268	99.56
468.488	88.56
468.707	93.56
468.927	88.56
469.146	97.56
469.365	96.56
469.585	94.56
469.804	99.56
470.023	100.56
470.243	97.56
470.462	103.56
470.681	99.56
470.901	141.56
471.12	201.56
471.339	235.56
471.558	135.56
471.777	118.56
471.997	89.56
472.216	97.56
472.435	81.56
472.654	94.56
472.873	101.56
473.092	103.56
473.311	97.56
473.53	94.56
473.749	106.56
473.968	105.56
474.187	97.56
474.406	75.56
474.625	88.56
474.844	102.56
475.063	98.56
475.282	90.56
475.501	90.56
475.72	102.56
475.939	105.56
476.158	105.56
476.377	122.56
476.596	122.56
476.814	93.56
477.033	95.56
477.252	87.56
477.471	81.56
477.69	81.56
477.908	102.56
478.127	108.56
478.346	104.56
478.564	93.56
478.783	97.56
479.002	98.56
479.22	105.56
479.439	92.56
479.658	101.56
479.876	98.56
480.095	89.56
480.313	79.56
480.532	105.56
480.751	97.56
480.969	96.56
481.188	90.56
481.406	105.56
481.624	101.56
481.843	127.56
482.061	105.56
482.28	109.56
482.498	100.56
482.717	88.56
482.935	90.56
483.153	93.56
483.372	91.56
483.59	94.56
483.808	101.56
484.027	105.56
484.245	127.56
484.463	168.56
484.681	235.56
484.9	136.56
485.118	105.56
485.336	112.56
485.554	109.56
485.772	125.56
485.99	175.56
486.209	279.56
486.427	179.56
486.645	105.56
486.863	89.56
487.081	109.56
487.299	91.56
487.517	87.56
487.735	85.56
487.953	108.56
488.171	106.56
488.389	93.56
488.607	99.56
488.825	90.56
489.043	100.56
489.261	113.56
489.479	96.56
489.696	100.56
489.914	96.56
490.132	103.56
490.35	88.56
490.568	97.56
490.786	114.56
491.003	107.56
491.221	91.56
491.439	103.56
491.657	92.56
491.874	81.56
492.092	105.56
492.31	101.56
492.527	106.56
492.745	103.56
492.963	106.56
493.18	104.56
493.398	88.56
493.615	108.56
493.833	123.56
494.05	87.56
494.268	93.56
494.485	108.56
494.703	102.56
494.92	105.56
495.138	91.56
495.355	103.56
495.573	100.56
495.79	100.56
496.008	93.56
496.225	97.56
496.442	95.56
496.66	107.56
496.877	162.56
497.094	149.56
497.312	114.56
497.529	95.56
497.746	101.56
497.963	106.56
498.181	107.56
498.398	90.56
498.615	93.56
498.832	101.56
499.049	95.56
499.267	136.56
499.484	150.56
499.701	115.56
499.918	96.56
500.135	88.56
500.352	101.56
500.569	104.56
500.786	110.56
501.003	95.56
501.22	113.56
501.437	117.56
501.654	101.56
501.871	98.56
502.088	92.56
502.305	98.56
502.522	105.56
502.739	94.56
502.956	94.56
503.172	111.56
503.389	103.56
503.606	98.56
503.823	88.56
504.04	84.56
504.256	99.56
504.473	113.56
504.69	107.56
504.907	117.56
505.123	111.56
505.34	107.56
505.557	74.56
505.773	93.56
505.99	107.56
506.207	103.56
506.423	93.56
506.64	97.56
506.856	109.56
507.073	96.56
507.289	102.56
507.506	87.56
507.722	90.56
507.939	89.56
508.155	84.56
508.372	90.56
508.588	96.56
508.805	93.56
509.021	80.56
509.238	96.56
509.454	153.56
509.67	168.56
509.887	117.56
510.103	104.56
510.319	81.56
510.536	125.56
510.752	123.56
510.968	102.56
511.184	105.56
511.401	98.56
511.617	91.56
511.833	89.56
512.049	82.56
512.265	89.56
512.481	99.56
512.698	99.56
512.914	99.56
513.13	98.56
513.346	104.56
513.562	93.56
513.778	86.56
513.994	109.56
514.21	106.56
514.426	130.56
514.642	191.56
514.858	120.56
515.074	97.56
515.29	113.56
515.506	98.56
515.721	97.56
515.937	87.56
516.153	91.56
516.369	90.56
516.585	89.56
516.801	96.56
517.016	107.56
517.232	115.56
517.448	98.56
517.664	97.56
517.879	89.56
518.095	96.56
518.311	87.56
518.527	92.56
518.742	115.56
518.958	119.56
519.173	146.56
519.389	114.56
519.605	107.56
519.82	85.56
520.036	83.56
520.251	90.56
520.467	102.56
520.682	81.56
520.898	95.56
521.113	95.56
521.329	96.56
521.544	91.56
521.76	100.56
521.975	105.56
522.19	97.56
522.406	105.56
522.621	112.56
522.836	98.56
523.052	93.56
523.267	99.56
523.482	106.56
523.698	89.56
523.913	116.56
524.128	97.56
524.343	95.56
524.559	94.56
524.774	95.56
524.989	98.56
525.204	88.56
525.419	97.56
525.634	98.56
525.849	93.56
526.064	99.56
526.28	95.56
526.495	100.56
526.71	95.56
526.925	99.56
527.14	93.56
527.355	93.56
527.57	89.56
527.785	108.56
527.999	81.56
528.214	99.56
528.429	99.56
528.644	98.56
528.859	92.56
529.074	85.56
529.289	96.56
529.503	102.56
529.718	103.56
529.933	92.56
530.148	99.56
530.363	108.56
530.577	108.56
530.792	103.56
531.007	65.56
531.221	95.56
531.436	99.56
531.651	82.56
531.865	100.56
532.08	98.56
532.295	100.56
532.509	148.56
532.724	116.56
532.938	98.56
533.153	99.56
533.367	96.56
533.582	111.56
533.796	99.56
534.011	94.56
534.225	99.56
534.44	92.56
534.654	85.56
534.868	95.56
535.083	91.56
535.297	105.56
535.511	106.56
535.726	94.56
535.94	105.56
536.154	98.56
536.369	92.56
536.583	92.56
536.797	98.56
537.011	96.56
537.225	108.56
537.44	88.56
537.654	84.56
537.868	97.56
538.082	97.56
538.296	107.56
538.51	102.56
538.724	100.56
538.938	100.56
539.153	117.56
539.367	111.56
539.581	101.56
539.795	100.56
540.009	105.56
540.222	97.56
540.436	102.56
540.65	111.56
540.864	103.56
541.078	108.56
541.292	132.56
541.506	204.56
541.72	206.56
541.934	124.56
542.147	112.56
542.361	110.56
542.575	106.56
542.789	95.56
543.002	106.56
543.216	109.56
543.43	101.56
543.644	84.56
543.857	98.56
544.071	113.56
544.285	96.56
544.498	103.56
544.712	116.56
544.925	106.56
545.139	104.56
545.352	88.56
545.566	108.56
545.779	97.56
545.993	91.56
546.206	97.56
546.42	106.56
546.633	100.56
546.847	97.56
547.06	103.56
547.274	104.56
547.487	96.56
547.7	103.56
547.914	90.56
548.127	104.56
548.34	105.56
548.554	85.56
548.767	104.56
548.98	94.56
549.193	95.56
549.407	98.56
549.62	96.56
549.833	86.56
550.046	109.56
550.259	92.56
550.473	91.56
550.686	109.56
550.899	116.56
551.112	99.56
551.325	111.56
551.538	111.56
551.751	99.56
551.964	102.56
552.177	112.56
552.39	112.56
552.603	99.56
552.816	102.56
553.029	95.56
553.242	94.56
553.455	105.56
553.667	93.56
553.88	100.56
554.093	104.56
554.306	100.56
554.519	117.56
554.732	119.56
554.944	99.56
555.157	94.56
555.37	89.56
555.583	103.56
555.795	112.56
556.008	115.56
556.221	147.56
556.433	124.56
556.646	121.56
556.859	108.56
557.071	105.56
557.284	126.56
557.496	113.56
557.709	101.56
557.921	98.56
558.134	102.56
558.346	104.56
558.559	95.56
558.771	103.56
558.984	105.56
559.196	95.56
559.409	101.56
559.621	113.56
559.833	108.56
560.046	95.56
560.258	105.56
560.47	99.56
560.683	106.56
560.895	94.56
561.107	117.56
561.32	109.56
561.532	101.56
561.744	116.56
561.956	98.56
562.168	101.56
562.381	96.56
562.593	107.56
562.805	122.56
563.017	161.56
563.229	219.56
563.441	552.56
563.653	202.56
563.865	127.56
564.077	105.56
564.289	107.56
564.501	106.56
564.713	82.56
564.925	89.56
565.137	94.56
565.349	95.56
565.561	111.56
565.773	91.56
565.985	101.56
566.197	89.56
566.408	91.56
566.62	90.56
566.832	100.56
567.044	97.56
567.255	96.56
567.467	103.56
567.679	110.56
567.891	122.56
568.102	155.56
568.314	256.56
568.526	141.56
568.737	117.56
568.949	107.56
569.161	92.56
569.372	104.56
569.584	112.56
569.795	90.56
570.007	95.56
570.218	124.56
570.43	167.56
570.641	131.56
570.853	94.56
571.064	103.56
571.276	89.56
571.487	89.56
571.698	80.56
571.91	74.56
572.121	74.56
572.333	93.56
572.544	113.56
572.755	137.56
572.966	226.56
573.178	145.56
573.389	112.56
573.6	99.56
573.811	92.56
574.023	100.56
574.234	104.56
574.445	91.56
574.656	88.56
574.867	94.56
575.078	96.56
575.289	88.56
575.501	88.56
575.712	112.56
575.923	96.56
576.134	91.56
576.345	113.56
576.556	89.56
576.767	91.56
576.978	82.56
577.188	99.56
577.399	88.56
577.61	87.56
577.821	83.56
578.032	89.56
578.243	101.56
578.454	106.56
578.665	102.56
578.875	95.56
579.086	106.56
579.297	81.56
579.508	84.56
579.718	97.56
579.929	107.56
580.14	101.56
580.35	92.56
580.561	103.56
580.772	100.56
580.982	104.56
581.193	88.56
581.403	99.56
581.614	103.56
581.825	97.56
582.035	87.56
582.246	92.56
582.456	91.56
582.667	91.56
582.877	114.56
583.087	116.56
583.298	96.56
583.508	86.56
583.719	96.56
583.929	105.56
584.139	85.56
584.35	81.56
584.56	87.56
584.77	96.56
584.981	88.56
585.191	87.56
585.401	97.56
585.611	91.56
585.821	100.56
586.032	100.56
586.242	97.56
586.452	92.56
586.662	97.56
586.872	84.56
587.082	89.56
587.292	100.56
587.502	75.56
587.713	92.56
587.923	89.56
588.133	86.56
588.343	101.56
588.553	97.56
588.762	105.56
588.972	91.56
589.182	125.56
589.392	106.56
589.602	103.56
589.812	123.56
590.022	101.56
590.232	91.56
590.441	102.56
590.651	101.56
590.861	82.56
591.071	81.56
591.281	85.56
591.49	81.56
591.7	84.56
591.91	101.56
592.119	96.56
592.329	90.56
592.539	79.56
592.748	99.56
592.958	103.56
593.167	93.56
593.377	96.56
593.587	100.56
593.796	92.56
594.006	100.56
594.215	89.56
594.424	101.56
594.634	88.56
594.843	73.56
595.053	90.56
595.262	90.56
595.472	100.56
595.681	96.56
595.89	93.56
596.1	92.56
596.309	98.56
596.518	83.56
596.727	89.56
596.937	89.56
597.146	102.56
597.355	91.56
597.564	106.56
597.774	75.56
597.983	97.56
598.192	78.56
598.401	90.56
598.61	92.56
598.819	87.56
599.028	93.56
599.237	85.56
599.446	92.56
599.655	98.56
599.864	100.56
600.073	85.56
600.282	106.56
600.491	90.56
600.7	83.56
600.909	87.56
601.118	96.56
601.327	104.56
601.536	113.56
601.745	112.56
601.953	130.56
602.162	159.56
602.371	106.56
602.58	107.56
602.789	102.56
602.997	86.56
603.206	94.56
603.415	83.56
603.623	91.56
603.832	88.56
604.041	91.56
604.249	93.56
604.458	100.56
604.666	84.56
604.875	99.56
605.084	90.56
605.292	93.56
605.501	81.56
605.709	95.56
605.918	92.56
606.126	95.56
606.334	97.56
606.543	100.56
606.751	131.56
606.96	161.56
607.168	177.56
607.376	121.56
607.585	102.56
607.793	106.56
608.001	105.56
608.21	106.56
608.418	107.56
608.626	99.56
608.834	91.56
609.043	90.56
609.251	108.56
609.459	93.56
609.667	90.56
609.875	95.56
610.083	98.56
610.291	79.56
610.499	85.56
610.707	87.56
610.916	95.56
611.124	113.56
611.332	99.56
611.54	89.56
611.748	99.56
611.955	100.56
612.163	87.56
612.371	92.56
612.579	102.56
612.787	96.56
612.995	96.56
613.203	98.56
613.411	95.56
613.618	95.56
613.826	91.56
614.034	104.56
614.242	97.56
614.449	79.56
614.657	86.56
614.865	104.56
615.072	100.56
615.28	111.56
615.488	111.56
615.695	93.56
615.903	97.56
616.111	99.56
616.318	98.56
616.526	107.56
616.733	99.56
616.941	97.56
617.148	96.56
617.356	113.56
617.563	108.56
617.771	82.56
617.978	91.56
618.185	91.56
618.393	96.56
618.6	99.56
618.807	100.56
619.015	92.56
619.222	95.56
619.429	95.56
619.637	84.56
619.844	99.56
620.051	89.56
620.258	86.56
620.466	86.56
620.673	103.56
620.88	98.56
621.087	95.56
621.294	76.56
621.501	80.56
621.708	85.56
621.915	79.56
622.122	100.56
622.329	83.56
622.536	95.56
622.743	97.56
622.95	104.56
623.157	93.56
623.364	92.56
623.571	94.56
623.778	95.56
623.985	97.56
624.192	93.56
624.399	104.56
624.606	105.56
624.812	97.56
625.019	92.56
625.226	93.56
625.433	87.56
625.639	86.56
625.846	73.56
626.053	98.56
626.259	99.56
626.466	105.56
626.673	75.56
626.879	93.56
627.086	87.56
627.293	87.56
627.499	82.56
627.706	94.56
627.912	88.56
628.119	95.56
628.325	81.56
628.532	108.56
628.738	101.56
628.945	106.56
629.151	89.56
629.357	94.56
629.564	104.56
629.77	92.56
629.976	91.56
630.183	82.56
630.389	88.56
630.595	84.56
630.802	74.56
631.008	91.56
631.214	85.56
631.42	93.56
631.627	92.56
631.833	83.56
632.039	88.56
632.245	88.56
632.451	101.56
632.657	93.56
632.863	69.56
633.069	93.56
633.275	83.56
633.481	91.56
633.688	84.56
633.893	93.56
634.099	84.56
634.305	83.56
634.511	90.56
634.717	86.56
634.923	90.56
635.129	123.56
635.335	124.56
635.541	101.56
635.747	101.56
635.952	99.56
636.158	90.56
636.364	98.56
636.57	75.56
636.775	98.56
636.981	96.56
637.187	94.56
637.392	93.56
637.598	92.56
637.804	103.56
638.009	79.56
638.215	82.56
638.421	87.56
638.626	94.56
638.832	81.56
639.037	93.56
639.243	79.56
639.448	87.56
639.654	95.56
639.859	97.56
640.065	77.56
640.27	93.56
640.475	76.56
640.681	94.56
640.886	91.56
641.091	76.56
641.297	90.56
641.502	80.56
641.707	83.56
641.913	100.56
642.118	88.56
642.323	82.56
642.528	85.56
642.733	107.56
642.939	100.56
643.144	76.56
643.349	82.56
643.554	81.56
643.759	102.56
643.964	76.56
644.169	85.56
644.374	72.56
644.579	84.56
644.784	82.56
644.989	92.56
645.194	88.56
645.399	103.56
645.604	106.56
645.809	96.56
646.014	76.56
646.219	87.56
646.423	97.56
646.628	84.56
646.833	86.56
647.038	87.56
647.243	86.56
647.447	95.56
647.652	89.56
647.857	83.56
648.062	82.56
648.266	103.56
648.471	95.56
648.676	89.56
648.88	91.56
649.085	78.56
649.289	95.56
649.494	99.56
649.698	96.56
649.903	102.56
650.107	83.56
650.312	91.56
650.516	84.56
650.721	75.56
650.925	83.56
651.13	86.56
651.334	82.56
651.539	81.56
651.743	79.56
651.947	97.56
652.152	84.56
652.356	91.56
652.56	104.56
652.764	113.56
652.969	96.56
653.173	89.56
653.377	83.56
653.581	78.56
653.785	77.56
653.99	84.56
654.194	80.56
654.398	92.56
654.602	93.56
654.806	93.56
655.01	95.56
655.214	79.56
655.418	85.56
655.622	89.56
655.826	80.56
656.03	85.56
656.234	89.56
656.438	78.56
656.642	94.56
656.846	101.56
657.049	97.56
657.253	71.56
657.457	85.56
657.661	82.56
657.865	94.56
658.068	93.56
658.272	100.56
658.476	80.56
658.68	87.56
658.883	83.56
659.087	80.56
659.291	95.56
659.494	84.56
659.698	85.56
659.901	92.56
660.105	79.56
660.309	77.56
660.512	77.56
660.716	76.56
660.919	76.56
661.123	84.56
661.326	77.56
661.53	79.56
661.733	86.56
661.936	80.56
662.14	85.56
662.343	90.56
662.546	89.56
662.75	88.56
662.953	106.56
663.156	76.56
663.36	86.56
663.563	95.56
663.766	72.56
663.969	75.56
664.173	81.56
664.376	82.56
664.579	82.56
664.782	79.56
664.985	94.56
665.188	75.56
665.391	85.56
665.594	90.56
665.797	87.56
666	95.56
666.203	78.56
666.406	89.56
666.609	88.56
666.812	83.56
667.015	84.56
667.218	94.56
667.421	92.56
667.624	72.56
667.827	81.56
668.03	85.56
668.232	77.56
668.435	92.56
668.638	78.56
668.841	72.56
669.043	80.56
669.246	85.56
669.449	92.56
669.651	78.56
669.854	93.56
670.057	76.56
670.259	68.56
670.462	70.56
670.665	95.56
670.867	85.56
671.07	69.56
671.272	87.56
671.475	77.56
671.677	79.56
671.88	87.56
672.082	78.56
672.284	84.56
672.487	92.56
672.689	64.56
672.892	71.56
