Data from SnStandardFlinnAPT0064_QswitchEnergy10_LIBS07252019.E.O._I.C._HRD10591_15-26-45-973.txt Node
Date: Thu Jul 25 15:26:45 EDT 2019
User: cochatt
Spectrometer: HR+D1059
Trigger mode: 1
Integration Time (sec): 1.000000E-1
Scans to average: 1
Electric dark correction enabled: true
Nonlinearity correction enabled: false
Boxcar width: 0
XAxis mode: Wavelengths
Number of Pixels in Spectrum: 2048
>>>>>Begin Spectral Data<<<<<
223.165	-9.19
223.4	-9.19
223.635	-9.19
223.869	-21.19
224.104	-22.19
224.338	-6.19
224.573	-17.19
224.808	-22.19
225.042	-15.19
225.277	-8.19
225.511	4.81
225.746	3.81
225.98	8.81
226.215	8.81
226.449	15.81
226.683	25.81
226.918	27.81
227.152	25.81
227.387	57.81
227.621	41.81
227.856	49.81
228.09	45.81
228.324	46.81
228.559	49.81
228.793	50.81
229.027	72.81
229.262	74.81
229.496	70.81
229.73	72.81
229.964	65.81
230.199	72.81
230.433	66.81
230.667	86.81
230.901	80.81
231.136	76.81
231.37	79.81
231.604	94.81
231.838	97.81
232.072	125.81
232.306	111.81
232.541	98.81
232.775	89.81
233.009	75.81
233.243	83.81
233.477	85.81
233.711	90.81
233.945	86.81
234.179	94.81
234.413	83.81
234.647	87.81
234.881	72.81
235.115	82.81
235.349	74.81
235.583	99.81
235.817	129.81
236.051	123.81
236.285	85.81
236.519	90.81
236.753	84.81
236.987	78.81
237.221	74.81
237.455	65.81
237.689	73.81
237.922	73.81
238.156	81.81
238.39	80.81
238.624	80.81
238.858	83.81
239.091	86.81
239.325	89.81
239.559	83.81
239.793	82.81
240.027	86.81
240.26	82.81
240.494	80.81
240.728	97.81
240.961	95.81
241.195	97.81
241.429	87.81
241.662	89.81
241.896	103.81
242.13	120.81
242.363	117.81
242.597	152.81
242.83	140.81
243.064	139.81
243.298	169.81
243.531	153.81
243.765	101.81
243.998	69.81
244.232	75.81
244.465	79.81
244.699	82.81
244.932	64.81
245.166	79.81
245.399	82.81
245.633	71.81
245.866	83.81
246.099	76.81
246.333	94.81
246.566	80.81
246.8	78.81
247.033	86.81
247.266	81.81
247.5	66.81
247.733	70.81
247.966	83.81
248.2	89.81
248.433	96.81
248.666	118.81
248.899	116.81
249.133	90.81
249.366	87.81
249.599	114.81
249.832	129.81
250.066	121.81
250.299	88.81
250.532	93.81
250.765	85.81
250.998	79.81
251.231	99.81
251.465	87.81
251.698	88.81
251.931	74.81
252.164	90.81
252.397	85.81
252.63	90.81
252.863	94.81
253.096	97.81
253.329	92.81
253.562	90.81
253.795	91.81
254.028	80.81
254.261	91.81
254.494	99.81
254.727	125.81
254.96	125.81
255.193	126.81
255.426	94.81
255.659	97.81
255.892	81.81
256.124	79.81
256.357	79.81
256.59	93.81
256.823	110.81
257.056	113.81
257.289	133.81
257.521	183.81
257.754	125.81
257.987	101.81
258.22	99.81
258.452	75.81
258.685	88.81
258.918	86.81
259.151	91.81
259.383	118.81
259.616	145.81
259.849	156.81
260.081	103.81
260.314	79.81
260.547	90.81
260.779	92.81
261.012	93.81
261.244	70.81
261.477	85.81
261.71	85.81
261.942	89.81
262.175	92.81
262.407	81.81
262.64	85.81
262.872	92.81
263.105	98.81
263.337	82.81
263.57	83.81
263.802	81.81
264.035	99.81
264.267	90.81
264.499	70.81
264.732	82.81
264.964	81.81
265.197	80.81
265.429	85.81
265.661	84.81
265.894	100.81
266.126	129.81
266.358	159.81
266.591	130.81
266.823	109.81
267.055	84.81
267.287	85.81
267.52	80.81
267.752	89.81
267.984	92.81
268.216	89.81
268.448	98.81
268.681	100.81
268.913	105.81
269.145	94.81
269.377	84.81
269.609	96.81
269.841	106.81
270.073	105.81
270.306	123.81
270.538	181.81
270.77	308.81
271.002	365.81
271.234	177.81
271.466	107.81
271.698	94.81
271.93	100.81
272.162	94.81
272.394	101.81
272.626	67.81
272.858	95.81
273.09	97.81
273.322	82.81
273.553	79.81
273.785	83.81
274.017	79.81
274.249	94.81
274.481	72.81
274.713	92.81
274.945	87.81
275.176	88.81
275.408	84.81
275.64	75.81
275.872	93.81
276.104	93.81
276.335	100.81
276.567	99.81
276.799	93.81
277.031	95.81
277.262	95.81
277.494	113.81
277.726	113.81
277.957	177.81
278.189	243.81
278.421	233.81
278.652	186.81
278.884	192.81
279.115	138.81
279.347	113.81
279.579	103.81
279.81	90.81
280.042	97.81
280.273	99.81
280.505	100.81
280.736	129.81
280.968	123.81
281.199	163.81
281.431	255.81
281.662	253.81
281.894	154.81
282.125	115.81
282.356	111.81
282.588	104.81
282.819	109.81
283.051	109.81
283.282	135.81
283.513	179.81
283.745	318.81
283.976	519.81
284.207	775.81
284.439	601.81
284.67	277.81
284.901	255.81
285.132	336.81
285.364	369.81
285.595	217.81
285.826	158.81
286.057	252.81
286.288	417.81
286.52	602.81
286.751	488.81
286.982	190.81
287.213	125.81
287.444	107.81
287.675	108.81
287.906	98.81
288.138	90.81
288.369	98.81
288.6	87.81
288.831	93.81
289.062	94.81
289.293	94.81
289.524	95.81
289.755	83.81
289.986	93.81
290.217	110.81
290.448	99.81
290.679	93.81
290.91	119.81
291.141	178.81
291.371	233.81
291.602	295.81
291.833	204.81
292.064	122.81
292.295	95.81
292.526	83.81
292.757	104.81
292.987	102.81
293.218	81.81
293.449	89.81
293.68	98.81
293.91	93.81
294.141	99.81
294.372	96.81
294.603	94.81
294.833	105.81
295.064	83.81
295.295	93.81
295.525	68.81
295.756	87.81
295.987	81.81
296.217	90.81
296.448	95.81
296.679	86.81
296.909	90.81
297.14	96.81
297.37	97.81
297.601	85.81
297.831	113.81
298.062	106.81
298.292	113.81
298.523	93.81
298.753	91.81
298.984	102.81
299.214	102.81
299.445	115.81
299.675	109.81
299.905	120.81
300.136	119.81
300.366	160.81
300.597	267.81
300.827	428.81
301.057	657.81
301.288	630.81
301.518	255.81
301.748	154.81
301.979	122.81
302.209	129.81
302.439	136.81
302.669	185.81
302.9	271.81
303.13	473.81
303.36	883.81
303.59	1194.81
303.82	821.81
304.051	299.81
304.281	160.81
304.511	114.81
304.741	104.81
304.971	94.81
305.201	117.81
305.431	101.81
305.661	101.81
305.891	112.81
306.121	112.81
306.352	95.81
306.582	102.81
306.812	113.81
307.042	103.81
307.272	106.81
307.502	109.81
307.731	107.81
307.961	96.81
308.191	103.81
308.421	97.81
308.651	99.81
308.881	103.81
309.111	94.81
309.341	89.81
309.571	92.81
309.8	105.81
310.03	118.81
310.26	98.81
310.49	109.81
310.72	106.81
310.949	99.81
311.179	106.81
311.409	95.81
311.639	93.81
311.868	90.81
312.098	112.81
312.328	99.81
312.557	121.81
312.787	105.81
313.017	107.81
313.246	124.81
313.476	117.81
313.706	131.81
313.935	152.81
314.165	179.81
314.394	240.81
314.624	187.81
314.853	123.81
315.083	128.81
315.312	115.81
315.542	138.81
315.771	123.81
316.001	139.81
316.23	137.81
316.46	149.81
316.689	174.81
316.919	249.81
317.148	471.81
317.377	869.81
317.607	1471.81
317.836	1370.81
318.065	523.81
318.295	214.81
318.524	149.81
318.753	134.81
318.983	127.81
319.212	110.81
319.441	112.81
319.67	125.81
319.9	112.81
320.129	102.81
320.358	114.81
320.587	111.81
320.816	107.81
321.046	114.81
321.275	123.81
321.504	114.81
321.733	131.81
321.962	149.81
322.191	169.81
322.42	129.81
322.649	125.81
322.878	119.81
323.108	128.81
323.337	116.81
323.566	121.81
323.795	132.81
324.024	125.81
324.253	129.81
324.482	193.81
324.71	224.81
324.939	266.81
325.168	229.81
325.397	177.81
325.626	227.81
325.855	458.81
326.084	927.81
326.313	1592.81
326.542	1573.81
326.77	606.81
326.999	249.81
327.228	201.81
327.457	238.81
327.686	238.81
327.914	172.81
328.143	123.81
328.372	129.81
328.6	111.81
328.829	114.81
329.058	116.81
329.287	113.81
329.515	102.81
329.744	119.81
329.972	107.81
330.201	132.81
330.43	107.81
330.658	107.81
330.887	118.81
331.115	109.81
331.344	104.81
331.572	125.81
331.801	122.81
332.03	115.81
332.258	143.81
332.486	160.81
332.715	287.81
332.943	497.81
333.172	769.81
333.4	651.81
333.629	232.81
333.857	141.81
334.085	117.81
334.314	125.81
334.542	111.81
334.771	115.81
334.999	134.81
335.227	131.81
335.455	123.81
335.684	117.81
335.912	127.81
336.14	101.81
336.369	106.81
336.597	97.81
336.825	104.81
337.053	101.81
337.281	115.81
337.51	101.81
337.738	117.81
337.966	106.81
338.194	111.81
338.422	113.81
338.65	110.81
338.878	109.81
339.106	118.81
339.334	113.81
339.562	115.81
339.79	100.81
340.018	113.81
340.246	110.81
340.474	126.81
340.702	113.81
340.93	100.81
341.158	104.81
341.386	107.81
341.614	112.81
341.842	128.81
342.07	116.81
342.298	118.81
342.526	112.81
342.754	119.81
342.981	115.81
343.209	105.81
343.437	119.81
343.665	107.81
343.893	103.81
344.12	104.81
344.348	111.81
344.576	107.81
344.804	107.81
345.031	108.81
345.259	114.81
345.487	104.81
345.714	105.81
345.942	112.81
346.17	105.81
346.397	107.81
346.625	103.81
346.853	98.81
347.08	93.81
347.308	106.81
347.535	100.81
347.763	112.81
347.99	104.81
348.218	110.81
348.445	104.81
348.673	113.81
348.9	130.81
349.128	118.81
349.355	119.81
349.583	113.81
349.81	101.81
350.037	113.81
350.265	113.81
350.492	101.81
350.72	117.81
350.947	98.81
351.174	117.81
351.402	105.81
351.629	110.81
351.856	119.81
352.083	118.81
352.311	115.81
352.538	99.81
352.765	122.81
352.992	113.81
353.22	104.81
353.447	101.81
353.674	115.81
353.901	102.81
354.128	117.81
354.355	97.81
354.583	109.81
354.81	106.81
355.037	102.81
355.264	98.81
355.491	105.81
355.718	110.81
355.945	103.81
356.172	109.81
356.399	101.81
356.626	106.81
356.853	89.81
357.08	97.81
357.307	123.81
357.534	116.81
357.761	97.81
357.988	117.81
358.215	105.81
358.441	109.81
358.668	101.81
358.895	127.81
359.122	118.81
359.349	114.81
359.576	107.81
359.802	117.81
360.029	95.81
360.256	115.81
360.483	103.81
360.709	102.81
360.936	118.81
361.163	101.81
361.39	99.81
361.616	106.81
361.843	117.81
362.07	109.81
362.296	98.81
362.523	97.81
362.749	102.81
362.976	88.81
363.203	103.81
363.429	97.81
363.656	119.81
363.882	107.81
364.109	103.81
364.335	117.81
364.562	107.81
364.788	95.81
365.015	100.81
365.241	138.81
365.468	190.81
365.694	246.81
365.92	208.81
366.147	117.81
366.373	105.81
366.599	112.81
366.826	98.81
367.052	91.81
367.278	119.81
367.505	101.81
367.731	99.81
367.957	112.81
368.184	102.81
368.41	129.81
368.636	115.81
368.862	110.81
369.089	99.81
369.315	93.81
369.541	107.81
369.767	116.81
369.993	110.81
370.219	106.81
370.445	100.81
370.672	104.81
370.898	115.81
371.124	103.81
371.35	91.81
371.576	98.81
371.802	109.81
372.028	103.81
372.254	116.81
372.48	112.81
372.706	82.81
372.932	115.81
373.158	106.81
373.384	111.81
373.61	112.81
373.835	113.81
374.061	113.81
374.287	117.81
374.513	97.81
374.739	105.81
374.965	105.81
375.191	116.81
375.416	107.81
375.642	95.81
375.868	115.81
376.094	121.81
376.319	106.81
376.545	97.81
376.771	104.81
376.997	96.81
377.222	96.81
377.448	111.81
377.674	85.81
377.899	94.81
378.125	106.81
378.35	115.81
378.576	104.81
378.802	123.81
379.027	122.81
379.253	130.81
379.478	179.81
379.704	304.81
379.929	776.81
380.155	1576.81
380.38	1592.81
380.606	522.81
380.831	192.81
381.057	137.81
381.282	102.81
381.507	112.81
381.733	105.81
381.958	113.81
382.184	110.81
382.409	109.81
382.634	120.81
382.86	113.81
383.085	105.81
383.31	113.81
383.535	98.81
383.761	110.81
383.986	100.81
384.211	107.81
384.436	101.81
384.662	104.81
384.887	104.81
385.112	111.81
385.337	111.81
385.562	97.81
385.787	97.81
386.013	97.81
386.238	103.81
386.463	98.81
386.688	106.81
386.913	114.81
387.138	109.81
387.363	100.81
387.588	106.81
387.813	111.81
388.038	101.81
388.263	96.81
388.488	79.81
388.713	85.81
388.938	114.81
389.163	102.81
389.387	90.81
389.612	94.81
389.837	91.81
390.062	93.81
390.287	102.81
390.512	98.81
390.736	101.81
390.961	87.81
391.186	88.81
391.411	98.81
391.636	101.81
391.86	99.81
392.085	99.81
392.31	93.81
392.534	100.81
392.759	93.81
392.984	106.81
393.208	121.81
393.433	127.81
393.658	120.81
393.882	98.81
394.107	86.81
394.331	103.81
394.556	105.81
394.78	102.81
395.005	89.81
395.229	99.81
395.454	97.81
395.678	96.81
395.903	98.81
396.127	105.81
396.352	105.81
396.576	93.81
396.801	116.81
397.025	119.81
397.249	102.81
397.474	104.81
397.698	95.81
397.922	103.81
398.147	96.81
398.371	104.81
398.595	105.81
398.82	103.81
399.044	92.81
399.268	106.81
399.492	97.81
399.717	101.81
399.941	86.81
400.165	102.81
400.389	106.81
400.613	104.81
400.837	82.81
401.062	82.81
401.286	88.81
401.51	99.81
401.734	85.81
401.958	98.81
402.182	103.81
402.406	112.81
402.63	91.81
402.854	84.81
403.078	96.81
403.302	96.81
403.526	95.81
403.75	95.81
403.974	98.81
404.198	87.81
404.422	106.81
404.645	101.81
404.869	95.81
405.093	97.81
405.317	99.81
405.541	106.81
405.765	113.81
405.988	151.81
406.212	92.81
406.436	98.81
406.66	93.81
406.883	98.81
407.107	95.81
407.331	102.81
407.555	91.81
407.778	106.81
408.002	96.81
408.226	102.81
408.449	103.81
408.673	103.81
408.896	90.81
409.12	99.81
409.344	103.81
409.567	69.81
409.791	83.81
410.014	103.81
410.238	105.81
410.461	114.81
410.685	103.81
410.908	100.81
411.132	112.81
411.355	87.81
411.578	92.81
411.802	97.81
412.025	105.81
412.249	91.81
412.472	103.81
412.695	89.81
412.919	95.81
413.142	79.81
413.365	103.81
413.589	105.81
413.812	90.81
414.035	106.81
414.258	106.81
414.482	78.81
414.705	104.81
414.928	100.81
415.151	105.81
415.374	100.81
415.597	78.81
415.821	74.81
416.044	85.81
416.267	85.81
416.49	97.81
416.713	97.81
416.936	94.81
417.159	108.81
417.382	78.81
417.605	90.81
417.828	84.81
418.051	87.81
418.274	94.81
418.497	91.81
418.72	112.81
418.943	111.81
419.166	110.81
419.389	112.81
419.611	95.81
419.834	94.81
420.057	94.81
420.28	90.81
420.503	98.81
420.726	101.81
420.948	96.81
421.171	99.81
421.394	106.81
421.617	87.81
421.839	101.81
422.062	99.81
422.285	98.81
422.507	114.81
422.73	111.81
422.953	129.81
423.175	117.81
423.398	94.81
423.621	90.81
423.843	100.81
424.066	90.81
424.288	98.81
424.511	102.81
424.733	103.81
424.956	97.81
425.178	78.81
425.401	91.81
425.623	89.81
425.846	113.81
426.068	93.81
426.291	82.81
426.513	89.81
426.735	93.81
426.958	94.81
427.18	89.81
427.402	97.81
427.625	113.81
427.847	83.81
428.069	97.81
428.292	101.81
428.514	87.81
428.736	99.81
428.958	106.81
429.181	90.81
429.403	87.81
429.625	100.81
429.847	102.81
430.069	103.81
430.292	117.81
430.514	92.81
430.736	101.81
430.958	100.81
431.18	95.81
431.402	83.81
431.624	94.81
431.846	89.81
432.068	97.81
432.29	81.81
432.512	89.81
432.734	97.81
432.956	102.81
433.178	88.81
433.4	97.81
433.622	91.81
433.844	88.81
434.066	111.81
434.287	89.81
434.509	91.81
434.731	89.81
434.953	83.81
435.175	102.81
435.397	105.81
435.618	106.81
435.84	81.81
436.062	89.81
436.284	99.81
436.505	85.81
436.727	93.81
436.949	102.81
437.17	102.81
437.392	96.81
437.614	105.81
437.835	95.81
438.057	100.81
438.278	89.81
438.5	95.81
438.721	100.81
438.943	97.81
439.165	117.81
439.386	116.81
439.608	97.81
439.829	102.81
440.05	105.81
440.272	113.81
440.493	129.81
440.715	106.81
440.936	101.81
441.158	91.81
441.379	77.81
441.6	93.81
441.822	97.81
442.043	116.81
442.264	133.81
442.486	103.81
442.707	105.81
442.928	109.81
443.149	75.81
443.371	96.81
443.592	88.81
443.813	90.81
444.034	93.81
444.255	99.81
444.476	110.81
444.698	93.81
444.919	107.81
445.14	217.81
445.361	142.81
445.582	104.81
445.803	92.81
446.024	91.81
446.245	104.81
446.466	97.81
446.687	108.81
446.908	103.81
447.129	109.81
447.35	87.81
447.571	115.81
447.792	107.81
448.013	100.81
448.234	104.81
448.455	99.81
448.675	87.81
448.896	90.81
449.117	116.81
449.338	109.81
449.559	157.81
449.779	116.81
450	91.81
450.221	101.81
450.442	114.81
450.662	103.81
450.883	101.81
451.104	99.81
451.324	111.81
451.545	125.81
451.766	101.81
451.986	144.81
452.207	222.81
452.428	566.81
452.648	1336.81
452.869	774.81
453.089	203.81
453.31	122.81
453.53	122.81
453.751	129.81
453.971	156.81
454.192	149.81
454.412	106.81
454.633	114.81
454.853	97.81
455.073	85.81
455.294	98.81
455.514	80.81
455.734	94.81
455.955	75.81
456.175	81.81
456.395	100.81
456.616	95.81
456.836	99.81
457.056	95.81
457.276	89.81
457.497	114.81
457.717	112.81
457.937	89.81
458.157	102.81
458.377	91.81
458.598	91.81
458.818	83.81
459.038	89.81
459.258	87.81
459.478	91.81
459.698	104.81
459.918	92.81
460.138	91.81
460.358	100.81
460.578	98.81
460.798	94.81
461.018	93.81
461.238	85.81
461.458	85.81
461.678	95.81
461.898	101.81
462.118	92.81
462.338	102.81
462.558	95.81
462.777	99.81
462.997	99.81
463.217	114.81
463.437	133.81
463.657	184.81
463.876	185.81
464.096	114.81
464.316	95.81
464.536	91.81
464.755	103.81
464.975	98.81
465.195	90.81
465.414	91.81
465.634	93.81
465.854	102.81
466.073	104.81
466.293	100.81
466.512	94.81
466.732	81.81
466.951	97.81
467.171	139.81
467.391	145.81
467.61	103.81
467.829	99.81
468.049	98.81
468.268	110.81
468.488	95.81
468.707	96.81
468.927	97.81
469.146	84.81
469.365	94.81
469.585	94.81
469.804	98.81
470.023	84.81
470.243	77.81
470.462	112.81
470.681	117.81
470.901	133.81
471.12	186.81
471.339	209.81
471.558	134.81
471.777	114.81
471.997	106.81
472.216	93.81
472.435	101.81
472.654	99.81
472.873	112.81
473.092	93.81
473.311	92.81
473.53	103.81
473.749	111.81
473.968	99.81
474.187	87.81
474.406	85.81
474.625	90.81
474.844	86.81
475.063	90.81
475.282	109.81
475.501	94.81
475.72	91.81
475.939	80.81
476.158	92.81
476.377	100.81
476.596	115.81
476.814	109.81
477.033	108.81
477.252	85.81
477.471	98.81
477.69	95.81
477.908	107.81
478.127	93.81
478.346	92.81
478.564	85.81
478.783	87.81
479.002	102.81
479.22	97.81
479.439	95.81
479.658	102.81
479.876	106.81
480.095	76.81
480.313	97.81
480.532	81.81
480.751	94.81
480.969	95.81
481.188	87.81
481.406	98.81
481.624	111.81
481.843	107.81
482.061	114.81
482.28	117.81
482.498	91.81
482.717	89.81
482.935	98.81
483.153	94.81
483.372	103.81
483.59	103.81
483.808	96.81
484.027	101.81
484.245	117.81
484.463	189.81
484.681	233.81
484.9	145.81
485.118	110.81
485.336	97.81
485.554	109.81
485.772	110.81
485.99	178.81
486.209	231.81
486.427	151.81
486.645	90.81
486.863	107.81
487.081	94.81
487.299	95.81
487.517	98.81
487.735	92.81
487.953	96.81
488.171	95.81
488.389	99.81
488.607	89.81
488.825	99.81
489.043	100.81
489.261	94.81
489.479	104.81
489.696	97.81
489.914	106.81
490.132	93.81
490.35	98.81
490.568	105.81
490.786	101.81
491.003	91.81
491.221	99.81
491.439	113.81
491.657	115.81
491.874	93.81
492.092	109.81
492.31	109.81
492.527	92.81
492.745	93.81
492.963	98.81
493.18	93.81
493.398	102.81
493.615	97.81
493.833	90.81
494.05	106.81
494.268	106.81
494.485	119.81
494.703	99.81
494.92	102.81
495.138	101.81
495.355	98.81
495.573	102.81
495.79	113.81
496.008	108.81
496.225	91.81
496.442	104.81
496.66	104.81
496.877	172.81
497.094	173.81
497.312	112.81
497.529	111.81
497.746	98.81
497.963	102.81
498.181	108.81
498.398	104.81
498.615	88.81
498.832	82.81
499.049	106.81
499.267	121.81
499.484	167.81
499.701	122.81
499.918	99.81
500.135	94.81
500.352	88.81
500.569	96.81
500.786	94.81
501.003	90.81
501.22	105.81
501.437	97.81
501.654	83.81
501.871	109.81
502.088	110.81
502.305	101.81
502.522	88.81
502.739	84.81
502.956	109.81
503.172	100.81
503.389	106.81
503.606	104.81
503.823	94.81
504.04	104.81
504.256	102.81
504.473	107.81
504.69	98.81
504.907	105.81
505.123	114.81
505.34	95.81
505.557	99.81
505.773	102.81
505.99	109.81
506.207	113.81
506.423	100.81
506.64	114.81
506.856	99.81
507.073	101.81
507.289	96.81
507.506	93.81
507.722	100.81
507.939	107.81
508.155	117.81
508.372	103.81
508.588	88.81
508.805	98.81
509.021	99.81
509.238	113.81
509.454	137.81
509.67	162.81
509.887	123.81
510.103	110.81
510.319	94.81
510.536	105.81
510.752	118.81
510.968	92.81
511.184	91.81
511.401	97.81
511.617	107.81
511.833	82.81
512.049	96.81
512.265	113.81
512.481	97.81
512.698	93.81
512.914	96.81
513.13	105.81
513.346	85.81
513.562	90.81
513.778	90.81
513.994	93.81
514.21	105.81
514.426	141.81
514.642	197.81
514.858	119.81
515.074	106.81
515.29	99.81
515.506	97.81
515.721	93.81
515.937	106.81
516.153	111.81
516.369	98.81
516.585	99.81
516.801	91.81
517.016	96.81
517.232	109.81
517.448	115.81
517.664	111.81
517.879	99.81
518.095	109.81
518.311	117.81
518.527	99.81
518.742	93.81
518.958	128.81
519.173	160.81
519.389	122.81
519.605	94.81
519.82	103.81
520.036	97.81
520.251	109.81
520.467	87.81
520.682	106.81
520.898	76.81
521.113	93.81
521.329	94.81
521.544	88.81
521.76	120.81
521.975	116.81
522.19	115.81
522.406	102.81
522.621	103.81
522.836	96.81
523.052	99.81
523.267	104.81
523.482	95.81
523.698	101.81
523.913	97.81
524.128	97.81
524.343	101.81
524.559	95.81
524.774	98.81
524.989	105.81
525.204	90.81
525.419	96.81
525.634	106.81
525.849	104.81
526.064	98.81
526.28	94.81
526.495	111.81
526.71	96.81
526.925	98.81
527.14	101.81
527.355	94.81
527.57	91.81
527.785	87.81
527.999	97.81
528.214	89.81
528.429	74.81
528.644	102.81
528.859	97.81
529.074	102.81
529.289	97.81
529.503	112.81
529.718	96.81
529.933	90.81
530.148	90.81
530.363	92.81
530.577	87.81
530.792	100.81
531.007	96.81
531.221	94.81
531.436	100.81
531.651	95.81
531.865	86.81
532.08	101.81
532.295	107.81
532.509	129.81
532.724	113.81
532.938	107.81
533.153	105.81
533.367	104.81
533.582	97.81
533.796	96.81
534.011	106.81
534.225	88.81
534.44	100.81
534.654	103.81
534.868	90.81
535.083	99.81
535.297	99.81
535.511	102.81
535.726	101.81
535.94	96.81
536.154	94.81
536.369	86.81
536.583	87.81
536.797	102.81
537.011	101.81
537.225	88.81
537.44	88.81
537.654	90.81
537.868	93.81
538.082	95.81
538.296	100.81
538.51	94.81
538.724	87.81
538.938	111.81
539.153	105.81
539.367	102.81
539.581	105.81
539.795	96.81
540.009	96.81
540.222	100.81
540.436	110.81
540.65	92.81
540.864	108.81
541.078	99.81
541.292	126.81
541.506	202.81
541.72	191.81
541.934	122.81
542.147	103.81
542.361	104.81
542.575	96.81
542.789	102.81
543.002	88.81
543.216	95.81
543.43	86.81
543.644	93.81
543.857	101.81
544.071	95.81
544.285	108.81
544.498	96.81
544.712	98.81
544.925	110.81
545.139	89.81
545.352	100.81
545.566	95.81
545.779	114.81
545.993	117.81
546.206	88.81
546.42	96.81
546.633	102.81
546.847	105.81
547.06	102.81
547.274	97.81
547.487	98.81
547.7	104.81
547.914	94.81
548.127	101.81
548.34	99.81
548.554	109.81
548.767	101.81
548.98	113.81
549.193	91.81
549.407	95.81
549.62	101.81
549.833	114.81
550.046	104.81
550.259	106.81
550.473	97.81
550.686	99.81
550.899	93.81
551.112	110.81
551.325	89.81
551.538	81.81
551.751	82.81
551.964	88.81
552.177	93.81
552.39	98.81
552.603	120.81
552.816	104.81
553.029	98.81
553.242	98.81
553.455	83.81
553.667	109.81
553.88	109.81
554.093	86.81
554.306	94.81
554.519	104.81
554.732	109.81
554.944	89.81
555.157	93.81
555.37	118.81
555.583	100.81
555.795	98.81
556.008	111.81
556.221	147.81
556.433	139.81
556.646	114.81
556.859	101.81
557.071	117.81
557.284	112.81
557.496	105.81
557.709	111.81
557.921	93.81
558.134	95.81
558.346	99.81
558.559	90.81
558.771	90.81
558.984	107.81
559.196	106.81
559.409	99.81
559.621	110.81
559.833	92.81
560.046	111.81
560.258	100.81
560.47	100.81
560.683	103.81
560.895	87.81
561.107	99.81
561.32	86.81
561.532	95.81
561.744	94.81
561.956	90.81
562.168	93.81
562.381	118.81
562.593	103.81
562.805	141.81
563.017	168.81
563.229	242.81
563.441	605.81
563.653	197.81
563.865	112.81
564.077	91.81
564.289	96.81
564.501	102.81
564.713	92.81
564.925	75.81
565.137	95.81
565.349	104.81
565.561	115.81
565.773	92.81
565.985	100.81
566.197	88.81
566.408	93.81
566.62	88.81
566.832	105.81
567.044	94.81
567.255	106.81
567.467	97.81
567.679	100.81
567.891	123.81
568.102	168.81
568.314	240.81
568.526	155.81
568.737	110.81
568.949	111.81
569.161	101.81
569.372	102.81
569.584	90.81
569.795	95.81
570.007	110.81
570.218	127.81
570.43	149.81
570.641	123.81
570.853	104.81
571.064	114.81
571.276	100.81
571.487	85.81
571.698	91.81
571.91	94.81
572.121	91.81
572.333	89.81
572.544	102.81
572.755	137.81
572.966	183.81
573.178	136.81
573.389	106.81
573.6	85.81
573.811	90.81
574.023	81.81
574.234	80.81
574.445	102.81
574.656	92.81
574.867	94.81
575.078	89.81
575.289	106.81
575.501	104.81
575.712	85.81
575.923	88.81
576.134	102.81
576.345	82.81
576.556	99.81
576.767	83.81
576.978	83.81
577.188	81.81
577.399	87.81
577.61	94.81
577.821	93.81
578.032	98.81
578.243	96.81
578.454	90.81
578.665	94.81
578.875	84.81
579.086	81.81
579.297	98.81
579.508	85.81
579.718	101.81
579.929	113.81
580.14	90.81
580.35	91.81
580.561	113.81
580.772	106.81
580.982	91.81
581.193	82.81
581.403	100.81
581.614	94.81
581.825	90.81
582.035	90.81
582.246	97.81
582.456	90.81
582.667	94.81
582.877	117.81
583.087	112.81
583.298	91.81
583.508	88.81
583.719	89.81
583.929	97.81
584.139	102.81
584.35	88.81
584.56	99.81
584.77	102.81
584.981	96.81
585.191	95.81
585.401	81.81
585.611	89.81
585.821	96.81
586.032	99.81
586.242	98.81
586.452	102.81
586.662	96.81
586.872	99.81
587.082	81.81
587.292	91.81
587.502	92.81
587.713	102.81
587.923	94.81
588.133	90.81
588.343	88.81
588.553	104.81
588.762	103.81
588.972	92.81
589.182	112.81
589.392	122.81
589.602	96.81
589.812	119.81
590.022	110.81
590.232	79.81
590.441	86.81
590.651	94.81
590.861	99.81
591.071	80.81
591.281	78.81
591.49	91.81
591.7	78.81
591.91	105.81
592.119	105.81
592.329	94.81
592.539	83.81
592.748	101.81
592.958	103.81
593.167	87.81
593.377	88.81
593.587	94.81
593.796	83.81
594.006	85.81
594.215	87.81
594.424	89.81
594.634	78.81
594.843	90.81
595.053	86.81
595.262	72.81
595.472	91.81
595.681	89.81
595.89	96.81
596.1	85.81
596.309	81.81
596.518	91.81
596.727	81.81
596.937	94.81
597.146	97.81
597.355	108.81
597.564	90.81
597.774	98.81
597.983	77.81
598.192	88.81
598.401	91.81
598.61	87.81
598.819	83.81
599.028	96.81
599.237	104.81
599.446	100.81
599.655	82.81
599.864	74.81
600.073	79.81
600.282	110.81
600.491	88.81
600.7	91.81
600.909	104.81
601.118	95.81
601.327	98.81
601.536	111.81
601.745	101.81
601.953	118.81
602.162	151.81
602.371	117.81
602.58	99.81
602.789	90.81
602.997	91.81
603.206	99.81
603.415	91.81
603.623	87.81
603.832	102.81
604.041	101.81
604.249	96.81
604.458	113.81
604.666	90.81
604.875	99.81
605.084	91.81
605.292	95.81
605.501	87.81
605.709	97.81
605.918	102.81
606.126	100.81
606.334	92.81
606.543	98.81
606.751	137.81
606.96	146.81
607.168	165.81
607.376	124.81
607.585	113.81
607.793	107.81
608.001	90.81
608.21	87.81
608.418	102.81
608.626	102.81
608.834	82.81
609.043	81.81
609.251	83.81
609.459	87.81
609.667	89.81
609.875	87.81
610.083	90.81
610.291	93.81
610.499	103.81
610.707	88.81
610.916	88.81
611.124	103.81
611.332	98.81
611.54	83.81
611.748	91.81
611.955	101.81
612.163	91.81
612.371	97.81
612.579	96.81
612.787	97.81
612.995	102.81
613.203	90.81
613.411	97.81
613.618	84.81
613.826	83.81
614.034	95.81
614.242	101.81
614.449	88.81
614.657	105.81
614.865	101.81
615.072	114.81
615.28	131.81
615.488	107.81
615.695	109.81
615.903	95.81
616.111	98.81
616.318	90.81
616.526	96.81
616.733	92.81
616.941	94.81
617.148	102.81
617.356	95.81
617.563	102.81
617.771	94.81
617.978	91.81
618.185	93.81
618.393	75.81
618.6	77.81
618.807	83.81
619.015	96.81
619.222	102.81
619.429	89.81
619.637	82.81
619.844	97.81
620.051	97.81
620.258	83.81
620.466	96.81
620.673	78.81
620.88	88.81
621.087	94.81
621.294	75.81
621.501	94.81
621.708	94.81
621.915	91.81
622.122	90.81
622.329	99.81
622.536	92.81
622.743	88.81
622.95	89.81
623.157	93.81
623.364	100.81
623.571	96.81
623.778	105.81
623.985	73.81
624.192	91.81
624.399	89.81
624.606	89.81
624.812	87.81
625.019	73.81
625.226	84.81
625.433	100.81
625.639	74.81
625.846	86.81
626.053	82.81
626.259	105.81
626.466	78.81
626.673	93.81
626.879	90.81
627.086	74.81
627.293	75.81
627.499	94.81
627.706	85.81
627.912	81.81
628.119	93.81
628.325	90.81
628.532	90.81
628.738	91.81
628.945	86.81
629.151	89.81
629.357	86.81
629.564	78.81
629.77	84.81
629.976	93.81
630.183	77.81
630.389	90.81
630.595	82.81
630.802	91.81
631.008	78.81
631.214	78.81
631.42	93.81
631.627	97.81
631.833	89.81
632.039	78.81
632.245	83.81
632.451	79.81
632.657	94.81
632.863	80.81
633.069	83.81
633.275	96.81
633.481	94.81
633.688	84.81
633.893	84.81
634.099	83.81
634.305	80.81
634.511	85.81
634.717	89.81
634.923	97.81
635.129	104.81
635.335	131.81
635.541	108.81
635.747	94.81
635.952	92.81
636.158	78.81
636.364	87.81
636.57	93.81
636.775	82.81
636.981	87.81
637.187	90.81
637.392	78.81
637.598	68.81
637.804	82.81
638.009	76.81
638.215	73.81
638.421	83.81
638.626	89.81
638.832	90.81
639.037	98.81
639.243	94.81
639.448	81.81
639.654	88.81
639.859	91.81
640.065	76.81
640.27	83.81
640.475	94.81
640.681	82.81
640.886	82.81
641.091	89.81
641.297	83.81
641.502	87.81
641.707	107.81
641.913	97.81
642.118	95.81
642.323	93.81
642.528	98.81
642.733	85.81
642.939	74.81
643.144	88.81
643.349	80.81
643.554	97.81
643.759	88.81
643.964	82.81
644.169	84.81
644.374	88.81
644.579	86.81
644.784	86.81
644.989	95.81
645.194	80.81
645.399	98.81
645.604	96.81
645.809	99.81
646.014	101.81
646.219	75.81
646.423	74.81
646.628	93.81
646.833	91.81
647.038	103.81
647.243	82.81
647.447	95.81
647.652	68.81
647.857	81.81
648.062	91.81
648.266	97.81
648.471	74.81
648.676	100.81
648.88	76.81
649.085	91.81
649.289	94.81
649.494	85.81
649.698	97.81
649.903	88.81
650.107	79.81
650.312	93.81
650.516	77.81
650.721	89.81
650.925	79.81
651.13	93.81
651.334	78.81
651.539	97.81
651.743	80.81
651.947	95.81
652.152	94.81
652.356	87.81
652.56	94.81
652.764	107.81
652.969	98.81
653.173	82.81
653.377	89.81
653.581	83.81
653.785	91.81
653.99	79.81
654.194	96.81
654.398	88.81
654.602	84.81
654.806	97.81
655.01	77.81
655.214	83.81
655.418	87.81
655.622	76.81
655.826	88.81
656.03	79.81
656.234	82.81
656.438	67.81
656.642	75.81
656.846	74.81
657.049	67.81
657.253	90.81
657.457	75.81
657.661	74.81
657.865	78.81
658.068	94.81
658.272	91.81
658.476	86.81
658.68	88.81
658.883	59.81
659.087	85.81
659.291	82.81
659.494	86.81
659.698	76.81
659.901	82.81
660.105	71.81
660.309	89.81
660.512	91.81
660.716	80.81
660.919	82.81
661.123	82.81
661.326	77.81
661.53	89.81
661.733	88.81
661.936	97.81
662.14	82.81
662.343	71.81
662.546	71.81
662.75	90.81
662.953	81.81
663.156	85.81
663.36	78.81
663.563	75.81
663.766	69.81
663.969	87.81
664.173	78.81
664.376	74.81
664.579	75.81
664.782	78.81
664.985	77.81
665.188	84.81
665.391	68.81
665.594	80.81
665.797	84.81
666	78.81
666.203	58.81
666.406	78.81
666.609	75.81
666.812	67.81
667.015	74.81
667.218	77.81
667.421	72.81
667.624	94.81
667.827	86.81
668.03	78.81
668.232	77.81
668.435	80.81
668.638	82.81
668.841	90.81
669.043	93.81
669.246	85.81
669.449	72.81
669.651	87.81
669.854	86.81
670.057	92.81
670.259	77.81
670.462	88.81
670.665	87.81
670.867	80.81
671.07	83.81
671.272	84.81
671.475	69.81
671.677	85.81
671.88	89.81
672.082	63.81
672.284	50.81
672.487	83.81
672.689	86.81
672.892	63.81
