Data from SnStandardFlinnAPT0064_QswitchEnergy10_LIBS07252019.E.O._I.C._HRD10591_15-28-54-974.txt Node
Date: Thu Jul 25 15:28:54 EDT 2019
User: cochatt
Spectrometer: HR+D1059
Trigger mode: 1
Integration Time (sec): 1.000000E-1
Scans to average: 1
Electric dark correction enabled: true
Nonlinearity correction enabled: false
Boxcar width: 0
XAxis mode: Wavelengths
Number of Pixels in Spectrum: 2048
>>>>>Begin Spectral Data<<<<<
223.165	-10.56
223.4	-10.56
223.635	-10.56
223.869	-8.56
224.104	-18.56
224.338	-16.56
224.573	-26.56
224.808	-24.56
225.042	1.44
225.277	-2.56
225.511	-4.56
225.746	-8.56
225.98	8.44
226.215	25.44
226.449	21.44
226.683	11.44
226.918	19.44
227.152	33.44
227.387	29.44
227.621	40.44
227.856	54.44
228.09	45.44
228.324	37.44
228.559	54.44
228.793	59.44
229.027	70.44
229.262	78.44
229.496	61.44
229.73	70.44
229.964	82.44
230.199	69.44
230.433	81.44
230.667	78.44
230.901	71.44
231.136	49.44
231.37	80.44
231.604	94.44
231.838	101.44
232.072	119.44
232.306	107.44
232.541	101.44
232.775	79.44
233.009	87.44
233.243	86.44
233.477	87.44
233.711	84.44
233.945	106.44
234.179	90.44
234.413	77.44
234.647	93.44
234.881	92.44
235.115	77.44
235.349	94.44
235.583	102.44
235.817	128.44
236.051	127.44
236.285	102.44
236.519	87.44
236.753	79.44
236.987	59.44
237.221	77.44
237.455	60.44
237.689	75.44
237.922	79.44
238.156	85.44
238.39	73.44
238.624	86.44
238.858	86.44
239.091	71.44
239.325	77.44
239.559	55.44
239.793	60.44
240.027	71.44
240.26	86.44
240.494	80.44
240.728	81.44
240.961	75.44
241.195	91.44
241.429	81.44
241.662	74.44
241.896	86.44
242.13	109.44
242.363	135.44
242.597	164.44
242.83	147.44
243.064	141.44
243.298	178.44
243.531	142.44
243.765	112.44
243.998	92.44
244.232	76.44
244.465	93.44
244.699	80.44
244.932	81.44
245.166	74.44
245.399	98.44
245.633	93.44
245.866	85.44
246.099	87.44
246.333	78.44
246.566	82.44
246.8	74.44
247.033	81.44
247.266	71.44
247.5	75.44
247.733	82.44
247.966	87.44
248.2	111.44
248.433	117.44
248.666	127.44
248.899	131.44
249.133	89.44
249.366	102.44
249.599	99.44
249.832	124.44
250.066	138.44
250.299	95.44
250.532	97.44
250.765	86.44
250.998	80.44
251.231	80.44
251.465	70.44
251.698	69.44
251.931	79.44
252.164	71.44
252.397	93.44
252.63	94.44
252.863	101.44
253.096	80.44
253.329	104.44
253.562	93.44
253.795	99.44
254.028	74.44
254.261	74.44
254.494	96.44
254.727	122.44
254.96	155.44
255.193	137.44
255.426	87.44
255.659	81.44
255.892	94.44
256.124	98.44
256.357	91.44
256.59	88.44
256.823	100.44
257.056	114.44
257.289	150.44
257.521	185.44
257.754	133.44
257.987	83.44
258.22	86.44
258.452	88.44
258.685	92.44
258.918	90.44
259.151	89.44
259.383	103.44
259.616	137.44
259.849	153.44
260.081	111.44
260.314	91.44
260.547	89.44
260.779	91.44
261.012	73.44
261.244	70.44
261.477	82.44
261.71	94.44
261.942	86.44
262.175	81.44
262.407	73.44
262.64	88.44
262.872	80.44
263.105	84.44
263.337	85.44
263.57	75.44
263.802	94.44
264.035	101.44
264.267	83.44
264.499	85.44
264.732	84.44
264.964	88.44
265.197	87.44
265.429	73.44
265.661	84.44
265.894	100.44
266.126	136.44
266.358	155.44
266.591	146.44
266.823	106.44
267.055	98.44
267.287	92.44
267.52	88.44
267.752	93.44
267.984	88.44
268.216	81.44
268.448	91.44
268.681	89.44
268.913	84.44
269.145	91.44
269.377	87.44
269.609	88.44
269.841	107.44
270.073	89.44
270.306	137.44
270.538	232.44
270.77	343.44
271.002	418.44
271.234	223.44
271.466	120.44
271.698	87.44
271.93	95.44
272.162	88.44
272.394	88.44
272.626	94.44
272.858	87.44
273.09	91.44
273.322	85.44
273.553	80.44
273.785	91.44
274.017	85.44
274.249	80.44
274.481	81.44
274.713	94.44
274.945	80.44
275.176	92.44
275.408	92.44
275.64	100.44
275.872	93.44
276.104	86.44
276.335	95.44
276.567	97.44
276.799	81.44
277.031	70.44
277.262	99.44
277.494	112.44
277.726	137.44
277.957	208.44
278.189	290.44
278.421	271.44
278.652	205.44
278.884	199.44
279.115	149.44
279.347	112.44
279.579	95.44
279.81	99.44
280.042	87.44
280.273	109.44
280.505	109.44
280.736	122.44
280.968	132.44
281.199	184.44
281.431	283.44
281.662	290.44
281.894	166.44
282.125	123.44
282.356	118.44
282.588	122.44
282.819	111.44
283.051	123.44
283.282	149.44
283.513	199.44
283.745	345.44
283.976	624.44
284.207	870.44
284.439	665.44
284.67	294.44
284.901	309.44
285.132	377.44
285.364	412.44
285.595	257.44
285.826	193.44
286.057	277.44
286.288	458.44
286.52	672.44
286.751	539.44
286.982	207.44
287.213	126.44
287.444	121.44
287.675	118.44
287.906	89.44
288.138	89.44
288.369	90.44
288.6	100.44
288.831	88.44
289.062	97.44
289.293	92.44
289.524	96.44
289.755	90.44
289.986	87.44
290.217	95.44
290.448	107.44
290.679	99.44
290.91	128.44
291.141	162.44
291.371	290.44
291.602	334.44
291.833	225.44
292.064	129.44
292.295	96.44
292.526	96.44
292.757	102.44
292.987	90.44
293.218	97.44
293.449	102.44
293.68	89.44
293.91	95.44
294.141	96.44
294.372	93.44
294.603	100.44
294.833	89.44
295.064	86.44
295.295	84.44
295.525	94.44
295.756	101.44
295.987	100.44
296.217	79.44
296.448	103.44
296.679	113.44
296.909	94.44
297.14	101.44
297.37	96.44
297.601	92.44
297.831	99.44
298.062	106.44
298.292	115.44
298.523	95.44
298.753	118.44
298.984	103.44
299.214	102.44
299.445	104.44
299.675	118.44
299.905	117.44
300.136	156.44
300.366	184.44
300.597	309.44
300.827	488.44
301.057	763.44
301.288	713.44
301.518	290.44
301.748	147.44
301.979	145.44
302.209	153.44
302.439	152.44
302.669	182.44
302.9	304.44
303.13	570.44
303.36	1030.44
303.59	1410.44
303.82	949.44
304.051	343.44
304.281	179.44
304.511	134.44
304.741	131.44
304.971	134.44
305.201	110.44
305.431	105.44
305.661	104.44
305.891	112.44
306.121	118.44
306.352	102.44
306.582	103.44
306.812	114.44
307.042	106.44
307.272	102.44
307.502	102.44
307.731	115.44
307.961	104.44
308.191	97.44
308.421	118.44
308.651	114.44
308.881	100.44
309.111	105.44
309.341	110.44
309.571	115.44
309.8	109.44
310.03	97.44
310.26	102.44
310.49	116.44
310.72	103.44
310.949	111.44
311.179	105.44
311.409	115.44
311.639	121.44
311.868	113.44
312.098	120.44
312.328	102.44
312.557	110.44
312.787	113.44
313.017	99.44
313.246	110.44
313.476	100.44
313.706	147.44
313.935	173.44
314.165	211.44
314.394	251.44
314.624	198.44
314.853	131.44
315.083	141.44
315.312	137.44
315.542	133.44
315.771	127.44
316.001	134.44
316.23	146.44
316.46	151.44
316.689	188.44
316.919	301.44
317.148	531.44
317.377	1039.44
317.607	1679.44
317.836	1581.44
318.065	601.44
318.295	246.44
318.524	161.44
318.753	157.44
318.983	123.44
319.212	123.44
319.441	131.44
319.67	130.44
319.9	129.44
320.129	117.44
320.358	111.44
320.587	145.44
320.816	129.44
321.046	123.44
321.275	129.44
321.504	134.44
321.733	154.44
321.962	190.44
322.191	175.44
322.42	153.44
322.649	146.44
322.878	121.44
323.108	124.44
323.337	127.44
323.566	129.44
323.795	135.44
324.024	142.44
324.253	157.44
324.482	189.44
324.71	257.44
324.939	295.44
325.168	271.44
325.397	201.44
325.626	282.44
325.855	544.44
326.084	1051.44
326.313	1768.44
326.542	1748.44
326.77	702.44
326.999	294.44
327.228	231.44
327.457	253.44
327.686	249.44
327.914	172.44
328.143	128.44
328.372	134.44
328.6	143.44
328.829	125.44
329.058	134.44
329.287	138.44
329.515	122.44
329.744	122.44
329.972	122.44
330.201	121.44
330.43	114.44
330.658	125.44
330.887	111.44
331.115	100.44
331.344	127.44
331.572	112.44
331.801	117.44
332.03	139.44
332.258	135.44
332.486	173.44
332.715	334.44
332.943	567.44
333.172	850.44
333.4	729.44
333.629	276.44
333.857	155.44
334.085	138.44
334.314	146.44
334.542	137.44
334.771	136.44
334.999	132.44
335.227	133.44
335.455	121.44
335.684	129.44
335.912	132.44
336.14	129.44
336.369	96.44
336.597	92.44
336.825	116.44
337.053	113.44
337.281	115.44
337.51	98.44
337.738	110.44
337.966	112.44
338.194	127.44
338.422	119.44
338.65	120.44
338.878	120.44
339.106	118.44
339.334	126.44
339.562	97.44
339.79	121.44
340.018	121.44
340.246	119.44
340.474	99.44
340.702	107.44
340.93	115.44
341.158	111.44
341.386	117.44
341.614	129.44
341.842	137.44
342.07	121.44
342.298	128.44
342.526	112.44
342.754	117.44
342.981	131.44
343.209	110.44
343.437	111.44
343.665	122.44
343.893	118.44
344.12	111.44
344.348	110.44
344.576	116.44
344.804	122.44
345.031	120.44
345.259	110.44
345.487	111.44
345.714	120.44
345.942	103.44
346.17	119.44
346.397	109.44
346.625	105.44
346.853	115.44
347.08	99.44
347.308	88.44
347.535	112.44
347.763	99.44
347.99	101.44
348.218	107.44
348.445	108.44
348.673	119.44
348.9	131.44
349.128	129.44
349.355	128.44
349.583	119.44
349.81	116.44
350.037	117.44
350.265	130.44
350.492	112.44
350.72	123.44
350.947	109.44
351.174	123.44
351.402	124.44
351.629	123.44
351.856	113.44
352.083	106.44
352.311	111.44
352.538	113.44
352.765	118.44
352.992	107.44
353.22	115.44
353.447	102.44
353.674	102.44
353.901	109.44
354.128	120.44
354.355	119.44
354.583	114.44
354.81	111.44
355.037	100.44
355.264	93.44
355.491	104.44
355.718	101.44
355.945	105.44
356.172	101.44
356.399	115.44
356.626	105.44
356.853	100.44
357.08	109.44
357.307	117.44
357.534	105.44
357.761	111.44
357.988	118.44
358.215	114.44
358.441	100.44
358.668	107.44
358.895	117.44
359.122	131.44
359.349	132.44
359.576	127.44
359.802	134.44
360.029	120.44
360.256	116.44
360.483	124.44
360.709	122.44
360.936	135.44
361.163	114.44
361.39	114.44
361.616	112.44
361.843	124.44
362.07	121.44
362.296	115.44
362.523	118.44
362.749	102.44
362.976	114.44
363.203	121.44
363.429	103.44
363.656	98.44
363.882	110.44
364.109	118.44
364.335	119.44
364.562	107.44
364.788	105.44
365.015	110.44
365.241	135.44
365.468	197.44
365.694	294.44
365.92	244.44
366.147	130.44
366.373	121.44
366.599	110.44
366.826	113.44
367.052	109.44
367.278	110.44
367.505	103.44
367.731	98.44
367.957	109.44
368.184	105.44
368.41	115.44
368.636	130.44
368.862	113.44
369.089	111.44
369.315	106.44
369.541	102.44
369.767	111.44
369.993	104.44
370.219	111.44
370.445	123.44
370.672	126.44
370.898	102.44
371.124	112.44
371.35	107.44
371.576	93.44
371.802	115.44
372.028	112.44
372.254	108.44
372.48	122.44
372.706	117.44
372.932	127.44
373.158	111.44
373.384	118.44
373.61	104.44
373.835	119.44
374.061	109.44
374.287	113.44
374.513	108.44
374.739	116.44
374.965	121.44
375.191	124.44
375.416	114.44
375.642	120.44
375.868	113.44
376.094	92.44
376.319	112.44
376.545	122.44
376.771	130.44
376.997	122.44
377.222	116.44
377.448	113.44
377.674	98.44
377.899	125.44
378.125	106.44
378.35	113.44
378.576	113.44
378.802	116.44
379.027	135.44
379.253	152.44
379.478	200.44
379.704	350.44
379.929	882.44
380.155	1803.44
380.38	1871.44
380.606	582.44
380.831	198.44
381.057	148.44
381.282	116.44
381.507	99.44
381.733	120.44
381.958	112.44
382.184	119.44
382.409	114.44
382.634	105.44
382.86	110.44
383.085	111.44
383.31	108.44
383.535	116.44
383.761	105.44
383.986	101.44
384.211	117.44
384.436	105.44
384.662	94.44
384.887	127.44
385.112	109.44
385.337	94.44
385.562	102.44
385.787	109.44
386.013	127.44
386.238	105.44
386.463	119.44
386.688	94.44
386.913	112.44
387.138	117.44
387.363	97.44
387.588	109.44
387.813	116.44
388.038	114.44
388.263	112.44
388.488	114.44
388.713	105.44
388.938	95.44
389.163	91.44
389.387	91.44
389.612	98.44
389.837	101.44
390.062	111.44
390.287	99.44
390.512	114.44
390.736	131.44
390.961	109.44
391.186	116.44
391.411	112.44
391.636	93.44
391.86	103.44
392.085	95.44
392.31	92.44
392.534	92.44
392.759	111.44
392.984	117.44
393.208	123.44
393.433	158.44
393.658	149.44
393.882	111.44
394.107	97.44
394.331	99.44
394.556	93.44
394.78	95.44
395.005	98.44
395.229	91.44
395.454	103.44
395.678	105.44
395.903	94.44
396.127	92.44
396.352	102.44
396.576	112.44
396.801	117.44
397.025	147.44
397.249	109.44
397.474	107.44
397.698	105.44
397.922	98.44
398.147	98.44
398.371	110.44
398.595	108.44
398.82	96.44
399.044	120.44
399.268	112.44
399.492	100.44
399.717	86.44
399.941	102.44
400.165	101.44
400.389	107.44
400.613	103.44
400.837	91.44
401.062	94.44
401.286	88.44
401.51	97.44
401.734	119.44
401.958	91.44
402.182	113.44
402.406	89.44
402.63	92.44
402.854	105.44
403.078	90.44
403.302	101.44
403.526	88.44
403.75	102.44
403.974	104.44
404.198	105.44
404.422	80.44
404.645	100.44
404.869	100.44
405.093	100.44
405.317	97.44
405.541	115.44
405.765	139.44
405.988	162.44
406.212	121.44
406.436	117.44
406.66	105.44
406.883	96.44
407.107	102.44
407.331	95.44
407.555	97.44
407.778	109.44
408.002	97.44
408.226	114.44
408.449	113.44
408.673	115.44
408.896	105.44
409.12	96.44
409.344	95.44
409.567	94.44
409.791	106.44
410.014	115.44
410.238	111.44
410.461	97.44
410.685	111.44
410.908	95.44
411.132	101.44
411.355	98.44
411.578	97.44
411.802	94.44
412.025	100.44
412.249	93.44
412.472	104.44
412.695	91.44
412.919	110.44
413.142	106.44
413.365	90.44
413.589	88.44
413.812	106.44
414.035	115.44
414.258	103.44
414.482	106.44
414.705	116.44
414.928	100.44
415.151	111.44
415.374	102.44
415.597	96.44
415.821	80.44
416.044	106.44
416.267	93.44
416.49	98.44
416.713	98.44
416.936	97.44
417.159	91.44
417.382	86.44
417.605	94.44
417.828	87.44
418.051	92.44
418.274	86.44
418.497	87.44
418.72	102.44
418.943	104.44
419.166	99.44
419.389	106.44
419.611	118.44
419.834	101.44
420.057	106.44
420.28	95.44
420.503	109.44
420.726	96.44
420.948	98.44
421.171	100.44
421.394	105.44
421.617	94.44
421.839	93.44
422.062	97.44
422.285	96.44
422.507	99.44
422.73	137.44
422.953	148.44
423.175	107.44
423.398	109.44
423.621	89.44
423.843	98.44
424.066	95.44
424.288	91.44
424.511	99.44
424.733	105.44
424.956	91.44
425.178	85.44
425.401	104.44
425.623	97.44
425.846	99.44
426.068	101.44
426.291	91.44
426.513	90.44
426.735	95.44
426.958	99.44
427.18	113.44
427.402	92.44
427.625	88.44
427.847	85.44
428.069	105.44
428.292	109.44
428.514	113.44
428.736	95.44
428.958	94.44
429.181	83.44
429.403	102.44
429.625	110.44
429.847	115.44
430.069	122.44
430.292	111.44
430.514	102.44
430.736	94.44
430.958	87.44
431.18	111.44
431.402	95.44
431.624	109.44
431.846	94.44
432.068	109.44
432.29	107.44
432.512	91.44
432.734	93.44
432.956	92.44
433.178	88.44
433.4	98.44
433.622	98.44
433.844	99.44
434.066	97.44
434.287	98.44
434.509	90.44
434.731	88.44
434.953	92.44
435.175	97.44
435.397	106.44
435.618	97.44
435.84	86.44
436.062	95.44
436.284	103.44
436.505	87.44
436.727	93.44
436.949	87.44
437.17	94.44
437.392	79.44
437.614	95.44
437.835	102.44
438.057	95.44
438.278	86.44
438.5	92.44
438.721	91.44
438.943	105.44
439.165	121.44
439.386	113.44
439.608	110.44
439.829	101.44
440.05	97.44
440.272	130.44
440.493	96.44
440.715	89.44
440.936	90.44
441.158	98.44
441.379	102.44
441.6	83.44
441.822	106.44
442.043	103.44
442.264	130.44
442.486	89.44
442.707	105.44
442.928	104.44
443.149	96.44
443.371	99.44
443.592	94.44
443.813	87.44
444.034	104.44
444.255	98.44
444.476	102.44
444.698	106.44
444.919	106.44
445.14	191.44
445.361	139.44
445.582	90.44
445.803	94.44
446.024	93.44
446.245	104.44
446.466	107.44
446.687	107.44
446.908	109.44
447.129	83.44
447.35	94.44
447.571	104.44
447.792	102.44
448.013	94.44
448.234	103.44
448.455	103.44
448.675	91.44
448.896	105.44
449.117	120.44
449.338	145.44
449.559	147.44
449.779	128.44
450	105.44
450.221	110.44
450.442	125.44
450.662	116.44
450.883	95.44
451.104	106.44
451.324	131.44
451.545	111.44
451.766	115.44
451.986	140.44
452.207	231.44
452.428	607.44
452.648	1567.44
452.869	872.44
453.089	226.44
453.31	129.44
453.53	120.44
453.751	159.44
453.971	165.44
454.192	174.44
454.412	114.44
454.633	96.44
454.853	89.44
455.073	90.44
455.294	108.44
455.514	108.44
455.734	104.44
455.955	90.44
456.175	88.44
456.395	91.44
456.616	85.44
456.836	105.44
457.056	106.44
457.276	97.44
457.497	121.44
457.717	131.44
457.937	113.44
458.157	96.44
458.377	89.44
458.598	93.44
458.818	84.44
459.038	89.44
459.258	89.44
459.478	73.44
459.698	94.44
459.918	85.44
460.138	89.44
460.358	89.44
460.578	98.44
460.798	102.44
461.018	90.44
461.238	93.44
461.458	80.44
461.678	99.44
461.898	109.44
462.118	98.44
462.338	89.44
462.558	72.44
462.777	102.44
462.997	94.44
463.217	114.44
463.437	161.44
463.657	211.44
463.876	190.44
464.096	142.44
464.316	94.44
464.536	93.44
464.755	85.44
464.975	91.44
465.195	96.44
465.414	97.44
465.634	91.44
465.854	86.44
466.073	87.44
466.293	93.44
466.512	84.44
466.732	99.44
466.951	112.44
467.171	165.44
467.391	139.44
467.61	113.44
467.829	103.44
468.049	92.44
468.268	104.44
468.488	103.44
468.707	91.44
468.927	91.44
469.146	117.44
469.365	112.44
469.585	94.44
469.804	94.44
470.023	108.44
470.243	96.44
470.462	95.44
470.681	104.44
470.901	136.44
471.12	196.44
471.339	224.44
471.558	155.44
471.777	121.44
471.997	119.44
472.216	101.44
472.435	98.44
472.654	82.44
472.873	98.44
473.092	96.44
473.311	81.44
473.53	87.44
473.749	81.44
473.968	98.44
474.187	95.44
474.406	102.44
474.625	99.44
474.844	106.44
475.063	97.44
475.282	100.44
475.501	90.44
475.72	97.44
475.939	81.44
476.158	86.44
476.377	107.44
476.596	118.44
476.814	110.44
477.033	97.44
477.252	101.44
477.471	124.44
477.69	102.44
477.908	105.44
478.127	88.44
478.346	90.44
478.564	92.44
478.783	99.44
479.002	117.44
479.22	94.44
479.439	92.44
479.658	93.44
479.876	94.44
480.095	108.44
480.313	89.44
480.532	84.44
480.751	94.44
480.969	83.44
481.188	91.44
481.406	102.44
481.624	95.44
481.843	137.44
482.061	110.44
482.28	97.44
482.498	109.44
482.717	76.44
482.935	102.44
483.153	106.44
483.372	113.44
483.59	111.44
483.808	99.44
484.027	111.44
484.245	123.44
484.463	196.44
484.681	245.44
484.9	167.44
485.118	106.44
485.336	113.44
485.554	125.44
485.772	141.44
485.99	197.44
486.209	288.44
486.427	167.44
486.645	135.44
486.863	125.44
487.081	117.44
487.299	110.44
487.517	89.44
487.735	91.44
487.953	81.44
488.171	91.44
488.389	115.44
488.607	117.44
488.825	107.44
489.043	104.44
489.261	97.44
489.479	98.44
489.696	100.44
489.914	92.44
490.132	109.44
490.35	104.44
490.568	96.44
490.786	100.44
491.003	99.44
491.221	112.44
491.439	109.44
491.657	98.44
491.874	105.44
492.092	100.44
492.31	115.44
492.527	101.44
492.745	117.44
492.963	107.44
493.18	105.44
493.398	109.44
493.615	111.44
493.833	114.44
494.05	112.44
494.268	97.44
494.485	113.44
494.703	101.44
494.92	89.44
495.138	103.44
495.355	115.44
495.573	96.44
495.79	104.44
496.008	114.44
496.225	103.44
496.442	115.44
496.66	122.44
496.877	179.44
497.094	169.44
497.312	109.44
497.529	104.44
497.746	110.44
497.963	85.44
498.181	102.44
498.398	113.44
498.615	121.44
498.832	100.44
499.049	120.44
499.267	155.44
499.484	183.44
499.701	126.44
499.918	101.44
500.135	92.44
500.352	92.44
500.569	106.44
500.786	100.44
501.003	96.44
501.22	90.44
501.437	106.44
501.654	109.44
501.871	100.44
502.088	113.44
502.305	119.44
502.522	104.44
502.739	106.44
502.956	88.44
503.172	93.44
503.389	106.44
503.606	93.44
503.823	106.44
504.04	108.44
504.256	111.44
504.473	109.44
504.69	100.44
504.907	125.44
505.123	109.44
505.34	103.44
505.557	90.44
505.773	112.44
505.99	106.44
506.207	103.44
506.423	117.44
506.64	100.44
506.856	97.44
507.073	111.44
507.289	93.44
507.506	90.44
507.722	85.44
507.939	106.44
508.155	110.44
508.372	105.44
508.588	87.44
508.805	106.44
509.021	96.44
509.238	116.44
509.454	145.44
509.67	173.44
509.887	111.44
510.103	109.44
510.319	103.44
510.536	98.44
510.752	119.44
510.968	95.44
511.184	92.44
511.401	101.44
511.617	96.44
511.833	105.44
512.049	88.44
512.265	104.44
512.481	92.44
512.698	96.44
512.914	106.44
513.13	107.44
513.346	110.44
513.562	96.44
513.778	94.44
513.994	96.44
514.21	123.44
514.426	149.44
514.642	185.44
514.858	128.44
515.074	94.44
515.29	114.44
515.506	109.44
515.721	95.44
515.937	106.44
516.153	88.44
516.369	100.44
516.585	85.44
516.801	104.44
517.016	89.44
517.232	96.44
517.448	110.44
517.664	112.44
517.879	90.44
518.095	101.44
518.311	88.44
518.527	87.44
518.742	111.44
518.958	129.44
519.173	168.44
519.389	117.44
519.605	81.44
519.82	111.44
520.036	107.44
520.251	105.44
520.467	91.44
520.682	97.44
520.898	85.44
521.113	103.44
521.329	90.44
521.544	98.44
521.76	105.44
521.975	111.44
522.19	99.44
522.406	94.44
522.621	96.44
522.836	88.44
523.052	100.44
523.267	103.44
523.482	96.44
523.698	91.44
523.913	102.44
524.128	106.44
524.343	91.44
524.559	109.44
524.774	103.44
524.989	98.44
525.204	105.44
525.419	92.44
525.634	85.44
525.849	96.44
526.064	77.44
526.28	93.44
526.495	96.44
526.71	84.44
526.925	88.44
527.14	101.44
527.355	102.44
527.57	91.44
527.785	94.44
527.999	102.44
528.214	94.44
528.429	106.44
528.644	94.44
528.859	92.44
529.074	104.44
529.289	96.44
529.503	98.44
529.718	108.44
529.933	107.44
530.148	102.44
530.363	90.44
530.577	79.44
530.792	105.44
531.007	102.44
531.221	97.44
531.436	108.44
531.651	101.44
531.865	77.44
532.08	105.44
532.295	121.44
532.509	157.44
532.724	126.44
532.938	96.44
533.153	94.44
533.367	113.44
533.582	111.44
533.796	102.44
534.011	86.44
534.225	90.44
534.44	98.44
534.654	81.44
534.868	82.44
535.083	106.44
535.297	90.44
535.511	114.44
535.726	97.44
535.94	109.44
536.154	85.44
536.369	95.44
536.583	102.44
536.797	87.44
537.011	99.44
537.225	90.44
537.44	88.44
537.654	115.44
537.868	101.44
538.082	103.44
538.296	89.44
538.51	117.44
538.724	102.44
538.938	93.44
539.153	113.44
539.367	109.44
539.581	99.44
539.795	94.44
540.009	97.44
540.222	104.44
540.436	100.44
540.65	103.44
540.864	113.44
541.078	117.44
541.292	139.44
541.506	219.44
541.72	211.44
541.934	135.44
542.147	102.44
542.361	106.44
542.575	105.44
542.789	105.44
543.002	103.44
543.216	109.44
543.43	91.44
543.644	95.44
543.857	100.44
544.071	99.44
544.285	129.44
544.498	106.44
544.712	113.44
544.925	109.44
545.139	78.44
545.352	81.44
545.566	99.44
545.779	95.44
545.993	106.44
546.206	88.44
546.42	101.44
546.633	97.44
546.847	101.44
547.06	105.44
547.274	103.44
547.487	97.44
547.7	93.44
547.914	112.44
548.127	111.44
548.34	119.44
548.554	107.44
548.767	106.44
548.98	99.44
549.193	111.44
549.407	112.44
549.62	114.44
549.833	102.44
550.046	106.44
550.259	106.44
550.473	109.44
550.686	111.44
550.899	94.44
551.112	104.44
551.325	101.44
551.538	106.44
551.751	103.44
551.964	99.44
552.177	99.44
552.39	95.44
552.603	115.44
552.816	113.44
553.029	95.44
553.242	106.44
553.455	99.44
553.667	116.44
553.88	119.44
554.093	104.44
554.306	110.44
554.519	109.44
554.732	113.44
554.944	97.44
555.157	105.44
555.37	107.44
555.583	106.44
555.795	105.44
556.008	117.44
556.221	152.44
556.433	139.44
556.646	104.44
556.859	123.44
557.071	123.44
557.284	139.44
557.496	124.44
557.709	102.44
557.921	123.44
558.134	109.44
558.346	97.44
558.559	105.44
558.771	97.44
558.984	112.44
559.196	101.44
559.409	115.44
559.621	98.44
559.833	106.44
560.046	90.44
560.258	94.44
560.47	85.44
560.683	104.44
560.895	101.44
561.107	102.44
561.32	103.44
561.532	115.44
561.744	101.44
561.956	101.44
562.168	97.44
562.381	99.44
562.593	121.44
562.805	130.44
563.017	177.44
563.229	290.44
563.441	709.44
563.653	221.44
563.865	123.44
564.077	109.44
564.289	89.44
564.501	103.44
564.713	105.44
564.925	104.44
565.137	107.44
565.349	111.44
565.561	110.44
565.773	93.44
565.985	102.44
566.197	91.44
566.408	110.44
566.62	105.44
566.832	100.44
567.044	99.44
567.255	97.44
567.467	114.44
567.679	100.44
567.891	121.44
568.102	191.44
568.314	273.44
568.526	157.44
568.737	109.44
568.949	111.44
569.161	118.44
569.372	106.44
569.584	95.44
569.795	98.44
570.007	101.44
570.218	128.44
570.43	175.44
570.641	120.44
570.853	109.44
571.064	97.44
571.276	93.44
571.487	98.44
571.698	113.44
571.91	95.44
572.121	101.44
572.333	118.44
572.544	125.44
572.755	144.44
572.966	211.44
573.178	144.44
573.389	101.44
573.6	95.44
573.811	83.44
574.023	111.44
574.234	93.44
574.445	106.44
574.656	98.44
574.867	95.44
575.078	94.44
575.289	88.44
575.501	105.44
575.712	95.44
575.923	87.44
576.134	99.44
576.345	82.44
576.556	99.44
576.767	93.44
576.978	97.44
577.188	86.44
577.399	90.44
577.61	106.44
577.821	98.44
578.032	100.44
578.243	93.44
578.454	98.44
578.665	96.44
578.875	89.44
579.086	86.44
579.297	97.44
579.508	97.44
579.718	86.44
579.929	78.44
580.14	100.44
580.35	93.44
580.561	89.44
580.772	101.44
580.982	93.44
581.193	92.44
581.403	91.44
581.614	91.44
581.825	100.44
582.035	94.44
582.246	102.44
582.456	97.44
582.667	98.44
582.877	119.44
583.087	127.44
583.298	97.44
583.508	102.44
583.719	83.44
583.929	98.44
584.139	96.44
584.35	87.44
584.56	88.44
584.77	96.44
584.981	96.44
585.191	104.44
585.401	102.44
585.611	107.44
585.821	88.44
586.032	89.44
586.242	82.44
586.452	91.44
586.662	81.44
586.872	87.44
587.082	99.44
587.292	98.44
587.502	77.44
587.713	96.44
587.923	85.44
588.133	95.44
588.343	95.44
588.553	85.44
588.762	102.44
588.972	107.44
589.182	114.44
589.392	109.44
589.602	89.44
589.812	108.44
590.022	94.44
590.232	97.44
590.441	99.44
590.651	90.44
590.861	87.44
591.071	101.44
591.281	90.44
591.49	88.44
591.7	84.44
591.91	87.44
592.119	84.44
592.329	101.44
592.539	88.44
592.748	94.44
592.958	85.44
593.167	78.44
593.377	98.44
593.587	112.44
593.796	94.44
594.006	109.44
594.215	81.44
594.424	97.44
594.634	86.44
594.843	93.44
595.053	98.44
595.262	91.44
595.472	98.44
595.681	84.44
595.89	95.44
596.1	78.44
596.309	85.44
596.518	95.44
596.727	85.44
596.937	84.44
597.146	111.44
597.355	93.44
597.564	91.44
597.774	101.44
597.983	79.44
598.192	91.44
598.401	85.44
598.61	96.44
598.819	92.44
599.028	100.44
599.237	89.44
599.446	96.44
599.655	98.44
599.864	90.44
600.073	84.44
600.282	92.44
600.491	86.44
600.7	113.44
600.909	95.44
601.118	99.44
601.327	84.44
601.536	102.44
601.745	105.44
601.953	131.44
602.162	151.44
602.371	104.44
602.58	102.44
602.789	100.44
602.997	93.44
603.206	100.44
603.415	108.44
603.623	101.44
603.832	109.44
604.041	121.44
604.249	95.44
604.458	81.44
604.666	89.44
604.875	91.44
605.084	79.44
605.292	84.44
605.501	76.44
605.709	109.44
605.918	97.44
606.126	103.44
606.334	100.44
606.543	107.44
606.751	136.44
606.96	175.44
607.168	202.44
607.376	127.44
607.585	119.44
607.793	102.44
608.001	99.44
608.21	90.44
608.418	102.44
608.626	90.44
608.834	92.44
609.043	87.44
609.251	96.44
609.459	94.44
609.667	102.44
609.875	89.44
610.083	81.44
610.291	99.44
610.499	97.44
610.707	98.44
610.916	89.44
611.124	90.44
611.332	90.44
611.54	100.44
611.748	97.44
611.955	90.44
612.163	86.44
612.371	90.44
612.579	85.44
612.787	91.44
612.995	90.44
613.203	86.44
613.411	102.44
613.618	107.44
613.826	95.44
614.034	100.44
614.242	88.44
614.449	95.44
614.657	98.44
614.865	101.44
615.072	114.44
615.28	121.44
615.488	110.44
615.695	103.44
615.903	109.44
616.111	93.44
616.318	89.44
616.526	100.44
616.733	86.44
616.941	88.44
617.148	101.44
617.356	86.44
617.563	107.44
617.771	93.44
617.978	94.44
618.185	96.44
618.393	102.44
618.6	106.44
618.807	84.44
619.015	94.44
619.222	83.44
619.429	84.44
619.637	86.44
619.844	87.44
620.051	92.44
620.258	89.44
620.466	94.44
620.673	93.44
620.88	89.44
621.087	85.44
621.294	90.44
621.501	95.44
621.708	97.44
621.915	86.44
622.122	102.44
622.329	103.44
622.536	93.44
622.743	97.44
622.95	99.44
623.157	88.44
623.364	86.44
623.571	92.44
623.778	86.44
623.985	90.44
624.192	83.44
624.399	85.44
624.606	94.44
624.812	99.44
625.019	106.44
625.226	95.44
625.433	86.44
625.639	89.44
625.846	85.44
626.053	90.44
626.259	94.44
626.466	83.44
626.673	103.44
626.879	91.44
627.086	94.44
627.293	88.44
627.499	82.44
627.706	96.44
627.912	101.44
628.119	97.44
628.325	103.44
628.532	93.44
628.738	94.44
628.945	89.44
629.151	83.44
629.357	88.44
629.564	90.44
629.77	86.44
629.976	96.44
630.183	98.44
630.389	94.44
630.595	79.44
630.802	82.44
631.008	99.44
631.214	98.44
631.42	89.44
631.627	102.44
631.833	94.44
632.039	85.44
632.245	99.44
632.451	89.44
632.657	92.44
632.863	99.44
633.069	88.44
633.275	74.44
633.481	93.44
633.688	83.44
633.893	103.44
634.099	85.44
634.305	78.44
634.511	95.44
634.717	104.44
634.923	107.44
635.129	122.44
635.335	148.44
635.541	111.44
635.747	94.44
635.952	96.44
636.158	89.44
636.364	92.44
636.57	78.44
636.775	86.44
636.981	101.44
637.187	89.44
637.392	86.44
637.598	80.44
637.804	95.44
638.009	93.44
638.215	82.44
638.421	76.44
638.626	92.44
638.832	92.44
639.037	87.44
639.243	91.44
639.448	80.44
639.654	87.44
639.859	71.44
640.065	80.44
640.27	97.44
640.475	90.44
640.681	90.44
640.886	90.44
641.091	95.44
641.297	95.44
641.502	77.44
641.707	88.44
641.913	88.44
642.118	75.44
642.323	94.44
642.528	70.44
642.733	98.44
642.939	93.44
643.144	96.44
643.349	76.44
643.554	89.44
643.759	93.44
643.964	88.44
644.169	85.44
644.374	83.44
644.579	83.44
644.784	91.44
644.989	109.44
645.194	74.44
645.399	101.44
645.604	109.44
645.809	84.44
646.014	93.44
646.219	90.44
646.423	85.44
646.628	84.44
646.833	78.44
647.038	83.44
647.243	101.44
647.447	85.44
647.652	90.44
647.857	81.44
648.062	89.44
648.266	82.44
648.471	88.44
648.676	83.44
648.88	87.44
649.085	95.44
649.289	83.44
649.494	100.44
649.698	89.44
649.903	88.44
650.107	84.44
650.312	99.44
650.516	91.44
650.721	88.44
650.925	96.44
651.13	94.44
651.334	86.44
651.539	73.44
651.743	87.44
651.947	93.44
652.152	93.44
652.356	93.44
652.56	98.44
652.764	118.44
652.969	84.44
653.173	98.44
653.377	73.44
653.581	96.44
653.785	81.44
653.99	96.44
654.194	100.44
654.398	79.44
654.602	70.44
654.806	93.44
655.01	86.44
655.214	86.44
655.418	84.44
655.622	111.44
655.826	79.44
656.03	90.44
656.234	78.44
656.438	94.44
656.642	80.44
656.846	87.44
657.049	70.44
657.253	87.44
657.457	86.44
657.661	82.44
657.865	84.44
658.068	93.44
658.272	89.44
658.476	85.44
658.68	80.44
658.883	88.44
659.087	82.44
659.291	80.44
659.494	89.44
659.698	67.44
659.901	79.44
660.105	74.44
660.309	79.44
660.512	70.44
660.716	92.44
660.919	74.44
661.123	76.44
661.326	75.44
661.53	98.44
661.733	79.44
661.936	90.44
662.14	88.44
662.343	67.44
662.546	70.44
662.75	78.44
662.953	94.44
663.156	74.44
663.36	98.44
663.563	69.44
663.766	82.44
663.969	81.44
664.173	70.44
664.376	77.44
664.579	76.44
664.782	73.44
664.985	71.44
665.188	79.44
665.391	87.44
665.594	90.44
665.797	84.44
666	77.44
666.203	65.44
666.406	76.44
666.609	85.44
666.812	71.44
667.015	88.44
667.218	99.44
667.421	81.44
667.624	57.44
667.827	72.44
668.03	90.44
668.232	77.44
668.435	68.44
668.638	86.44
668.841	95.44
669.043	93.44
669.246	75.44
669.449	65.44
669.651	88.44
669.854	85.44
670.057	80.44
670.259	75.44
670.462	99.44
670.665	71.44
670.867	76.44
671.07	74.44
671.272	76.44
671.475	80.44
671.677	77.44
671.88	73.44
672.082	76.44
672.284	75.44
672.487	82.44
672.689	74.44
672.892	75.44
