Data from SnStandardFlinnAPT0064_LampEnergy5.5_LIBS07252019.E.O._I.C._HRD10591_15-17-40-492.txt Node
Date: Thu Jul 25 15:17:40 EDT 2019
User: cochatt
Spectrometer: HR+D1059
Trigger mode: 1
Integration Time (sec): 1.000000E-1
Scans to average: 1
Electric dark correction enabled: true
Nonlinearity correction enabled: false
Boxcar width: 0
XAxis mode: Wavelengths
Number of Pixels in Spectrum: 2048
>>>>>Begin Spectral Data<<<<<
223.165	-12.69
223.4	-12.69
223.635	-12.69
223.869	-19.69
224.104	-12.69
224.338	-6.69
224.573	-24.69
224.808	-18.69
225.042	-8.69
225.277	-11.69
225.511	-3.69
225.746	1.31
225.98	16.31
226.215	24.31
226.449	15.31
226.683	15.31
226.918	19.31
227.152	27.31
227.387	49.31
227.621	36.31
227.856	46.31
228.09	43.31
228.324	52.31
228.559	52.31
228.793	87.31
229.027	161.31
229.262	180.31
229.496	148.31
229.73	149.31
229.964	153.31
230.199	167.31
230.433	162.31
230.667	168.31
230.901	159.31
231.136	167.31
231.37	186.31
231.604	185.31
231.838	199.31
232.072	260.31
232.306	258.31
232.541	211.31
232.775	188.31
233.009	212.31
233.243	206.31
233.477	231.31
233.711	252.31
233.945	281.31
234.179	244.31
234.413	223.31
234.647	224.31
234.881	225.31
235.115	246.31
235.349	290.31
235.583	371.31
235.817	472.31
236.051	473.31
236.285	305.31
236.519	260.31
236.753	231.31
236.987	236.31
237.221	256.31
237.455	235.31
237.689	215.31
237.922	215.31
238.156	238.31
238.39	228.31
238.624	219.31
238.858	235.31
239.091	236.31
239.325	238.31
239.559	224.31
239.793	243.31
240.027	254.31
240.26	258.31
240.494	261.31
240.728	264.31
240.961	279.31
241.195	289.31
241.429	297.31
241.662	327.31
241.896	339.31
242.13	440.31
242.363	560.31
242.597	677.31
242.83	654.31
243.064	671.31
243.298	784.31
243.531	630.31
243.765	406.31
243.998	335.31
244.232	312.31
244.465	289.31
244.699	304.31
244.932	302.31
245.166	302.31
245.399	305.31
245.633	312.31
245.866	308.31
246.099	296.31
246.333	291.31
246.566	294.31
246.8	306.31
247.033	304.31
247.266	322.31
247.5	311.31
247.733	315.31
247.966	327.31
248.2	341.31
248.433	388.31
248.666	447.31
248.899	412.31
249.133	375.31
249.366	394.31
249.599	387.31
249.832	426.31
250.066	470.31
250.299	377.31
250.532	362.31
250.765	339.31
250.998	332.31
251.231	327.31
251.465	333.31
251.698	344.31
251.931	337.31
252.164	329.31
252.397	351.31
252.63	334.31
252.863	359.31
253.096	350.31
253.329	359.31
253.562	359.31
253.795	359.31
254.028	361.31
254.261	357.31
254.494	389.31
254.727	451.31
254.96	539.31
255.193	507.31
255.426	423.31
255.659	392.31
255.892	381.31
256.124	402.31
256.357	366.31
256.59	399.31
256.823	418.31
257.056	466.31
257.289	559.31
257.521	623.31
257.754	523.31
257.987	431.31
258.22	398.31
258.452	397.31
258.685	404.31
258.918	416.31
259.151	449.31
259.383	471.31
259.616	496.31
259.849	522.31
260.081	484.31
260.314	454.31
260.547	430.31
260.779	422.31
261.012	433.31
261.244	443.31
261.477	450.31
261.71	457.31
261.942	451.31
262.175	446.31
262.407	456.31
262.64	469.31
262.872	475.31
263.105	512.31
263.337	539.31
263.57	539.31
263.802	558.31
264.035	574.31
264.267	590.31
264.499	618.31
264.732	617.31
264.964	658.31
265.197	634.31
265.429	630.31
265.661	645.31
265.894	707.31
266.126	748.31
266.358	819.31
266.591	814.31
266.823	682.31
267.055	637.31
267.287	655.31
267.52	584.31
267.752	578.31
267.984	568.31
268.216	569.31
268.448	590.31
268.681	527.31
268.913	522.31
269.145	560.31
269.377	535.31
269.609	534.31
269.841	559.31
270.073	602.31
270.306	697.31
270.538	935.31
270.77	1326.31
271.002	1628.31
271.234	1126.31
271.466	754.31
271.698	626.31
271.93	595.31
272.162	583.31
272.394	571.31
272.626	543.31
272.858	548.31
273.09	519.31
273.322	536.31
273.553	528.31
273.785	548.31
274.017	519.31
274.249	525.31
274.481	533.31
274.713	542.31
274.945	544.31
275.176	534.31
275.408	542.31
275.64	547.31
275.872	526.31
276.104	555.31
276.335	556.31
276.567	580.31
276.799	548.31
277.031	542.31
277.262	562.31
277.494	602.31
277.726	673.31
277.957	747.31
278.189	873.31
278.421	817.31
278.652	738.31
278.884	701.31
279.115	641.31
279.347	631.31
279.579	602.31
279.81	606.31
280.042	588.31
280.273	603.31
280.505	600.31
280.736	648.31
280.968	681.31
281.199	716.31
281.431	827.31
281.662	839.31
281.894	733.31
282.125	688.31
282.356	692.31
282.588	682.31
282.819	713.31
283.051	766.31
283.282	838.31
283.513	1032.31
283.745	1495.31
283.976	2429.31
284.207	3408.31
284.439	3026.31
284.67	1796.31
284.901	1462.31
285.132	1437.31
285.364	1384.31
285.595	1099.31
285.826	982.31
286.057	1202.31
286.288	1611.31
286.52	2202.31
286.751	2013.31
286.982	1259.31
287.213	901.31
287.444	812.31
287.675	751.31
287.906	752.31
288.138	727.31
288.369	723.31
288.6	732.31
288.831	703.31
289.062	738.31
289.293	712.31
289.524	722.31
289.755	721.31
289.986	748.31
290.217	735.31
290.448	720.31
290.679	748.31
290.91	736.31
291.141	766.31
291.371	826.31
291.602	845.31
291.833	780.31
292.064	754.31
292.295	708.31
292.526	716.31
292.757	704.31
292.987	715.31
293.218	678.31
293.449	688.31
293.68	683.31
293.91	681.31
294.141	686.31
294.372	658.31
294.603	675.31
294.833	679.31
295.064	672.31
295.295	678.31
295.525	662.31
295.756	671.31
295.987	672.31
296.217	664.31
296.448	684.31
296.679	688.31
296.909	647.31
297.14	704.31
297.37	682.31
297.601	711.31
297.831	710.31
298.062	690.31
298.292	690.31
298.523	722.31
298.753	735.31
298.984	710.31
299.214	740.31
299.445	751.31
299.675	777.31
299.905	772.31
300.136	826.31
300.366	909.31
300.597	1140.31
300.827	1568.31
301.057	2162.31
301.288	2119.31
301.518	1361.31
301.748	1011.31
301.979	950.31
302.209	933.31
302.439	915.31
302.669	968.31
302.9	1176.31
303.13	1674.31
303.36	2529.31
303.59	3375.31
303.82	2897.31
304.051	1641.31
304.281	1152.31
304.511	989.31
304.741	945.31
304.971	883.31
305.201	843.31
305.431	814.31
305.661	807.31
305.891	790.31
306.121	789.31
306.352	780.31
306.582	799.31
306.812	734.31
307.042	778.31
307.272	779.31
307.502	812.31
307.731	792.31
307.961	776.31
308.191	757.31
308.421	776.31
308.651	788.31
308.881	786.31
309.111	814.31
309.341	818.31
309.571	771.31
309.8	782.31
310.03	795.31
310.26	777.31
310.49	788.31
310.72	778.31
310.949	792.31
311.179	780.31
311.409	803.31
311.639	840.31
311.868	832.31
312.098	825.31
312.328	822.31
312.557	854.31
312.787	843.31
313.017	853.31
313.246	862.31
313.476	859.31
313.706	871.31
313.935	918.31
314.165	963.31
314.394	1006.31
314.624	954.31
314.853	912.31
315.083	891.31
315.312	942.31
315.542	908.31
315.771	903.31
316.001	968.31
316.23	980.31
316.46	1011.31
316.689	1123.31
316.919	1317.31
317.148	1948.31
317.377	3015.31
317.607	4486.31
317.836	4579.31
318.065	2563.31
318.295	1666.31
318.524	1371.31
318.753	1208.31
318.983	1090.31
319.212	1059.31
319.441	1051.31
319.67	987.31
319.9	994.31
320.129	968.31
320.358	967.31
320.587	1011.31
320.816	971.31
321.046	976.31
321.275	1015.31
321.504	995.31
321.733	1012.31
321.962	1028.31
322.191	1024.31
322.42	1035.31
322.649	1011.31
322.878	1033.31
323.108	1011.31
323.337	1051.31
323.566	1079.31
323.795	1099.31
324.024	1096.31
324.253	1134.31
324.482	1158.31
324.71	1189.31
324.939	1305.31
325.168	1306.31
325.397	1343.31
325.626	1638.31
325.855	2290.31
326.084	3654.31
326.313	5423.31
326.542	5724.31
326.77	3495.31
326.999	2256.31
327.228	1884.31
327.457	1826.31
327.686	1820.31
327.914	1940.31
328.143	2225.31
328.372	2562.31
328.6	2741.31
328.829	2531.31
329.058	2219.31
329.287	1932.31
329.515	1845.31
329.744	1704.31
329.972	1650.31
330.201	1556.31
330.43	1517.31
330.658	1499.31
330.887	1450.31
331.115	1412.31
331.344	1428.31
331.572	1414.31
331.801	1424.31
332.03	1410.31
332.258	1441.31
332.486	1514.31
332.715	1749.31
332.943	2133.31
333.172	2632.31
333.4	2547.31
333.629	1979.31
333.857	1751.31
334.085	1768.31
334.314	1868.31
334.542	1960.31
334.771	2266.31
334.999	2730.31
335.227	3297.31
335.455	3718.31
335.684	3424.31
335.912	2884.31
336.14	2474.31
336.369	2275.31
336.597	2058.31
336.825	1880.31
337.053	1788.31
337.281	1682.31
337.51	1638.31
337.738	1542.31
337.966	1484.31
338.194	1496.31
338.422	1415.31
338.65	1415.31
338.878	1377.31
339.106	1322.31
339.334	1340.31
339.562	1334.31
339.79	1280.31
340.018	1250.31
340.246	1255.31
340.474	1243.31
340.702	1218.31
340.93	1256.31
341.158	1246.31
341.386	1215.31
341.614	1203.31
341.842	1203.31
342.07	1220.31
342.298	1153.31
342.526	1166.31
342.754	1142.31
342.981	1167.31
343.209	1128.31
343.437	1123.31
343.665	1187.31
343.893	1164.31
344.12	1193.31
344.348	1155.31
344.576	1162.31
344.804	1158.31
345.031	1101.31
345.259	1101.31
345.487	1114.31
345.714	1104.31
345.942	1091.31
346.17	1065.31
346.397	1064.31
346.625	1084.31
346.853	1058.31
347.08	1046.31
347.308	1046.31
347.535	1043.31
347.763	1035.31
347.99	1062.31
348.218	1030.31
348.445	1051.31
348.673	1038.31
348.9	1046.31
349.128	1043.31
349.355	1031.31
349.583	1040.31
349.81	1003.31
350.037	1042.31
350.265	1014.31
350.492	1015.31
350.72	1028.31
350.947	1022.31
351.174	1023.31
351.402	1034.31
351.629	1020.31
351.856	1027.31
352.083	1031.31
352.311	1028.31
352.538	1035.31
352.765	1049.31
352.992	1009.31
353.22	1023.31
353.447	1001.31
353.674	987.31
353.901	1021.31
354.128	1000.31
354.355	1030.31
354.583	1015.31
354.81	1017.31
355.037	1030.31
355.264	1014.31
355.491	1035.31
355.718	1046.31
355.945	985.31
356.172	1027.31
356.399	1057.31
356.626	1043.31
356.853	1057.31
357.08	1042.31
357.307	1056.31
357.534	1074.31
357.761	1070.31
357.988	1085.31
358.215	1078.31
358.441	1076.31
358.668	1064.31
358.895	1065.31
359.122	1043.31
359.349	1088.31
359.576	1076.31
359.802	1091.31
360.029	1066.31
360.256	1062.31
360.483	1064.31
360.709	1053.31
360.936	1076.31
361.163	1106.31
361.39	1095.31
361.616	1123.31
361.843	1099.31
362.07	1091.31
362.296	1106.31
362.523	1080.31
362.749	1116.31
362.976	1068.31
363.203	1093.31
363.429	1098.31
363.656	1094.31
363.882	1068.31
364.109	1073.31
364.335	1096.31
364.562	1069.31
364.788	1078.31
365.015	1086.31
365.241	1142.31
365.468	1153.31
365.694	1204.31
365.92	1180.31
366.147	1132.31
366.373	1110.31
366.599	1091.31
366.826	1090.31
367.052	1134.31
367.278	1107.31
367.505	1134.31
367.731	1109.31
367.957	1092.31
368.184	1132.31
368.41	1139.31
368.636	1104.31
368.862	1139.31
369.089	1114.31
369.315	1134.31
369.541	1116.31
369.767	1127.31
369.993	1127.31
370.219	1148.31
370.445	1119.31
370.672	1174.31
370.898	1157.31
371.124	1166.31
371.35	1170.31
371.576	1164.31
371.802	1186.31
372.028	1152.31
372.254	1190.31
372.48	1175.31
372.706	1184.31
372.932	1164.31
373.158	1177.31
373.384	1204.31
373.61	1179.31
373.835	1204.31
374.061	1177.31
374.287	1207.31
374.513	1179.31
374.739	1202.31
374.965	1238.31
375.191	1234.31
375.416	1251.31
375.642	1211.31
375.868	1184.31
376.094	1222.31
376.319	1160.31
376.545	1159.31
376.771	1155.31
376.997	1154.31
377.222	1207.31
377.448	1166.31
377.674	1168.31
377.899	1198.31
378.125	1155.31
378.35	1168.31
378.576	1139.31
378.802	1179.31
379.027	1174.31
379.253	1219.31
379.478	1243.31
379.704	1509.31
379.929	2149.31
380.155	3273.31
380.38	3497.31
380.606	2146.31
380.831	1500.31
381.057	1331.31
381.282	1218.31
381.507	1210.31
381.733	1203.31
381.958	1165.31
382.184	1155.31
382.409	1144.31
382.634	1134.31
382.86	1164.31
383.085	1154.31
383.31	1168.31
383.535	1143.31
383.761	1130.31
383.986	1184.31
384.211	1137.31
384.436	1181.31
384.662	1186.31
384.887	1215.31
385.112	1167.31
385.337	1203.31
385.562	1150.31
385.787	1168.31
386.013	1231.31
386.238	1211.31
386.463	1180.31
386.688	1231.31
386.913	1172.31
387.138	1190.31
387.363	1189.31
387.588	1206.31
387.813	1150.31
388.038	1170.31
388.263	1202.31
388.488	1198.31
388.713	1191.31
388.938	1195.31
389.163	1180.31
389.387	1224.31
389.612	1174.31
389.837	1199.31
390.062	1216.31
390.287	1234.31
390.512	1191.31
390.736	1233.31
390.961	1246.31
391.186	1219.31
391.411	1231.31
391.636	1256.31
391.86	1243.31
392.085	1252.31
392.31	1233.31
392.534	1211.31
392.759	1247.31
392.984	1206.31
393.208	1217.31
393.433	1250.31
393.658	1209.31
393.882	1222.31
394.107	1204.31
394.331	1190.31
394.556	1218.31
394.78	1200.31
395.005	1219.31
395.229	1236.31
395.454	1249.31
395.678	1252.31
395.903	1229.31
396.127	1260.31
396.352	1259.31
396.576	1230.31
396.801	1219.31
397.025	1257.31
397.249	1252.31
397.474	1255.31
397.698	1237.31
397.922	1280.31
398.147	1260.31
398.371	1283.31
398.595	1302.31
398.82	1315.31
399.044	1369.31
399.268	1446.31
399.492	1536.31
399.717	1547.31
399.941	1531.31
400.165	1534.31
400.389	1479.31
400.613	1414.31
400.837	1374.31
401.062	1362.31
401.286	1317.31
401.51	1323.31
401.734	1327.31
401.958	1330.31
402.182	1313.31
402.406	1302.31
402.63	1327.31
402.854	1328.31
403.078	1352.31
403.302	1334.31
403.526	1372.31
403.75	1346.31
403.974	1387.31
404.198	1365.31
404.422	1368.31
404.645	1391.31
404.869	1374.31
405.093	1398.31
405.317	1351.31
405.541	1356.31
405.765	1370.31
405.988	1367.31
406.212	1394.31
406.436	1376.31
406.66	1404.31
406.883	1414.31
407.107	1434.31
407.331	1458.31
407.555	1466.31
407.778	1482.31
408.002	1475.31
408.226	1482.31
408.449	1435.31
408.673	1419.31
408.896	1393.31
409.12	1374.31
409.344	1395.31
409.567	1338.31
409.791	1367.31
410.014	1382.31
410.238	1378.31
410.461	1360.31
410.685	1346.31
410.908	1322.31
411.132	1318.31
411.355	1320.31
411.578	1326.31
411.802	1329.31
412.025	1285.31
412.249	1330.31
412.472	1337.31
412.695	1300.31
412.919	1279.31
413.142	1305.31
413.365	1300.31
413.589	1308.31
413.812	1324.31
414.035	1317.31
414.258	1309.31
414.482	1290.31
414.705	1312.31
414.928	1277.31
415.151	1288.31
415.374	1289.31
415.597	1279.31
415.821	1231.31
416.044	1250.31
416.267	1246.31
416.49	1266.31
416.713	1249.31
416.936	1282.31
417.159	1220.31
417.382	1238.31
417.605	1228.31
417.828	1236.31
418.051	1246.31
418.274	1248.31
418.497	1226.31
418.72	1281.31
418.943	1271.31
419.166	1314.31
419.389	1365.31
419.611	1342.31
419.834	1317.31
420.057	1294.31
420.28	1280.31
420.503	1239.31
420.726	1259.31
420.948	1250.31
421.171	1243.31
421.394	1257.31
421.617	1249.31
421.839	1256.31
422.062	1258.31
422.285	1259.31
422.507	1263.31
422.73	1263.31
422.953	1278.31
423.175	1294.31
423.398	1288.31
423.621	1262.31
423.843	1252.31
424.066	1262.31
424.288	1218.31
424.511	1254.31
424.733	1227.31
424.956	1243.31
425.178	1237.31
425.401	1249.31
425.623	1232.31
425.846	1179.31
426.068	1174.31
426.291	1171.31
426.513	1217.31
426.735	1206.31
426.958	1171.31
427.18	1159.31
427.402	1186.31
427.625	1182.31
427.847	1163.31
428.069	1158.31
428.292	1193.31
428.514	1166.31
428.736	1174.31
428.958	1162.31
429.181	1152.31
429.403	1149.31
429.625	1154.31
429.847	1144.31
430.069	1182.31
430.292	1191.31
430.514	1228.31
430.736	1231.31
430.958	1184.31
431.18	1152.31
431.402	1113.31
431.624	1144.31
431.846	1131.31
432.068	1132.31
432.29	1111.31
432.512	1117.31
432.734	1166.31
432.956	1171.31
433.178	1144.31
433.4	1149.31
433.622	1172.31
433.844	1160.31
434.066	1157.31
434.287	1134.31
434.509	1159.31
434.731	1170.31
434.953	1170.31
435.175	1205.31
435.397	1200.31
435.618	1195.31
435.84	1121.31
436.062	1120.31
436.284	1110.31
436.505	1136.31
436.727	1150.31
436.949	1154.31
437.17	1123.31
437.392	1124.31
437.614	1166.31
437.835	1120.31
438.057	1107.31
438.278	1087.31
438.5	1120.31
438.721	1140.31
438.943	1145.31
439.165	1177.31
439.386	1211.31
439.608	1212.31
439.829	1159.31
440.05	1225.31
440.272	1243.31
440.493	1166.31
440.715	1164.31
440.936	1206.31
441.158	1207.31
441.379	1204.31
441.6	1274.31
441.822	1300.31
442.043	1320.31
442.264	1374.31
442.486	1305.31
442.707	1225.31
442.928	1211.31
443.149	1238.31
443.371	1227.31
443.592	1241.31
443.813	1231.31
444.034	1258.31
444.255	1259.31
444.476	1286.31
444.698	1322.31
444.919	1336.31
445.14	1386.31
445.361	1273.31
445.582	1268.31
445.803	1252.31
446.024	1242.31
446.245	1226.31
446.466	1248.31
446.687	1232.31
446.908	1217.31
447.129	1197.31
447.35	1163.31
447.571	1187.31
447.792	1152.31
448.013	1141.31
448.234	1138.31
448.455	1104.31
448.675	1114.31
448.896	1125.31
449.117	1204.31
449.338	1334.31
449.559	1385.31
449.779	1214.31
450	1146.31
450.221	1110.31
450.442	1131.31
450.662	1106.31
450.883	1106.31
451.104	1106.31
451.324	1091.31
451.545	1100.31
451.766	1102.31
451.986	1133.31
452.207	1201.31
452.428	1474.31
452.648	2140.31
452.869	1787.31
453.089	1277.31
453.31	1176.31
453.53	1230.31
453.751	1243.31
453.971	1354.31
454.192	1328.31
454.412	1150.31
454.633	1105.31
454.853	1074.31
455.073	1086.31
455.294	1074.31
455.514	1078.31
455.734	1027.31
455.955	1024.31
456.175	1039.31
456.395	1034.31
456.616	1042.31
456.836	1062.31
457.056	1054.31
457.276	1092.31
457.497	1098.31
457.717	1136.31
457.937	1097.31
458.157	1125.31
458.377	1115.31
458.598	1118.31
458.818	1139.31
459.038	1144.31
459.258	1133.31
459.478	1122.31
459.698	1147.31
459.918	1161.31
460.138	1179.31
460.358	1236.31
460.578	1241.31
460.798	1256.31
461.018	1206.31
461.238	1260.31
461.458	1229.31
461.678	1242.31
461.898	1254.31
462.118	1303.31
462.338	1313.31
462.558	1336.31
462.777	1318.31
462.997	1382.31
463.217	1445.31
463.437	1500.31
463.657	1489.31
463.876	1482.31
464.096	1422.31
464.316	1382.31
464.536	1379.31
464.755	1345.31
464.975	1320.31
465.195	1278.31
465.414	1206.31
465.634	1205.31
465.854	1154.31
466.073	1188.31
466.293	1160.31
466.512	1177.31
466.732	1184.31
466.951	1238.31
467.171	1309.31
467.391	1303.31
467.61	1164.31
467.829	1116.31
468.049	1157.31
468.268	1170.31
468.488	1122.31
468.707	1143.31
468.927	1129.31
469.146	1125.31
469.365	1132.31
469.585	1142.31
469.804	1143.31
470.023	1187.31
470.243	1222.31
470.462	1226.31
470.681	1267.31
470.901	1405.31
471.12	1626.31
471.339	1638.31
471.558	1373.31
471.777	1252.31
471.997	1159.31
472.216	1158.31
472.435	1141.31
472.654	1105.31
472.873	1152.31
473.092	1131.31
473.311	1138.31
473.53	1144.31
473.749	1179.31
473.968	1174.31
474.187	1158.31
474.406	1141.31
474.625	1125.31
474.844	1121.31
475.063	1134.31
475.282	1146.31
475.501	1119.31
475.72	1164.31
475.939	1153.31
476.158	1194.31
476.377	1223.31
476.596	1202.31
476.814	1203.31
477.033	1185.31
477.252	1206.31
477.471	1238.31
477.69	1244.31
477.908	1286.31
478.127	1322.31
478.346	1310.31
478.564	1307.31
478.783	1312.31
479.002	1326.31
479.22	1347.31
479.439	1355.31
479.658	1340.31
479.876	1323.31
480.095	1361.31
480.313	1367.31
480.532	1353.31
480.751	1399.31
480.969	1360.31
481.188	1332.31
481.406	1302.31
481.624	1357.31
481.843	1347.31
482.061	1352.31
482.28	1318.31
482.498	1363.31
482.717	1349.31
482.935	1355.31
483.153	1408.31
483.372	1427.31
483.59	1417.31
483.808	1449.31
484.027	1444.31
484.245	1480.31
484.463	1682.31
484.681	1898.31
484.9	1724.31
485.118	1646.31
485.336	1541.31
485.554	1565.31
485.772	1657.31
485.99	1951.31
486.209	2080.31
486.427	1732.31
486.645	1513.31
486.863	1460.31
487.081	1503.31
487.299	1456.31
487.517	1417.31
487.735	1484.31
487.953	1490.31
488.171	1472.31
488.389	1445.31
488.607	1384.31
488.825	1385.31
489.043	1381.31
489.261	1390.31
489.479	1352.31
489.696	1379.31
489.914	1422.31
490.132	1432.31
490.35	1435.31
490.568	1425.31
490.786	1438.31
491.003	1494.31
491.221	1510.31
491.439	1487.31
491.657	1499.31
491.874	1475.31
492.092	1561.31
492.31	1541.31
492.527	1534.31
492.745	1502.31
492.963	1497.31
493.18	1499.31
493.398	1518.31
493.615	1491.31
493.833	1505.31
494.05	1504.31
494.268	1490.31
494.485	1495.31
494.703	1500.31
494.92	1494.31
495.138	1509.31
495.355	1489.31
495.573	1519.31
495.79	1502.31
496.008	1529.31
496.225	1556.31
496.442	1545.31
496.66	1584.31
496.877	1670.31
497.094	1650.31
497.312	1594.31
497.529	1588.31
497.746	1637.31
497.963	1644.31
498.181	1657.31
498.398	1686.31
498.615	1728.31
498.832	1820.31
499.049	1890.31
499.267	2079.31
499.484	2162.31
499.701	2114.31
499.918	2290.31
500.135	2338.31
500.352	2503.31
500.569	2537.31
500.786	2449.31
501.003	2408.31
501.22	2321.31
501.437	2154.31
501.654	2060.31
501.871	1954.31
502.088	1912.31
502.305	1820.31
502.522	1807.31
502.739	1729.31
502.956	1664.31
503.172	1659.31
503.389	1593.31
503.606	1576.31
503.823	1515.31
504.04	1556.31
504.256	1513.31
504.473	1501.31
504.69	1512.31
504.907	1544.31
505.123	1519.31
505.34	1458.31
505.557	1394.31
505.773	1407.31
505.99	1366.31
506.207	1323.31
506.423	1344.31
506.64	1328.31
506.856	1300.31
507.073	1305.31
507.289	1311.31
507.506	1321.31
507.722	1317.31
507.939	1265.31
508.155	1269.31
508.372	1288.31
508.588	1267.31
508.805	1288.31
509.021	1254.31
509.238	1294.31
509.454	1357.31
509.67	1399.31
509.887	1346.31
510.103	1271.31
510.319	1284.31
510.536	1233.31
510.752	1253.31
510.968	1264.31
511.184	1219.31
511.401	1213.31
511.617	1195.31
511.833	1222.31
512.049	1210.31
512.265	1205.31
512.481	1214.31
512.698	1230.31
512.914	1217.31
513.13	1239.31
513.346	1216.31
513.562	1203.31
513.778	1201.31
513.994	1251.31
514.21	1250.31
514.426	1346.31
514.642	1375.31
514.858	1265.31
515.074	1252.31
515.29	1289.31
515.506	1205.31
515.721	1248.31
515.937	1238.31
516.153	1267.31
516.369	1282.31
516.585	1253.31
516.801	1296.31
517.016	1310.31
517.232	1344.31
517.448	1375.31
517.664	1377.31
517.879	1376.31
518.095	1379.31
518.311	1347.31
518.527	1322.31
518.742	1339.31
518.958	1344.31
519.173	1362.31
519.389	1352.31
519.605	1283.31
519.82	1296.31
520.036	1250.31
520.251	1260.31
520.467	1256.31
520.682	1214.31
520.898	1188.31
521.113	1186.31
521.329	1187.31
521.544	1152.31
521.76	1144.31
521.975	1218.31
522.19	1179.31
522.406	1163.31
522.621	1180.31
522.836	1196.31
523.052	1180.31
523.267	1155.31
523.482	1158.31
523.698	1170.31
523.913	1144.31
524.128	1196.31
524.343	1179.31
524.559	1162.31
524.774	1170.31
524.989	1186.31
525.204	1203.31
525.419	1173.31
525.634	1159.31
525.849	1178.31
526.064	1173.31
526.28	1196.31
526.495	1170.31
526.71	1164.31
526.925	1174.31
527.14	1188.31
527.355	1154.31
527.57	1178.31
527.785	1202.31
527.999	1191.31
528.214	1196.31
528.429	1197.31
528.644	1235.31
528.859	1248.31
529.074	1235.31
529.289	1267.31
529.503	1279.31
529.718	1258.31
529.933	1235.31
530.148	1243.31
530.363	1212.31
530.577	1221.31
530.792	1208.31
531.007	1249.31
531.221	1238.31
531.436	1257.31
531.651	1250.31
531.865	1250.31
532.08	1289.31
532.295	1307.31
532.509	1402.31
532.724	1395.31
532.938	1379.31
533.153	1411.31
533.367	1515.31
533.582	1561.31
533.796	1530.31
534.011	1490.31
534.225	1417.31
534.44	1407.31
534.654	1410.31
534.868	1369.31
535.083	1357.31
535.297	1350.31
535.511	1374.31
535.726	1304.31
535.94	1304.31
536.154	1290.31
536.369	1255.31
536.583	1239.31
536.797	1212.31
537.011	1219.31
537.225	1218.31
537.44	1199.31
537.654	1190.31
537.868	1166.31
538.082	1154.31
538.296	1152.31
538.51	1164.31
538.724	1167.31
538.938	1187.31
539.153	1189.31
539.367	1158.31
539.581	1148.31
539.795	1161.31
540.009	1118.31
540.222	1118.31
540.436	1112.31
540.65	1112.31
540.864	1132.31
541.078	1184.31
541.292	1259.31
541.506	1476.31
541.72	1560.31
541.934	1322.31
542.147	1311.31
542.361	1199.31
542.575	1169.31
542.789	1149.31
543.002	1111.31
543.216	1098.31
543.43	1094.31
543.644	1088.31
543.857	1120.31
544.071	1132.31
544.285	1150.31
544.498	1131.31
544.712	1114.31
544.925	1148.31
545.139	1124.31
545.352	1127.31
545.566	1138.31
545.779	1168.31
545.993	1166.31
546.206	1178.31
546.42	1150.31
546.633	1128.31
546.847	1131.31
547.06	1154.31
547.274	1144.31
547.487	1168.31
547.7	1175.31
547.914	1151.31
548.127	1119.31
548.34	1140.31
548.554	1114.31
548.767	1144.31
548.98	1124.31
549.193	1168.31
549.407	1148.31
549.62	1161.31
549.833	1165.31
550.046	1116.31
550.259	1154.31
550.473	1131.31
550.686	1162.31
550.899	1146.31
551.112	1125.31
551.325	1135.31
551.538	1140.31
551.751	1121.31
551.964	1138.31
552.177	1147.31
552.39	1138.31
552.603	1215.31
552.816	1174.31
553.029	1234.31
553.242	1204.31
553.455	1267.31
553.667	1234.31
553.88	1236.31
554.093	1249.31
554.306	1250.31
554.519	1266.31
554.732	1255.31
554.944	1288.31
555.157	1319.31
555.37	1337.31
555.583	1374.31
555.795	1434.31
556.008	1512.31
556.221	1633.31
556.433	1676.31
556.646	1678.31
556.859	1626.31
557.071	1628.31
557.284	1576.31
557.496	1544.31
557.709	1513.31
557.921	1494.31
558.134	1561.31
558.346	1506.31
558.559	1570.31
558.771	1638.31
558.984	1770.31
559.196	1872.31
559.409	1769.31
559.621	1670.31
559.833	1577.31
560.046	1538.31
560.258	1467.31
560.47	1422.31
560.683	1373.31
560.895	1326.31
561.107	1284.31
561.32	1251.31
561.532	1219.31
561.744	1222.31
561.956	1155.31
562.168	1158.31
562.381	1137.31
562.593	1110.31
562.805	1178.31
563.017	1156.31
563.229	1187.31
563.441	1337.31
563.653	1135.31
563.865	1082.31
564.077	1065.31
564.289	1049.31
564.501	1048.31
564.713	1072.31
564.925	1051.31
565.137	1052.31
565.349	1048.31
565.561	1051.31
565.773	1066.31
565.985	1097.31
566.197	1054.31
566.408	1106.31
566.62	1141.31
566.832	1137.31
567.044	1174.31
567.255	1177.31
567.467	1162.31
567.679	1204.31
567.891	1244.31
568.102	1366.31
568.314	1595.31
568.526	1381.31
568.737	1168.31
568.949	1059.31
569.161	1029.31
569.372	983.31
569.584	952.31
569.795	936.31
570.007	928.31
570.218	943.31
570.43	993.31
570.641	930.31
570.853	878.31
571.064	873.31
571.276	891.31
571.487	853.31
571.698	850.31
571.91	827.31
572.121	838.31
572.333	831.31
572.544	843.31
572.755	884.31
572.966	1049.31
573.178	938.31
573.389	855.31
573.6	810.31
573.811	784.31
574.023	770.31
574.234	759.31
574.445	773.31
574.656	784.31
574.867	764.31
575.078	781.31
575.289	768.31
575.501	764.31
575.712	754.31
575.923	766.31
576.134	756.31
576.345	756.31
576.556	774.31
576.767	760.31
576.978	752.31
577.188	755.31
577.399	770.31
577.61	735.31
577.821	774.31
578.032	786.31
578.243	790.31
578.454	799.31
578.665	810.31
578.875	822.31
579.086	846.31
579.297	909.31
579.508	921.31
579.718	975.31
579.929	1093.31
580.14	1209.31
580.35	1231.31
580.561	1164.31
580.772	1084.31
580.982	1042.31
581.193	962.31
581.403	941.31
581.614	906.31
581.825	886.31
582.035	860.31
582.246	826.31
582.456	770.31
582.667	776.31
582.877	763.31
583.087	764.31
583.298	710.31
583.508	738.31
583.719	683.31
583.929	716.31
584.139	673.31
584.35	661.31
584.56	650.31
584.77	644.31
584.981	647.31
585.191	660.31
585.401	630.31
585.611	631.31
585.821	608.31
586.032	609.31
586.242	620.31
586.452	612.31
586.662	601.31
586.872	606.31
587.082	580.31
587.292	585.31
587.502	577.31
587.713	587.31
587.923	566.31
588.133	570.31
588.343	558.31
588.553	560.31
588.762	551.31
588.972	565.31
589.182	560.31
589.392	571.31
589.602	560.31
589.812	539.31
590.022	556.31
590.232	544.31
590.441	538.31
590.651	549.31
590.861	549.31
591.071	552.31
591.281	551.31
591.49	538.31
591.7	540.31
591.91	555.31
592.119	564.31
592.329	550.31
592.539	558.31
592.748	580.31
592.958	586.31
593.167	556.31
593.377	563.31
593.587	588.31
593.796	564.31
594.006	576.31
594.215	580.31
594.424	553.31
594.634	579.31
594.843	543.31
595.053	558.31
595.262	537.31
595.472	542.31
595.681	520.31
595.89	511.31
596.1	497.31
596.309	507.31
596.518	510.31
596.727	514.31
596.937	521.31
597.146	498.31
597.355	483.31
597.564	492.31
597.774	481.31
597.983	483.31
598.192	468.31
598.401	452.31
598.61	456.31
598.819	450.31
599.028	464.31
599.237	452.31
599.446	466.31
599.655	447.31
599.864	450.31
600.073	448.31
600.282	432.31
600.491	449.31
600.7	449.31
600.909	440.31
601.118	456.31
601.327	467.31
601.536	472.31
601.745	454.31
601.953	501.31
602.162	581.31
602.371	517.31
602.58	454.31
602.789	459.31
602.997	448.31
603.206	452.31
603.415	460.31
603.623	442.31
603.832	439.31
604.041	460.31
604.249	434.31
604.458	420.31
604.666	424.31
604.875	450.31
605.084	420.31
605.292	417.31
605.501	436.31
605.709	461.31
605.918	449.31
606.126	460.31
606.334	458.31
606.543	458.31
606.751	475.31
606.96	548.31
607.168	628.31
607.376	496.31
607.585	457.31
607.793	436.31
608.001	431.31
608.21	405.31
608.418	410.31
608.626	439.31
608.834	434.31
609.043	417.31
609.251	409.31
609.459	420.31
609.667	414.31
609.875	411.31
610.083	419.31
610.291	444.31
610.499	423.31
610.707	396.31
610.916	421.31
611.124	412.31
611.332	396.31
611.54	410.31
611.748	403.31
611.955	397.31
612.163	415.31
612.371	406.31
612.579	395.31
612.787	412.31
612.995	402.31
613.203	403.31
613.411	398.31
613.618	397.31
613.826	387.31
614.034	398.31
614.242	392.31
614.449	403.31
614.657	380.31
614.865	395.31
615.072	402.31
615.28	413.31
615.488	400.31
615.695	405.31
615.903	396.31
616.111	397.31
616.318	401.31
616.526	384.31
616.733	420.31
616.941	391.31
617.148	392.31
617.356	382.31
617.563	403.31
617.771	373.31
617.978	388.31
618.185	370.31
618.393	361.31
618.6	396.31
618.807	382.31
619.015	376.31
619.222	390.31
619.429	359.31
619.637	359.31
619.844	362.31
620.051	372.31
620.258	358.31
620.466	355.31
620.673	359.31
620.88	349.31
621.087	356.31
621.294	356.31
621.501	338.31
621.708	340.31
621.915	375.31
622.122	371.31
622.329	356.31
622.536	344.31
622.743	346.31
622.95	361.31
623.157	362.31
623.364	351.31
623.571	348.31
623.778	354.31
623.985	344.31
624.192	352.31
624.399	341.31
624.606	336.31
624.812	334.31
625.019	360.31
625.226	337.31
625.433	341.31
625.639	315.31
625.846	318.31
626.053	322.31
626.259	312.31
626.466	314.31
626.673	308.31
626.879	318.31
627.086	322.31
627.293	330.31
627.499	343.31
627.706	327.31
627.912	350.31
628.119	310.31
628.325	322.31
628.532	315.31
628.738	321.31
628.945	315.31
629.151	347.31
629.357	329.31
629.564	315.31
629.77	327.31
629.976	323.31
630.183	320.31
630.389	317.31
630.595	305.31
630.802	312.31
631.008	311.31
631.214	304.31
631.42	324.31
631.627	311.31
631.833	296.31
632.039	303.31
632.245	307.31
632.451	326.31
632.657	296.31
632.863	310.31
633.069	299.31
633.275	324.31
633.481	298.31
633.688	294.31
633.893	312.31
634.099	298.31
634.305	292.31
634.511	296.31
634.717	324.31
634.923	316.31
635.129	347.31
635.335	388.31
635.541	355.31
635.747	324.31
635.952	313.31
636.158	293.31
636.364	306.31
636.57	308.31
636.775	300.31
636.981	297.31
637.187	315.31
637.392	311.31
637.598	299.31
637.804	296.31
638.009	320.31
638.215	304.31
638.421	311.31
638.626	314.31
638.832	300.31
639.037	293.31
639.243	297.31
639.448	303.31
639.654	303.31
639.859	328.31
640.065	302.31
640.27	311.31
640.475	307.31
640.681	323.31
640.886	314.31
641.091	308.31
641.297	312.31
641.502	326.31
641.707	337.31
641.913	343.31
642.118	316.31
642.323	330.31
642.528	334.31
642.733	329.31
642.939	353.31
643.144	358.31
643.349	373.31
643.554	388.31
643.759	390.31
643.964	383.31
644.169	422.31
644.374	438.31
644.579	489.31
644.784	503.31
644.989	565.31
645.194	638.31
645.399	750.31
645.604	791.31
645.809	613.31
646.014	497.31
646.219	443.31
646.423	383.31
646.628	386.31
646.833	350.31
647.038	332.31
647.243	342.31
647.447	341.31
647.652	323.31
647.857	322.31
648.062	307.31
648.266	286.31
648.471	302.31
648.676	292.31
648.88	290.31
649.085	273.31
649.289	287.31
649.494	260.31
649.698	271.31
649.903	278.31
650.107	279.31
650.312	240.31
650.516	259.31
650.721	254.31
650.925	233.31
651.13	244.31
651.334	234.31
651.539	231.31
651.743	239.31
651.947	225.31
652.152	244.31
652.356	239.31
652.56	255.31
652.764	279.31
652.969	261.31
653.173	243.31
653.377	227.31
653.581	222.31
653.785	228.31
653.99	191.31
654.194	216.31
654.398	193.31
654.602	174.31
654.806	222.31
655.01	215.31
655.214	199.31
655.418	203.31
655.622	199.31
655.826	187.31
656.03	212.31
656.234	218.31
656.438	227.31
656.642	222.31
656.846	202.31
657.049	205.31
657.253	206.31
657.457	201.31
657.661	180.31
657.865	168.31
658.068	166.31
658.272	149.31
658.476	154.31
658.68	139.31
658.883	161.31
659.087	146.31
659.291	127.31
659.494	140.31
659.698	131.31
659.901	125.31
660.105	124.31
660.309	114.31
660.512	122.31
660.716	132.31
660.919	105.31
661.123	102.31
661.326	121.31
661.53	93.31
661.733	113.31
661.936	115.31
662.14	103.31
662.343	102.31
662.546	102.31
662.75	97.31
662.953	90.31
663.156	83.31
663.36	77.31
663.563	85.31
663.766	84.31
663.969	93.31
664.173	91.31
664.376	88.31
664.579	91.31
664.782	95.31
664.985	83.31
665.188	78.31
665.391	84.31
665.594	90.31
665.797	86.31
666	80.31
666.203	94.31
666.406	76.31
666.609	74.31
666.812	71.31
667.015	75.31
667.218	85.31
667.421	85.31
667.624	87.31
667.827	88.31
668.03	80.31
668.232	95.31
668.435	79.31
668.638	79.31
668.841	79.31
669.043	87.31
669.246	85.31
669.449	85.31
669.651	82.31
669.854	84.31
670.057	84.31
670.259	67.31
670.462	74.31
670.665	77.31
670.867	83.31
671.07	70.31
671.272	75.31
671.475	81.31
671.677	80.31
671.88	93.31
672.082	83.31
672.284	82.31
672.487	92.31
672.689	83.31
672.892	79.31
