Data from SnStandardFlinnAPT0064_LampEnergy10_LIBS07252019.E.O._I.C._HRD10591_15-22-33-494.txt Node
Date: Thu Jul 25 15:22:33 EDT 2019
User: cochatt
Spectrometer: HR+D1059
Trigger mode: 1
Integration Time (sec): 1.000000E-1
Scans to average: 1
Electric dark correction enabled: true
Nonlinearity correction enabled: false
Boxcar width: 0
XAxis mode: Wavelengths
Number of Pixels in Spectrum: 2048
>>>>>Begin Spectral Data<<<<<
223.165	-10.81
223.4	-10.81
223.635	-10.81
223.869	-12.81
224.104	-13.81
224.338	-13.81
224.573	-7.81
224.808	-21.81
225.042	-5.81
225.277	-11.81
225.511	0.19
225.746	7.19
225.98	8.19
226.215	3.19
226.449	16.19
226.683	24.19
226.918	10.19
227.152	29.19
227.387	37.19
227.621	42.19
227.856	44.19
228.09	37.19
228.324	39.19
228.559	68.19
228.793	120.19
229.027	322.19
229.262	324.19
229.496	311.19
229.73	314.19
229.964	314.19
230.199	329.19
230.433	332.19
230.667	314.19
230.901	337.19
231.136	341.19
231.37	335.19
231.604	371.19
231.838	434.19
232.072	532.19
232.306	551.19
232.541	457.19
232.775	421.19
233.009	429.19
233.243	408.19
233.477	462.19
233.711	518.19
233.945	554.19
234.179	525.19
234.413	438.19
234.647	422.19
234.881	453.19
235.115	515.19
235.349	615.19
235.583	765.19
235.817	1000.19
236.051	958.19
236.285	642.19
236.519	521.19
236.753	524.19
236.987	488.19
237.221	544.19
237.455	497.19
237.689	451.19
237.922	458.19
238.156	479.19
238.39	492.19
238.624	490.19
238.858	496.19
239.091	474.19
239.325	490.19
239.559	519.19
239.793	516.19
240.027	517.19
240.26	524.19
240.494	562.19
240.728	579.19
240.961	594.19
241.195	646.19
241.429	662.19
241.662	675.19
241.896	780.19
242.13	932.19
242.363	1200.19
242.597	1556.19
242.83	1535.19
243.064	1512.19
243.298	1772.19
243.531	1455.19
243.765	924.19
243.998	741.19
244.232	660.19
244.465	650.19
244.699	641.19
244.932	640.19
245.166	653.19
245.399	677.19
245.633	673.19
245.866	685.19
246.099	669.19
246.333	647.19
246.566	641.19
246.8	652.19
247.033	633.19
247.266	668.19
247.5	672.19
247.733	669.19
247.966	717.19
248.2	759.19
248.433	875.19
248.666	999.19
248.899	937.19
249.133	856.19
249.366	868.19
249.599	944.19
249.832	1081.19
250.066	1076.19
250.299	875.19
250.532	762.19
250.765	736.19
250.998	752.19
251.231	768.19
251.465	731.19
251.698	722.19
251.931	737.19
252.164	728.19
252.397	755.19
252.63	803.19
252.863	802.19
253.096	783.19
253.329	787.19
253.562	781.19
253.795	788.19
254.028	804.19
254.261	809.19
254.494	882.19
254.727	1032.19
254.96	1224.19
255.193	1215.19
255.426	956.19
255.659	883.19
255.892	844.19
256.124	894.19
256.357	882.19
256.59	919.19
256.823	980.19
257.056	1091.19
257.289	1326.19
257.521	1482.19
257.754	1184.19
257.987	1001.19
258.22	918.19
258.452	914.19
258.685	945.19
258.918	952.19
259.151	1017.19
259.383	1091.19
259.616	1221.19
259.849	1267.19
260.081	1091.19
260.314	980.19
260.547	928.19
260.779	928.19
261.012	932.19
261.244	936.19
261.477	945.19
261.71	996.19
261.942	978.19
262.175	1031.19
262.407	1040.19
262.64	1094.19
262.872	1117.19
263.105	1144.19
263.337	1216.19
263.57	1266.19
263.802	1300.19
264.035	1304.19
264.267	1349.19
264.499	1380.19
264.732	1428.19
264.964	1458.19
265.197	1450.19
265.429	1424.19
265.661	1516.19
265.894	1612.19
266.126	1754.19
266.358	1952.19
266.591	1912.19
266.823	1632.19
267.055	1449.19
267.287	1386.19
267.52	1317.19
267.752	1301.19
267.984	1294.19
268.216	1271.19
268.448	1221.19
268.681	1240.19
268.913	1227.19
269.145	1239.19
269.377	1224.19
269.609	1254.19
269.841	1289.19
270.073	1347.19
270.306	1586.19
270.538	2117.19
270.77	3126.19
271.002	3852.19
271.234	2696.19
271.466	1856.19
271.698	1536.19
271.93	1380.19
272.162	1330.19
272.394	1270.19
272.626	1240.19
272.858	1238.19
273.09	1212.19
273.322	1190.19
273.553	1212.19
273.785	1209.19
274.017	1219.19
274.249	1191.19
274.481	1189.19
274.713	1210.19
274.945	1210.19
275.176	1219.19
275.408	1212.19
275.64	1217.19
275.872	1228.19
276.104	1240.19
276.335	1265.19
276.567	1292.19
276.799	1265.19
277.031	1292.19
277.262	1351.19
277.494	1366.19
277.726	1559.19
277.957	1822.19
278.189	2093.19
278.421	1985.19
278.652	1746.19
278.884	1702.19
279.115	1496.19
279.347	1445.19
279.579	1369.19
279.81	1368.19
280.042	1408.19
280.273	1421.19
280.505	1439.19
280.736	1474.19
280.968	1579.19
281.199	1807.19
281.431	2026.19
281.662	2121.19
281.894	1804.19
282.125	1635.19
282.356	1629.19
282.588	1646.19
282.819	1665.19
283.051	1821.19
283.282	2011.19
283.513	2478.19
283.745	3521.19
283.976	5526.19
284.207	7936.19
284.439	7114.19
284.67	4449.19
284.901	3683.19
285.132	3732.19
285.364	3525.19
285.595	2696.19
285.826	2444.19
286.057	2804.19
286.288	3848.19
286.52	5174.19
286.751	4808.19
286.982	2944.19
287.213	2240.19
287.444	2010.19
287.675	1846.19
287.906	1769.19
288.138	1721.19
288.369	1692.19
288.6	1684.19
288.831	1693.19
289.062	1695.19
289.293	1688.19
289.524	1720.19
289.755	1695.19
289.986	1685.19
290.217	1691.19
290.448	1716.19
290.679	1726.19
290.91	1784.19
291.141	1872.19
291.371	2036.19
291.602	2154.19
291.833	1932.19
292.064	1778.19
292.295	1677.19
292.526	1626.19
292.757	1621.19
292.987	1600.19
293.218	1540.19
293.449	1620.19
293.68	1588.19
293.91	1561.19
294.141	1561.19
294.372	1564.19
294.603	1580.19
294.833	1579.19
295.064	1565.19
295.295	1527.19
295.525	1550.19
295.756	1588.19
295.987	1522.19
296.217	1582.19
296.448	1582.19
296.679	1577.19
296.909	1570.19
297.14	1595.19
297.37	1615.19
297.601	1629.19
297.831	1630.19
298.062	1623.19
298.292	1671.19
298.523	1686.19
298.753	1733.19
298.984	1683.19
299.214	1726.19
299.445	1774.19
299.675	1768.19
299.905	1864.19
300.136	1900.19
300.366	2149.19
300.597	2730.19
300.827	3754.19
301.057	5201.19
301.288	5149.19
301.518	3321.19
301.748	2579.19
301.979	2275.19
302.209	2248.19
302.439	2259.19
302.669	2402.19
302.9	2904.19
303.13	4140.19
303.36	6089.19
303.59	8121.19
303.82	7062.19
304.051	4212.19
304.281	2986.19
304.511	2495.19
304.741	2320.19
304.971	2168.19
305.201	2059.19
305.431	1984.19
305.661	2001.19
305.891	1901.19
306.121	1906.19
306.352	1885.19
306.582	1868.19
306.812	1816.19
307.042	1829.19
307.272	1806.19
307.502	1789.19
307.731	1832.19
307.961	1835.19
308.191	1800.19
308.421	1812.19
308.651	1802.19
308.881	1796.19
309.111	1851.19
309.341	1847.19
309.571	1825.19
309.8	1848.19
310.03	1881.19
310.26	1872.19
310.49	1845.19
310.72	1853.19
310.949	1892.19
311.179	1885.19
311.409	1889.19
311.639	1934.19
311.868	1960.19
312.098	1949.19
312.328	1964.19
312.557	1954.19
312.787	1965.19
313.017	1962.19
313.246	1993.19
313.476	2042.19
313.706	2100.19
313.935	2195.19
314.165	2364.19
314.394	2490.19
314.624	2356.19
314.853	2172.19
315.083	2147.19
315.312	2182.19
315.542	2194.19
315.771	2184.19
316.001	2267.19
316.23	2266.19
316.46	2412.19
316.689	2728.19
316.919	3203.19
317.148	4611.19
317.377	7010.19
317.607	10216.19
317.836	10649.19
318.065	6542.19
318.295	4268.19
318.524	3348.19
318.753	2954.19
318.983	2692.19
319.212	2551.19
319.441	2521.19
319.67	2449.19
319.9	2393.19
320.129	2374.19
320.358	2330.19
320.587	2343.19
320.816	2359.19
321.046	2344.19
321.275	2358.19
321.504	2368.19
321.733	2470.19
321.962	2514.19
322.191	2539.19
322.42	2565.19
322.649	2546.19
322.878	2461.19
323.108	2477.19
323.337	2545.19
323.566	2580.19
323.795	2643.19
324.024	2684.19
324.253	2681.19
324.482	2853.19
324.71	3004.19
324.939	3223.19
325.168	3289.19
325.397	3279.19
325.626	3959.19
325.855	5630.19
326.084	8664.19
326.313	12498.19
326.542	13310.19
326.77	8890.19
326.999	5840.19
327.228	4908.19
327.457	4684.19
327.686	4703.19
327.914	5104.19
328.143	5917.19
328.372	6995.19
328.6	7538.19
328.829	6833.19
329.058	5734.19
329.287	5050.19
329.515	4651.19
329.744	4219.19
329.972	3973.19
330.201	3891.19
330.43	3697.19
330.658	3627.19
330.887	3633.19
331.115	3486.19
331.344	3500.19
331.572	3413.19
331.801	3498.19
332.03	3544.19
332.258	3491.19
332.486	3773.19
332.715	4315.19
332.943	5326.19
333.172	6616.19
333.4	6550.19
333.629	4995.19
333.857	4478.19
334.085	4481.19
334.314	4695.19
334.542	5030.19
334.771	5957.19
334.999	7340.19
335.227	9084.19
335.455	10183.19
335.684	9185.19
335.912	7517.19
336.14	6374.19
336.369	5616.19
336.597	5173.19
336.825	4790.19
337.053	4436.19
337.281	4233.19
337.51	4069.19
337.738	3896.19
337.966	3680.19
338.194	3602.19
338.422	3457.19
338.65	3384.19
338.878	3339.19
339.106	3307.19
339.334	3214.19
339.562	3148.19
339.79	3152.19
340.018	3122.19
340.246	3068.19
340.474	3020.19
340.702	3076.19
340.93	3001.19
341.158	3053.19
341.386	3054.19
341.614	2986.19
341.842	2955.19
342.07	2880.19
342.298	2851.19
342.526	2807.19
342.754	2779.19
342.981	2709.19
343.209	2764.19
343.437	2817.19
343.665	2848.19
343.893	2850.19
344.12	2855.19
344.348	2806.19
344.576	2769.19
344.804	2746.19
345.031	2636.19
345.259	2639.19
345.487	2627.19
345.714	2558.19
345.942	2550.19
346.17	2555.19
346.397	2566.19
346.625	2587.19
346.853	2560.19
347.08	2536.19
347.308	2541.19
347.535	2545.19
347.763	2588.19
347.99	2560.19
348.218	2472.19
348.445	2500.19
348.673	2469.19
348.9	2482.19
349.128	2470.19
349.355	2441.19
349.583	2466.19
349.81	2450.19
350.037	2446.19
350.265	2436.19
350.492	2442.19
350.72	2430.19
350.947	2464.19
351.174	2408.19
351.402	2410.19
351.629	2431.19
351.856	2448.19
352.083	2454.19
352.311	2373.19
352.538	2426.19
352.765	2382.19
352.992	2352.19
353.22	2389.19
353.447	2370.19
353.674	2373.19
353.901	2445.19
354.128	2449.19
354.355	2434.19
354.583	2406.19
354.81	2476.19
355.037	2521.19
355.264	2497.19
355.491	2469.19
355.718	2485.19
355.945	2469.19
356.172	2488.19
356.399	2479.19
356.626	2518.19
356.853	2526.19
357.08	2547.19
357.307	2552.19
357.534	2572.19
357.761	2583.19
357.988	2613.19
358.215	2573.19
358.441	2605.19
358.668	2574.19
358.895	2611.19
359.122	2537.19
359.349	2568.19
359.576	2523.19
359.802	2580.19
360.029	2484.19
360.256	2557.19
360.483	2595.19
360.709	2609.19
360.936	2562.19
361.163	2606.19
361.39	2583.19
361.616	2588.19
361.843	2602.19
362.07	2544.19
362.296	2613.19
362.523	2560.19
362.749	2565.19
362.976	2570.19
363.203	2521.19
363.429	2553.19
363.656	2581.19
363.882	2574.19
364.109	2531.19
364.335	2514.19
364.562	2540.19
364.788	2532.19
365.015	2586.19
365.241	2659.19
365.468	2802.19
365.694	2962.19
365.92	2897.19
366.147	2665.19
366.373	2644.19
366.599	2610.19
366.826	2613.19
367.052	2574.19
367.278	2621.19
367.505	2609.19
367.731	2653.19
367.957	2637.19
368.184	2692.19
368.41	2696.19
368.636	2679.19
368.862	2680.19
369.089	2682.19
369.315	2674.19
369.541	2674.19
369.767	2644.19
369.993	2653.19
370.219	2611.19
370.445	2680.19
370.672	2703.19
370.898	2711.19
371.124	2710.19
371.35	2717.19
371.576	2772.19
371.802	2734.19
372.028	2765.19
372.254	2772.19
372.48	2780.19
372.706	2816.19
372.932	2846.19
373.158	2832.19
373.384	2805.19
373.61	2824.19
373.835	2842.19
374.061	2853.19
374.287	2857.19
374.513	2853.19
374.739	2945.19
374.965	2976.19
375.191	2935.19
375.416	2948.19
375.642	2934.19
375.868	2858.19
376.094	2885.19
376.319	2868.19
376.545	2830.19
376.771	2762.19
376.997	2791.19
377.222	2748.19
377.448	2744.19
377.674	2748.19
377.899	2796.19
378.125	2789.19
378.35	2793.19
378.576	2734.19
378.802	2793.19
379.027	2881.19
379.253	2930.19
379.478	3101.19
379.704	3592.19
379.929	5158.19
380.155	7962.19
380.38	8706.19
380.606	5247.19
380.831	3714.19
381.057	3242.19
381.282	3014.19
381.507	2896.19
381.733	2865.19
381.958	2746.19
382.184	2732.19
382.409	2727.19
382.634	2682.19
382.86	2740.19
383.085	2730.19
383.31	2702.19
383.535	2752.19
383.761	2734.19
383.986	2755.19
384.211	2756.19
384.436	2781.19
384.662	2719.19
384.887	2819.19
385.112	2773.19
385.337	2819.19
385.562	2762.19
385.787	2789.19
386.013	2810.19
386.238	2829.19
386.463	2819.19
386.688	2808.19
386.913	2807.19
387.138	2784.19
387.363	2786.19
387.588	2767.19
387.813	2810.19
388.038	2826.19
388.263	2766.19
388.488	2789.19
388.713	2779.19
388.938	2779.19
389.163	2801.19
389.387	2806.19
389.612	2802.19
389.837	2778.19
390.062	2790.19
390.287	2865.19
390.512	2789.19
390.736	2876.19
390.961	2939.19
391.186	2888.19
391.411	2971.19
391.636	2894.19
391.86	2984.19
392.085	2954.19
392.31	2922.19
392.534	2882.19
392.759	2885.19
392.984	2873.19
393.208	2956.19
393.433	2893.19
393.658	2879.19
393.882	2828.19
394.107	2840.19
394.331	2856.19
394.556	2865.19
394.78	2887.19
395.005	2864.19
395.229	2810.19
395.454	2889.19
395.678	2940.19
395.903	2870.19
396.127	2940.19
396.352	2926.19
396.576	2860.19
396.801	2983.19
397.025	2977.19
397.249	2945.19
397.474	2980.19
397.698	2976.19
397.922	3006.19
398.147	2950.19
398.371	2970.19
398.595	3030.19
398.82	3124.19
399.044	3213.19
399.268	3416.19
399.492	3584.19
399.717	3680.19
399.941	3717.19
400.165	3586.19
400.389	3415.19
400.613	3289.19
400.837	3208.19
401.062	3105.19
401.286	3096.19
401.51	3085.19
401.734	3080.19
401.958	3104.19
402.182	3060.19
402.406	3110.19
402.63	3087.19
402.854	3112.19
403.078	3133.19
403.302	3124.19
403.526	3203.19
403.75	3172.19
403.974	3188.19
404.198	3168.19
404.422	3190.19
404.645	3181.19
404.869	3189.19
405.093	3216.19
405.317	3217.19
405.541	3300.19
405.765	3283.19
405.988	3349.19
406.212	3293.19
406.436	3301.19
406.66	3321.19
406.883	3331.19
407.107	3411.19
407.331	3464.19
407.555	3512.19
407.778	3495.19
408.002	3464.19
408.226	3460.19
408.449	3456.19
408.673	3371.19
408.896	3289.19
409.12	3265.19
409.344	3287.19
409.567	3253.19
409.791	3284.19
410.014	3205.19
410.238	3151.19
410.461	3198.19
410.685	3190.19
410.908	3122.19
411.132	3105.19
411.355	3077.19
411.578	3123.19
411.802	3088.19
412.025	3072.19
412.249	3060.19
412.472	3093.19
412.695	3003.19
412.919	3004.19
413.142	3017.19
413.365	3001.19
413.589	3073.19
413.812	3016.19
414.035	3021.19
414.258	3075.19
414.482	3025.19
414.705	3041.19
414.928	3019.19
415.151	2995.19
415.374	2997.19
415.597	2944.19
415.821	2886.19
416.044	2886.19
416.267	2914.19
416.49	2898.19
416.713	2885.19
416.936	2900.19
417.159	2874.19
417.382	2825.19
417.605	2876.19
417.828	2828.19
418.051	2908.19
418.274	2868.19
418.497	2940.19
418.72	2960.19
418.943	2930.19
419.166	3041.19
419.389	3262.19
419.611	3206.19
419.834	3035.19
420.057	3000.19
420.28	2987.19
420.503	2934.19
420.726	2908.19
420.948	2862.19
421.171	2856.19
421.394	2917.19
421.617	2904.19
421.839	2927.19
422.062	2900.19
422.285	2914.19
422.507	2950.19
422.73	2996.19
422.953	2985.19
423.175	3021.19
423.398	3001.19
423.621	2925.19
423.843	2931.19
424.066	2928.19
424.288	2897.19
424.511	2884.19
424.733	2883.19
424.956	2848.19
425.178	2876.19
425.401	2823.19
425.623	2902.19
425.846	2821.19
426.068	2889.19
426.291	2774.19
426.513	2778.19
426.735	2795.19
426.958	2721.19
427.18	2690.19
427.402	2741.19
427.625	2720.19
427.847	2712.19
428.069	2673.19
428.292	2716.19
428.514	2676.19
428.736	2725.19
428.958	2686.19
429.181	2665.19
429.403	2669.19
429.625	2674.19
429.847	2642.19
430.069	2750.19
430.292	2809.19
430.514	2857.19
430.736	2866.19
430.958	2694.19
431.18	2665.19
431.402	2638.19
431.624	2574.19
431.846	2600.19
432.068	2622.19
432.29	2720.19
432.512	2646.19
432.734	2669.19
432.956	2639.19
433.178	2649.19
433.4	2638.19
433.622	2696.19
433.844	2679.19
434.066	2643.19
434.287	2659.19
434.509	2682.19
434.731	2739.19
434.953	2815.19
435.175	2776.19
435.397	2757.19
435.618	2733.19
435.84	2612.19
436.062	2649.19
436.284	2676.19
436.505	2658.19
436.727	2606.19
436.949	2660.19
437.17	2616.19
437.392	2584.19
437.614	2574.19
437.835	2519.19
438.057	2545.19
438.278	2592.19
438.5	2592.19
438.721	2609.19
438.943	2674.19
439.165	2719.19
439.386	2797.19
439.608	2750.19
439.829	2700.19
440.05	2880.19
440.272	2852.19
440.493	2732.19
440.715	2699.19
440.936	2762.19
441.158	2715.19
441.379	2778.19
441.6	2826.19
441.822	2950.19
442.043	3130.19
442.264	3130.19
442.486	2986.19
442.707	2938.19
442.928	2840.19
443.149	2846.19
443.371	2787.19
443.592	2861.19
443.813	2827.19
444.034	2890.19
444.255	2905.19
444.476	2953.19
444.698	2989.19
444.919	3057.19
445.14	3183.19
445.361	3002.19
445.582	2917.19
445.803	2843.19
446.024	2800.19
446.245	2855.19
446.466	2791.19
446.687	2786.19
446.908	2793.19
447.129	2694.19
447.35	2665.19
447.571	2642.19
447.792	2615.19
448.013	2611.19
448.234	2646.19
448.455	2606.19
448.675	2623.19
448.896	2712.19
449.117	2777.19
449.338	2999.19
449.559	3070.19
449.779	2807.19
450	2649.19
450.221	2542.19
450.442	2595.19
450.662	2568.19
450.883	2547.19
451.104	2520.19
451.324	2550.19
451.545	2578.19
451.766	2615.19
451.986	2631.19
452.207	2783.19
452.428	3679.19
452.648	5552.19
452.869	4576.19
453.089	3153.19
453.31	2918.19
453.53	3002.19
453.751	3036.19
453.971	3169.19
454.192	3137.19
454.412	2717.19
454.633	2612.19
454.853	2507.19
455.073	2470.19
455.294	2443.19
455.514	2418.19
455.734	2418.19
455.955	2405.19
456.175	2396.19
456.395	2396.19
456.616	2447.19
456.836	2477.19
457.056	2480.19
457.276	2493.19
457.497	2647.19
457.717	2653.19
457.937	2604.19
458.157	2567.19
458.377	2604.19
458.598	2636.19
458.818	2649.19
459.038	2614.19
459.258	2646.19
459.478	2703.19
459.698	2716.19
459.918	2697.19
460.138	2740.19
460.358	2836.19
460.578	2829.19
460.798	2852.19
461.018	2889.19
461.238	2926.19
461.458	2913.19
461.678	2946.19
461.898	3010.19
462.118	3042.19
462.338	3104.19
462.558	3141.19
462.777	3177.19
462.997	3264.19
463.217	3423.19
463.437	3506.19
463.657	3636.19
463.876	3564.19
464.096	3396.19
464.316	3206.19
464.536	3194.19
464.755	3091.19
464.975	3032.19
465.195	2926.19
465.414	2906.19
465.634	2744.19
465.854	2759.19
466.073	2705.19
466.293	2686.19
466.512	2647.19
466.732	2685.19
466.951	2856.19
467.171	2994.19
467.391	2928.19
467.61	2704.19
467.829	2650.19
468.049	2620.19
468.268	2591.19
468.488	2568.19
468.707	2550.19
468.927	2618.19
469.146	2623.19
469.365	2612.19
469.585	2682.19
469.804	2692.19
470.023	2727.19
470.243	2746.19
470.462	2864.19
470.681	2998.19
470.901	3291.19
471.12	3715.19
471.339	3776.19
471.558	3145.19
471.777	2884.19
471.997	2812.19
472.216	2754.19
472.435	2632.19
472.654	2633.19
472.873	2607.19
473.092	2629.19
473.311	2637.19
473.53	2618.19
473.749	2663.19
473.968	2803.19
474.187	2689.19
474.406	2568.19
474.625	2590.19
474.844	2621.19
475.063	2702.19
475.282	2637.19
475.501	2643.19
475.72	2702.19
475.939	2694.19
476.158	2747.19
476.377	2838.19
476.596	2774.19
476.814	2803.19
477.033	2772.19
477.252	2834.19
477.471	2848.19
477.69	2886.19
477.908	2976.19
478.127	2940.19
478.346	2963.19
478.564	3023.19
478.783	3049.19
479.002	3110.19
479.22	3105.19
479.439	3195.19
479.658	3181.19
479.876	3174.19
480.095	3169.19
480.313	3196.19
480.532	3240.19
480.751	3195.19
480.969	3191.19
481.188	3167.19
481.406	3100.19
481.624	3171.19
481.843	3224.19
482.061	3188.19
482.28	3207.19
482.498	3113.19
482.717	3138.19
482.935	3229.19
483.153	3196.19
483.372	3263.19
483.59	3289.19
483.808	3352.19
484.027	3415.19
484.245	3707.19
484.463	4042.19
484.681	4488.19
484.9	4114.19
485.118	3842.19
485.336	3778.19
485.554	3775.19
485.772	3989.19
485.99	4520.19
486.209	4887.19
486.427	4110.19
486.645	3675.19
486.863	3528.19
487.081	3448.19
487.299	3401.19
487.517	3393.19
487.735	3391.19
487.953	3397.19
488.171	3381.19
488.389	3356.19
488.607	3322.19
488.825	3350.19
489.043	3259.19
489.261	3265.19
489.479	3264.19
489.696	3241.19
489.914	3261.19
490.132	3284.19
490.35	3288.19
490.568	3309.19
490.786	3372.19
491.003	3406.19
491.221	3407.19
491.439	3477.19
491.657	3390.19
491.874	3415.19
492.092	3423.19
492.31	3465.19
492.527	3464.19
492.745	3403.19
492.963	3429.19
493.18	3424.19
493.398	3444.19
493.615	3416.19
493.833	3383.19
494.05	3449.19
494.268	3426.19
494.485	3428.19
494.703	3467.19
494.92	3480.19
495.138	3416.19
495.355	3461.19
495.573	3474.19
495.79	3467.19
496.008	3514.19
496.225	3531.19
496.442	3563.19
496.66	3712.19
496.877	3921.19
497.094	3842.19
497.312	3721.19
497.529	3736.19
497.746	3742.19
497.963	3802.19
498.181	3910.19
498.398	3965.19
498.615	4069.19
498.832	4224.19
499.049	4455.19
499.267	4855.19
499.484	5113.19
499.701	5142.19
499.918	5176.19
500.135	5434.19
500.352	5707.19
500.569	5789.19
500.786	5763.19
501.003	5580.19
501.22	5296.19
501.437	5090.19
501.654	4773.19
501.871	4640.19
502.088	4456.19
502.305	4288.19
502.522	4140.19
502.739	4098.19
502.956	3860.19
503.172	3815.19
503.389	3774.19
503.606	3676.19
503.823	3654.19
504.04	3622.19
504.256	3618.19
504.473	3579.19
504.69	3558.19
504.907	3573.19
505.123	3517.19
505.34	3409.19
505.557	3318.19
505.773	3254.19
505.99	3248.19
506.207	3168.19
506.423	3140.19
506.64	3124.19
506.856	3062.19
507.073	3089.19
507.289	3068.19
507.506	3070.19
507.722	3016.19
507.939	2994.19
508.155	2924.19
508.372	2959.19
508.588	2947.19
508.805	2974.19
509.021	2974.19
509.238	3031.19
509.454	3253.19
509.67	3420.19
509.887	3204.19
510.103	3016.19
510.319	2996.19
510.536	2968.19
510.752	2959.19
510.968	2924.19
511.184	2868.19
511.401	2877.19
511.617	2874.19
511.833	2851.19
512.049	2830.19
512.265	2851.19
512.481	2876.19
512.698	2826.19
512.914	2856.19
513.13	2849.19
513.346	2857.19
513.562	2833.19
513.778	2867.19
513.994	2868.19
514.21	3013.19
514.426	3200.19
514.642	3303.19
514.858	2987.19
515.074	2967.19
515.29	2874.19
515.506	2923.19
515.721	2930.19
515.937	2950.19
516.153	2973.19
516.369	2981.19
516.585	3014.19
516.801	3029.19
517.016	3089.19
517.232	3101.19
517.448	3247.19
517.664	3245.19
517.879	3266.19
518.095	3241.19
518.311	3283.19
518.527	3170.19
518.742	3194.19
518.958	3181.19
519.173	3333.19
519.389	3213.19
519.605	3032.19
519.82	2942.19
520.036	2941.19
520.251	2893.19
520.467	2874.19
520.682	2836.19
520.898	2837.19
521.113	2827.19
521.329	2869.19
521.544	2790.19
521.76	2841.19
521.975	2864.19
522.19	2794.19
522.406	2814.19
522.621	2782.19
522.836	2723.19
523.052	2748.19
523.267	2749.19
523.482	2739.19
523.698	2742.19
523.913	2680.19
524.128	2761.19
524.343	2710.19
524.559	2706.19
524.774	2725.19
524.989	2716.19
525.204	2736.19
525.419	2739.19
525.634	2764.19
525.849	2715.19
526.064	2740.19
526.28	2785.19
526.495	2753.19
526.71	2760.19
526.925	2745.19
527.14	2696.19
527.355	2732.19
527.57	2762.19
527.785	2774.19
527.999	2769.19
528.214	2763.19
528.429	2811.19
528.644	2826.19
528.859	2874.19
529.074	2897.19
529.289	2904.19
529.503	2944.19
529.718	2953.19
529.933	2933.19
530.148	2860.19
530.363	2921.19
530.577	2906.19
530.792	2904.19
531.007	2937.19
531.221	2981.19
531.436	2955.19
531.651	3043.19
531.865	2988.19
532.08	3106.19
532.295	3156.19
532.509	3453.19
532.724	3390.19
532.938	3392.19
533.153	3547.19
533.367	3762.19
533.582	4009.19
533.796	3902.19
534.011	3766.19
534.225	3610.19
534.44	3444.19
534.654	3379.19
534.868	3326.19
535.083	3248.19
535.297	3214.19
535.511	3152.19
535.726	3098.19
535.94	3078.19
536.154	2979.19
536.369	2960.19
536.583	2904.19
536.797	2911.19
537.011	2857.19
537.225	2823.19
537.44	2846.19
537.654	2820.19
537.868	2776.19
538.082	2777.19
538.296	2669.19
538.51	2737.19
538.724	2765.19
538.938	2726.19
539.153	2681.19
539.367	2669.19
539.581	2665.19
539.795	2617.19
540.009	2600.19
540.222	2602.19
540.436	2676.19
540.65	2640.19
540.864	2685.19
541.078	2699.19
541.292	2851.19
541.506	3317.19
541.72	3475.19
541.934	3016.19
542.147	2904.19
542.361	2777.19
542.575	2638.19
542.789	2636.19
543.002	2572.19
543.216	2626.19
543.43	2555.19
543.644	2506.19
543.857	2516.19
544.071	2549.19
544.285	2537.19
544.498	2512.19
544.712	2552.19
544.925	2544.19
545.139	2574.19
545.352	2573.19
545.566	2507.19
545.779	2552.19
545.993	2617.19
546.206	2616.19
546.42	2592.19
546.633	2558.19
546.847	2541.19
547.06	2518.19
547.274	2542.19
547.487	2530.19
547.7	2580.19
547.914	2576.19
548.127	2592.19
548.34	2528.19
548.554	2534.19
548.767	2589.19
548.98	2544.19
549.193	2536.19
549.407	2565.19
549.62	2546.19
549.833	2579.19
550.046	2617.19
550.259	2562.19
550.473	2560.19
550.686	2592.19
550.899	2582.19
551.112	2599.19
551.325	2595.19
551.538	2612.19
551.751	2513.19
551.964	2564.19
552.177	2583.19
552.39	2628.19
552.603	2667.19
552.816	2673.19
553.029	2717.19
553.242	2825.19
553.455	2812.19
553.667	2790.19
553.88	2807.19
554.093	2816.19
554.306	2783.19
554.519	2896.19
554.732	2904.19
554.944	2961.19
555.157	3049.19
555.37	3106.19
555.583	3253.19
555.795	3365.19
556.008	3670.19
556.221	4128.19
556.433	4398.19
556.646	4349.19
556.859	4158.19
557.071	4020.19
557.284	3885.19
557.496	3808.19
557.709	3693.19
557.921	3632.19
558.134	3613.19
558.346	3668.19
558.559	3837.19
558.771	4072.19
558.984	4425.19
559.196	4809.19
559.409	4559.19
559.621	4141.19
559.833	3906.19
560.046	3673.19
560.258	3546.19
560.47	3301.19
560.683	3177.19
560.895	3075.19
561.107	2993.19
561.32	2876.19
561.532	2822.19
561.744	2737.19
561.956	2665.19
562.168	2653.19
562.381	2626.19
562.593	2669.19
562.805	2672.19
563.017	2706.19
563.229	2784.19
563.441	3244.19
563.653	2665.19
563.865	2451.19
564.077	2435.19
564.289	2404.19
564.501	2349.19
564.713	2407.19
564.925	2362.19
565.137	2352.19
565.349	2356.19
565.561	2360.19
565.773	2354.19
565.985	2402.19
566.197	2409.19
566.408	2506.19
566.62	2518.19
566.832	2570.19
567.044	2654.19
567.255	2645.19
567.467	2668.19
567.679	2723.19
567.891	2887.19
568.102	3122.19
568.314	3561.19
568.526	3138.19
568.737	2692.19
568.949	2484.19
569.161	2371.19
569.372	2294.19
569.584	2229.19
569.795	2180.19
570.007	2168.19
570.218	2208.19
570.43	2268.19
570.641	2106.19
570.853	2001.19
571.064	2035.19
571.276	1966.19
571.487	1932.19
571.698	1915.19
571.91	1899.19
572.121	1870.19
572.333	1871.19
572.544	1876.19
572.755	1980.19
572.966	2276.19
573.178	2121.19
573.389	1915.19
573.6	1848.19
573.811	1767.19
574.023	1739.19
574.234	1745.19
574.445	1759.19
574.656	1740.19
574.867	1724.19
575.078	1723.19
575.289	1706.19
575.501	1729.19
575.712	1696.19
575.923	1709.19
576.134	1702.19
576.345	1686.19
576.556	1690.19
576.767	1722.19
576.978	1721.19
577.188	1704.19
577.399	1718.19
577.61	1753.19
577.821	1738.19
578.032	1782.19
578.243	1818.19
578.454	1842.19
578.665	1920.19
578.875	1924.19
579.086	1966.19
579.297	2099.19
579.508	2189.19
579.718	2422.19
579.929	2700.19
580.14	3184.19
580.35	3241.19
580.561	2972.19
580.772	2680.19
580.982	2451.19
581.193	2318.19
581.403	2202.19
581.614	2058.19
581.825	2052.19
582.035	1904.19
582.246	1866.19
582.456	1833.19
582.667	1766.19
582.877	1780.19
583.087	1741.19
583.298	1632.19
583.508	1592.19
583.719	1556.19
583.929	1584.19
584.139	1557.19
584.35	1470.19
584.56	1469.19
584.77	1442.19
584.981	1454.19
585.191	1418.19
585.401	1376.19
585.611	1369.19
585.821	1352.19
586.032	1354.19
586.242	1353.19
586.452	1336.19
586.662	1322.19
586.872	1324.19
587.082	1310.19
587.292	1312.19
587.502	1285.19
587.713	1254.19
587.923	1264.19
588.133	1244.19
588.343	1260.19
588.553	1237.19
588.762	1215.19
588.972	1228.19
589.182	1192.19
589.392	1204.19
589.602	1193.19
589.812	1194.19
590.022	1203.19
590.232	1197.19
590.441	1196.19
590.651	1192.19
590.861	1201.19
591.071	1188.19
591.281	1176.19
591.49	1164.19
591.7	1174.19
591.91	1212.19
592.119	1204.19
592.329	1204.19
592.539	1220.19
592.748	1196.19
592.958	1230.19
593.167	1230.19
593.377	1227.19
593.587	1224.19
593.796	1207.19
594.006	1248.19
594.215	1261.19
594.424	1208.19
594.634	1187.19
594.843	1174.19
595.053	1166.19
595.262	1176.19
595.472	1127.19
595.681	1116.19
595.89	1106.19
596.1	1123.19
596.309	1079.19
596.518	1051.19
596.727	1074.19
596.937	1072.19
597.146	1028.19
597.355	1022.19
597.564	998.19
597.774	990.19
597.983	989.19
598.192	1006.19
598.401	971.19
598.61	987.19
598.819	958.19
599.028	988.19
599.237	976.19
599.446	968.19
599.655	964.19
599.864	969.19
600.073	945.19
600.282	954.19
600.491	913.19
600.7	958.19
600.909	935.19
601.118	932.19
601.327	934.19
601.536	952.19
601.745	981.19
601.953	1056.19
602.162	1220.19
602.371	1053.19
602.58	999.19
602.789	969.19
602.997	937.19
603.206	925.19
603.415	933.19
603.623	934.19
603.832	919.19
604.041	907.19
604.249	920.19
604.458	897.19
604.666	888.19
604.875	883.19
605.084	885.19
605.292	916.19
605.501	888.19
605.709	898.19
605.918	891.19
606.126	899.19
606.334	904.19
606.543	925.19
606.751	978.19
606.96	1152.19
607.168	1240.19
607.376	1046.19
607.585	983.19
607.793	934.19
608.001	911.19
608.21	894.19
608.418	875.19
608.626	864.19
608.834	876.19
609.043	886.19
609.251	860.19
609.459	830.19
609.667	838.19
609.875	832.19
610.083	840.19
610.291	861.19
610.499	845.19
610.707	831.19
610.916	808.19
611.124	834.19
611.332	811.19
611.54	833.19
611.748	838.19
611.955	810.19
612.163	809.19
612.371	816.19
612.579	816.19
612.787	779.19
612.995	790.19
613.203	780.19
613.411	801.19
613.618	790.19
613.826	797.19
614.034	809.19
614.242	793.19
614.449	774.19
614.657	792.19
614.865	804.19
615.072	807.19
615.28	814.19
615.488	802.19
615.695	793.19
615.903	775.19
616.111	785.19
616.318	781.19
616.526	787.19
616.733	765.19
616.941	799.19
617.148	806.19
617.356	788.19
617.563	768.19
617.771	776.19
617.978	778.19
618.185	770.19
618.393	756.19
618.6	761.19
618.807	766.19
619.015	768.19
619.222	757.19
619.429	727.19
619.637	742.19
619.844	722.19
620.051	714.19
620.258	710.19
620.466	725.19
620.673	710.19
620.88	670.19
621.087	704.19
621.294	681.19
621.501	681.19
621.708	692.19
621.915	693.19
622.122	690.19
622.329	715.19
622.536	694.19
622.743	708.19
622.95	728.19
623.157	722.19
623.364	691.19
623.571	702.19
623.778	671.19
623.985	658.19
624.192	704.19
624.399	672.19
624.606	651.19
624.812	653.19
625.019	680.19
625.226	649.19
625.433	669.19
625.639	653.19
625.846	635.19
626.053	642.19
626.259	642.19
626.466	634.19
626.673	625.19
626.879	618.19
627.086	617.19
627.293	633.19
627.499	654.19
627.706	658.19
627.912	644.19
628.119	632.19
628.325	645.19
628.532	638.19
628.738	636.19
628.945	627.19
629.151	619.19
629.357	591.19
629.564	610.19
629.77	633.19
629.976	620.19
630.183	619.19
630.389	590.19
630.595	604.19
630.802	600.19
631.008	569.19
631.214	612.19
631.42	625.19
631.627	602.19
631.833	594.19
632.039	581.19
632.245	561.19
632.451	594.19
632.657	596.19
632.863	566.19
633.069	582.19
633.275	600.19
633.481	580.19
633.688	582.19
633.893	577.19
634.099	583.19
634.305	597.19
634.511	585.19
634.717	605.19
634.923	612.19
635.129	685.19
635.335	756.19
635.541	682.19
635.747	656.19
635.952	628.19
636.158	581.19
636.364	617.19
636.57	596.19
636.775	585.19
636.981	598.19
637.187	570.19
637.392	569.19
637.598	573.19
637.804	597.19
638.009	598.19
638.215	581.19
638.421	577.19
638.626	585.19
638.832	588.19
639.037	571.19
639.243	597.19
639.448	582.19
639.654	585.19
639.859	603.19
640.065	612.19
640.27	602.19
640.475	607.19
640.681	593.19
640.886	620.19
641.091	634.19
641.297	631.19
641.502	615.19
641.707	633.19
641.913	642.19
642.118	668.19
642.323	646.19
642.528	670.19
642.733	693.19
642.939	713.19
643.144	717.19
643.349	748.19
643.554	794.19
643.759	807.19
643.964	843.19
644.169	850.19
644.374	932.19
644.579	995.19
644.784	1120.19
644.989	1250.19
645.194	1493.19
645.399	1848.19
645.604	1972.19
645.809	1460.19
646.014	1139.19
646.219	934.19
646.423	837.19
646.628	734.19
646.833	712.19
647.038	667.19
647.243	625.19
647.447	613.19
647.652	611.19
647.857	596.19
648.062	565.19
648.266	567.19
648.471	550.19
648.676	548.19
648.88	564.19
649.085	536.19
649.289	512.19
649.494	513.19
649.698	513.19
649.903	499.19
650.107	454.19
650.312	490.19
650.516	461.19
650.721	471.19
650.925	474.19
651.13	438.19
651.334	427.19
651.539	435.19
651.743	442.19
651.947	424.19
652.152	445.19
652.356	427.19
652.56	454.19
652.764	489.19
652.969	468.19
653.173	384.19
653.377	386.19
653.581	378.19
653.785	386.19
653.99	363.19
654.194	360.19
654.398	345.19
654.602	348.19
654.806	364.19
655.01	372.19
655.214	349.19
655.418	352.19
655.622	336.19
655.826	341.19
656.03	389.19
656.234	365.19
656.438	360.19
656.642	369.19
656.846	375.19
657.049	354.19
657.253	324.19
657.457	313.19
657.661	274.19
657.865	287.19
658.068	261.19
658.272	260.19
658.476	226.19
658.68	217.19
658.883	208.19
659.087	206.19
659.291	195.19
659.494	202.19
659.698	187.19
659.901	180.19
660.105	178.19
660.309	167.19
660.512	176.19
660.716	160.19
660.919	154.19
661.123	142.19
661.326	140.19
661.53	148.19
661.733	132.19
661.936	133.19
662.14	126.19
662.343	121.19
662.546	110.19
662.75	116.19
662.953	101.19
663.156	109.19
663.36	97.19
663.563	93.19
663.766	97.19
663.969	89.19
664.173	95.19
664.376	95.19
664.579	94.19
664.782	90.19
664.985	92.19
665.188	103.19
665.391	92.19
665.594	97.19
665.797	94.19
666	91.19
666.203	91.19
666.406	76.19
666.609	90.19
666.812	105.19
667.015	92.19
667.218	97.19
667.421	86.19
667.624	93.19
667.827	86.19
668.03	99.19
668.232	90.19
668.435	88.19
668.638	89.19
668.841	94.19
669.043	90.19
669.246	88.19
669.449	82.19
669.651	79.19
669.854	102.19
670.057	84.19
670.259	88.19
670.462	85.19
670.665	91.19
670.867	87.19
671.07	94.19
671.272	82.19
671.475	99.19
671.677	103.19
671.88	77.19
672.082	81.19
672.284	89.19
672.487	89.19
672.689	83.19
672.892	93.19
