Data from SnStandardFlinnAPT0064_QswitchEnergy10_LIBS07252019.E.O._I.C._HRD10591_15-28-27-974.txt Node
Date: Thu Jul 25 15:28:27 EDT 2019
User: cochatt
Spectrometer: HR+D1059
Trigger mode: 1
Integration Time (sec): 1.000000E-1
Scans to average: 1
Electric dark correction enabled: true
Nonlinearity correction enabled: false
Boxcar width: 0
XAxis mode: Wavelengths
Number of Pixels in Spectrum: 2048
>>>>>Begin Spectral Data<<<<<
223.165	-24.5
223.4	-24.5
223.635	-24.5
223.869	-14.5
224.104	-13.5
224.338	-14.5
224.573	-21.5
224.808	-20.5
225.042	0.5
225.277	-14.5
225.511	-2.5
225.746	3.5
225.98	9.5
226.215	11.5
226.449	13.5
226.683	26.5
226.918	24.5
227.152	36.5
227.387	42.5
227.621	41.5
227.856	44.5
228.09	38.5
228.324	48.5
228.559	67.5
228.793	63.5
229.027	68.5
229.262	80.5
229.496	72.5
229.73	88.5
229.964	70.5
230.199	76.5
230.433	76.5
230.667	78.5
230.901	92.5
231.136	89.5
231.37	101.5
231.604	80.5
231.838	117.5
232.072	106.5
232.306	131.5
232.541	99.5
232.775	81.5
233.009	86.5
233.243	82.5
233.477	98.5
233.711	112.5
233.945	88.5
234.179	91.5
234.413	87.5
234.647	81.5
234.881	84.5
235.115	89.5
235.349	90.5
235.583	104.5
235.817	109.5
236.051	140.5
236.285	101.5
236.519	75.5
236.753	72.5
236.987	92.5
237.221	99.5
237.455	83.5
237.689	74.5
237.922	71.5
238.156	75.5
238.39	68.5
238.624	87.5
238.858	84.5
239.091	88.5
239.325	93.5
239.559	84.5
239.793	72.5
240.027	71.5
240.26	81.5
240.494	71.5
240.728	96.5
240.961	81.5
241.195	105.5
241.429	100.5
241.662	91.5
241.896	68.5
242.13	107.5
242.363	123.5
242.597	168.5
242.83	149.5
243.064	144.5
243.298	173.5
243.531	149.5
243.765	113.5
243.998	96.5
244.232	79.5
244.465	83.5
244.699	84.5
244.932	90.5
245.166	75.5
245.399	95.5
245.633	79.5
245.866	95.5
246.099	97.5
246.333	94.5
246.566	86.5
246.8	88.5
247.033	79.5
247.266	83.5
247.5	79.5
247.733	69.5
247.966	92.5
248.2	91.5
248.433	111.5
248.666	135.5
248.899	112.5
249.133	111.5
249.366	102.5
249.599	101.5
249.832	127.5
250.066	127.5
250.299	108.5
250.532	97.5
250.765	89.5
250.998	76.5
251.231	87.5
251.465	84.5
251.698	83.5
251.931	96.5
252.164	83.5
252.397	81.5
252.63	106.5
252.863	92.5
253.096	92.5
253.329	95.5
253.562	95.5
253.795	99.5
254.028	94.5
254.261	98.5
254.494	95.5
254.727	100.5
254.96	168.5
255.193	128.5
255.426	97.5
255.659	87.5
255.892	94.5
256.124	87.5
256.357	95.5
256.59	91.5
256.823	96.5
257.056	119.5
257.289	139.5
257.521	179.5
257.754	131.5
257.987	102.5
258.22	97.5
258.452	105.5
258.685	104.5
258.918	97.5
259.151	99.5
259.383	106.5
259.616	139.5
259.849	157.5
260.081	114.5
260.314	84.5
260.547	95.5
260.779	96.5
261.012	78.5
261.244	89.5
261.477	84.5
261.71	81.5
261.942	77.5
262.175	96.5
262.407	77.5
262.64	92.5
262.872	88.5
263.105	83.5
263.337	90.5
263.57	84.5
263.802	89.5
264.035	104.5
264.267	91.5
264.499	101.5
264.732	96.5
264.964	87.5
265.197	98.5
265.429	98.5
265.661	111.5
265.894	85.5
266.126	113.5
266.358	160.5
266.591	145.5
266.823	109.5
267.055	77.5
267.287	87.5
267.52	94.5
267.752	90.5
267.984	98.5
268.216	97.5
268.448	92.5
268.681	88.5
268.913	84.5
269.145	81.5
269.377	88.5
269.609	96.5
269.841	91.5
270.073	106.5
270.306	121.5
270.538	201.5
270.77	323.5
271.002	378.5
271.234	214.5
271.466	105.5
271.698	104.5
271.93	90.5
272.162	77.5
272.394	89.5
272.626	85.5
272.858	85.5
273.09	87.5
273.322	88.5
273.553	84.5
273.785	94.5
274.017	87.5
274.249	95.5
274.481	89.5
274.713	96.5
274.945	75.5
275.176	71.5
275.408	102.5
275.64	88.5
275.872	88.5
276.104	102.5
276.335	101.5
276.567	105.5
276.799	97.5
277.031	98.5
277.262	101.5
277.494	115.5
277.726	115.5
277.957	175.5
278.189	249.5
278.421	246.5
278.652	192.5
278.884	176.5
279.115	143.5
279.347	101.5
279.579	113.5
279.81	111.5
280.042	101.5
280.273	103.5
280.505	114.5
280.736	106.5
280.968	130.5
281.199	179.5
281.431	275.5
281.662	288.5
281.894	176.5
282.125	116.5
282.356	117.5
282.588	124.5
282.819	115.5
283.051	130.5
283.282	141.5
283.513	198.5
283.745	311.5
283.976	565.5
284.207	802.5
284.439	623.5
284.67	288.5
284.901	265.5
285.132	349.5
285.364	402.5
285.595	209.5
285.826	179.5
286.057	241.5
286.288	405.5
286.52	635.5
286.751	526.5
286.982	212.5
287.213	129.5
287.444	107.5
287.675	110.5
287.906	98.5
288.138	98.5
288.369	87.5
288.6	105.5
288.831	111.5
289.062	91.5
289.293	104.5
289.524	98.5
289.755	100.5
289.986	103.5
290.217	100.5
290.448	110.5
290.679	102.5
290.91	129.5
291.141	173.5
291.371	249.5
291.602	332.5
291.833	204.5
292.064	112.5
292.295	97.5
292.526	84.5
292.757	90.5
292.987	112.5
293.218	87.5
293.449	90.5
293.68	97.5
293.91	103.5
294.141	92.5
294.372	86.5
294.603	92.5
294.833	103.5
295.064	88.5
295.295	88.5
295.525	86.5
295.756	90.5
295.987	98.5
296.217	101.5
296.448	116.5
296.679	96.5
296.909	101.5
297.14	89.5
297.37	106.5
297.601	104.5
297.831	98.5
298.062	103.5
298.292	104.5
298.523	108.5
298.753	112.5
298.984	106.5
299.214	109.5
299.445	126.5
299.675	115.5
299.905	121.5
300.136	130.5
300.366	180.5
300.597	284.5
300.827	482.5
301.057	705.5
301.288	638.5
301.518	259.5
301.748	157.5
301.979	136.5
302.209	144.5
302.439	146.5
302.669	175.5
302.9	291.5
303.13	507.5
303.36	923.5
303.59	1279.5
303.82	873.5
304.051	299.5
304.281	169.5
304.511	128.5
304.741	122.5
304.971	127.5
305.201	107.5
305.431	123.5
305.661	101.5
305.891	116.5
306.121	116.5
306.352	114.5
306.582	104.5
306.812	115.5
307.042	117.5
307.272	122.5
307.502	117.5
307.731	111.5
307.961	104.5
308.191	113.5
308.421	87.5
308.651	117.5
308.881	111.5
309.111	129.5
309.341	98.5
309.571	110.5
309.8	113.5
310.03	111.5
310.26	115.5
310.49	114.5
310.72	100.5
310.949	116.5
311.179	108.5
311.409	116.5
311.639	115.5
311.868	106.5
312.098	104.5
312.328	112.5
312.557	119.5
312.787	123.5
313.017	129.5
313.246	111.5
313.476	111.5
313.706	135.5
313.935	156.5
314.165	199.5
314.394	264.5
314.624	195.5
314.853	139.5
315.083	125.5
315.312	137.5
315.542	142.5
315.771	149.5
316.001	152.5
316.23	134.5
316.46	162.5
316.689	199.5
316.919	271.5
317.148	540.5
317.377	962.5
317.607	1567.5
317.836	1425.5
318.065	573.5
318.295	248.5
318.524	175.5
318.753	134.5
318.983	151.5
319.212	135.5
319.441	119.5
319.67	126.5
319.9	127.5
320.129	113.5
320.358	124.5
320.587	145.5
320.816	131.5
321.046	158.5
321.275	136.5
321.504	147.5
321.733	134.5
321.962	168.5
322.191	177.5
322.42	131.5
322.649	135.5
322.878	127.5
323.108	141.5
323.337	127.5
323.566	130.5
323.795	142.5
324.024	137.5
324.253	155.5
324.482	183.5
324.71	233.5
324.939	303.5
325.168	232.5
325.397	218.5
325.626	267.5
325.855	515.5
326.084	976.5
326.313	1667.5
326.542	1641.5
326.77	628.5
326.999	297.5
327.228	236.5
327.457	245.5
327.686	255.5
327.914	181.5
328.143	155.5
328.372	141.5
328.6	130.5
328.829	130.5
329.058	125.5
329.287	115.5
329.515	125.5
329.744	142.5
329.972	122.5
330.201	117.5
330.43	136.5
330.658	120.5
330.887	123.5
331.115	123.5
331.344	111.5
331.572	114.5
331.801	124.5
332.03	126.5
332.258	161.5
332.486	199.5
332.715	326.5
332.943	537.5
333.172	788.5
333.4	699.5
333.629	280.5
333.857	164.5
334.085	130.5
334.314	119.5
334.542	128.5
334.771	113.5
334.999	119.5
335.227	140.5
335.455	127.5
335.684	120.5
335.912	122.5
336.14	130.5
336.369	103.5
336.597	114.5
336.825	116.5
337.053	124.5
337.281	128.5
337.51	130.5
337.738	129.5
337.966	118.5
338.194	111.5
338.422	111.5
338.65	124.5
338.878	133.5
339.106	121.5
339.334	128.5
339.562	121.5
339.79	118.5
340.018	115.5
340.246	129.5
340.474	129.5
340.702	123.5
340.93	117.5
341.158	128.5
341.386	127.5
341.614	127.5
341.842	118.5
342.07	115.5
342.298	114.5
342.526	106.5
342.754	113.5
342.981	127.5
343.209	127.5
343.437	112.5
343.665	117.5
343.893	123.5
344.12	129.5
344.348	113.5
344.576	123.5
344.804	121.5
345.031	125.5
345.259	133.5
345.487	122.5
345.714	114.5
345.942	106.5
346.17	123.5
346.397	108.5
346.625	109.5
346.853	116.5
347.08	95.5
347.308	102.5
347.535	119.5
347.763	107.5
347.99	112.5
348.218	120.5
348.445	114.5
348.673	113.5
348.9	121.5
349.128	114.5
349.355	129.5
349.583	138.5
349.81	130.5
350.037	116.5
350.265	120.5
350.492	129.5
350.72	116.5
350.947	122.5
351.174	123.5
351.402	113.5
351.629	107.5
351.856	120.5
352.083	121.5
352.311	117.5
352.538	112.5
352.765	114.5
352.992	127.5
353.22	106.5
353.447	104.5
353.674	105.5
353.901	103.5
354.128	101.5
354.355	115.5
354.583	111.5
354.81	104.5
355.037	122.5
355.264	109.5
355.491	113.5
355.718	110.5
355.945	115.5
356.172	113.5
356.399	91.5
356.626	114.5
356.853	102.5
357.08	109.5
357.307	115.5
357.534	117.5
357.761	111.5
357.988	97.5
358.215	110.5
358.441	118.5
358.668	126.5
358.895	119.5
359.122	129.5
359.349	125.5
359.576	120.5
359.802	112.5
360.029	113.5
360.256	120.5
360.483	111.5
360.709	103.5
360.936	117.5
361.163	119.5
361.39	118.5
361.616	123.5
361.843	114.5
362.07	111.5
362.296	112.5
362.523	107.5
362.749	111.5
362.976	111.5
363.203	108.5
363.429	115.5
363.656	111.5
363.882	101.5
364.109	125.5
364.335	121.5
364.562	121.5
364.788	122.5
365.015	115.5
365.241	142.5
365.468	226.5
365.694	278.5
365.92	225.5
366.147	143.5
366.373	113.5
366.599	112.5
366.826	108.5
367.052	96.5
367.278	89.5
367.505	103.5
367.731	105.5
367.957	101.5
368.184	115.5
368.41	128.5
368.636	111.5
368.862	95.5
369.089	114.5
369.315	129.5
369.541	131.5
369.767	122.5
369.993	102.5
370.219	118.5
370.445	127.5
370.672	116.5
370.898	111.5
371.124	122.5
371.35	107.5
371.576	122.5
371.802	115.5
372.028	124.5
372.254	111.5
372.48	121.5
372.706	117.5
372.932	126.5
373.158	136.5
373.384	132.5
373.61	125.5
373.835	123.5
374.061	129.5
374.287	124.5
374.513	116.5
374.739	114.5
374.965	129.5
375.191	117.5
375.416	111.5
375.642	112.5
375.868	125.5
376.094	122.5
376.319	109.5
376.545	131.5
376.771	126.5
376.997	118.5
377.222	121.5
377.448	108.5
377.674	117.5
377.899	111.5
378.125	136.5
378.35	117.5
378.576	106.5
378.802	123.5
379.027	132.5
379.253	153.5
379.478	189.5
379.704	338.5
379.929	817.5
380.155	1667.5
380.38	1711.5
380.606	545.5
380.831	199.5
381.057	137.5
381.282	124.5
381.507	114.5
381.733	101.5
381.958	103.5
382.184	118.5
382.409	115.5
382.634	118.5
382.86	108.5
383.085	108.5
383.31	116.5
383.535	118.5
383.761	123.5
383.986	119.5
384.211	107.5
384.436	103.5
384.662	101.5
384.887	112.5
385.112	111.5
385.337	111.5
385.562	106.5
385.787	103.5
386.013	136.5
386.238	119.5
386.463	109.5
386.688	120.5
386.913	112.5
387.138	112.5
387.363	114.5
387.588	115.5
387.813	129.5
388.038	100.5
388.263	100.5
388.488	102.5
388.713	105.5
388.938	116.5
389.163	94.5
389.387	104.5
389.612	119.5
389.837	106.5
390.062	107.5
390.287	107.5
390.512	100.5
390.736	100.5
390.961	106.5
391.186	106.5
391.411	111.5
391.636	103.5
391.86	98.5
392.085	108.5
392.31	99.5
392.534	101.5
392.759	117.5
392.984	93.5
393.208	128.5
393.433	161.5
393.658	163.5
393.882	119.5
394.107	101.5
394.331	100.5
394.556	103.5
394.78	103.5
395.005	86.5
395.229	99.5
395.454	107.5
395.678	106.5
395.903	104.5
396.127	114.5
396.352	106.5
396.576	100.5
396.801	134.5
397.025	127.5
397.249	100.5
397.474	103.5
397.698	105.5
397.922	102.5
398.147	101.5
398.371	103.5
398.595	103.5
398.82	123.5
399.044	103.5
399.268	98.5
399.492	105.5
399.717	114.5
399.941	102.5
400.165	103.5
400.389	88.5
400.613	94.5
400.837	103.5
401.062	97.5
401.286	103.5
401.51	101.5
401.734	98.5
401.958	103.5
402.182	110.5
402.406	111.5
402.63	92.5
402.854	93.5
403.078	93.5
403.302	123.5
403.526	98.5
403.75	96.5
403.974	94.5
404.198	94.5
404.422	98.5
404.645	93.5
404.869	107.5
405.093	114.5
405.317	127.5
405.541	123.5
405.765	127.5
405.988	156.5
406.212	123.5
406.436	104.5
406.66	105.5
406.883	103.5
407.107	94.5
407.331	118.5
407.555	106.5
407.778	97.5
408.002	101.5
408.226	97.5
408.449	110.5
408.673	87.5
408.896	105.5
409.12	107.5
409.344	97.5
409.567	89.5
409.791	102.5
410.014	99.5
410.238	96.5
410.461	111.5
410.685	103.5
410.908	91.5
411.132	91.5
411.355	102.5
411.578	100.5
411.802	88.5
412.025	88.5
412.249	90.5
412.472	108.5
412.695	92.5
412.919	95.5
413.142	101.5
413.365	92.5
413.589	112.5
413.812	114.5
414.035	112.5
414.258	108.5
414.482	111.5
414.705	99.5
414.928	116.5
415.151	104.5
415.374	93.5
415.597	116.5
415.821	103.5
416.044	81.5
416.267	104.5
416.49	89.5
416.713	96.5
416.936	104.5
417.159	103.5
417.382	103.5
417.605	95.5
417.828	97.5
418.051	96.5
418.274	111.5
418.497	95.5
418.72	103.5
418.943	115.5
419.166	98.5
419.389	108.5
419.611	113.5
419.834	116.5
420.057	103.5
420.28	86.5
420.503	89.5
420.726	96.5
420.948	99.5
421.171	97.5
421.394	95.5
421.617	103.5
421.839	95.5
422.062	97.5
422.285	105.5
422.507	104.5
422.73	121.5
422.953	144.5
423.175	122.5
423.398	120.5
423.621	90.5
423.843	97.5
424.066	100.5
424.288	92.5
424.511	95.5
424.733	107.5
424.956	111.5
425.178	115.5
425.401	93.5
425.623	95.5
425.846	94.5
426.068	96.5
426.291	102.5
426.513	98.5
426.735	106.5
426.958	105.5
427.18	111.5
427.402	102.5
427.625	97.5
427.847	98.5
428.069	89.5
428.292	92.5
428.514	124.5
428.736	90.5
428.958	101.5
429.181	99.5
429.403	101.5
429.625	112.5
429.847	101.5
430.069	115.5
430.292	101.5
430.514	107.5
430.736	107.5
430.958	114.5
431.18	81.5
431.402	90.5
431.624	99.5
431.846	93.5
432.068	100.5
432.29	101.5
432.512	101.5
432.734	100.5
432.956	97.5
433.178	105.5
433.4	103.5
433.622	92.5
433.844	86.5
434.066	78.5
434.287	106.5
434.509	101.5
434.731	98.5
434.953	107.5
435.175	88.5
435.397	92.5
435.618	97.5
435.84	92.5
436.062	89.5
436.284	97.5
436.505	104.5
436.727	113.5
436.949	96.5
437.17	96.5
437.392	100.5
437.614	96.5
437.835	81.5
438.057	94.5
438.278	102.5
438.5	100.5
438.721	99.5
438.943	86.5
439.165	112.5
439.386	105.5
439.608	99.5
439.829	120.5
440.05	127.5
440.272	119.5
440.493	105.5
440.715	86.5
440.936	96.5
441.158	107.5
441.379	107.5
441.6	108.5
441.822	114.5
442.043	129.5
442.264	129.5
442.486	123.5
442.707	84.5
442.928	97.5
443.149	97.5
443.371	110.5
443.592	100.5
443.813	108.5
444.034	84.5
444.255	89.5
444.476	90.5
444.698	95.5
444.919	95.5
445.14	187.5
445.361	138.5
445.582	109.5
445.803	103.5
446.024	99.5
446.245	107.5
446.466	111.5
446.687	125.5
446.908	101.5
447.129	100.5
447.35	81.5
447.571	92.5
447.792	100.5
448.013	105.5
448.234	88.5
448.455	106.5
448.675	100.5
448.896	114.5
449.117	122.5
449.338	136.5
449.559	139.5
449.779	105.5
450	124.5
450.221	108.5
450.442	120.5
450.662	109.5
450.883	100.5
451.104	126.5
451.324	129.5
451.545	114.5
451.766	103.5
451.986	135.5
452.207	224.5
452.428	609.5
452.648	1525.5
452.869	821.5
453.089	223.5
453.31	131.5
453.53	127.5
453.751	141.5
453.971	157.5
454.192	153.5
454.412	118.5
454.633	102.5
454.853	103.5
455.073	96.5
455.294	90.5
455.514	95.5
455.734	99.5
455.955	108.5
456.175	96.5
456.395	92.5
456.616	88.5
456.836	108.5
457.056	92.5
457.276	101.5
457.497	115.5
457.717	108.5
457.937	111.5
458.157	95.5
458.377	89.5
458.598	93.5
458.818	100.5
459.038	89.5
459.258	98.5
459.478	104.5
459.698	93.5
459.918	100.5
460.138	88.5
460.358	93.5
460.578	83.5
460.798	96.5
461.018	89.5
461.238	93.5
461.458	101.5
461.678	92.5
461.898	94.5
462.118	110.5
462.338	86.5
462.558	96.5
462.777	83.5
462.997	103.5
463.217	112.5
463.437	129.5
463.657	193.5
463.876	189.5
464.096	126.5
464.316	96.5
464.536	106.5
464.755	99.5
464.975	89.5
465.195	91.5
465.414	95.5
465.634	101.5
465.854	79.5
466.073	100.5
466.293	110.5
466.512	105.5
466.732	109.5
466.951	116.5
467.171	155.5
467.391	140.5
467.61	104.5
467.829	104.5
468.049	106.5
468.268	114.5
468.488	114.5
468.707	96.5
468.927	117.5
469.146	91.5
469.365	102.5
469.585	106.5
469.804	103.5
470.023	104.5
470.243	105.5
470.462	99.5
470.681	94.5
470.901	122.5
471.12	175.5
471.339	213.5
471.558	142.5
471.777	117.5
471.997	115.5
472.216	113.5
472.435	104.5
472.654	98.5
472.873	113.5
473.092	95.5
473.311	90.5
473.53	96.5
473.749	89.5
473.968	98.5
474.187	84.5
474.406	105.5
474.625	114.5
474.844	91.5
475.063	88.5
475.282	85.5
475.501	92.5
475.72	97.5
475.939	98.5
476.158	97.5
476.377	96.5
476.596	103.5
476.814	99.5
477.033	113.5
477.252	92.5
477.471	96.5
477.69	103.5
477.908	111.5
478.127	112.5
478.346	122.5
478.564	109.5
478.783	86.5
479.002	94.5
479.22	96.5
479.439	92.5
479.658	104.5
479.876	97.5
480.095	82.5
480.313	81.5
480.532	84.5
480.751	104.5
480.969	109.5
481.188	82.5
481.406	90.5
481.624	96.5
481.843	116.5
482.061	119.5
482.28	104.5
482.498	90.5
482.717	94.5
482.935	92.5
483.153	104.5
483.372	95.5
483.59	99.5
483.808	106.5
484.027	117.5
484.245	123.5
484.463	178.5
484.681	232.5
484.9	149.5
485.118	124.5
485.336	121.5
485.554	104.5
485.772	119.5
485.99	196.5
486.209	253.5
486.427	150.5
486.645	111.5
486.863	97.5
487.081	102.5
487.299	89.5
487.517	111.5
487.735	103.5
487.953	94.5
488.171	102.5
488.389	97.5
488.607	100.5
488.825	93.5
489.043	89.5
489.261	98.5
489.479	104.5
489.696	97.5
489.914	102.5
490.132	111.5
490.35	103.5
490.568	93.5
490.786	87.5
491.003	98.5
491.221	105.5
491.439	109.5
491.657	118.5
491.874	117.5
492.092	106.5
492.31	117.5
492.527	109.5
492.745	97.5
492.963	120.5
493.18	115.5
493.398	104.5
493.615	111.5
493.833	92.5
494.05	108.5
494.268	102.5
494.485	111.5
494.703	118.5
494.92	105.5
495.138	97.5
495.355	100.5
495.573	112.5
495.79	117.5
496.008	104.5
496.225	116.5
496.442	105.5
496.66	111.5
496.877	167.5
497.094	140.5
497.312	115.5
497.529	99.5
497.746	110.5
497.963	105.5
498.181	106.5
498.398	103.5
498.615	111.5
498.832	112.5
499.049	99.5
499.267	129.5
499.484	168.5
499.701	123.5
499.918	106.5
500.135	115.5
500.352	106.5
500.569	95.5
500.786	98.5
501.003	97.5
501.22	103.5
501.437	97.5
501.654	106.5
501.871	93.5
502.088	88.5
502.305	117.5
502.522	106.5
502.739	96.5
502.956	98.5
503.172	100.5
503.389	82.5
503.606	106.5
503.823	98.5
504.04	111.5
504.256	105.5
504.473	101.5
504.69	106.5
504.907	105.5
505.123	122.5
505.34	106.5
505.557	106.5
505.773	109.5
505.99	109.5
506.207	113.5
506.423	96.5
506.64	107.5
506.856	102.5
507.073	102.5
507.289	108.5
507.506	100.5
507.722	107.5
507.939	102.5
508.155	108.5
508.372	98.5
508.588	92.5
508.805	107.5
509.021	116.5
509.238	104.5
509.454	137.5
509.67	162.5
509.887	107.5
510.103	103.5
510.319	102.5
510.536	109.5
510.752	102.5
510.968	120.5
511.184	107.5
511.401	108.5
511.617	105.5
511.833	95.5
512.049	93.5
512.265	104.5
512.481	100.5
512.698	97.5
512.914	97.5
513.13	92.5
513.346	111.5
513.562	98.5
513.778	101.5
513.994	87.5
514.21	111.5
514.426	136.5
514.642	192.5
514.858	122.5
515.074	106.5
515.29	91.5
515.506	102.5
515.721	93.5
515.937	106.5
516.153	96.5
516.369	103.5
516.585	101.5
516.801	108.5
517.016	107.5
517.232	97.5
517.448	112.5
517.664	101.5
517.879	115.5
518.095	91.5
518.311	96.5
518.527	102.5
518.742	109.5
518.958	115.5
519.173	169.5
519.389	139.5
519.605	105.5
519.82	113.5
520.036	108.5
520.251	104.5
520.467	113.5
520.682	120.5
520.898	114.5
521.113	91.5
521.329	100.5
521.544	96.5
521.76	103.5
521.975	127.5
522.19	104.5
522.406	99.5
522.621	101.5
522.836	116.5
523.052	106.5
523.267	99.5
523.482	96.5
523.698	101.5
523.913	95.5
524.128	108.5
524.343	90.5
524.559	103.5
524.774	103.5
524.989	101.5
525.204	96.5
525.419	92.5
525.634	97.5
525.849	96.5
526.064	96.5
526.28	94.5
526.495	104.5
526.71	105.5
526.925	89.5
527.14	117.5
527.355	103.5
527.57	108.5
527.785	95.5
527.999	101.5
528.214	104.5
528.429	97.5
528.644	95.5
528.859	102.5
529.074	87.5
529.289	113.5
529.503	91.5
529.718	94.5
529.933	91.5
530.148	96.5
530.363	104.5
530.577	105.5
530.792	109.5
531.007	99.5
531.221	98.5
531.436	101.5
531.651	107.5
531.865	97.5
532.08	101.5
532.295	98.5
532.509	154.5
532.724	121.5
532.938	111.5
533.153	103.5
533.367	107.5
533.582	100.5
533.796	97.5
534.011	114.5
534.225	100.5
534.44	97.5
534.654	100.5
534.868	76.5
535.083	101.5
535.297	97.5
535.511	99.5
535.726	105.5
535.94	102.5
536.154	112.5
536.369	105.5
536.583	75.5
536.797	97.5
537.011	101.5
537.225	104.5
537.44	98.5
537.654	97.5
537.868	94.5
538.082	98.5
538.296	99.5
538.51	102.5
538.724	91.5
538.938	116.5
539.153	84.5
539.367	113.5
539.581	105.5
539.795	97.5
540.009	106.5
540.222	92.5
540.436	98.5
540.65	87.5
540.864	92.5
541.078	117.5
541.292	123.5
541.506	213.5
541.72	187.5
541.934	144.5
542.147	121.5
542.361	108.5
542.575	92.5
542.789	87.5
543.002	111.5
543.216	106.5
543.43	97.5
543.644	118.5
543.857	91.5
544.071	114.5
544.285	107.5
544.498	96.5
544.712	109.5
544.925	102.5
545.139	118.5
545.352	97.5
545.566	105.5
545.779	122.5
545.993	119.5
546.206	103.5
546.42	114.5
546.633	120.5
546.847	104.5
547.06	106.5
547.274	101.5
547.487	108.5
547.7	107.5
547.914	100.5
548.127	89.5
548.34	120.5
548.554	119.5
548.767	103.5
548.98	117.5
549.193	120.5
549.407	101.5
549.62	90.5
549.833	103.5
550.046	91.5
550.259	104.5
550.473	101.5
550.686	97.5
550.899	107.5
551.112	107.5
551.325	98.5
551.538	91.5
551.751	112.5
551.964	95.5
552.177	92.5
552.39	108.5
552.603	103.5
552.816	95.5
553.029	105.5
553.242	111.5
553.455	106.5
553.667	98.5
553.88	104.5
554.093	107.5
554.306	97.5
554.519	111.5
554.732	104.5
554.944	98.5
555.157	88.5
555.37	119.5
555.583	106.5
555.795	111.5
556.008	126.5
556.221	147.5
556.433	121.5
556.646	113.5
556.859	110.5
557.071	114.5
557.284	128.5
557.496	104.5
557.709	108.5
557.921	107.5
558.134	107.5
558.346	111.5
558.559	108.5
558.771	111.5
558.984	113.5
559.196	102.5
559.409	105.5
559.621	103.5
559.833	97.5
560.046	107.5
560.258	107.5
560.47	113.5
560.683	108.5
560.895	113.5
561.107	96.5
561.32	105.5
561.532	97.5
561.744	100.5
561.956	113.5
562.168	97.5
562.381	117.5
562.593	115.5
562.805	136.5
563.017	168.5
563.229	300.5
563.441	686.5
563.653	218.5
563.865	120.5
564.077	111.5
564.289	101.5
564.501	113.5
564.713	101.5
564.925	99.5
565.137	98.5
565.349	100.5
565.561	96.5
565.773	117.5
565.985	99.5
566.197	95.5
566.408	105.5
566.62	96.5
566.832	104.5
567.044	101.5
567.255	103.5
567.467	99.5
567.679	111.5
567.891	105.5
568.102	165.5
568.314	240.5
568.526	165.5
568.737	113.5
568.949	98.5
569.161	110.5
569.372	95.5
569.584	114.5
569.795	102.5
570.007	98.5
570.218	120.5
570.43	177.5
570.641	117.5
570.853	114.5
571.064	96.5
571.276	116.5
571.487	90.5
571.698	102.5
571.91	107.5
572.121	101.5
572.333	91.5
572.544	104.5
572.755	139.5
572.966	192.5
573.178	148.5
573.389	119.5
573.6	94.5
573.811	95.5
574.023	88.5
574.234	96.5
574.445	99.5
574.656	100.5
574.867	103.5
575.078	98.5
575.289	91.5
575.501	101.5
575.712	96.5
575.923	111.5
576.134	100.5
576.345	90.5
576.556	89.5
576.767	90.5
576.978	101.5
577.188	100.5
577.399	95.5
577.61	101.5
577.821	97.5
578.032	106.5
578.243	105.5
578.454	88.5
578.665	103.5
578.875	97.5
579.086	88.5
579.297	97.5
579.508	99.5
579.718	109.5
579.929	93.5
580.14	99.5
580.35	106.5
580.561	95.5
580.772	92.5
580.982	102.5
581.193	102.5
581.403	103.5
581.614	110.5
581.825	79.5
582.035	89.5
582.246	100.5
582.456	104.5
582.667	104.5
582.877	115.5
583.087	141.5
583.298	102.5
583.508	95.5
583.719	104.5
583.929	105.5
584.139	82.5
584.35	89.5
584.56	103.5
584.77	99.5
584.981	77.5
585.191	96.5
585.401	93.5
585.611	94.5
585.821	81.5
586.032	97.5
586.242	96.5
586.452	91.5
586.662	82.5
586.872	95.5
587.082	103.5
587.292	93.5
587.502	97.5
587.713	96.5
587.923	101.5
588.133	95.5
588.343	93.5
588.553	87.5
588.762	95.5
588.972	102.5
589.182	138.5
589.392	123.5
589.602	89.5
589.812	106.5
590.022	115.5
590.232	90.5
590.441	99.5
590.651	97.5
590.861	80.5
591.071	96.5
591.281	98.5
591.49	89.5
591.7	105.5
591.91	93.5
592.119	103.5
592.329	90.5
592.539	84.5
592.748	95.5
592.958	104.5
593.167	101.5
593.377	100.5
593.587	110.5
593.796	91.5
594.006	86.5
594.215	104.5
594.424	103.5
594.634	91.5
594.843	95.5
595.053	93.5
595.262	109.5
595.472	94.5
595.681	98.5
595.89	85.5
596.1	100.5
596.309	108.5
596.518	94.5
596.727	89.5
596.937	101.5
597.146	98.5
597.355	121.5
597.564	91.5
597.774	101.5
597.983	95.5
598.192	89.5
598.401	95.5
598.61	97.5
598.819	89.5
599.028	96.5
599.237	89.5
599.446	90.5
599.655	92.5
599.864	94.5
600.073	99.5
600.282	88.5
600.491	101.5
600.7	93.5
600.909	90.5
601.118	93.5
601.327	102.5
601.536	86.5
601.745	97.5
601.953	119.5
602.162	161.5
602.371	117.5
602.58	101.5
602.789	93.5
602.997	87.5
603.206	88.5
603.415	86.5
603.623	90.5
603.832	97.5
604.041	116.5
604.249	98.5
604.458	81.5
604.666	94.5
604.875	105.5
605.084	99.5
605.292	95.5
605.501	96.5
605.709	104.5
605.918	113.5
606.126	93.5
606.334	110.5
606.543	109.5
606.751	140.5
606.96	169.5
607.168	193.5
607.376	127.5
607.585	105.5
607.793	102.5
608.001	108.5
608.21	96.5
608.418	106.5
608.626	93.5
608.834	93.5
609.043	103.5
609.251	82.5
609.459	97.5
609.667	102.5
609.875	95.5
610.083	98.5
610.291	99.5
610.499	97.5
610.707	95.5
610.916	96.5
611.124	98.5
611.332	81.5
611.54	96.5
611.748	79.5
611.955	92.5
612.163	101.5
612.371	108.5
612.579	109.5
612.787	96.5
612.995	111.5
613.203	104.5
613.411	90.5
613.618	89.5
613.826	92.5
614.034	93.5
614.242	87.5
614.449	85.5
614.657	92.5
614.865	97.5
615.072	101.5
615.28	124.5
615.488	102.5
615.695	113.5
615.903	107.5
616.111	98.5
616.318	102.5
616.526	87.5
616.733	106.5
616.941	83.5
617.148	97.5
617.356	104.5
617.563	85.5
617.771	93.5
617.978	99.5
618.185	101.5
618.393	104.5
618.6	97.5
618.807	87.5
619.015	89.5
619.222	77.5
619.429	85.5
619.637	92.5
619.844	91.5
620.051	85.5
620.258	103.5
620.466	89.5
620.673	86.5
620.88	99.5
621.087	95.5
621.294	98.5
621.501	103.5
621.708	99.5
621.915	101.5
622.122	89.5
622.329	90.5
622.536	101.5
622.743	90.5
622.95	84.5
623.157	90.5
623.364	96.5
623.571	100.5
623.778	94.5
623.985	100.5
624.192	90.5
624.399	86.5
624.606	90.5
624.812	89.5
625.019	88.5
625.226	90.5
625.433	98.5
625.639	97.5
625.846	102.5
626.053	101.5
626.259	92.5
626.466	92.5
626.673	100.5
626.879	74.5
627.086	82.5
627.293	105.5
627.499	88.5
627.706	98.5
627.912	83.5
628.119	75.5
628.325	85.5
628.532	103.5
628.738	92.5
628.945	95.5
629.151	97.5
629.357	91.5
629.564	65.5
629.77	95.5
629.976	90.5
630.183	83.5
630.389	87.5
630.595	84.5
630.802	90.5
631.008	89.5
631.214	82.5
631.42	88.5
631.627	96.5
631.833	87.5
632.039	80.5
632.245	91.5
632.451	84.5
632.657	104.5
632.863	93.5
633.069	101.5
633.275	87.5
633.481	90.5
633.688	71.5
633.893	107.5
634.099	96.5
634.305	92.5
634.511	89.5
634.717	113.5
634.923	93.5
635.129	121.5
635.335	124.5
635.541	93.5
635.747	91.5
635.952	93.5
636.158	76.5
636.364	98.5
636.57	97.5
636.775	88.5
636.981	99.5
637.187	84.5
637.392	87.5
637.598	95.5
637.804	82.5
638.009	102.5
638.215	98.5
638.421	82.5
638.626	98.5
638.832	95.5
639.037	101.5
639.243	90.5
639.448	99.5
639.654	96.5
639.859	91.5
640.065	90.5
640.27	104.5
640.475	89.5
640.681	91.5
640.886	89.5
641.091	72.5
641.297	101.5
641.502	93.5
641.707	85.5
641.913	79.5
642.118	94.5
642.323	93.5
642.528	99.5
642.733	91.5
642.939	81.5
643.144	87.5
643.349	87.5
643.554	86.5
643.759	90.5
643.964	80.5
644.169	79.5
644.374	90.5
644.579	82.5
644.784	95.5
644.989	83.5
645.194	90.5
645.399	106.5
645.604	98.5
645.809	96.5
646.014	84.5
646.219	96.5
646.423	91.5
646.628	68.5
646.833	98.5
647.038	87.5
647.243	80.5
647.447	83.5
647.652	98.5
647.857	85.5
648.062	89.5
648.266	81.5
648.471	99.5
648.676	86.5
648.88	80.5
649.085	87.5
649.289	85.5
649.494	93.5
649.698	100.5
649.903	89.5
650.107	95.5
650.312	90.5
650.516	77.5
650.721	85.5
650.925	82.5
651.13	85.5
651.334	81.5
651.539	87.5
651.743	83.5
651.947	100.5
652.152	83.5
652.356	85.5
652.56	93.5
652.764	92.5
652.969	99.5
653.173	93.5
653.377	91.5
653.581	83.5
653.785	95.5
653.99	87.5
654.194	89.5
654.398	97.5
654.602	83.5
654.806	86.5
655.01	83.5
655.214	87.5
655.418	80.5
655.622	93.5
655.826	77.5
656.03	75.5
656.234	81.5
656.438	89.5
656.642	82.5
656.846	77.5
657.049	75.5
657.253	97.5
657.457	95.5
657.661	96.5
657.865	86.5
658.068	92.5
658.272	87.5
658.476	94.5
658.68	91.5
658.883	75.5
659.087	79.5
659.291	94.5
659.494	89.5
659.698	91.5
659.901	89.5
660.105	80.5
660.309	78.5
660.512	80.5
660.716	88.5
660.919	88.5
661.123	95.5
661.326	80.5
661.53	87.5
661.733	86.5
661.936	75.5
662.14	72.5
662.343	77.5
662.546	88.5
662.75	91.5
662.953	82.5
663.156	83.5
663.36	80.5
663.563	86.5
663.766	78.5
663.969	91.5
664.173	75.5
664.376	79.5
664.579	84.5
664.782	67.5
664.985	87.5
665.188	102.5
665.391	80.5
665.594	76.5
665.797	95.5
666	89.5
666.203	77.5
666.406	83.5
666.609	66.5
666.812	86.5
667.015	86.5
667.218	93.5
667.421	95.5
667.624	76.5
667.827	84.5
668.03	82.5
668.232	96.5
668.435	78.5
668.638	89.5
668.841	89.5
669.043	69.5
669.246	87.5
669.449	84.5
669.651	99.5
669.854	86.5
670.057	72.5
670.259	90.5
670.462	80.5
670.665	85.5
670.867	93.5
671.07	76.5
671.272	88.5
671.475	83.5
671.677	88.5
671.88	83.5
672.082	85.5
672.284	84.5
672.487	88.5
672.689	75.5
672.892	81.5
