Data from SnStandardFlinnAPT0064_QswitchEnergy10_LIBS07252019.E.O._I.C._HRD10591_15-26-53-972.txt Node
Date: Thu Jul 25 15:26:53 EDT 2019
User: cochatt
Spectrometer: HR+D1059
Trigger mode: 1
Integration Time (sec): 1.000000E-1
Scans to average: 1
Electric dark correction enabled: true
Nonlinearity correction enabled: false
Boxcar width: 0
XAxis mode: Wavelengths
Number of Pixels in Spectrum: 2048
>>>>>Begin Spectral Data<<<<<
223.165	-12.44
223.4	-12.44
223.635	-12.44
223.869	-22.44
224.104	-24.44
224.338	-23.44
224.573	1.56
224.808	-14.44
225.042	-28.44
225.277	0.56
225.511	1.56
225.746	12.56
225.98	9.56
226.215	9.56
226.449	19.56
226.683	11.56
226.918	22.56
227.152	36.56
227.387	45.56
227.621	33.56
227.856	46.56
228.09	47.56
228.324	61.56
228.559	46.56
228.793	49.56
229.027	63.56
229.262	76.56
229.496	75.56
229.73	66.56
229.964	69.56
230.199	66.56
230.433	70.56
230.667	66.56
230.901	81.56
231.136	80.56
231.37	87.56
231.604	82.56
231.838	94.56
232.072	121.56
232.306	124.56
232.541	98.56
232.775	74.56
233.009	79.56
233.243	92.56
233.477	82.56
233.711	94.56
233.945	103.56
234.179	95.56
234.413	88.56
234.647	88.56
234.881	75.56
235.115	76.56
235.349	91.56
235.583	99.56
235.817	115.56
236.051	124.56
236.285	82.56
236.519	94.56
236.753	81.56
236.987	73.56
237.221	66.56
237.455	73.56
237.689	75.56
237.922	72.56
238.156	75.56
238.39	78.56
238.624	87.56
238.858	75.56
239.091	76.56
239.325	65.56
239.559	70.56
239.793	88.56
240.027	79.56
240.26	85.56
240.494	84.56
240.728	75.56
240.961	70.56
241.195	106.56
241.429	86.56
241.662	86.56
241.896	76.56
242.13	96.56
242.363	136.56
242.597	148.56
242.83	132.56
243.064	118.56
243.298	154.56
243.531	161.56
243.765	106.56
243.998	71.56
244.232	82.56
244.465	75.56
244.699	83.56
244.932	83.56
245.166	90.56
245.399	74.56
245.633	74.56
245.866	86.56
246.099	91.56
246.333	85.56
246.566	77.56
246.8	85.56
247.033	93.56
247.266	77.56
247.5	81.56
247.733	98.56
247.966	85.56
248.2	92.56
248.433	106.56
248.666	139.56
248.899	124.56
249.133	98.56
249.366	96.56
249.599	94.56
249.832	105.56
250.066	122.56
250.299	89.56
250.532	87.56
250.765	79.56
250.998	82.56
251.231	70.56
251.465	81.56
251.698	84.56
251.931	81.56
252.164	75.56
252.397	85.56
252.63	111.56
252.863	92.56
253.096	84.56
253.329	91.56
253.562	91.56
253.795	86.56
254.028	80.56
254.261	96.56
254.494	87.56
254.727	100.56
254.96	135.56
255.193	118.56
255.426	101.56
255.659	103.56
255.892	104.56
256.124	79.56
256.357	85.56
256.59	79.56
256.823	69.56
257.056	121.56
257.289	128.56
257.521	175.56
257.754	130.56
257.987	86.56
258.22	89.56
258.452	82.56
258.685	102.56
258.918	88.56
259.151	84.56
259.383	118.56
259.616	125.56
259.849	146.56
260.081	96.56
260.314	84.56
260.547	95.56
260.779	72.56
261.012	72.56
261.244	78.56
261.477	86.56
261.71	97.56
261.942	86.56
262.175	70.56
262.407	70.56
262.64	82.56
262.872	84.56
263.105	75.56
263.337	90.56
263.57	94.56
263.802	98.56
264.035	99.56
264.267	92.56
264.499	82.56
264.732	87.56
264.964	84.56
265.197	74.56
265.429	113.56
265.661	93.56
265.894	100.56
266.126	119.56
266.358	146.56
266.591	158.56
266.823	101.56
267.055	88.56
267.287	79.56
267.52	94.56
267.752	90.56
267.984	99.56
268.216	80.56
268.448	92.56
268.681	84.56
268.913	91.56
269.145	101.56
269.377	89.56
269.609	102.56
269.841	106.56
270.073	92.56
270.306	138.56
270.538	174.56
270.77	273.56
271.002	319.56
271.234	182.56
271.466	90.56
271.698	79.56
271.93	92.56
272.162	103.56
272.394	105.56
272.626	78.56
272.858	81.56
273.09	87.56
273.322	83.56
273.553	86.56
273.785	81.56
274.017	83.56
274.249	88.56
274.481	93.56
274.713	88.56
274.945	80.56
275.176	85.56
275.408	107.56
275.64	95.56
275.872	91.56
276.104	97.56
276.335	90.56
276.567	120.56
276.799	99.56
277.031	94.56
277.262	100.56
277.494	106.56
277.726	117.56
277.957	165.56
278.189	231.56
278.421	227.56
278.652	178.56
278.884	174.56
279.115	122.56
279.347	107.56
279.579	102.56
279.81	94.56
280.042	99.56
280.273	97.56
280.505	100.56
280.736	110.56
280.968	127.56
281.199	156.56
281.431	215.56
281.662	245.56
281.894	137.56
282.125	111.56
282.356	99.56
282.588	114.56
282.819	122.56
283.051	108.56
283.282	140.56
283.513	173.56
283.745	299.56
283.976	483.56
284.207	708.56
284.439	558.56
284.67	251.56
284.901	222.56
285.132	289.56
285.364	341.56
285.595	229.56
285.826	174.56
286.057	241.56
286.288	373.56
286.52	548.56
286.751	460.56
286.982	180.56
287.213	114.56
287.444	105.56
287.675	99.56
287.906	100.56
288.138	90.56
288.369	91.56
288.6	109.56
288.831	80.56
289.062	84.56
289.293	94.56
289.524	88.56
289.755	92.56
289.986	93.56
290.217	83.56
290.448	112.56
290.679	96.56
290.91	104.56
291.141	150.56
291.371	214.56
291.602	264.56
291.833	186.56
292.064	107.56
292.295	104.56
292.526	79.56
292.757	98.56
292.987	95.56
293.218	103.56
293.449	89.56
293.68	94.56
293.91	97.56
294.141	94.56
294.372	93.56
294.603	96.56
294.833	81.56
295.064	94.56
295.295	86.56
295.525	83.56
295.756	85.56
295.987	87.56
296.217	101.56
296.448	96.56
296.679	88.56
296.909	102.56
297.14	98.56
297.37	105.56
297.601	101.56
297.831	93.56
298.062	95.56
298.292	91.56
298.523	102.56
298.753	106.56
298.984	118.56
299.214	106.56
299.445	98.56
299.675	108.56
299.905	114.56
300.136	126.56
300.366	164.56
300.597	256.56
300.827	391.56
301.057	606.56
301.288	580.56
301.518	236.56
301.748	138.56
301.979	133.56
302.209	132.56
302.439	137.56
302.669	162.56
302.9	251.56
303.13	445.56
303.36	777.56
303.59	1098.56
303.82	764.56
304.051	265.56
304.281	148.56
304.511	131.56
304.741	98.56
304.971	111.56
305.201	120.56
305.431	102.56
305.661	102.56
305.891	97.56
306.121	84.56
306.352	99.56
306.582	104.56
306.812	113.56
307.042	122.56
307.272	101.56
307.502	112.56
307.731	95.56
307.961	103.56
308.191	102.56
308.421	100.56
308.651	108.56
308.881	113.56
309.111	105.56
309.341	99.56
309.571	107.56
309.8	96.56
310.03	92.56
310.26	98.56
310.49	106.56
310.72	97.56
310.949	138.56
311.179	111.56
311.409	120.56
311.639	110.56
311.868	101.56
312.098	96.56
312.328	111.56
312.557	101.56
312.787	106.56
313.017	117.56
313.246	108.56
313.476	110.56
313.706	132.56
313.935	144.56
314.165	186.56
314.394	209.56
314.624	168.56
314.853	120.56
315.083	111.56
315.312	122.56
315.542	127.56
315.771	130.56
316.001	145.56
316.23	146.56
316.46	147.56
316.689	168.56
316.919	238.56
317.148	440.56
317.377	794.56
317.607	1344.56
317.836	1220.56
318.065	474.56
318.295	206.56
318.524	151.56
318.753	131.56
318.983	123.56
319.212	131.56
319.441	110.56
319.67	110.56
319.9	119.56
320.129	117.56
320.358	128.56
320.587	105.56
320.816	95.56
321.046	118.56
321.275	131.56
321.504	137.56
321.733	134.56
321.962	154.56
322.191	154.56
322.42	116.56
322.649	117.56
322.878	126.56
323.108	118.56
323.337	126.56
323.566	127.56
323.795	124.56
324.024	145.56
324.253	144.56
324.482	168.56
324.71	206.56
324.939	275.56
325.168	208.56
325.397	172.56
325.626	232.56
325.855	446.56
326.084	852.56
326.313	1438.56
326.542	1387.56
326.77	546.56
326.999	235.56
327.228	208.56
327.457	182.56
327.686	204.56
327.914	159.56
328.143	133.56
328.372	128.56
328.6	118.56
328.829	125.56
329.058	121.56
329.287	118.56
329.515	103.56
329.744	123.56
329.972	107.56
330.201	111.56
330.43	123.56
330.658	101.56
330.887	115.56
331.115	120.56
331.344	109.56
331.572	132.56
331.801	110.56
332.03	127.56
332.258	132.56
332.486	152.56
332.715	258.56
332.943	467.56
333.172	698.56
333.4	595.56
333.629	229.56
333.857	153.56
334.085	124.56
334.314	135.56
334.542	114.56
334.771	122.56
334.999	113.56
335.227	123.56
335.455	122.56
335.684	116.56
335.912	118.56
336.14	114.56
336.369	113.56
336.597	95.56
336.825	100.56
337.053	114.56
337.281	106.56
337.51	116.56
337.738	119.56
337.966	100.56
338.194	105.56
338.422	108.56
338.65	100.56
338.878	115.56
339.106	107.56
339.334	128.56
339.562	101.56
339.79	108.56
340.018	112.56
340.246	107.56
340.474	111.56
340.702	100.56
340.93	108.56
341.158	121.56
341.386	110.56
341.614	116.56
341.842	107.56
342.07	120.56
342.298	113.56
342.526	119.56
342.754	114.56
342.981	114.56
343.209	110.56
343.437	117.56
343.665	110.56
343.893	106.56
344.12	121.56
344.348	100.56
344.576	118.56
344.804	111.56
345.031	98.56
345.259	108.56
345.487	122.56
345.714	103.56
345.942	105.56
346.17	113.56
346.397	119.56
346.625	98.56
346.853	104.56
347.08	98.56
347.308	96.56
347.535	129.56
347.763	104.56
347.99	88.56
348.218	118.56
348.445	99.56
348.673	120.56
348.9	132.56
349.128	120.56
349.355	126.56
349.583	115.56
349.81	121.56
350.037	116.56
350.265	122.56
350.492	101.56
350.72	117.56
350.947	107.56
351.174	108.56
351.402	113.56
351.629	120.56
351.856	107.56
352.083	96.56
352.311	96.56
352.538	108.56
352.765	112.56
352.992	110.56
353.22	98.56
353.447	94.56
353.674	111.56
353.901	100.56
354.128	103.56
354.355	106.56
354.583	117.56
354.81	99.56
355.037	104.56
355.264	106.56
355.491	98.56
355.718	115.56
355.945	99.56
356.172	91.56
356.399	100.56
356.626	102.56
356.853	95.56
357.08	113.56
357.307	99.56
357.534	99.56
357.761	91.56
357.988	112.56
358.215	110.56
358.441	103.56
358.668	107.56
358.895	113.56
359.122	120.56
359.349	113.56
359.576	120.56
359.802	114.56
360.029	100.56
360.256	112.56
360.483	116.56
360.709	88.56
360.936	121.56
361.163	105.56
361.39	103.56
361.616	88.56
361.843	107.56
362.07	113.56
362.296	119.56
362.523	105.56
362.749	108.56
362.976	115.56
363.203	95.56
363.429	106.56
363.656	102.56
363.882	119.56
364.109	111.56
364.335	114.56
364.562	103.56
364.788	94.56
365.015	111.56
365.241	116.56
365.468	174.56
365.694	232.56
365.92	188.56
366.147	113.56
366.373	101.56
366.599	100.56
366.826	105.56
367.052	99.56
367.278	100.56
367.505	95.56
367.731	107.56
367.957	95.56
368.184	106.56
368.41	99.56
368.636	110.56
368.862	97.56
369.089	99.56
369.315	110.56
369.541	114.56
369.767	98.56
369.993	114.56
370.219	120.56
370.445	95.56
370.672	119.56
370.898	86.56
371.124	100.56
371.35	103.56
371.576	95.56
371.802	102.56
372.028	117.56
372.254	97.56
372.48	119.56
372.706	107.56
372.932	112.56
373.158	86.56
373.384	110.56
373.61	126.56
373.835	110.56
374.061	116.56
374.287	110.56
374.513	117.56
374.739	100.56
374.965	118.56
375.191	114.56
375.416	96.56
375.642	107.56
375.868	109.56
376.094	105.56
376.319	108.56
376.545	96.56
376.771	96.56
376.997	98.56
377.222	108.56
377.448	101.56
377.674	99.56
377.899	104.56
378.125	113.56
378.35	122.56
378.576	103.56
378.802	110.56
379.027	129.56
379.253	124.56
379.478	168.56
379.704	293.56
379.929	706.56
380.155	1400.56
380.38	1451.56
380.606	476.56
380.831	190.56
381.057	126.56
381.282	111.56
381.507	111.56
381.733	92.56
381.958	100.56
382.184	117.56
382.409	102.56
382.634	94.56
382.86	116.56
383.085	107.56
383.31	94.56
383.535	97.56
383.761	97.56
383.986	113.56
384.211	88.56
384.436	104.56
384.662	112.56
384.887	98.56
385.112	99.56
385.337	89.56
385.562	103.56
385.787	112.56
386.013	102.56
386.238	102.56
386.463	112.56
386.688	90.56
386.913	104.56
387.138	95.56
387.363	111.56
387.588	106.56
387.813	110.56
388.038	115.56
388.263	109.56
388.488	99.56
388.713	103.56
388.938	102.56
389.163	104.56
389.387	114.56
389.612	94.56
389.837	112.56
390.062	98.56
390.287	90.56
390.512	103.56
390.736	89.56
390.961	95.56
391.186	96.56
391.411	100.56
391.636	99.56
391.86	97.56
392.085	89.56
392.31	92.56
392.534	104.56
392.759	101.56
392.984	86.56
393.208	137.56
393.433	138.56
393.658	139.56
393.882	119.56
394.107	89.56
394.331	80.56
394.556	105.56
394.78	101.56
395.005	109.56
395.229	99.56
395.454	105.56
395.678	110.56
395.903	99.56
396.127	115.56
396.352	103.56
396.576	98.56
396.801	118.56
397.025	124.56
397.249	110.56
397.474	110.56
397.698	98.56
397.922	91.56
398.147	91.56
398.371	89.56
398.595	97.56
398.82	102.56
399.044	86.56
399.268	101.56
399.492	99.56
399.717	94.56
399.941	91.56
400.165	88.56
400.389	94.56
400.613	91.56
400.837	86.56
401.062	82.56
401.286	92.56
401.51	92.56
401.734	91.56
401.958	114.56
402.182	100.56
402.406	96.56
402.63	93.56
402.854	112.56
403.078	100.56
403.302	89.56
403.526	98.56
403.75	90.56
403.974	89.56
404.198	102.56
404.422	90.56
404.645	98.56
404.869	99.56
405.093	103.56
405.317	94.56
405.541	109.56
405.765	123.56
405.988	137.56
406.212	116.56
406.436	92.56
406.66	86.56
406.883	89.56
407.107	107.56
407.331	107.56
407.555	101.56
407.778	95.56
408.002	110.56
408.226	99.56
408.449	102.56
408.673	104.56
408.896	96.56
409.12	97.56
409.344	96.56
409.567	97.56
409.791	92.56
410.014	97.56
410.238	97.56
410.461	89.56
410.685	100.56
410.908	104.56
411.132	100.56
411.355	100.56
411.578	113.56
411.802	97.56
412.025	105.56
412.249	92.56
412.472	93.56
412.695	89.56
412.919	89.56
413.142	99.56
413.365	104.56
413.589	96.56
413.812	99.56
414.035	97.56
414.258	101.56
414.482	92.56
414.705	101.56
414.928	104.56
415.151	104.56
415.374	100.56
415.597	111.56
415.821	102.56
416.044	103.56
416.267	107.56
416.49	101.56
416.713	95.56
416.936	87.56
417.159	98.56
417.382	83.56
417.605	101.56
417.828	99.56
418.051	97.56
418.274	111.56
418.497	96.56
418.72	92.56
418.943	96.56
419.166	84.56
419.389	112.56
419.611	110.56
419.834	108.56
420.057	106.56
420.28	103.56
420.503	96.56
420.726	94.56
420.948	88.56
421.171	92.56
421.394	84.56
421.617	81.56
421.839	105.56
422.062	87.56
422.285	92.56
422.507	109.56
422.73	118.56
422.953	124.56
423.175	114.56
423.398	95.56
423.621	97.56
423.843	89.56
424.066	97.56
424.288	79.56
424.511	81.56
424.733	88.56
424.956	99.56
425.178	93.56
425.401	80.56
425.623	93.56
425.846	80.56
426.068	98.56
426.291	102.56
426.513	87.56
426.735	90.56
426.958	102.56
427.18	91.56
427.402	93.56
427.625	86.56
427.847	104.56
428.069	90.56
428.292	106.56
428.514	98.56
428.736	101.56
428.958	91.56
429.181	87.56
429.403	88.56
429.625	94.56
429.847	100.56
430.069	87.56
430.292	101.56
430.514	100.56
430.736	93.56
430.958	96.56
431.18	105.56
431.402	97.56
431.624	83.56
431.846	94.56
432.068	78.56
432.29	80.56
432.512	95.56
432.734	95.56
432.956	96.56
433.178	92.56
433.4	100.56
433.622	104.56
433.844	102.56
434.066	90.56
434.287	95.56
434.509	95.56
434.731	96.56
434.953	99.56
435.175	100.56
435.397	86.56
435.618	96.56
435.84	110.56
436.062	93.56
436.284	94.56
436.505	96.56
436.727	93.56
436.949	107.56
437.17	87.56
437.392	95.56
437.614	83.56
437.835	90.56
438.057	83.56
438.278	70.56
438.5	89.56
438.721	91.56
438.943	113.56
439.165	110.56
439.386	97.56
439.608	94.56
439.829	95.56
440.05	105.56
440.272	102.56
440.493	92.56
440.715	97.56
440.936	97.56
441.158	106.56
441.379	103.56
441.6	94.56
441.822	88.56
442.043	101.56
442.264	115.56
442.486	122.56
442.707	105.56
442.928	110.56
443.149	98.56
443.371	95.56
443.592	93.56
443.813	93.56
444.034	101.56
444.255	98.56
444.476	91.56
444.698	95.56
444.919	107.56
445.14	206.56
445.361	142.56
445.582	91.56
445.803	92.56
446.024	98.56
446.245	105.56
446.466	107.56
446.687	115.56
446.908	110.56
447.129	110.56
447.35	97.56
447.571	86.56
447.792	100.56
448.013	80.56
448.234	96.56
448.455	107.56
448.675	95.56
448.896	114.56
449.117	119.56
449.338	132.56
449.559	135.56
449.779	107.56
450	100.56
450.221	96.56
450.442	104.56
450.662	119.56
450.883	101.56
451.104	103.56
451.324	117.56
451.545	108.56
451.766	118.56
451.986	120.56
452.207	211.56
452.428	516.56
452.648	1203.56
452.869	687.56
453.089	190.56
453.31	121.56
453.53	104.56
453.751	136.56
453.971	147.56
454.192	138.56
454.412	108.56
454.633	85.56
454.853	100.56
455.073	92.56
455.294	96.56
455.514	94.56
455.734	87.56
455.955	87.56
456.175	106.56
456.395	98.56
456.616	106.56
456.836	89.56
457.056	111.56
457.276	98.56
457.497	96.56
457.717	124.56
457.937	104.56
458.157	98.56
458.377	89.56
458.598	96.56
458.818	81.56
459.038	79.56
459.258	89.56
459.478	94.56
459.698	109.56
459.918	91.56
460.138	85.56
460.358	90.56
460.578	103.56
460.798	77.56
461.018	79.56
461.238	94.56
461.458	92.56
461.678	86.56
461.898	97.56
462.118	99.56
462.338	108.56
462.558	96.56
462.777	83.56
462.997	101.56
463.217	116.56
463.437	130.56
463.657	177.56
463.876	178.56
464.096	120.56
464.316	94.56
464.536	101.56
464.755	96.56
464.975	98.56
465.195	102.56
465.414	99.56
465.634	86.56
465.854	97.56
466.073	90.56
466.293	100.56
466.512	103.56
466.732	100.56
466.951	88.56
467.171	140.56
467.391	117.56
467.61	105.56
467.829	105.56
468.049	89.56
468.268	85.56
468.488	101.56
468.707	97.56
468.927	91.56
469.146	99.56
469.365	110.56
469.585	113.56
469.804	102.56
470.023	88.56
470.243	115.56
470.462	104.56
470.681	104.56
470.901	131.56
471.12	172.56
471.339	204.56
471.558	135.56
471.777	107.56
471.997	118.56
472.216	99.56
472.435	102.56
472.654	83.56
472.873	96.56
473.092	92.56
473.311	106.56
473.53	101.56
473.749	103.56
473.968	104.56
474.187	86.56
474.406	102.56
474.625	108.56
474.844	89.56
475.063	89.56
475.282	87.56
475.501	88.56
475.72	97.56
475.939	88.56
476.158	105.56
476.377	107.56
476.596	117.56
476.814	103.56
477.033	104.56
477.252	110.56
477.471	100.56
477.69	102.56
477.908	108.56
478.127	90.56
478.346	113.56
478.564	97.56
478.783	94.56
479.002	85.56
479.22	94.56
479.439	88.56
479.658	89.56
479.876	91.56
480.095	93.56
480.313	90.56
480.532	97.56
480.751	111.56
480.969	91.56
481.188	100.56
481.406	87.56
481.624	110.56
481.843	104.56
482.061	121.56
482.28	103.56
482.498	93.56
482.717	95.56
482.935	100.56
483.153	96.56
483.372	88.56
483.59	91.56
483.808	96.56
484.027	90.56
484.245	119.56
484.463	160.56
484.681	202.56
484.9	144.56
485.118	112.56
485.336	105.56
485.554	122.56
485.772	118.56
485.99	162.56
486.209	217.56
486.427	171.56
486.645	118.56
486.863	109.56
487.081	105.56
487.299	101.56
487.517	94.56
487.735	94.56
487.953	91.56
488.171	100.56
488.389	91.56
488.607	89.56
488.825	80.56
489.043	97.56
489.261	99.56
489.479	91.56
489.696	100.56
489.914	102.56
490.132	90.56
490.35	98.56
490.568	96.56
490.786	99.56
491.003	101.56
491.221	106.56
491.439	115.56
491.657	122.56
491.874	105.56
492.092	105.56
492.31	116.56
492.527	99.56
492.745	102.56
492.963	104.56
493.18	119.56
493.398	112.56
493.615	114.56
493.833	106.56
494.05	95.56
494.268	108.56
494.485	100.56
494.703	99.56
494.92	103.56
495.138	101.56
495.355	99.56
495.573	87.56
495.79	113.56
496.008	102.56
496.225	101.56
496.442	104.56
496.66	118.56
496.877	155.56
497.094	136.56
497.312	96.56
497.529	104.56
497.746	92.56
497.963	83.56
498.181	103.56
498.398	94.56
498.615	100.56
498.832	88.56
499.049	119.56
499.267	141.56
499.484	166.56
499.701	118.56
499.918	97.56
500.135	108.56
500.352	93.56
500.569	103.56
500.786	105.56
501.003	97.56
501.22	103.56
501.437	99.56
501.654	103.56
501.871	101.56
502.088	88.56
502.305	90.56
502.522	74.56
502.739	101.56
502.956	101.56
503.172	100.56
503.389	105.56
503.606	98.56
503.823	97.56
504.04	99.56
504.256	98.56
504.473	101.56
504.69	97.56
504.907	107.56
505.123	105.56
505.34	99.56
505.557	90.56
505.773	83.56
505.99	91.56
506.207	87.56
506.423	100.56
506.64	100.56
506.856	111.56
507.073	110.56
507.289	83.56
507.506	96.56
507.722	78.56
507.939	97.56
508.155	102.56
508.372	102.56
508.588	112.56
508.805	100.56
509.021	101.56
509.238	113.56
509.454	122.56
509.67	148.56
509.887	117.56
510.103	116.56
510.319	101.56
510.536	107.56
510.752	105.56
510.968	86.56
511.184	98.56
511.401	96.56
511.617	96.56
511.833	104.56
512.049	118.56
512.265	90.56
512.481	84.56
512.698	90.56
512.914	102.56
513.13	86.56
513.346	99.56
513.562	100.56
513.778	86.56
513.994	101.56
514.21	92.56
514.426	122.56
514.642	167.56
514.858	112.56
515.074	102.56
515.29	94.56
515.506	91.56
515.721	93.56
515.937	112.56
516.153	111.56
516.369	87.56
516.585	113.56
516.801	91.56
517.016	109.56
517.232	104.56
517.448	102.56
517.664	103.56
517.879	104.56
518.095	107.56
518.311	83.56
518.527	102.56
518.742	103.56
518.958	104.56
519.173	138.56
519.389	105.56
519.605	99.56
519.82	90.56
520.036	99.56
520.251	101.56
520.467	97.56
520.682	93.56
520.898	105.56
521.113	95.56
521.329	84.56
521.544	89.56
521.76	94.56
521.975	102.56
522.19	98.56
522.406	104.56
522.621	87.56
522.836	98.56
523.052	96.56
523.267	105.56
523.482	101.56
523.698	92.56
523.913	109.56
524.128	113.56
524.343	95.56
524.559	95.56
524.774	107.56
524.989	111.56
525.204	92.56
525.419	93.56
525.634	89.56
525.849	96.56
526.064	98.56
526.28	101.56
526.495	90.56
526.71	85.56
526.925	87.56
527.14	94.56
527.355	86.56
527.57	106.56
527.785	104.56
527.999	90.56
528.214	91.56
528.429	84.56
528.644	91.56
528.859	118.56
529.074	102.56
529.289	94.56
529.503	110.56
529.718	86.56
529.933	99.56
530.148	96.56
530.363	98.56
530.577	94.56
530.792	98.56
531.007	91.56
531.221	90.56
531.436	111.56
531.651	90.56
531.865	85.56
532.08	101.56
532.295	112.56
532.509	133.56
532.724	121.56
532.938	124.56
533.153	80.56
533.367	100.56
533.582	101.56
533.796	88.56
534.011	96.56
534.225	103.56
534.44	83.56
534.654	102.56
534.868	98.56
535.083	95.56
535.297	105.56
535.511	107.56
535.726	110.56
535.94	97.56
536.154	91.56
536.369	84.56
536.583	99.56
536.797	90.56
537.011	94.56
537.225	96.56
537.44	102.56
537.654	96.56
537.868	89.56
538.082	95.56
538.296	97.56
538.51	100.56
538.724	104.56
538.938	87.56
539.153	101.56
539.367	108.56
539.581	102.56
539.795	91.56
540.009	87.56
540.222	84.56
540.436	99.56
540.65	96.56
540.864	100.56
541.078	105.56
541.292	128.56
541.506	199.56
541.72	202.56
541.934	115.56
542.147	112.56
542.361	106.56
542.575	111.56
542.789	87.56
543.002	110.56
543.216	86.56
543.43	103.56
543.644	103.56
543.857	105.56
544.071	79.56
544.285	91.56
544.498	96.56
544.712	104.56
544.925	97.56
545.139	110.56
545.352	113.56
545.566	107.56
545.779	105.56
545.993	95.56
546.206	100.56
546.42	105.56
546.633	98.56
546.847	108.56
547.06	92.56
547.274	99.56
547.487	90.56
547.7	103.56
547.914	107.56
548.127	96.56
548.34	99.56
548.554	118.56
548.767	101.56
548.98	102.56
549.193	92.56
549.407	119.56
549.62	106.56
549.833	113.56
550.046	94.56
550.259	108.56
550.473	102.56
550.686	106.56
550.899	98.56
551.112	111.56
551.325	94.56
551.538	95.56
551.751	87.56
551.964	112.56
552.177	105.56
552.39	98.56
552.603	99.56
552.816	102.56
553.029	108.56
553.242	113.56
553.455	95.56
553.667	92.56
553.88	102.56
554.093	112.56
554.306	111.56
554.519	106.56
554.732	94.56
554.944	112.56
555.157	111.56
555.37	104.56
555.583	99.56
555.795	99.56
556.008	96.56
556.221	129.56
556.433	123.56
556.646	120.56
556.859	95.56
557.071	96.56
557.284	120.56
557.496	113.56
557.709	104.56
557.921	105.56
558.134	96.56
558.346	95.56
558.559	102.56
558.771	110.56
558.984	116.56
559.196	113.56
559.409	94.56
559.621	110.56
559.833	110.56
560.046	106.56
560.258	119.56
560.47	118.56
560.683	95.56
560.895	92.56
561.107	87.56
561.32	100.56
561.532	90.56
561.744	101.56
561.956	88.56
562.168	110.56
562.381	101.56
562.593	108.56
562.805	124.56
563.017	154.56
563.229	235.56
563.441	523.56
563.653	200.56
563.865	129.56
564.077	99.56
564.289	106.56
564.501	104.56
564.713	109.56
564.925	99.56
565.137	91.56
565.349	118.56
565.561	90.56
565.773	110.56
565.985	95.56
566.197	95.56
566.408	87.56
566.62	91.56
566.832	103.56
567.044	105.56
567.255	104.56
567.467	103.56
567.679	112.56
567.891	116.56
568.102	166.56
568.314	231.56
568.526	150.56
568.737	107.56
568.949	94.56
569.161	98.56
569.372	102.56
569.584	98.56
569.795	88.56
570.007	115.56
570.218	136.56
570.43	152.56
570.641	112.56
570.853	105.56
571.064	90.56
571.276	92.56
571.487	82.56
571.698	87.56
571.91	97.56
572.121	86.56
572.333	82.56
572.544	101.56
572.755	135.56
572.966	194.56
573.178	128.56
573.389	117.56
573.6	95.56
573.811	89.56
574.023	100.56
574.234	94.56
574.445	99.56
574.656	102.56
574.867	96.56
575.078	99.56
575.289	92.56
575.501	104.56
575.712	91.56
575.923	112.56
576.134	98.56
576.345	101.56
576.556	96.56
576.767	109.56
576.978	87.56
577.188	100.56
577.399	89.56
577.61	103.56
577.821	78.56
578.032	114.56
578.243	93.56
578.454	103.56
578.665	93.56
578.875	94.56
579.086	107.56
579.297	92.56
579.508	81.56
579.718	100.56
579.929	95.56
580.14	86.56
580.35	90.56
580.561	99.56
580.772	97.56
580.982	116.56
581.193	107.56
581.403	94.56
581.614	90.56
581.825	95.56
582.035	101.56
582.246	100.56
582.456	83.56
582.667	100.56
582.877	110.56
583.087	103.56
583.298	90.56
583.508	98.56
583.719	94.56
583.929	83.56
584.139	93.56
584.35	100.56
584.56	95.56
584.77	84.56
584.981	82.56
585.191	96.56
585.401	92.56
585.611	81.56
585.821	73.56
586.032	89.56
586.242	84.56
586.452	90.56
586.662	105.56
586.872	90.56
587.082	119.56
587.292	84.56
587.502	76.56
587.713	92.56
587.923	97.56
588.133	91.56
588.343	91.56
588.553	93.56
588.762	91.56
588.972	96.56
589.182	113.56
589.392	112.56
589.602	85.56
589.812	108.56
590.022	101.56
590.232	87.56
590.441	86.56
590.651	83.56
590.861	73.56
591.071	95.56
591.281	83.56
591.49	94.56
591.7	102.56
591.91	97.56
592.119	94.56
592.329	103.56
592.539	98.56
592.748	93.56
592.958	90.56
593.167	88.56
593.377	103.56
593.587	102.56
593.796	86.56
594.006	95.56
594.215	98.56
594.424	89.56
594.634	74.56
594.843	75.56
595.053	86.56
595.262	72.56
595.472	92.56
595.681	96.56
595.89	87.56
596.1	87.56
596.309	95.56
596.518	83.56
596.727	88.56
596.937	85.56
597.146	102.56
597.355	92.56
597.564	92.56
597.774	93.56
597.983	101.56
598.192	91.56
598.401	94.56
598.61	99.56
598.819	96.56
599.028	103.56
599.237	73.56
599.446	96.56
599.655	88.56
599.864	91.56
600.073	84.56
600.282	89.56
600.491	97.56
600.7	86.56
600.909	103.56
601.118	95.56
601.327	96.56
601.536	98.56
601.745	97.56
601.953	121.56
602.162	148.56
602.371	107.56
602.58	116.56
602.789	90.56
602.997	108.56
603.206	97.56
603.415	103.56
603.623	92.56
603.832	99.56
604.041	100.56
604.249	103.56
604.458	107.56
604.666	99.56
604.875	86.56
605.084	103.56
605.292	97.56
605.501	92.56
605.709	96.56
605.918	99.56
606.126	99.56
606.334	103.56
606.543	103.56
606.751	123.56
606.96	149.56
607.168	176.56
607.376	118.56
607.585	106.56
607.793	96.56
608.001	100.56
608.21	97.56
608.418	108.56
608.626	91.56
608.834	86.56
609.043	88.56
609.251	89.56
609.459	98.56
609.667	91.56
609.875	93.56
610.083	84.56
610.291	101.56
610.499	106.56
610.707	75.56
610.916	84.56
611.124	82.56
611.332	96.56
611.54	84.56
611.748	83.56
611.955	87.56
612.163	91.56
612.371	98.56
612.579	99.56
612.787	91.56
612.995	95.56
613.203	99.56
613.411	92.56
613.618	93.56
613.826	87.56
614.034	90.56
614.242	73.56
614.449	101.56
614.657	106.56
614.865	95.56
615.072	110.56
615.28	108.56
615.488	122.56
615.695	116.56
615.903	90.56
616.111	98.56
616.318	117.56
616.526	92.56
616.733	105.56
616.941	87.56
617.148	94.56
617.356	97.56
617.563	105.56
617.771	96.56
617.978	91.56
618.185	98.56
618.393	93.56
618.6	89.56
618.807	84.56
619.015	98.56
619.222	88.56
619.429	85.56
619.637	100.56
619.844	88.56
620.051	88.56
620.258	86.56
620.466	94.56
620.673	91.56
620.88	83.56
621.087	85.56
621.294	84.56
621.501	98.56
621.708	83.56
621.915	81.56
622.122	74.56
622.329	75.56
622.536	86.56
622.743	92.56
622.95	90.56
623.157	100.56
623.364	83.56
623.571	85.56
623.778	97.56
623.985	87.56
624.192	85.56
624.399	82.56
624.606	94.56
624.812	87.56
625.019	104.56
625.226	100.56
625.433	93.56
625.639	77.56
625.846	79.56
626.053	96.56
626.259	79.56
626.466	80.56
626.673	86.56
626.879	100.56
627.086	102.56
627.293	100.56
627.499	94.56
627.706	93.56
627.912	83.56
628.119	90.56
628.325	97.56
628.532	87.56
628.738	99.56
628.945	99.56
629.151	84.56
629.357	97.56
629.564	79.56
629.77	94.56
629.976	92.56
630.183	90.56
630.389	80.56
630.595	89.56
630.802	94.56
631.008	83.56
631.214	86.56
631.42	100.56
631.627	82.56
631.833	78.56
632.039	88.56
632.245	83.56
632.451	90.56
632.657	90.56
632.863	90.56
633.069	73.56
633.275	100.56
633.481	80.56
633.688	81.56
633.893	78.56
634.099	89.56
634.305	88.56
634.511	83.56
634.717	86.56
634.923	92.56
635.129	105.56
635.335	123.56
635.541	98.56
635.747	95.56
635.952	99.56
636.158	86.56
636.364	93.56
636.57	85.56
636.775	101.56
636.981	82.56
637.187	88.56
637.392	92.56
637.598	84.56
637.804	95.56
638.009	94.56
638.215	104.56
638.421	87.56
638.626	88.56
638.832	87.56
639.037	81.56
639.243	88.56
639.448	104.56
639.654	91.56
639.859	100.56
640.065	87.56
640.27	94.56
640.475	90.56
640.681	83.56
640.886	79.56
641.091	86.56
641.297	88.56
641.502	92.56
641.707	77.56
641.913	87.56
642.118	73.56
642.323	94.56
642.528	98.56
642.733	94.56
642.939	87.56
643.144	88.56
643.349	108.56
643.554	84.56
643.759	87.56
643.964	90.56
644.169	98.56
644.374	86.56
644.579	88.56
644.784	98.56
644.989	91.56
645.194	85.56
645.399	97.56
645.604	96.56
645.809	105.56
646.014	88.56
646.219	93.56
646.423	98.56
646.628	96.56
646.833	81.56
647.038	71.56
647.243	83.56
647.447	79.56
647.652	84.56
647.857	76.56
648.062	87.56
648.266	91.56
648.471	91.56
648.676	84.56
648.88	90.56
649.085	73.56
649.289	82.56
649.494	79.56
649.698	83.56
649.903	87.56
650.107	89.56
650.312	85.56
650.516	91.56
650.721	89.56
650.925	81.56
651.13	80.56
651.334	84.56
651.539	86.56
651.743	73.56
651.947	86.56
652.152	98.56
652.356	92.56
652.56	85.56
652.764	112.56
652.969	100.56
653.173	97.56
653.377	91.56
653.581	73.56
653.785	95.56
653.99	85.56
654.194	90.56
654.398	70.56
654.602	87.56
654.806	73.56
655.01	85.56
655.214	76.56
655.418	87.56
655.622	84.56
655.826	83.56
656.03	74.56
656.234	87.56
656.438	80.56
656.642	77.56
656.846	95.56
657.049	96.56
657.253	81.56
657.457	83.56
657.661	76.56
657.865	88.56
658.068	97.56
658.272	81.56
658.476	89.56
658.68	92.56
658.883	67.56
659.087	75.56
659.291	80.56
659.494	70.56
659.698	96.56
659.901	87.56
660.105	72.56
660.309	82.56
660.512	83.56
660.716	89.56
660.919	76.56
661.123	87.56
661.326	88.56
661.53	78.56
661.733	80.56
661.936	100.56
662.14	75.56
662.343	72.56
662.546	68.56
662.75	82.56
662.953	75.56
663.156	98.56
663.36	71.56
663.563	90.56
663.766	77.56
663.969	87.56
664.173	70.56
664.376	87.56
664.579	90.56
664.782	86.56
664.985	85.56
665.188	78.56
665.391	81.56
665.594	76.56
665.797	61.56
666	75.56
666.203	79.56
666.406	80.56
666.609	81.56
666.812	96.56
667.015	83.56
667.218	99.56
667.421	83.56
667.624	90.56
667.827	72.56
668.03	74.56
668.232	90.56
668.435	85.56
668.638	83.56
668.841	82.56
669.043	84.56
669.246	86.56
669.449	76.56
669.651	70.56
669.854	86.56
670.057	79.56
670.259	85.56
670.462	98.56
670.665	70.56
670.867	77.56
671.07	79.56
671.272	90.56
671.475	85.56
671.677	86.56
671.88	86.56
672.082	80.56
672.284	83.56
672.487	90.56
672.689	84.56
672.892	77.56
