Data from StandardFe(NO3)3.TAE.3%Agarose.FlatLispGreen.Lamp.Energy10.07252019_HRD10591_11-54-13-439.txt Node
Date: Thu Jul 25 11:54:13 EDT 2019
User: cochatt
Spectrometer: HR+D1059
Trigger mode: 1
Integration Time (sec): 1.000000E-1
Scans to average: 1
Electric dark correction enabled: true
Nonlinearity correction enabled: false
Boxcar width: 0
XAxis mode: Wavelengths
Number of Pixels in Spectrum: 2048
>>>>>Begin Spectral Data<<<<<
223.165	-15.38
223.4	-15.38
223.635	-15.38
223.869	-18.38
224.104	-21.38
224.338	-17.38
224.573	-9.38
224.808	-16.38
225.042	-10.38
225.277	-3.38
225.511	-19.38
225.746	16.62
225.98	8.62
226.215	18.62
226.449	25.62
226.683	13.62
226.918	21.62
227.152	26.62
227.387	35.62
227.621	40.62
227.856	52.62
228.09	44.62
228.324	65.62
228.559	61.62
228.793	62.62
229.027	63.62
229.262	50.62
229.496	50.62
229.73	66.62
229.964	72.62
230.199	77.62
230.433	80.62
230.667	74.62
230.901	74.62
231.136	81.62
231.37	80.62
231.604	84.62
231.838	79.62
232.072	82.62
232.306	76.62
232.541	67.62
232.775	90.62
233.009	86.62
233.243	78.62
233.477	77.62
233.711	86.62
233.945	79.62
234.179	84.62
234.413	80.62
234.647	68.62
234.881	86.62
235.115	70.62
235.349	85.62
235.583	100.62
235.817	84.62
236.051	81.62
236.285	82.62
236.519	87.62
236.753	80.62
236.987	81.62
237.221	81.62
237.455	74.62
237.689	82.62
237.922	97.62
238.156	71.62
238.39	79.62
238.624	88.62
238.858	88.62
239.091	90.62
239.325	79.62
239.559	75.62
239.793	87.62
240.027	79.62
240.26	79.62
240.494	84.62
240.728	78.62
240.961	77.62
241.195	81.62
241.429	71.62
241.662	85.62
241.896	77.62
242.13	69.62
242.363	80.62
242.597	91.62
242.83	80.62
243.064	70.62
243.298	80.62
243.531	82.62
243.765	89.62
243.998	82.62
244.232	87.62
244.465	90.62
244.699	81.62
244.932	79.62
245.166	72.62
245.399	86.62
245.633	77.62
245.866	79.62
246.099	86.62
246.333	81.62
246.566	84.62
246.8	84.62
247.033	94.62
247.266	69.62
247.5	79.62
247.733	86.62
247.966	74.62
248.2	87.62
248.433	88.62
248.666	88.62
248.899	80.62
249.133	88.62
249.366	86.62
249.599	85.62
249.832	77.62
250.066	83.62
250.299	78.62
250.532	102.62
250.765	91.62
250.998	86.62
251.231	82.62
251.465	78.62
251.698	79.62
251.931	92.62
252.164	95.62
252.397	89.62
252.63	73.62
252.863	73.62
253.096	71.62
253.329	72.62
253.562	68.62
253.795	87.62
254.028	79.62
254.261	67.62
254.494	80.62
254.727	82.62
254.96	82.62
255.193	84.62
255.426	71.62
255.659	69.62
255.892	95.62
256.124	86.62
256.357	91.62
256.59	74.62
256.823	93.62
257.056	84.62
257.289	91.62
257.521	96.62
257.754	79.62
257.987	89.62
258.22	91.62
258.452	87.62
258.685	82.62
258.918	82.62
259.151	89.62
259.383	72.62
259.616	91.62
259.849	87.62
260.081	84.62
260.314	74.62
260.547	89.62
260.779	87.62
261.012	85.62
261.244	81.62
261.477	94.62
261.71	85.62
261.942	80.62
262.175	72.62
262.407	85.62
262.64	86.62
262.872	79.62
263.105	92.62
263.337	93.62
263.57	90.62
263.802	88.62
264.035	82.62
264.267	86.62
264.499	89.62
264.732	91.62
264.964	88.62
265.197	78.62
265.429	82.62
265.661	86.62
265.894	82.62
266.126	107.62
266.358	92.62
266.591	81.62
266.823	84.62
267.055	88.62
267.287	76.62
267.52	80.62
267.752	83.62
267.984	92.62
268.216	90.62
268.448	82.62
268.681	80.62
268.913	78.62
269.145	93.62
269.377	86.62
269.609	94.62
269.841	88.62
270.073	89.62
270.306	74.62
270.538	89.62
270.77	88.62
271.002	70.62
271.234	72.62
271.466	90.62
271.698	80.62
271.93	77.62
272.162	88.62
272.394	90.62
272.626	78.62
272.858	92.62
273.09	87.62
273.322	96.62
273.553	91.62
273.785	85.62
274.017	80.62
274.249	85.62
274.481	82.62
274.713	82.62
274.945	101.62
275.176	81.62
275.408	90.62
275.64	86.62
275.872	77.62
276.104	90.62
276.335	83.62
276.567	85.62
276.799	74.62
277.031	82.62
277.262	88.62
277.494	102.62
277.726	94.62
277.957	90.62
278.189	100.62
278.421	95.62
278.652	99.62
278.884	91.62
279.115	84.62
279.347	85.62
279.579	91.62
279.81	80.62
280.042	75.62
280.273	83.62
280.505	90.62
280.736	75.62
280.968	94.62
281.199	92.62
281.431	88.62
281.662	98.62
281.894	96.62
282.125	97.62
282.356	91.62
282.588	86.62
282.819	87.62
283.051	98.62
283.282	87.62
283.513	89.62
283.745	77.62
283.976	94.62
284.207	89.62
284.439	86.62
284.67	103.62
284.901	82.62
285.132	84.62
285.364	79.62
285.595	100.62
285.826	96.62
286.057	82.62
286.288	104.62
286.52	92.62
286.751	102.62
286.982	94.62
287.213	88.62
287.444	94.62
287.675	80.62
287.906	84.62
288.138	71.62
288.369	103.62
288.6	95.62
288.831	93.62
289.062	100.62
289.293	84.62
289.524	90.62
289.755	82.62
289.986	94.62
290.217	88.62
290.448	90.62
290.679	76.62
290.91	86.62
291.141	93.62
291.371	81.62
291.602	81.62
291.833	90.62
292.064	86.62
292.295	84.62
292.526	88.62
292.757	85.62
292.987	78.62
293.218	106.62
293.449	92.62
293.68	83.62
293.91	77.62
294.141	98.62
294.372	82.62
294.603	94.62
294.833	93.62
295.064	99.62
295.295	90.62
295.525	85.62
295.756	98.62
295.987	82.62
296.217	84.62
296.448	90.62
296.679	102.62
296.909	94.62
297.14	77.62
297.37	95.62
297.601	86.62
297.831	87.62
298.062	87.62
298.292	95.62
298.523	90.62
298.753	96.62
298.984	104.62
299.214	83.62
299.445	92.62
299.675	91.62
299.905	100.62
300.136	76.62
300.366	100.62
300.597	93.62
300.827	89.62
301.057	71.62
301.288	81.62
301.518	86.62
301.748	98.62
301.979	82.62
302.209	97.62
302.439	91.62
302.669	85.62
302.9	100.62
303.13	90.62
303.36	87.62
303.59	89.62
303.82	108.62
304.051	81.62
304.281	99.62
304.511	87.62
304.741	71.62
304.971	90.62
305.201	88.62
305.431	90.62
305.661	92.62
305.891	83.62
306.121	86.62
306.352	96.62
306.582	95.62
306.812	92.62
307.042	85.62
307.272	92.62
307.502	84.62
307.731	97.62
307.961	106.62
308.191	101.62
308.421	97.62
308.651	91.62
308.881	82.62
309.111	99.62
309.341	87.62
309.571	74.62
309.8	81.62
310.03	82.62
310.26	83.62
310.49	92.62
310.72	98.62
310.949	86.62
311.179	96.62
311.409	90.62
311.639	88.62
311.868	81.62
312.098	97.62
312.328	97.62
312.557	82.62
312.787	100.62
313.017	105.62
313.246	81.62
313.476	97.62
313.706	93.62
313.935	92.62
314.165	92.62
314.394	98.62
314.624	97.62
314.853	85.62
315.083	82.62
315.312	84.62
315.542	90.62
315.771	96.62
316.001	79.62
316.23	65.62
316.46	83.62
316.689	88.62
316.919	93.62
317.148	85.62
317.377	92.62
317.607	80.62
317.836	89.62
318.065	102.62
318.295	100.62
318.524	88.62
318.753	75.62
318.983	71.62
319.212	79.62
319.441	90.62
319.67	107.62
319.9	105.62
320.129	86.62
320.358	81.62
320.587	77.62
320.816	77.62
321.046	71.62
321.275	97.62
321.504	90.62
321.733	87.62
321.962	115.62
322.191	88.62
322.42	91.62
322.649	84.62
322.878	80.62
323.108	89.62
323.337	87.62
323.566	105.62
323.795	85.62
324.024	105.62
324.253	92.62
324.482	90.62
324.71	99.62
324.939	87.62
325.168	97.62
325.397	91.62
325.626	79.62
325.855	90.62
326.084	76.62
326.313	89.62
326.542	90.62
326.77	106.62
326.999	89.62
327.228	93.62
327.457	92.62
327.686	97.62
327.914	95.62
328.143	87.62
328.372	89.62
328.6	87.62
328.829	96.62
329.058	98.62
329.287	92.62
329.515	95.62
329.744	96.62
329.972	101.62
330.201	102.62
330.43	111.62
330.658	103.62
330.887	94.62
331.115	97.62
331.344	80.62
331.572	86.62
331.801	98.62
332.03	87.62
332.258	96.62
332.486	79.62
332.715	100.62
332.943	94.62
333.172	81.62
333.4	92.62
333.629	94.62
333.857	88.62
334.085	93.62
334.314	90.62
334.542	93.62
334.771	87.62
334.999	97.62
335.227	86.62
335.455	96.62
335.684	92.62
335.912	95.62
336.14	99.62
336.369	98.62
336.597	86.62
336.825	90.62
337.053	87.62
337.281	90.62
337.51	85.62
337.738	88.62
337.966	102.62
338.194	104.62
338.422	86.62
338.65	92.62
338.878	94.62
339.106	95.62
339.334	109.62
339.562	77.62
339.79	100.62
340.018	87.62
340.246	94.62
340.474	88.62
340.702	95.62
340.93	96.62
341.158	95.62
341.386	97.62
341.614	88.62
341.842	103.62
342.07	87.62
342.298	101.62
342.526	99.62
342.754	92.62
342.981	77.62
343.209	85.62
343.437	101.62
343.665	92.62
343.893	98.62
344.12	104.62
344.348	99.62
344.576	100.62
344.804	100.62
345.031	97.62
345.259	90.62
345.487	76.62
345.714	97.62
345.942	102.62
346.17	89.62
346.397	97.62
346.625	101.62
346.853	90.62
347.08	87.62
347.308	90.62
347.535	83.62
347.763	89.62
347.99	94.62
348.218	99.62
348.445	99.62
348.673	92.62
348.9	74.62
349.128	85.62
349.355	100.62
349.583	87.62
349.81	93.62
350.037	99.62
350.265	102.62
350.492	95.62
350.72	96.62
350.947	101.62
351.174	95.62
351.402	87.62
351.629	96.62
351.856	96.62
352.083	89.62
352.311	91.62
352.538	95.62
352.765	90.62
352.992	81.62
353.22	92.62
353.447	89.62
353.674	86.62
353.901	81.62
354.128	95.62
354.355	96.62
354.583	77.62
354.81	81.62
355.037	90.62
355.264	91.62
355.491	100.62
355.718	92.62
355.945	99.62
356.172	95.62
356.399	84.62
356.626	90.62
356.853	89.62
357.08	110.62
357.307	86.62
357.534	108.62
357.761	82.62
357.988	86.62
358.215	98.62
358.441	88.62
358.668	85.62
358.895	78.62
359.122	88.62
359.349	88.62
359.576	88.62
359.802	86.62
360.029	70.62
360.256	93.62
360.483	100.62
360.709	96.62
360.936	91.62
361.163	86.62
361.39	103.62
361.616	88.62
361.843	74.62
362.07	81.62
362.296	97.62
362.523	89.62
362.749	80.62
362.976	92.62
363.203	95.62
363.429	86.62
363.656	101.62
363.882	96.62
364.109	113.62
364.335	98.62
364.562	96.62
364.788	97.62
365.015	89.62
365.241	84.62
365.468	75.62
365.694	86.62
365.92	87.62
366.147	87.62
366.373	74.62
366.599	94.62
366.826	83.62
367.052	93.62
367.278	90.62
367.505	90.62
367.731	97.62
367.957	92.62
368.184	81.62
368.41	91.62
368.636	92.62
368.862	96.62
369.089	90.62
369.315	90.62
369.541	100.62
369.767	96.62
369.993	90.62
370.219	97.62
370.445	93.62
370.672	102.62
370.898	96.62
371.124	90.62
371.35	86.62
371.576	94.62
371.802	88.62
372.028	88.62
372.254	90.62
372.48	98.62
372.706	96.62
372.932	99.62
373.158	101.62
373.384	94.62
373.61	81.62
373.835	81.62
374.061	93.62
374.287	106.62
374.513	90.62
374.739	97.62
374.965	88.62
375.191	97.62
375.416	95.62
375.642	101.62
375.868	90.62
376.094	94.62
376.319	94.62
376.545	106.62
376.771	108.62
376.997	95.62
377.222	96.62
377.448	90.62
377.674	90.62
377.899	95.62
378.125	98.62
378.35	94.62
378.576	90.62
378.802	95.62
379.027	92.62
379.253	100.62
379.478	86.62
379.704	93.62
379.929	100.62
380.155	79.62
380.38	98.62
380.606	99.62
380.831	95.62
381.057	100.62
381.282	82.62
381.507	94.62
381.733	92.62
381.958	104.62
382.184	87.62
382.409	86.62
382.634	103.62
382.86	100.62
383.085	101.62
383.31	101.62
383.535	101.62
383.761	90.62
383.986	109.62
384.211	96.62
384.436	102.62
384.662	105.62
384.887	82.62
385.112	95.62
385.337	87.62
385.562	101.62
385.787	94.62
386.013	96.62
386.238	98.62
386.463	95.62
386.688	104.62
386.913	103.62
387.138	95.62
387.363	108.62
387.588	108.62
387.813	101.62
388.038	98.62
388.263	117.62
388.488	94.62
388.713	95.62
388.938	93.62
389.163	104.62
389.387	96.62
389.612	98.62
389.837	95.62
390.062	109.62
390.287	104.62
390.512	105.62
390.736	101.62
390.961	86.62
391.186	96.62
391.411	98.62
391.636	100.62
391.86	94.62
392.085	109.62
392.31	113.62
392.534	107.62
392.759	105.62
392.984	101.62
393.208	104.62
393.433	94.62
393.658	104.62
393.882	97.62
394.107	111.62
394.331	109.62
394.556	110.62
394.78	111.62
395.005	102.62
395.229	91.62
395.454	100.62
395.678	105.62
395.903	99.62
396.127	100.62
396.352	94.62
396.576	100.62
396.801	107.62
397.025	101.62
397.249	112.62
397.474	104.62
397.698	107.62
397.922	120.62
398.147	100.62
398.371	98.62
398.595	116.62
398.82	114.62
399.044	111.62
399.268	117.62
399.492	117.62
399.717	114.62
399.941	118.62
400.165	112.62
400.389	123.62
400.613	114.62
400.837	104.62
401.062	112.62
401.286	98.62
401.51	106.62
401.734	106.62
401.958	106.62
402.182	119.62
402.406	114.62
402.63	107.62
402.854	120.62
403.078	126.62
403.302	112.62
403.526	104.62
403.75	112.62
403.974	115.62
404.198	114.62
404.422	124.62
404.645	128.62
404.869	125.62
405.093	129.62
405.317	131.62
405.541	122.62
405.765	112.62
405.988	107.62
406.212	116.62
406.436	92.62
406.66	133.62
406.883	113.62
407.107	113.62
407.331	114.62
407.555	112.62
407.778	132.62
408.002	117.62
408.226	113.62
408.449	124.62
408.673	112.62
408.896	125.62
409.12	128.62
409.344	119.62
409.567	112.62
409.791	126.62
410.014	116.62
410.238	112.62
410.461	113.62
410.685	131.62
410.908	120.62
411.132	107.62
411.355	112.62
411.578	123.62
411.802	122.62
412.025	116.62
412.249	117.62
412.472	135.62
412.695	107.62
412.919	109.62
413.142	103.62
413.365	123.62
413.589	106.62
413.812	102.62
414.035	117.62
414.258	126.62
414.482	121.62
414.705	116.62
414.928	132.62
415.151	136.62
415.374	126.62
415.597	129.62
415.821	121.62
416.044	111.62
416.267	118.62
416.49	104.62
416.713	117.62
416.936	111.62
417.159	122.62
417.382	117.62
417.605	118.62
417.828	122.62
418.051	105.62
418.274	116.62
418.497	124.62
418.72	105.62
418.943	114.62
419.166	111.62
419.389	120.62
419.611	124.62
419.834	119.62
420.057	118.62
420.28	106.62
420.503	118.62
420.726	103.62
420.948	116.62
421.171	126.62
421.394	128.62
421.617	118.62
421.839	132.62
422.062	110.62
422.285	134.62
422.507	109.62
422.73	112.62
422.953	106.62
423.175	112.62
423.398	121.62
423.621	128.62
423.843	130.62
424.066	124.62
424.288	123.62
424.511	129.62
424.733	119.62
424.956	127.62
425.178	115.62
425.401	121.62
425.623	122.62
425.846	124.62
426.068	116.62
426.291	126.62
426.513	102.62
426.735	117.62
426.958	126.62
427.18	119.62
427.402	136.62
427.625	129.62
427.847	123.62
428.069	118.62
428.292	128.62
428.514	114.62
428.736	135.62
428.958	114.62
429.181	112.62
429.403	110.62
429.625	126.62
429.847	126.62
430.069	117.62
430.292	114.62
430.514	124.62
430.736	122.62
430.958	115.62
431.18	126.62
431.402	121.62
431.624	121.62
431.846	109.62
432.068	97.62
432.29	103.62
432.512	111.62
432.734	113.62
432.956	120.62
433.178	113.62
433.4	140.62
433.622	126.62
433.844	131.62
434.066	128.62
434.287	92.62
434.509	122.62
434.731	118.62
434.953	124.62
435.175	115.62
435.397	124.62
435.618	112.62
435.84	104.62
436.062	105.62
436.284	113.62
436.505	131.62
436.727	130.62
436.949	124.62
437.17	122.62
437.392	128.62
437.614	102.62
437.835	95.62
438.057	122.62
438.278	117.62
438.5	125.62
438.721	113.62
438.943	118.62
439.165	115.62
439.386	126.62
439.608	124.62
439.829	136.62
440.05	129.62
440.272	124.62
440.493	113.62
440.715	132.62
440.936	115.62
441.158	136.62
441.379	127.62
441.6	131.62
441.822	138.62
442.043	125.62
442.264	127.62
442.486	127.62
442.707	145.62
442.928	131.62
443.149	124.62
443.371	128.62
443.592	118.62
443.813	127.62
444.034	125.62
444.255	135.62
444.476	132.62
444.698	132.62
444.919	112.62
445.14	253.62
445.361	164.62
445.582	134.62
445.803	134.62
446.024	134.62
446.245	130.62
446.466	130.62
446.687	133.62
446.908	136.62
447.129	136.62
447.35	118.62
447.571	137.62
447.792	135.62
448.013	126.62
448.234	124.62
448.455	130.62
448.675	111.62
448.896	124.62
449.117	120.62
449.338	122.62
449.559	119.62
449.779	120.62
450	106.62
450.221	126.62
450.442	127.62
450.662	126.62
450.883	136.62
451.104	126.62
451.324	105.62
451.545	129.62
451.766	106.62
451.986	120.62
452.207	128.62
452.428	121.62
452.648	108.62
452.869	119.62
453.089	116.62
453.31	120.62
453.53	107.62
453.751	104.62
453.971	120.62
454.192	108.62
454.412	114.62
454.633	125.62
454.853	111.62
455.073	111.62
455.294	111.62
455.514	116.62
455.734	113.62
455.955	128.62
456.175	126.62
456.395	113.62
456.616	113.62
456.836	107.62
457.056	121.62
457.276	102.62
457.497	106.62
457.717	108.62
457.937	107.62
458.157	111.62
458.377	108.62
458.598	113.62
458.818	122.62
459.038	112.62
459.258	104.62
459.478	93.62
459.698	119.62
459.918	103.62
460.138	108.62
460.358	130.62
460.578	116.62
460.798	124.62
461.018	103.62
461.238	116.62
461.458	118.62
461.678	129.62
461.898	126.62
462.118	134.62
462.338	130.62
462.558	102.62
462.777	124.62
462.997	127.62
463.217	136.62
463.437	125.62
463.657	140.62
463.876	118.62
464.096	132.62
464.316	123.62
464.536	142.62
464.755	116.62
464.975	112.62
465.195	126.62
465.414	113.62
465.634	118.62
465.854	138.62
466.073	128.62
466.293	117.62
466.512	132.62
466.732	123.62
466.951	139.62
467.171	126.62
467.391	124.62
467.61	136.62
467.829	123.62
468.049	110.62
468.268	129.62
468.488	129.62
468.707	118.62
468.927	125.62
469.146	111.62
469.365	129.62
469.585	113.62
469.804	124.62
470.023	134.62
470.243	125.62
470.462	140.62
470.681	123.62
470.901	152.62
471.12	130.62
471.339	130.62
471.558	118.62
471.777	120.62
471.997	128.62
472.216	125.62
472.435	120.62
472.654	114.62
472.873	114.62
473.092	118.62
473.311	124.62
473.53	143.62
473.749	108.62
473.968	126.62
474.187	111.62
474.406	110.62
474.625	109.62
474.844	120.62
475.063	130.62
475.282	118.62
475.501	114.62
475.72	128.62
475.939	117.62
476.158	118.62
476.377	116.62
476.596	121.62
476.814	122.62
477.033	105.62
477.252	119.62
477.471	126.62
477.69	119.62
477.908	127.62
478.127	137.62
478.346	118.62
478.564	117.62
478.783	131.62
479.002	132.62
479.22	134.62
479.439	116.62
479.658	129.62
479.876	127.62
480.095	137.62
480.313	128.62
480.532	145.62
480.751	131.62
480.969	124.62
481.188	101.62
481.406	130.62
481.624	113.62
481.843	128.62
482.061	106.62
482.28	134.62
482.498	117.62
482.717	128.62
482.935	131.62
483.153	150.62
483.372	138.62
483.59	146.62
483.808	145.62
484.027	135.62
484.245	126.62
484.463	142.62
484.681	146.62
484.9	140.62
485.118	144.62
485.336	129.62
485.554	116.62
485.772	124.62
485.99	118.62
486.209	131.62
486.427	126.62
486.645	140.62
486.863	130.62
487.081	132.62
487.299	147.62
487.517	136.62
487.735	160.62
487.953	140.62
488.171	144.62
488.389	133.62
488.607	144.62
488.825	136.62
489.043	132.62
489.261	116.62
489.479	134.62
489.696	139.62
489.914	128.62
490.132	153.62
490.35	138.62
490.568	170.62
490.786	138.62
491.003	149.62
491.221	143.62
491.439	160.62
491.657	165.62
491.874	172.62
492.092	175.62
492.31	172.62
492.527	172.62
492.745	180.62
492.963	158.62
493.18	141.62
493.398	147.62
493.615	152.62
493.833	160.62
494.05	147.62
494.268	152.62
494.485	159.62
494.703	156.62
494.92	146.62
495.138	161.62
495.355	150.62
495.573	129.62
495.79	141.62
496.008	170.62
496.225	163.62
496.442	154.62
496.66	151.62
496.877	138.62
497.094	157.62
497.312	145.62
497.529	155.62
497.746	141.62
497.963	144.62
498.181	142.62
498.398	142.62
498.615	146.62
498.832	142.62
499.049	160.62
499.267	161.62
499.484	173.62
499.701	172.62
499.918	204.62
500.135	216.62
500.352	232.62
500.569	238.62
500.786	248.62
501.003	215.62
501.22	202.62
501.437	193.62
501.654	182.62
501.871	183.62
502.088	174.62
502.305	174.62
502.522	159.62
502.739	145.62
502.956	151.62
503.172	138.62
503.389	155.62
503.606	132.62
503.823	146.62
504.04	141.62
504.256	138.62
504.473	140.62
504.69	136.62
504.907	144.62
505.123	149.62
505.34	139.62
505.557	122.62
505.773	146.62
505.99	138.62
506.207	131.62
506.423	137.62
506.64	119.62
506.856	129.62
507.073	139.62
507.289	136.62
507.506	120.62
507.722	130.62
507.939	132.62
508.155	116.62
508.372	125.62
508.588	127.62
508.805	126.62
509.021	124.62
509.238	124.62
509.454	113.62
509.67	127.62
509.887	128.62
510.103	111.62
510.319	128.62
510.536	115.62
510.752	124.62
510.968	129.62
511.184	118.62
511.401	109.62
511.617	112.62
511.833	115.62
512.049	116.62
512.265	116.62
512.481	124.62
512.698	124.62
512.914	131.62
513.13	121.62
513.346	124.62
513.562	118.62
513.778	114.62
513.994	109.62
514.21	109.62
514.426	107.62
514.642	110.62
514.858	106.62
515.074	104.62
515.29	122.62
515.506	122.62
515.721	133.62
515.937	121.62
516.153	120.62
516.369	125.62
516.585	134.62
516.801	127.62
517.016	132.62
517.232	132.62
517.448	136.62
517.664	129.62
517.879	128.62
518.095	127.62
518.311	124.62
518.527	136.62
518.742	140.62
518.958	127.62
519.173	140.62
519.389	132.62
519.605	125.62
519.82	140.62
520.036	129.62
520.251	139.62
520.467	133.62
520.682	119.62
520.898	116.62
521.113	117.62
521.329	133.62
521.544	122.62
521.76	126.62
521.975	122.62
522.19	118.62
522.406	125.62
522.621	126.62
522.836	131.62
523.052	141.62
523.267	113.62
523.482	108.62
523.698	122.62
523.913	136.62
524.128	130.62
524.343	123.62
524.559	132.62
524.774	128.62
524.989	129.62
525.204	116.62
525.419	128.62
525.634	120.62
525.849	125.62
526.064	125.62
526.28	116.62
526.495	122.62
526.71	117.62
526.925	127.62
527.14	110.62
527.355	113.62
527.57	117.62
527.785	122.62
527.999	121.62
528.214	108.62
528.429	122.62
528.644	105.62
528.859	124.62
529.074	130.62
529.289	145.62
529.503	129.62
529.718	131.62
529.933	140.62
530.148	119.62
530.363	120.62
530.577	123.62
530.792	122.62
531.007	128.62
531.221	122.62
531.436	119.62
531.651	124.62
531.865	123.62
532.08	109.62
532.295	128.62
532.509	107.62
532.724	104.62
532.938	108.62
533.153	124.62
533.367	118.62
533.582	130.62
533.796	121.62
534.011	132.62
534.225	114.62
534.44	109.62
534.654	130.62
534.868	116.62
535.083	112.62
535.297	110.62
535.511	138.62
535.726	124.62
535.94	108.62
536.154	113.62
536.369	120.62
536.583	112.62
536.797	116.62
537.011	110.62
537.225	121.62
537.44	134.62
537.654	126.62
537.868	96.62
538.082	114.62
538.296	109.62
538.51	101.62
538.724	115.62
538.938	123.62
539.153	118.62
539.367	116.62
539.581	112.62
539.795	116.62
540.009	124.62
540.222	131.62
540.436	120.62
540.65	123.62
540.864	130.62
541.078	122.62
541.292	137.62
541.506	145.62
541.72	142.62
541.934	145.62
542.147	135.62
542.361	134.62
542.575	156.62
542.789	130.62
543.002	136.62
543.216	124.62
543.43	118.62
543.644	127.62
543.857	129.62
544.071	132.62
544.285	136.62
544.498	137.62
544.712	145.62
544.925	137.62
545.139	135.62
545.352	150.62
545.566	132.62
545.779	142.62
545.993	150.62
546.206	138.62
546.42	146.62
546.633	138.62
546.847	141.62
547.06	137.62
547.274	147.62
547.487	146.62
547.7	146.62
547.914	144.62
548.127	146.62
548.34	139.62
548.554	136.62
548.767	141.62
548.98	138.62
549.193	144.62
549.407	144.62
549.62	138.62
549.833	145.62
550.046	152.62
550.259	132.62
550.473	116.62
550.686	141.62
550.899	128.62
551.112	145.62
551.325	141.62
551.538	114.62
551.751	120.62
551.964	141.62
552.177	125.62
552.39	128.62
552.603	124.62
552.816	140.62
553.029	138.62
553.242	145.62
553.455	152.62
553.667	133.62
553.88	146.62
554.093	139.62
554.306	131.62
554.519	128.62
554.732	129.62
554.944	122.62
555.157	133.62
555.37	130.62
555.583	128.62
555.795	143.62
556.008	135.62
556.221	134.62
556.433	124.62
556.646	121.62
556.859	117.62
557.071	137.62
557.284	127.62
557.496	105.62
557.709	116.62
557.921	132.62
558.134	116.62
558.346	119.62
558.559	115.62
558.771	114.62
558.984	126.62
559.196	142.62
559.409	117.62
559.621	119.62
559.833	121.62
560.046	110.62
560.258	113.62
560.47	130.62
560.683	130.62
560.895	128.62
561.107	137.62
561.32	132.62
561.532	126.62
561.744	124.62
561.956	133.62
562.168	121.62
562.381	132.62
562.593	113.62
562.805	112.62
563.017	117.62
563.229	117.62
563.441	119.62
563.653	102.62
563.865	125.62
564.077	120.62
564.289	113.62
564.501	119.62
564.713	108.62
564.925	124.62
565.137	110.62
565.349	139.62
565.561	124.62
565.773	108.62
565.985	125.62
566.197	120.62
566.408	114.62
566.62	113.62
566.832	122.62
567.044	139.62
567.255	132.62
567.467	121.62
567.679	132.62
567.891	128.62
568.102	143.62
568.314	136.62
568.526	117.62
568.737	124.62
568.949	112.62
569.161	111.62
569.372	103.62
569.584	112.62
569.795	98.62
570.007	102.62
570.218	109.62
570.43	103.62
570.641	100.62
570.853	105.62
571.064	104.62
571.276	105.62
571.487	114.62
571.698	110.62
571.91	117.62
572.121	108.62
572.333	131.62
572.544	111.62
572.755	110.62
572.966	117.62
573.178	99.62
573.389	100.62
573.6	103.62
573.811	105.62
574.023	105.62
574.234	103.62
574.445	111.62
574.656	106.62
574.867	113.62
575.078	111.62
575.289	103.62
575.501	108.62
575.712	112.62
575.923	97.62
576.134	97.62
576.345	104.62
576.556	117.62
576.767	94.62
576.978	118.62
577.188	103.62
577.399	112.62
577.61	113.62
577.821	120.62
578.032	107.62
578.243	96.62
578.454	100.62
578.665	98.62
578.875	101.62
579.086	105.62
579.297	97.62
579.508	84.62
579.718	98.62
579.929	104.62
580.14	106.62
580.35	99.62
580.561	89.62
580.772	97.62
580.982	100.62
581.193	112.62
581.403	104.62
581.614	109.62
581.825	86.62
582.035	95.62
582.246	105.62
582.456	90.62
582.667	94.62
582.877	85.62
583.087	108.62
583.298	106.62
583.508	87.62
583.719	104.62
583.929	95.62
584.139	88.62
584.35	96.62
584.56	108.62
584.77	92.62
584.981	102.62
585.191	112.62
585.401	104.62
585.611	113.62
585.821	92.62
586.032	101.62
586.242	91.62
586.452	104.62
586.662	95.62
586.872	94.62
587.082	115.62
587.292	98.62
587.502	94.62
587.713	111.62
587.923	93.62
588.133	89.62
588.343	108.62
588.553	88.62
588.762	93.62
588.972	89.62
589.182	96.62
589.392	97.62
589.602	104.62
589.812	88.62
590.022	96.62
590.232	100.62
590.441	108.62
590.651	93.62
590.861	96.62
591.071	75.62
591.281	80.62
591.49	101.62
591.7	102.62
591.91	92.62
592.119	92.62
592.329	100.62
592.539	103.62
592.748	109.62
592.958	120.62
593.167	99.62
593.377	108.62
593.587	107.62
593.796	98.62
594.006	112.62
594.215	108.62
594.424	103.62
594.634	96.62
594.843	104.62
595.053	123.62
595.262	102.62
595.472	89.62
595.681	111.62
595.89	91.62
596.1	90.62
596.309	108.62
596.518	104.62
596.727	104.62
596.937	92.62
597.146	104.62
597.355	85.62
597.564	91.62
597.774	107.62
597.983	102.62
598.192	105.62
598.401	98.62
598.61	105.62
598.819	112.62
599.028	98.62
599.237	106.62
599.446	101.62
599.655	98.62
599.864	98.62
600.073	93.62
600.282	112.62
600.491	104.62
600.7	86.62
600.909	100.62
601.118	103.62
601.327	98.62
601.536	97.62
601.745	95.62
601.953	106.62
602.162	105.62
602.371	105.62
602.58	107.62
602.789	96.62
602.997	101.62
603.206	108.62
603.415	89.62
603.623	109.62
603.832	96.62
604.041	97.62
604.249	108.62
604.458	112.62
604.666	112.62
604.875	113.62
605.084	87.62
605.292	92.62
605.501	98.62
605.709	96.62
605.918	96.62
606.126	94.62
606.334	108.62
606.543	99.62
606.751	101.62
606.96	104.62
607.168	95.62
607.376	86.62
607.585	89.62
607.793	89.62
608.001	96.62
608.21	98.62
608.418	94.62
608.626	105.62
608.834	99.62
609.043	93.62
609.251	99.62
609.459	92.62
609.667	94.62
609.875	101.62
610.083	92.62
610.291	97.62
610.499	108.62
610.707	96.62
610.916	108.62
611.124	101.62
611.332	102.62
611.54	98.62
611.748	110.62
611.955	121.62
612.163	106.62
612.371	108.62
612.579	102.62
612.787	96.62
612.995	102.62
613.203	102.62
613.411	101.62
613.618	96.62
613.826	99.62
614.034	114.62
614.242	106.62
614.449	108.62
614.657	105.62
614.865	92.62
615.072	108.62
615.28	111.62
615.488	102.62
615.695	102.62
615.903	105.62
616.111	97.62
616.318	97.62
616.526	105.62
616.733	106.62
616.941	96.62
617.148	112.62
617.356	105.62
617.563	84.62
617.771	102.62
617.978	111.62
618.185	119.62
618.393	92.62
618.6	100.62
618.807	98.62
619.015	87.62
619.222	93.62
619.429	129.62
619.637	96.62
619.844	101.62
620.051	82.62
620.258	88.62
620.466	100.62
620.673	91.62
620.88	98.62
621.087	100.62
621.294	102.62
621.501	95.62
621.708	83.62
621.915	81.62
622.122	94.62
622.329	95.62
622.536	100.62
622.743	96.62
622.95	95.62
623.157	111.62
623.364	94.62
623.571	81.62
623.778	81.62
623.985	110.62
624.192	104.62
624.399	105.62
624.606	104.62
624.812	98.62
625.019	97.62
625.226	82.62
625.433	87.62
625.639	99.62
625.846	110.62
626.053	105.62
626.259	91.62
626.466	113.62
626.673	94.62
626.879	102.62
627.086	97.62
627.293	97.62
627.499	102.62
627.706	96.62
627.912	109.62
628.119	110.62
628.325	120.62
628.532	94.62
628.738	88.62
628.945	104.62
629.151	88.62
629.357	88.62
629.564	83.62
629.77	99.62
629.976	105.62
630.183	100.62
630.389	92.62
630.595	83.62
630.802	93.62
631.008	97.62
631.214	102.62
631.42	98.62
631.627	100.62
631.833	88.62
632.039	86.62
632.245	91.62
632.451	95.62
632.657	93.62
632.863	107.62
633.069	109.62
633.275	94.62
633.481	98.62
633.688	96.62
633.893	104.62
634.099	99.62
634.305	91.62
634.511	99.62
634.717	85.62
634.923	94.62
635.129	91.62
635.335	94.62
635.541	87.62
635.747	82.62
635.952	91.62
636.158	108.62
636.364	95.62
636.57	102.62
636.775	109.62
636.981	94.62
637.187	78.62
637.392	93.62
637.598	84.62
637.804	110.62
638.009	103.62
638.215	80.62
638.421	88.62
638.626	92.62
638.832	87.62
639.037	92.62
639.243	92.62
639.448	110.62
639.654	96.62
639.859	91.62
640.065	94.62
640.27	113.62
640.475	97.62
640.681	97.62
640.886	81.62
641.091	93.62
641.297	96.62
641.502	94.62
641.707	100.62
641.913	97.62
642.118	111.62
642.323	91.62
642.528	96.62
642.733	97.62
642.939	97.62
643.144	86.62
643.349	96.62
643.554	97.62
643.759	85.62
643.964	104.62
644.169	100.62
644.374	99.62
644.579	92.62
644.784	90.62
644.989	90.62
645.194	88.62
645.399	100.62
645.604	97.62
645.809	100.62
646.014	101.62
646.219	94.62
646.423	93.62
646.628	92.62
646.833	91.62
647.038	93.62
647.243	93.62
647.447	96.62
647.652	94.62
647.857	94.62
648.062	103.62
648.266	84.62
648.471	91.62
648.676	97.62
648.88	96.62
649.085	92.62
649.289	96.62
649.494	90.62
649.698	109.62
649.903	86.62
650.107	101.62
650.312	99.62
650.516	90.62
650.721	92.62
650.925	72.62
651.13	92.62
651.334	93.62
651.539	89.62
651.743	95.62
651.947	108.62
652.152	96.62
652.356	98.62
652.56	101.62
652.764	88.62
652.969	90.62
653.173	90.62
653.377	96.62
653.581	96.62
653.785	96.62
653.99	83.62
654.194	85.62
654.398	78.62
654.602	98.62
654.806	85.62
655.01	115.62
655.214	102.62
655.418	97.62
655.622	90.62
655.826	84.62
656.03	89.62
656.234	89.62
656.438	101.62
656.642	110.62
656.846	90.62
657.049	90.62
657.253	98.62
657.457	78.62
657.661	89.62
657.865	84.62
658.068	96.62
658.272	89.62
658.476	76.62
658.68	100.62
658.883	88.62
659.087	83.62
659.291	83.62
659.494	92.62
659.698	88.62
659.901	107.62
660.105	86.62
660.309	95.62
660.512	93.62
660.716	98.62
660.919	100.62
661.123	84.62
661.326	81.62
661.53	86.62
661.733	90.62
661.936	81.62
662.14	92.62
662.343	90.62
662.546	83.62
662.75	75.62
662.953	84.62
663.156	88.62
663.36	82.62
663.563	85.62
663.766	92.62
663.969	88.62
664.173	85.62
664.376	75.62
664.579	94.62
664.782	87.62
664.985	89.62
665.188	97.62
665.391	88.62
665.594	76.62
665.797	94.62
666	87.62
666.203	92.62
666.406	85.62
666.609	87.62
666.812	92.62
667.015	75.62
667.218	71.62
667.421	90.62
667.624	76.62
667.827	88.62
668.03	101.62
668.232	93.62
668.435	84.62
668.638	100.62
668.841	94.62
669.043	96.62
669.246	86.62
669.449	83.62
669.651	89.62
669.854	86.62
670.057	88.62
670.259	96.62
670.462	89.62
670.665	86.62
670.867	82.62
671.07	80.62
671.272	87.62
671.475	101.62
671.677	97.62
671.88	90.62
672.082	98.62
672.284	97.62
672.487	93.62
672.689	85.62
672.892	103.62
