Data from StandardFe(NO3)3.TAE.3%Agarose.FlatLispGreen.Lamp.Energy10.07252019_HRD10591_11-55-07-441.txt Node
Date: Thu Jul 25 11:55:07 EDT 2019
User: cochatt
Spectrometer: HR+D1059
Trigger mode: 1
Integration Time (sec): 1.000000E-1
Scans to average: 1
Electric dark correction enabled: true
Nonlinearity correction enabled: false
Boxcar width: 0
XAxis mode: Wavelengths
Number of Pixels in Spectrum: 2048
>>>>>Begin Spectral Data<<<<<
223.165	-37.44
223.4	-37.44
223.635	-37.44
223.869	-9.44
224.104	-16.44
224.338	-13.44
224.573	-14.44
224.808	-14.44
225.042	-6.44
225.277	6.56
225.511	-4.44
225.746	11.56
225.98	7.56
226.215	19.56
226.449	0.56
226.683	24.56
226.918	27.56
227.152	18.56
227.387	18.56
227.621	38.56
227.856	27.56
228.09	33.56
228.324	53.56
228.559	51.56
228.793	49.56
229.027	65.56
229.262	44.56
229.496	52.56
229.73	70.56
229.964	68.56
230.199	58.56
230.433	79.56
230.667	83.56
230.901	78.56
231.136	73.56
231.37	64.56
231.604	72.56
231.838	70.56
232.072	88.56
232.306	71.56
232.541	66.56
232.775	81.56
233.009	73.56
233.243	84.56
233.477	72.56
233.711	83.56
233.945	73.56
234.179	82.56
234.413	73.56
234.647	70.56
234.881	76.56
235.115	80.56
235.349	88.56
235.583	80.56
235.817	88.56
236.051	74.56
236.285	79.56
236.519	83.56
236.753	86.56
236.987	85.56
237.221	82.56
237.455	62.56
237.689	71.56
237.922	73.56
238.156	68.56
238.39	75.56
238.624	69.56
238.858	74.56
239.091	79.56
239.325	73.56
239.559	89.56
239.793	70.56
240.027	66.56
240.26	68.56
240.494	58.56
240.728	69.56
240.961	64.56
241.195	62.56
241.429	66.56
241.662	83.56
241.896	81.56
242.13	75.56
242.363	78.56
242.597	58.56
242.83	71.56
243.064	71.56
243.298	71.56
243.531	69.56
243.765	71.56
243.998	88.56
244.232	60.56
244.465	82.56
244.699	77.56
244.932	71.56
245.166	71.56
245.399	82.56
245.633	62.56
245.866	86.56
246.099	68.56
246.333	80.56
246.566	68.56
246.8	73.56
247.033	66.56
247.266	69.56
247.5	80.56
247.733	71.56
247.966	81.56
248.2	78.56
248.433	80.56
248.666	65.56
248.899	84.56
249.133	80.56
249.366	72.56
249.599	78.56
249.832	77.56
250.066	85.56
250.299	77.56
250.532	81.56
250.765	75.56
250.998	85.56
251.231	73.56
251.465	74.56
251.698	93.56
251.931	70.56
252.164	69.56
252.397	83.56
252.63	74.56
252.863	70.56
253.096	78.56
253.329	81.56
253.562	78.56
253.795	91.56
254.028	77.56
254.261	70.56
254.494	61.56
254.727	82.56
254.96	84.56
255.193	81.56
255.426	74.56
255.659	87.56
255.892	88.56
256.124	81.56
256.357	82.56
256.59	72.56
256.823	82.56
257.056	67.56
257.289	72.56
257.521	78.56
257.754	72.56
257.987	86.56
258.22	92.56
258.452	83.56
258.685	67.56
258.918	86.56
259.151	83.56
259.383	85.56
259.616	72.56
259.849	68.56
260.081	85.56
260.314	79.56
260.547	67.56
260.779	73.56
261.012	71.56
261.244	67.56
261.477	88.56
261.71	64.56
261.942	82.56
262.175	64.56
262.407	89.56
262.64	72.56
262.872	88.56
263.105	77.56
263.337	83.56
263.57	87.56
263.802	76.56
264.035	69.56
264.267	76.56
264.499	78.56
264.732	81.56
264.964	74.56
265.197	75.56
265.429	77.56
265.661	92.56
265.894	87.56
266.126	80.56
266.358	77.56
266.591	81.56
266.823	66.56
267.055	84.56
267.287	77.56
267.52	81.56
267.752	72.56
267.984	91.56
268.216	81.56
268.448	72.56
268.681	82.56
268.913	84.56
269.145	92.56
269.377	85.56
269.609	72.56
269.841	93.56
270.073	84.56
270.306	93.56
270.538	64.56
270.77	79.56
271.002	77.56
271.234	84.56
271.466	76.56
271.698	89.56
271.93	84.56
272.162	86.56
272.394	72.56
272.626	84.56
272.858	82.56
273.09	73.56
273.322	81.56
273.553	74.56
273.785	83.56
274.017	71.56
274.249	89.56
274.481	95.56
274.713	80.56
274.945	85.56
275.176	94.56
275.408	101.56
275.64	88.56
275.872	87.56
276.104	85.56
276.335	79.56
276.567	74.56
276.799	72.56
277.031	88.56
277.262	65.56
277.494	86.56
277.726	85.56
277.957	77.56
278.189	67.56
278.421	82.56
278.652	73.56
278.884	82.56
279.115	84.56
279.347	66.56
279.579	69.56
279.81	78.56
280.042	95.56
280.273	89.56
280.505	86.56
280.736	74.56
280.968	84.56
281.199	77.56
281.431	84.56
281.662	80.56
281.894	78.56
282.125	82.56
282.356	70.56
282.588	80.56
282.819	71.56
283.051	79.56
283.282	78.56
283.513	78.56
283.745	79.56
283.976	86.56
284.207	80.56
284.439	82.56
284.67	82.56
284.901	81.56
285.132	75.56
285.364	88.56
285.595	89.56
285.826	85.56
286.057	76.56
286.288	71.56
286.52	72.56
286.751	80.56
286.982	99.56
287.213	86.56
287.444	80.56
287.675	73.56
287.906	73.56
288.138	80.56
288.369	94.56
288.6	96.56
288.831	81.56
289.062	73.56
289.293	67.56
289.524	78.56
289.755	82.56
289.986	75.56
290.217	82.56
290.448	80.56
290.679	85.56
290.91	87.56
291.141	80.56
291.371	84.56
291.602	86.56
291.833	80.56
292.064	87.56
292.295	74.56
292.526	81.56
292.757	70.56
292.987	69.56
293.218	77.56
293.449	74.56
293.68	86.56
293.91	73.56
294.141	96.56
294.372	81.56
294.603	84.56
294.833	79.56
295.064	73.56
295.295	85.56
295.525	75.56
295.756	72.56
295.987	105.56
296.217	78.56
296.448	74.56
296.679	81.56
296.909	81.56
297.14	79.56
297.37	93.56
297.601	79.56
297.831	73.56
298.062	81.56
298.292	75.56
298.523	100.56
298.753	100.56
298.984	83.56
299.214	81.56
299.445	74.56
299.675	79.56
299.905	71.56
300.136	87.56
300.366	88.56
300.597	77.56
300.827	81.56
301.057	92.56
301.288	75.56
301.518	82.56
301.748	72.56
301.979	86.56
302.209	71.56
302.439	79.56
302.669	80.56
302.9	96.56
303.13	80.56
303.36	78.56
303.59	93.56
303.82	75.56
304.051	88.56
304.281	87.56
304.511	70.56
304.741	84.56
304.971	86.56
305.201	78.56
305.431	85.56
305.661	74.56
305.891	75.56
306.121	68.56
306.352	68.56
306.582	82.56
306.812	94.56
307.042	79.56
307.272	87.56
307.502	79.56
307.731	85.56
307.961	88.56
308.191	73.56
308.421	88.56
308.651	89.56
308.881	68.56
309.111	80.56
309.341	91.56
309.571	94.56
309.8	74.56
310.03	98.56
310.26	78.56
310.49	100.56
310.72	88.56
310.949	86.56
311.179	84.56
311.409	80.56
311.639	71.56
311.868	80.56
312.098	82.56
312.328	75.56
312.557	95.56
312.787	73.56
313.017	97.56
313.246	75.56
313.476	70.56
313.706	86.56
313.935	73.56
314.165	78.56
314.394	89.56
314.624	95.56
314.853	93.56
315.083	93.56
315.312	78.56
315.542	84.56
315.771	81.56
316.001	75.56
316.23	83.56
316.46	92.56
316.689	88.56
316.919	93.56
317.148	68.56
317.377	88.56
317.607	88.56
317.836	70.56
318.065	80.56
318.295	80.56
318.524	78.56
318.753	84.56
318.983	79.56
319.212	72.56
319.441	86.56
319.67	103.56
319.9	81.56
320.129	82.56
320.358	84.56
320.587	82.56
320.816	73.56
321.046	74.56
321.275	82.56
321.504	83.56
321.733	83.56
321.962	81.56
322.191	88.56
322.42	86.56
322.649	73.56
322.878	71.56
323.108	67.56
323.337	84.56
323.566	86.56
323.795	86.56
324.024	82.56
324.253	81.56
324.482	81.56
324.71	86.56
324.939	89.56
325.168	96.56
325.397	84.56
325.626	87.56
325.855	83.56
326.084	67.56
326.313	72.56
326.542	80.56
326.77	75.56
326.999	87.56
327.228	86.56
327.457	80.56
327.686	99.56
327.914	81.56
328.143	81.56
328.372	81.56
328.6	87.56
328.829	83.56
329.058	63.56
329.287	93.56
329.515	81.56
329.744	71.56
329.972	73.56
330.201	84.56
330.43	89.56
330.658	65.56
330.887	81.56
331.115	81.56
331.344	79.56
331.572	88.56
331.801	83.56
332.03	86.56
332.258	83.56
332.486	74.56
332.715	70.56
332.943	83.56
333.172	85.56
333.4	80.56
333.629	79.56
333.857	76.56
334.085	88.56
334.314	80.56
334.542	92.56
334.771	83.56
334.999	80.56
335.227	78.56
335.455	65.56
335.684	90.56
335.912	82.56
336.14	82.56
336.369	73.56
336.597	92.56
336.825	84.56
337.053	63.56
337.281	78.56
337.51	84.56
337.738	87.56
337.966	73.56
338.194	77.56
338.422	95.56
338.65	74.56
338.878	94.56
339.106	86.56
339.334	82.56
339.562	76.56
339.79	98.56
340.018	81.56
340.246	87.56
340.474	66.56
340.702	69.56
340.93	77.56
341.158	89.56
341.386	74.56
341.614	82.56
341.842	89.56
342.07	69.56
342.298	77.56
342.526	75.56
342.754	65.56
342.981	76.56
343.209	92.56
343.437	89.56
343.665	97.56
343.893	74.56
344.12	85.56
344.348	81.56
344.576	90.56
344.804	89.56
345.031	90.56
345.259	97.56
345.487	83.56
345.714	77.56
345.942	87.56
346.17	95.56
346.397	95.56
346.625	89.56
346.853	94.56
347.08	69.56
347.308	82.56
347.535	84.56
347.763	80.56
347.99	74.56
348.218	87.56
348.445	88.56
348.673	87.56
348.9	74.56
349.128	88.56
349.355	78.56
349.583	79.56
349.81	79.56
350.037	72.56
350.265	87.56
350.492	74.56
350.72	84.56
350.947	85.56
351.174	92.56
351.402	81.56
351.629	69.56
351.856	75.56
352.083	68.56
352.311	76.56
352.538	75.56
352.765	93.56
352.992	81.56
353.22	95.56
353.447	86.56
353.674	81.56
353.901	86.56
354.128	71.56
354.355	76.56
354.583	65.56
354.81	80.56
355.037	74.56
355.264	92.56
355.491	83.56
355.718	62.56
355.945	77.56
356.172	87.56
356.399	86.56
356.626	82.56
356.853	86.56
357.08	65.56
357.307	81.56
357.534	85.56
357.761	85.56
357.988	81.56
358.215	70.56
358.441	77.56
358.668	80.56
358.895	76.56
359.122	90.56
359.349	82.56
359.576	79.56
359.802	79.56
360.029	83.56
360.256	84.56
360.483	78.56
360.709	82.56
360.936	96.56
361.163	81.56
361.39	85.56
361.616	77.56
361.843	69.56
362.07	72.56
362.296	78.56
362.523	81.56
362.749	78.56
362.976	86.56
363.203	86.56
363.429	87.56
363.656	77.56
363.882	89.56
364.109	71.56
364.335	70.56
364.562	83.56
364.788	80.56
365.015	84.56
365.241	77.56
365.468	78.56
365.694	76.56
365.92	85.56
366.147	82.56
366.373	86.56
366.599	88.56
366.826	80.56
367.052	77.56
367.278	81.56
367.505	87.56
367.731	84.56
367.957	71.56
368.184	88.56
368.41	87.56
368.636	85.56
368.862	75.56
369.089	94.56
369.315	90.56
369.541	87.56
369.767	86.56
369.993	83.56
370.219	92.56
370.445	81.56
370.672	88.56
370.898	87.56
371.124	91.56
371.35	94.56
371.576	93.56
371.802	73.56
372.028	81.56
372.254	78.56
372.48	85.56
372.706	88.56
372.932	77.56
373.158	99.56
373.384	86.56
373.61	80.56
373.835	78.56
374.061	76.56
374.287	83.56
374.513	88.56
374.739	77.56
374.965	96.56
375.191	79.56
375.416	82.56
375.642	89.56
375.868	88.56
376.094	89.56
376.319	84.56
376.545	84.56
376.771	77.56
376.997	84.56
377.222	78.56
377.448	98.56
377.674	67.56
377.899	81.56
378.125	73.56
378.35	82.56
378.576	95.56
378.802	77.56
379.027	91.56
379.253	79.56
379.478	93.56
379.704	88.56
379.929	77.56
380.155	80.56
380.38	86.56
380.606	75.56
380.831	94.56
381.057	87.56
381.282	85.56
381.507	85.56
381.733	80.56
381.958	104.56
382.184	80.56
382.409	101.56
382.634	88.56
382.86	92.56
383.085	106.56
383.31	88.56
383.535	92.56
383.761	80.56
383.986	96.56
384.211	92.56
384.436	90.56
384.662	85.56
384.887	97.56
385.112	100.56
385.337	105.56
385.562	99.56
385.787	104.56
386.013	93.56
386.238	90.56
386.463	81.56
386.688	78.56
386.913	85.56
387.138	101.56
387.363	87.56
387.588	77.56
387.813	92.56
388.038	85.56
388.263	94.56
388.488	87.56
388.713	80.56
388.938	87.56
389.163	92.56
389.387	83.56
389.612	114.56
389.837	100.56
390.062	92.56
390.287	82.56
390.512	81.56
390.736	98.56
390.961	89.56
391.186	93.56
391.411	100.56
391.636	88.56
391.86	96.56
392.085	105.56
392.31	103.56
392.534	94.56
392.759	87.56
392.984	102.56
393.208	95.56
393.433	88.56
393.658	99.56
393.882	97.56
394.107	94.56
394.331	98.56
394.556	82.56
394.78	94.56
395.005	87.56
395.229	92.56
395.454	89.56
395.678	93.56
395.903	87.56
396.127	89.56
396.352	100.56
396.576	95.56
396.801	97.56
397.025	110.56
397.249	98.56
397.474	106.56
397.698	106.56
397.922	87.56
398.147	89.56
398.371	98.56
398.595	110.56
398.82	102.56
399.044	93.56
399.268	108.56
399.492	103.56
399.717	101.56
399.941	97.56
400.165	112.56
400.389	89.56
400.613	102.56
400.837	102.56
401.062	92.56
401.286	104.56
401.51	107.56
401.734	95.56
401.958	89.56
402.182	105.56
402.406	88.56
402.63	107.56
402.854	116.56
403.078	109.56
403.302	92.56
403.526	102.56
403.75	120.56
403.974	100.56
404.198	102.56
404.422	103.56
404.645	101.56
404.869	97.56
405.093	99.56
405.317	100.56
405.541	108.56
405.765	103.56
405.988	107.56
406.212	102.56
406.436	112.56
406.66	104.56
406.883	103.56
407.107	110.56
407.331	112.56
407.555	96.56
407.778	110.56
408.002	126.56
408.226	112.56
408.449	115.56
408.673	97.56
408.896	103.56
409.12	105.56
409.344	105.56
409.567	115.56
409.791	98.56
410.014	109.56
410.238	116.56
410.461	96.56
410.685	111.56
410.908	102.56
411.132	101.56
411.355	109.56
411.578	96.56
411.802	101.56
412.025	98.56
412.249	118.56
412.472	97.56
412.695	115.56
412.919	117.56
413.142	105.56
413.365	117.56
413.589	113.56
413.812	92.56
414.035	111.56
414.258	108.56
414.482	98.56
414.705	115.56
414.928	102.56
415.151	108.56
415.374	110.56
415.597	114.56
415.821	103.56
416.044	105.56
416.267	112.56
416.49	108.56
416.713	97.56
416.936	106.56
417.159	98.56
417.382	100.56
417.605	108.56
417.828	96.56
418.051	122.56
418.274	116.56
418.497	104.56
418.72	116.56
418.943	125.56
419.166	122.56
419.389	123.56
419.611	117.56
419.834	113.56
420.057	121.56
420.28	112.56
420.503	121.56
420.726	103.56
420.948	105.56
421.171	111.56
421.394	104.56
421.617	112.56
421.839	113.56
422.062	105.56
422.285	112.56
422.507	96.56
422.73	102.56
422.953	104.56
423.175	117.56
423.398	113.56
423.621	118.56
423.843	116.56
424.066	102.56
424.288	116.56
424.511	105.56
424.733	116.56
424.956	116.56
425.178	114.56
425.401	120.56
425.623	119.56
425.846	112.56
426.068	114.56
426.291	101.56
426.513	114.56
426.735	108.56
426.958	100.56
427.18	130.56
427.402	109.56
427.625	110.56
427.847	109.56
428.069	86.56
428.292	89.56
428.514	99.56
428.736	100.56
428.958	127.56
429.181	114.56
429.403	123.56
429.625	120.56
429.847	109.56
430.069	118.56
430.292	113.56
430.514	105.56
430.736	104.56
430.958	99.56
431.18	89.56
431.402	115.56
431.624	110.56
431.846	119.56
432.068	112.56
432.29	94.56
432.512	112.56
432.734	115.56
432.956	117.56
433.178	115.56
433.4	107.56
433.622	109.56
433.844	108.56
434.066	121.56
434.287	114.56
434.509	101.56
434.731	88.56
434.953	91.56
435.175	124.56
435.397	114.56
435.618	111.56
435.84	102.56
436.062	115.56
436.284	109.56
436.505	93.56
436.727	114.56
436.949	110.56
437.17	114.56
437.392	108.56
437.614	90.56
437.835	90.56
438.057	98.56
438.278	96.56
438.5	92.56
438.721	111.56
438.943	125.56
439.165	120.56
439.386	114.56
439.608	127.56
439.829	124.56
440.05	106.56
440.272	118.56
440.493	110.56
440.715	114.56
440.936	111.56
441.158	101.56
441.379	116.56
441.6	112.56
441.822	114.56
442.043	126.56
442.264	114.56
442.486	106.56
442.707	106.56
442.928	115.56
443.149	124.56
443.371	118.56
443.592	109.56
443.813	114.56
444.034	133.56
444.255	109.56
444.476	109.56
444.698	125.56
444.919	127.56
445.14	233.56
445.361	165.56
445.582	117.56
445.803	131.56
446.024	122.56
446.245	118.56
446.466	116.56
446.687	108.56
446.908	115.56
447.129	115.56
447.35	116.56
447.571	105.56
447.792	110.56
448.013	105.56
448.234	110.56
448.455	120.56
448.675	125.56
448.896	111.56
449.117	113.56
449.338	110.56
449.559	116.56
449.779	102.56
450	103.56
450.221	108.56
450.442	106.56
450.662	115.56
450.883	117.56
451.104	127.56
451.324	104.56
451.545	116.56
451.766	112.56
451.986	112.56
452.207	115.56
452.428	112.56
452.648	120.56
452.869	96.56
453.089	100.56
453.31	98.56
453.53	110.56
453.751	98.56
453.971	108.56
454.192	108.56
454.412	111.56
454.633	105.56
454.853	115.56
455.073	89.56
455.294	96.56
455.514	102.56
455.734	104.56
455.955	112.56
456.175	99.56
456.395	110.56
456.616	102.56
456.836	104.56
457.056	103.56
457.276	94.56
457.497	104.56
457.717	100.56
457.937	87.56
458.157	102.56
458.377	92.56
458.598	93.56
458.818	83.56
459.038	94.56
459.258	90.56
459.478	92.56
459.698	106.56
459.918	108.56
460.138	102.56
460.358	111.56
460.578	109.56
460.798	87.56
461.018	99.56
461.238	127.56
461.458	131.56
461.678	117.56
461.898	95.56
462.118	120.56
462.338	109.56
462.558	114.56
462.777	131.56
462.997	105.56
463.217	122.56
463.437	133.56
463.657	106.56
463.876	117.56
464.096	104.56
464.316	124.56
464.536	111.56
464.755	110.56
464.975	119.56
465.195	108.56
465.414	105.56
465.634	119.56
465.854	112.56
466.073	117.56
466.293	121.56
466.512	116.56
466.732	112.56
466.951	107.56
467.171	114.56
467.391	124.56
467.61	124.56
467.829	109.56
468.049	116.56
468.268	100.56
468.488	120.56
468.707	113.56
468.927	121.56
469.146	103.56
469.365	110.56
469.585	122.56
469.804	125.56
470.023	117.56
470.243	119.56
470.462	112.56
470.681	119.56
470.901	121.56
471.12	111.56
471.339	96.56
471.558	116.56
471.777	114.56
471.997	100.56
472.216	101.56
472.435	100.56
472.654	88.56
472.873	103.56
473.092	117.56
473.311	112.56
473.53	93.56
473.749	106.56
473.968	114.56
474.187	118.56
474.406	102.56
474.625	117.56
474.844	109.56
475.063	97.56
475.282	103.56
475.501	105.56
475.72	114.56
475.939	130.56
476.158	113.56
476.377	117.56
476.596	91.56
476.814	90.56
477.033	110.56
477.252	122.56
477.471	103.56
477.69	115.56
477.908	120.56
478.127	117.56
478.346	120.56
478.564	116.56
478.783	125.56
479.002	128.56
479.22	120.56
479.439	118.56
479.658	132.56
479.876	115.56
480.095	123.56
480.313	125.56
480.532	120.56
480.751	124.56
480.969	122.56
481.188	116.56
481.406	100.56
481.624	111.56
481.843	116.56
482.061	125.56
482.28	109.56
482.498	120.56
482.717	132.56
482.935	129.56
483.153	128.56
483.372	135.56
483.59	128.56
483.808	125.56
484.027	114.56
484.245	120.56
484.463	144.56
484.681	130.56
484.9	116.56
485.118	125.56
485.336	118.56
485.554	120.56
485.772	116.56
485.99	105.56
486.209	123.56
486.427	130.56
486.645	124.56
486.863	140.56
487.081	128.56
487.299	136.56
487.517	130.56
487.735	153.56
487.953	136.56
488.171	152.56
488.389	133.56
488.607	128.56
488.825	114.56
489.043	120.56
489.261	124.56
489.479	116.56
489.696	114.56
489.914	129.56
490.132	122.56
490.35	128.56
490.568	126.56
490.786	132.56
491.003	144.56
491.221	144.56
491.439	145.56
491.657	151.56
491.874	144.56
492.092	154.56
492.31	140.56
492.527	146.56
492.745	151.56
492.963	149.56
493.18	148.56
493.398	155.56
493.615	134.56
493.833	156.56
494.05	143.56
494.268	122.56
494.485	144.56
494.703	150.56
494.92	147.56
495.138	144.56
495.355	143.56
495.573	161.56
495.79	140.56
496.008	140.56
496.225	142.56
496.442	146.56
496.66	139.56
496.877	159.56
497.094	151.56
497.312	138.56
497.529	142.56
497.746	141.56
497.963	131.56
498.181	140.56
498.398	138.56
498.615	133.56
498.832	141.56
499.049	143.56
499.267	131.56
499.484	156.56
499.701	173.56
499.918	193.56
500.135	197.56
500.352	208.56
500.569	227.56
500.786	215.56
501.003	191.56
501.22	198.56
501.437	172.56
501.654	172.56
501.871	159.56
502.088	144.56
502.305	151.56
502.522	145.56
502.739	143.56
502.956	134.56
503.172	134.56
503.389	134.56
503.606	125.56
503.823	133.56
504.04	131.56
504.256	148.56
504.473	126.56
504.69	129.56
504.907	142.56
505.123	128.56
505.34	130.56
505.557	121.56
505.773	117.56
505.99	124.56
506.207	121.56
506.423	128.56
506.64	118.56
506.856	114.56
507.073	114.56
507.289	125.56
507.506	133.56
507.722	130.56
507.939	125.56
508.155	111.56
508.372	134.56
508.588	122.56
508.805	118.56
509.021	109.56
509.238	108.56
509.454	99.56
509.67	124.56
509.887	97.56
510.103	136.56
510.319	99.56
510.536	115.56
510.752	106.56
510.968	108.56
511.184	102.56
511.401	101.56
511.617	117.56
511.833	118.56
512.049	111.56
512.265	110.56
512.481	105.56
512.698	122.56
512.914	103.56
513.13	116.56
513.346	107.56
513.562	110.56
513.778	119.56
513.994	109.56
514.21	100.56
514.426	120.56
514.642	117.56
514.858	100.56
515.074	104.56
515.29	121.56
515.506	114.56
515.721	92.56
515.937	104.56
516.153	102.56
516.369	96.56
516.585	126.56
516.801	117.56
517.016	116.56
517.232	125.56
517.448	118.56
517.664	125.56
517.879	128.56
518.095	119.56
518.311	111.56
518.527	121.56
518.742	112.56
518.958	115.56
519.173	126.56
519.389	128.56
519.605	122.56
519.82	115.56
520.036	103.56
520.251	114.56
520.467	114.56
520.682	109.56
520.898	103.56
521.113	116.56
521.329	108.56
521.544	116.56
521.76	109.56
521.975	116.56
522.19	124.56
522.406	113.56
522.621	108.56
522.836	106.56
523.052	117.56
523.267	105.56
523.482	109.56
523.698	107.56
523.913	116.56
524.128	116.56
524.343	125.56
524.559	118.56
524.774	129.56
524.989	113.56
525.204	117.56
525.419	117.56
525.634	108.56
525.849	111.56
526.064	110.56
526.28	108.56
526.495	110.56
526.71	112.56
526.925	114.56
527.14	120.56
527.355	100.56
527.57	110.56
527.785	116.56
527.999	108.56
528.214	109.56
528.429	99.56
528.644	124.56
528.859	116.56
529.074	122.56
529.289	120.56
529.503	117.56
529.718	132.56
529.933	114.56
530.148	113.56
530.363	98.56
530.577	91.56
530.792	117.56
531.007	114.56
531.221	104.56
531.436	102.56
531.651	98.56
531.865	110.56
532.08	97.56
532.295	111.56
532.509	110.56
532.724	123.56
532.938	117.56
533.153	113.56
533.367	109.56
533.582	114.56
533.796	110.56
534.011	108.56
534.225	111.56
534.44	115.56
534.654	104.56
534.868	106.56
535.083	102.56
535.297	102.56
535.511	111.56
535.726	101.56
535.94	124.56
536.154	114.56
536.369	113.56
536.583	96.56
536.797	118.56
537.011	106.56
537.225	105.56
537.44	105.56
537.654	102.56
537.868	113.56
538.082	113.56
538.296	114.56
538.51	118.56
538.724	114.56
538.938	97.56
539.153	120.56
539.367	112.56
539.581	106.56
539.795	115.56
540.009	103.56
540.222	99.56
540.436	115.56
540.65	125.56
540.864	120.56
541.078	130.56
541.292	148.56
541.506	132.56
541.72	131.56
541.934	154.56
542.147	134.56
542.361	136.56
542.575	125.56
542.789	120.56
543.002	118.56
543.216	117.56
543.43	117.56
543.644	133.56
543.857	119.56
544.071	134.56
544.285	136.56
544.498	138.56
544.712	132.56
544.925	118.56
545.139	137.56
545.352	133.56
545.566	132.56
545.779	137.56
545.993	133.56
546.206	142.56
546.42	114.56
546.633	131.56
546.847	118.56
547.06	117.56
547.274	120.56
547.487	126.56
547.7	122.56
547.914	124.56
548.127	130.56
548.34	120.56
548.554	135.56
548.767	119.56
548.98	122.56
549.193	135.56
549.407	123.56
549.62	125.56
549.833	134.56
550.046	119.56
550.259	112.56
550.473	122.56
550.686	128.56
550.899	130.56
551.112	128.56
551.325	120.56
551.538	117.56
551.751	105.56
551.964	104.56
552.177	124.56
552.39	128.56
552.603	113.56
552.816	123.56
553.029	127.56
553.242	151.56
553.455	142.56
553.667	136.56
553.88	146.56
554.093	127.56
554.306	133.56
554.519	112.56
554.732	134.56
554.944	124.56
555.157	112.56
555.37	125.56
555.583	118.56
555.795	123.56
556.008	120.56
556.221	116.56
556.433	118.56
556.646	124.56
556.859	106.56
557.071	115.56
557.284	125.56
557.496	117.56
557.709	103.56
557.921	120.56
558.134	130.56
558.346	121.56
558.559	106.56
558.771	115.56
558.984	111.56
559.196	113.56
559.409	110.56
559.621	116.56
559.833	114.56
560.046	106.56
560.258	94.56
560.47	108.56
560.683	113.56
560.895	119.56
561.107	115.56
561.32	112.56
561.532	107.56
561.744	113.56
561.956	119.56
562.168	108.56
562.381	121.56
562.593	111.56
562.805	113.56
563.017	102.56
563.229	130.56
563.441	102.56
563.653	112.56
563.865	92.56
564.077	102.56
564.289	121.56
564.501	117.56
564.713	120.56
564.925	96.56
565.137	118.56
565.349	112.56
565.561	111.56
565.773	128.56
565.985	128.56
566.197	120.56
566.408	107.56
566.62	116.56
566.832	126.56
567.044	124.56
567.255	130.56
567.467	110.56
567.679	108.56
567.891	105.56
568.102	122.56
568.314	115.56
568.526	110.56
568.737	111.56
568.949	102.56
569.161	108.56
569.372	93.56
569.584	110.56
569.795	96.56
570.007	99.56
570.218	102.56
570.43	85.56
570.641	94.56
570.853	95.56
571.064	92.56
571.276	86.56
571.487	107.56
571.698	105.56
571.91	83.56
572.121	94.56
572.333	100.56
572.544	104.56
572.755	99.56
572.966	96.56
573.178	87.56
573.389	91.56
573.6	101.56
573.811	95.56
574.023	95.56
574.234	106.56
574.445	92.56
574.656	83.56
574.867	80.56
575.078	83.56
575.289	96.56
575.501	97.56
575.712	90.56
575.923	94.56
576.134	92.56
576.345	89.56
576.556	90.56
576.767	97.56
576.978	97.56
577.188	83.56
577.399	97.56
577.61	80.56
577.821	96.56
578.032	88.56
578.243	92.56
578.454	88.56
578.665	103.56
578.875	96.56
579.086	84.56
579.297	85.56
579.508	91.56
579.718	88.56
579.929	102.56
580.14	89.56
580.35	77.56
580.561	83.56
580.772	88.56
580.982	96.56
581.193	89.56
581.403	93.56
581.614	77.56
581.825	87.56
582.035	108.56
582.246	74.56
582.456	86.56
582.667	93.56
582.877	94.56
583.087	89.56
583.298	87.56
583.508	108.56
583.719	105.56
583.929	104.56
584.139	77.56
584.35	92.56
584.56	84.56
584.77	99.56
584.981	91.56
585.191	92.56
585.401	79.56
585.611	78.56
585.821	95.56
586.032	93.56
586.242	93.56
586.452	85.56
586.662	83.56
586.872	90.56
587.082	80.56
587.292	95.56
587.502	101.56
587.713	76.56
587.923	77.56
588.133	96.56
588.343	113.56
588.553	89.56
588.762	118.56
588.972	90.56
589.182	87.56
589.392	77.56
589.602	90.56
589.812	90.56
590.022	91.56
590.232	73.56
590.441	87.56
590.651	96.56
590.861	83.56
591.071	105.56
591.281	91.56
591.49	98.56
591.7	96.56
591.91	101.56
592.119	88.56
592.329	83.56
592.539	103.56
592.748	93.56
592.958	84.56
593.167	86.56
593.377	93.56
593.587	98.56
593.796	93.56
594.006	95.56
594.215	77.56
594.424	94.56
594.634	94.56
594.843	108.56
595.053	93.56
595.262	89.56
595.472	88.56
595.681	92.56
595.89	90.56
596.1	95.56
596.309	101.56
596.518	98.56
596.727	80.56
596.937	85.56
597.146	81.56
597.355	87.56
597.564	81.56
597.774	102.56
597.983	94.56
598.192	80.56
598.401	85.56
598.61	93.56
598.819	84.56
599.028	81.56
599.237	101.56
599.446	99.56
599.655	90.56
599.864	88.56
600.073	94.56
600.282	100.56
600.491	86.56
600.7	86.56
600.909	88.56
601.118	92.56
601.327	77.56
601.536	96.56
601.745	88.56
601.953	83.56
602.162	101.56
602.371	81.56
602.58	78.56
602.789	77.56
602.997	99.56
603.206	87.56
603.415	89.56
603.623	91.56
603.832	104.56
604.041	90.56
604.249	89.56
604.458	74.56
604.666	83.56
604.875	85.56
605.084	94.56
605.292	88.56
605.501	89.56
605.709	86.56
605.918	89.56
606.126	94.56
606.334	88.56
606.543	101.56
606.751	97.56
606.96	92.56
607.168	97.56
607.376	86.56
607.585	90.56
607.793	93.56
608.001	95.56
608.21	95.56
608.418	93.56
608.626	81.56
608.834	100.56
609.043	89.56
609.251	89.56
609.459	95.56
609.667	91.56
609.875	87.56
610.083	93.56
610.291	83.56
610.499	90.56
610.707	93.56
610.916	98.56
611.124	84.56
611.332	92.56
611.54	93.56
611.748	110.56
611.955	84.56
612.163	96.56
612.371	91.56
612.579	88.56
612.787	91.56
612.995	82.56
613.203	90.56
613.411	89.56
613.618	95.56
613.826	70.56
614.034	88.56
614.242	104.56
614.449	98.56
614.657	87.56
614.865	88.56
615.072	96.56
615.28	98.56
615.488	105.56
615.695	86.56
615.903	80.56
616.111	93.56
616.318	91.56
616.526	97.56
616.733	99.56
616.941	86.56
617.148	90.56
617.356	82.56
617.563	86.56
617.771	92.56
617.978	85.56
618.185	84.56
618.393	90.56
618.6	102.56
618.807	93.56
619.015	93.56
619.222	93.56
619.429	94.56
619.637	92.56
619.844	91.56
620.051	106.56
620.258	87.56
620.466	93.56
620.673	83.56
620.88	83.56
621.087	85.56
621.294	94.56
621.501	98.56
621.708	89.56
621.915	85.56
622.122	83.56
622.329	91.56
622.536	82.56
622.743	100.56
622.95	88.56
623.157	91.56
623.364	90.56
623.571	96.56
623.778	100.56
623.985	85.56
624.192	91.56
624.399	93.56
624.606	95.56
624.812	92.56
625.019	83.56
625.226	92.56
625.433	88.56
625.639	94.56
625.846	98.56
626.053	85.56
626.259	95.56
626.466	97.56
626.673	80.56
626.879	95.56
627.086	87.56
627.293	98.56
627.499	92.56
627.706	85.56
627.912	79.56
628.119	89.56
628.325	101.56
628.532	87.56
628.738	80.56
628.945	79.56
629.151	74.56
629.357	99.56
629.564	84.56
629.77	105.56
629.976	86.56
630.183	94.56
630.389	92.56
630.595	89.56
630.802	91.56
631.008	93.56
631.214	86.56
631.42	92.56
631.627	93.56
631.833	85.56
632.039	66.56
632.245	96.56
632.451	96.56
632.657	87.56
632.863	73.56
633.069	80.56
633.275	90.56
633.481	80.56
633.688	94.56
633.893	86.56
634.099	99.56
634.305	90.56
634.511	95.56
634.717	75.56
634.923	68.56
635.129	91.56
635.335	84.56
635.541	90.56
635.747	89.56
635.952	88.56
636.158	71.56
636.364	87.56
636.57	96.56
636.775	91.56
636.981	98.56
637.187	93.56
637.392	86.56
637.598	94.56
637.804	93.56
638.009	87.56
638.215	78.56
638.421	82.56
638.626	96.56
638.832	79.56
639.037	76.56
639.243	89.56
639.448	87.56
639.654	97.56
639.859	87.56
640.065	83.56
640.27	94.56
640.475	92.56
640.681	94.56
640.886	104.56
641.091	69.56
641.297	91.56
641.502	78.56
641.707	86.56
641.913	81.56
642.118	88.56
642.323	100.56
642.528	83.56
642.733	81.56
642.939	91.56
643.144	83.56
643.349	83.56
643.554	91.56
643.759	95.56
643.964	88.56
644.169	81.56
644.374	72.56
644.579	88.56
644.784	80.56
644.989	72.56
645.194	92.56
645.399	85.56
645.604	94.56
645.809	84.56
646.014	92.56
646.219	82.56
646.423	75.56
646.628	77.56
646.833	80.56
647.038	97.56
647.243	99.56
647.447	93.56
647.652	77.56
647.857	87.56
648.062	79.56
648.266	78.56
648.471	88.56
648.676	97.56
648.88	80.56
649.085	92.56
649.289	73.56
649.494	86.56
649.698	85.56
649.903	83.56
650.107	89.56
650.312	87.56
650.516	83.56
650.721	81.56
650.925	74.56
651.13	98.56
651.334	77.56
651.539	78.56
651.743	84.56
651.947	73.56
652.152	82.56
652.356	78.56
652.56	72.56
652.764	83.56
652.969	77.56
653.173	78.56
653.377	84.56
653.581	90.56
653.785	80.56
653.99	94.56
654.194	93.56
654.398	100.56
654.602	84.56
654.806	81.56
655.01	99.56
655.214	90.56
655.418	105.56
655.622	86.56
655.826	81.56
656.03	71.56
656.234	84.56
656.438	84.56
656.642	91.56
656.846	100.56
657.049	70.56
657.253	81.56
657.457	84.56
657.661	87.56
657.865	89.56
658.068	89.56
658.272	82.56
658.476	83.56
658.68	79.56
658.883	87.56
659.087	82.56
659.291	76.56
659.494	86.56
659.698	73.56
659.901	86.56
660.105	67.56
660.309	73.56
660.512	82.56
660.716	81.56
660.919	76.56
661.123	73.56
661.326	63.56
661.53	70.56
661.733	86.56
661.936	74.56
662.14	80.56
662.343	76.56
662.546	69.56
662.75	83.56
662.953	92.56
663.156	73.56
663.36	79.56
663.563	80.56
663.766	85.56
663.969	88.56
664.173	84.56
664.376	92.56
664.579	75.56
664.782	92.56
664.985	80.56
665.188	73.56
665.391	79.56
665.594	86.56
665.797	100.56
666	82.56
666.203	88.56
666.406	81.56
666.609	80.56
666.812	91.56
667.015	73.56
667.218	64.56
667.421	87.56
667.624	75.56
667.827	74.56
668.03	79.56
668.232	72.56
668.435	76.56
668.638	77.56
668.841	89.56
669.043	83.56
669.246	76.56
669.449	89.56
669.651	78.56
669.854	79.56
670.057	77.56
670.259	73.56
670.462	74.56
670.665	73.56
670.867	89.56
671.07	88.56
671.272	84.56
671.475	97.56
671.677	68.56
671.88	68.56
672.082	81.56
672.284	75.56
672.487	69.56
672.689	63.56
672.892	74.56
