Data from StandardFe(NO3)3.TAE.3%Agarose.FlatLispGreen.Lamp.Energy10.07252019_HRD10591_11-53-54-439.txt Node
Date: Thu Jul 25 11:53:54 EDT 2019
User: cochatt
Spectrometer: HR+D1059
Trigger mode: 1
Integration Time (sec): 1.000000E-1
Scans to average: 1
Electric dark correction enabled: true
Nonlinearity correction enabled: false
Boxcar width: 0
XAxis mode: Wavelengths
Number of Pixels in Spectrum: 2048
>>>>>Begin Spectral Data<<<<<
223.165	-28.38
223.4	-28.38
223.635	-28.38
223.869	-22.38
224.104	-25.38
224.338	-37.38
224.573	-4.38
224.808	4.62
225.042	-6.38
225.277	-13.38
225.511	4.62
225.746	6.62
225.98	7.62
226.215	22.62
226.449	18.62
226.683	16.62
226.918	22.62
227.152	33.62
227.387	35.62
227.621	44.62
227.856	52.62
228.09	51.62
228.324	46.62
228.559	46.62
228.793	64.62
229.027	51.62
229.262	45.62
229.496	59.62
229.73	71.62
229.964	77.62
230.199	73.62
230.433	75.62
230.667	74.62
230.901	70.62
231.136	80.62
231.37	81.62
231.604	82.62
231.838	77.62
232.072	81.62
232.306	83.62
232.541	70.62
232.775	72.62
233.009	79.62
233.243	74.62
233.477	94.62
233.711	76.62
233.945	77.62
234.179	77.62
234.413	79.62
234.647	79.62
234.881	74.62
235.115	62.62
235.349	74.62
235.583	78.62
235.817	67.62
236.051	77.62
236.285	68.62
236.519	92.62
236.753	75.62
236.987	83.62
237.221	62.62
237.455	76.62
237.689	91.62
237.922	76.62
238.156	64.62
238.39	76.62
238.624	76.62
238.858	78.62
239.091	80.62
239.325	71.62
239.559	79.62
239.793	84.62
240.027	76.62
240.26	67.62
240.494	66.62
240.728	75.62
240.961	71.62
241.195	65.62
241.429	56.62
241.662	75.62
241.896	78.62
242.13	80.62
242.363	69.62
242.597	77.62
242.83	81.62
243.064	75.62
243.298	64.62
243.531	76.62
243.765	78.62
243.998	61.62
244.232	83.62
244.465	82.62
244.699	72.62
244.932	75.62
245.166	75.62
245.399	80.62
245.633	75.62
245.866	79.62
246.099	81.62
246.333	71.62
246.566	90.62
246.8	84.62
247.033	70.62
247.266	74.62
247.5	83.62
247.733	75.62
247.966	69.62
248.2	82.62
248.433	94.62
248.666	86.62
248.899	76.62
249.133	86.62
249.366	84.62
249.599	63.62
249.832	69.62
250.066	79.62
250.299	90.62
250.532	81.62
250.765	80.62
250.998	76.62
251.231	80.62
251.465	87.62
251.698	81.62
251.931	91.62
252.164	79.62
252.397	85.62
252.63	90.62
252.863	82.62
253.096	69.62
253.329	75.62
253.562	70.62
253.795	86.62
254.028	87.62
254.261	67.62
254.494	78.62
254.727	71.62
254.96	73.62
255.193	83.62
255.426	84.62
255.659	82.62
255.892	85.62
256.124	75.62
256.357	80.62
256.59	85.62
256.823	78.62
257.056	86.62
257.289	79.62
257.521	82.62
257.754	76.62
257.987	51.62
258.22	77.62
258.452	80.62
258.685	91.62
258.918	84.62
259.151	89.62
259.383	80.62
259.616	77.62
259.849	84.62
260.081	84.62
260.314	87.62
260.547	92.62
260.779	73.62
261.012	73.62
261.244	76.62
261.477	79.62
261.71	75.62
261.942	78.62
262.175	74.62
262.407	86.62
262.64	74.62
262.872	84.62
263.105	81.62
263.337	88.62
263.57	84.62
263.802	83.62
264.035	78.62
264.267	75.62
264.499	88.62
264.732	98.62
264.964	84.62
265.197	84.62
265.429	92.62
265.661	75.62
265.894	80.62
266.126	76.62
266.358	80.62
266.591	77.62
266.823	90.62
267.055	85.62
267.287	77.62
267.52	67.62
267.752	85.62
267.984	82.62
268.216	80.62
268.448	91.62
268.681	91.62
268.913	71.62
269.145	86.62
269.377	88.62
269.609	81.62
269.841	80.62
270.073	86.62
270.306	79.62
270.538	95.62
270.77	73.62
271.002	69.62
271.234	87.62
271.466	93.62
271.698	80.62
271.93	95.62
272.162	87.62
272.394	84.62
272.626	69.62
272.858	88.62
273.09	79.62
273.322	87.62
273.553	75.62
273.785	87.62
274.017	82.62
274.249	75.62
274.481	91.62
274.713	89.62
274.945	94.62
275.176	87.62
275.408	74.62
275.64	76.62
275.872	76.62
276.104	88.62
276.335	82.62
276.567	72.62
276.799	83.62
277.031	77.62
277.262	65.62
277.494	81.62
277.726	74.62
277.957	83.62
278.189	91.62
278.421	97.62
278.652	85.62
278.884	86.62
279.115	82.62
279.347	75.62
279.579	91.62
279.81	82.62
280.042	92.62
280.273	103.62
280.505	76.62
280.736	91.62
280.968	76.62
281.199	90.62
281.431	103.62
281.662	81.62
281.894	84.62
282.125	67.62
282.356	78.62
282.588	86.62
282.819	80.62
283.051	76.62
283.282	81.62
283.513	92.62
283.745	94.62
283.976	87.62
284.207	101.62
284.439	72.62
284.67	86.62
284.901	81.62
285.132	80.62
285.364	99.62
285.595	78.62
285.826	79.62
286.057	87.62
286.288	81.62
286.52	92.62
286.751	81.62
286.982	79.62
287.213	88.62
287.444	85.62
287.675	81.62
287.906	79.62
288.138	74.62
288.369	68.62
288.6	85.62
288.831	75.62
289.062	92.62
289.293	79.62
289.524	94.62
289.755	94.62
289.986	88.62
290.217	85.62
290.448	84.62
290.679	74.62
290.91	87.62
291.141	73.62
291.371	75.62
291.602	87.62
291.833	92.62
292.064	90.62
292.295	95.62
292.526	88.62
292.757	99.62
292.987	76.62
293.218	92.62
293.449	93.62
293.68	82.62
293.91	83.62
294.141	88.62
294.372	93.62
294.603	74.62
294.833	84.62
295.064	88.62
295.295	85.62
295.525	79.62
295.756	89.62
295.987	94.62
296.217	82.62
296.448	83.62
296.679	84.62
296.909	77.62
297.14	86.62
297.37	81.62
297.601	68.62
297.831	93.62
298.062	82.62
298.292	70.62
298.523	95.62
298.753	76.62
298.984	74.62
299.214	74.62
299.445	78.62
299.675	90.62
299.905	77.62
300.136	76.62
300.366	81.62
300.597	78.62
300.827	76.62
301.057	88.62
301.288	85.62
301.518	87.62
301.748	81.62
301.979	90.62
302.209	78.62
302.439	86.62
302.669	78.62
302.9	98.62
303.13	93.62
303.36	76.62
303.59	87.62
303.82	88.62
304.051	95.62
304.281	107.62
304.511	98.62
304.741	91.62
304.971	73.62
305.201	75.62
305.431	75.62
305.661	89.62
305.891	83.62
306.121	77.62
306.352	93.62
306.582	74.62
306.812	84.62
307.042	105.62
307.272	75.62
307.502	79.62
307.731	88.62
307.961	78.62
308.191	89.62
308.421	81.62
308.651	89.62
308.881	74.62
309.111	72.62
309.341	81.62
309.571	90.62
309.8	76.62
310.03	82.62
310.26	84.62
310.49	82.62
310.72	88.62
310.949	90.62
311.179	105.62
311.409	107.62
311.639	82.62
311.868	75.62
312.098	88.62
312.328	86.62
312.557	84.62
312.787	79.62
313.017	89.62
313.246	86.62
313.476	90.62
313.706	77.62
313.935	69.62
314.165	79.62
314.394	78.62
314.624	81.62
314.853	85.62
315.083	96.62
315.312	68.62
315.542	79.62
315.771	78.62
316.001	73.62
316.23	78.62
316.46	79.62
316.689	83.62
316.919	90.62
317.148	82.62
317.377	83.62
317.607	90.62
317.836	80.62
318.065	91.62
318.295	83.62
318.524	66.62
318.753	78.62
318.983	87.62
319.212	90.62
319.441	82.62
319.67	100.62
319.9	80.62
320.129	79.62
320.358	95.62
320.587	78.62
320.816	70.62
321.046	75.62
321.275	93.62
321.504	93.62
321.733	76.62
321.962	89.62
322.191	92.62
322.42	95.62
322.649	84.62
322.878	97.62
323.108	92.62
323.337	99.62
323.566	89.62
323.795	86.62
324.024	82.62
324.253	88.62
324.482	86.62
324.71	102.62
324.939	90.62
325.168	79.62
325.397	100.62
325.626	86.62
325.855	70.62
326.084	87.62
326.313	93.62
326.542	77.62
326.77	80.62
326.999	81.62
327.228	77.62
327.457	89.62
327.686	88.62
327.914	97.62
328.143	89.62
328.372	98.62
328.6	90.62
328.829	85.62
329.058	79.62
329.287	96.62
329.515	87.62
329.744	75.62
329.972	86.62
330.201	78.62
330.43	92.62
330.658	83.62
330.887	88.62
331.115	83.62
331.344	91.62
331.572	87.62
331.801	91.62
332.03	78.62
332.258	82.62
332.486	99.62
332.715	88.62
332.943	82.62
333.172	81.62
333.4	81.62
333.629	72.62
333.857	94.62
334.085	98.62
334.314	97.62
334.542	77.62
334.771	91.62
334.999	81.62
335.227	93.62
335.455	86.62
335.684	85.62
335.912	80.62
336.14	82.62
336.369	87.62
336.597	87.62
336.825	85.62
337.053	74.62
337.281	92.62
337.51	82.62
337.738	83.62
337.966	98.62
338.194	99.62
338.422	87.62
338.65	88.62
338.878	87.62
339.106	76.62
339.334	91.62
339.562	90.62
339.79	82.62
340.018	101.62
340.246	82.62
340.474	77.62
340.702	84.62
340.93	95.62
341.158	89.62
341.386	89.62
341.614	76.62
341.842	91.62
342.07	79.62
342.298	76.62
342.526	81.62
342.754	76.62
342.981	89.62
343.209	80.62
343.437	79.62
343.665	85.62
343.893	85.62
344.12	101.62
344.348	84.62
344.576	90.62
344.804	75.62
345.031	75.62
345.259	92.62
345.487	90.62
345.714	76.62
345.942	74.62
346.17	94.62
346.397	72.62
346.625	87.62
346.853	71.62
347.08	80.62
347.308	73.62
347.535	86.62
347.763	80.62
347.99	88.62
348.218	96.62
348.445	98.62
348.673	74.62
348.9	87.62
349.128	67.62
349.355	74.62
349.583	69.62
349.81	84.62
350.037	86.62
350.265	94.62
350.492	100.62
350.72	94.62
350.947	81.62
351.174	87.62
351.402	86.62
351.629	77.62
351.856	94.62
352.083	73.62
352.311	70.62
352.538	80.62
352.765	77.62
352.992	83.62
353.22	71.62
353.447	86.62
353.674	93.62
353.901	83.62
354.128	81.62
354.355	77.62
354.583	91.62
354.81	94.62
355.037	91.62
355.264	86.62
355.491	89.62
355.718	79.62
355.945	94.62
356.172	76.62
356.399	91.62
356.626	97.62
356.853	94.62
357.08	80.62
357.307	82.62
357.534	82.62
357.761	75.62
357.988	79.62
358.215	91.62
358.441	103.62
358.668	82.62
358.895	82.62
359.122	75.62
359.349	74.62
359.576	91.62
359.802	91.62
360.029	78.62
360.256	94.62
360.483	90.62
360.709	87.62
360.936	95.62
361.163	91.62
361.39	83.62
361.616	94.62
361.843	91.62
362.07	94.62
362.296	92.62
362.523	79.62
362.749	83.62
362.976	86.62
363.203	83.62
363.429	81.62
363.656	83.62
363.882	90.62
364.109	88.62
364.335	86.62
364.562	87.62
364.788	80.62
365.015	65.62
365.241	76.62
365.468	83.62
365.694	92.62
365.92	85.62
366.147	78.62
366.373	91.62
366.599	102.62
366.826	93.62
367.052	89.62
367.278	86.62
367.505	89.62
367.731	76.62
367.957	84.62
368.184	87.62
368.41	96.62
368.636	86.62
368.862	91.62
369.089	89.62
369.315	81.62
369.541	85.62
369.767	90.62
369.993	79.62
370.219	86.62
370.445	83.62
370.672	95.62
370.898	107.62
371.124	81.62
371.35	86.62
371.576	87.62
371.802	87.62
372.028	82.62
372.254	86.62
372.48	96.62
372.706	76.62
372.932	94.62
373.158	85.62
373.384	90.62
373.61	82.62
373.835	88.62
374.061	104.62
374.287	94.62
374.513	80.62
374.739	98.62
374.965	89.62
375.191	80.62
375.416	86.62
375.642	111.62
375.868	94.62
376.094	86.62
376.319	90.62
376.545	81.62
376.771	72.62
376.997	91.62
377.222	90.62
377.448	97.62
377.674	94.62
377.899	79.62
378.125	91.62
378.35	94.62
378.576	87.62
378.802	99.62
379.027	97.62
379.253	91.62
379.478	100.62
379.704	92.62
379.929	92.62
380.155	95.62
380.38	86.62
380.606	99.62
380.831	94.62
381.057	107.62
381.282	89.62
381.507	93.62
381.733	84.62
381.958	95.62
382.184	81.62
382.409	105.62
382.634	96.62
382.86	80.62
383.085	88.62
383.31	86.62
383.535	82.62
383.761	104.62
383.986	89.62
384.211	90.62
384.436	110.62
384.662	82.62
384.887	90.62
385.112	91.62
385.337	89.62
385.562	110.62
385.787	89.62
386.013	99.62
386.238	112.62
386.463	96.62
386.688	88.62
386.913	88.62
387.138	92.62
387.363	91.62
387.588	104.62
387.813	98.62
388.038	108.62
388.263	89.62
388.488	110.62
388.713	99.62
388.938	83.62
389.163	95.62
389.387	94.62
389.612	93.62
389.837	103.62
390.062	94.62
390.287	90.62
390.512	98.62
390.736	103.62
390.961	106.62
391.186	111.62
391.411	98.62
391.636	103.62
391.86	96.62
392.085	112.62
392.31	101.62
392.534	94.62
392.759	100.62
392.984	105.62
393.208	99.62
393.433	98.62
393.658	97.62
393.882	89.62
394.107	97.62
394.331	94.62
394.556	104.62
394.78	108.62
395.005	100.62
395.229	99.62
395.454	98.62
395.678	111.62
395.903	109.62
396.127	101.62
396.352	107.62
396.576	80.62
396.801	100.62
397.025	119.62
397.249	120.62
397.474	104.62
397.698	97.62
397.922	111.62
398.147	101.62
398.371	103.62
398.595	117.62
398.82	110.62
399.044	103.62
399.268	104.62
399.492	105.62
399.717	118.62
399.941	116.62
400.165	117.62
400.389	130.62
400.613	114.62
400.837	105.62
401.062	118.62
401.286	111.62
401.51	113.62
401.734	113.62
401.958	103.62
402.182	103.62
402.406	117.62
402.63	118.62
402.854	102.62
403.078	115.62
403.302	116.62
403.526	106.62
403.75	116.62
403.974	103.62
404.198	108.62
404.422	105.62
404.645	120.62
404.869	97.62
405.093	101.62
405.317	124.62
405.541	103.62
405.765	119.62
405.988	114.62
406.212	99.62
406.436	94.62
406.66	108.62
406.883	110.62
407.107	120.62
407.331	108.62
407.555	118.62
407.778	122.62
408.002	120.62
408.226	105.62
408.449	117.62
408.673	111.62
408.896	116.62
409.12	118.62
409.344	115.62
409.567	112.62
409.791	118.62
410.014	111.62
410.238	122.62
410.461	105.62
410.685	122.62
410.908	117.62
411.132	113.62
411.355	103.62
411.578	104.62
411.802	120.62
412.025	112.62
412.249	108.62
412.472	107.62
412.695	119.62
412.919	122.62
413.142	114.62
413.365	103.62
413.589	89.62
413.812	121.62
414.035	110.62
414.258	112.62
414.482	117.62
414.705	99.62
414.928	112.62
415.151	117.62
415.374	120.62
415.597	108.62
415.821	125.62
416.044	120.62
416.267	114.62
416.49	121.62
416.713	130.62
416.936	121.62
417.159	114.62
417.382	126.62
417.605	116.62
417.828	105.62
418.051	118.62
418.274	116.62
418.497	120.62
418.72	128.62
418.943	118.62
419.166	122.62
419.389	123.62
419.611	119.62
419.834	117.62
420.057	114.62
420.28	107.62
420.503	108.62
420.726	118.62
420.948	117.62
421.171	115.62
421.394	116.62
421.617	116.62
421.839	120.62
422.062	119.62
422.285	130.62
422.507	118.62
422.73	113.62
422.953	106.62
423.175	119.62
423.398	125.62
423.621	120.62
423.843	110.62
424.066	119.62
424.288	128.62
424.511	127.62
424.733	105.62
424.956	118.62
425.178	117.62
425.401	124.62
425.623	125.62
425.846	107.62
426.068	111.62
426.291	110.62
426.513	108.62
426.735	111.62
426.958	116.62
427.18	111.62
427.402	118.62
427.625	121.62
427.847	98.62
428.069	120.62
428.292	103.62
428.514	131.62
428.736	122.62
428.958	114.62
429.181	112.62
429.403	121.62
429.625	110.62
429.847	115.62
430.069	123.62
430.292	126.62
430.514	105.62
430.736	126.62
430.958	128.62
431.18	120.62
431.402	114.62
431.624	103.62
431.846	114.62
432.068	106.62
432.29	106.62
432.512	93.62
432.734	118.62
432.956	112.62
433.178	113.62
433.4	121.62
433.622	104.62
433.844	119.62
434.066	110.62
434.287	119.62
434.509	104.62
434.731	103.62
434.953	112.62
435.175	118.62
435.397	103.62
435.618	112.62
435.84	107.62
436.062	111.62
436.284	103.62
436.505	111.62
436.727	124.62
436.949	109.62
437.17	115.62
437.392	111.62
437.614	114.62
437.835	98.62
438.057	115.62
438.278	113.62
438.5	115.62
438.721	108.62
438.943	101.62
439.165	126.62
439.386	130.62
439.608	114.62
439.829	125.62
440.05	116.62
440.272	115.62
440.493	133.62
440.715	106.62
440.936	126.62
441.158	128.62
441.379	121.62
441.6	130.62
441.822	125.62
442.043	105.62
442.264	114.62
442.486	126.62
442.707	108.62
442.928	103.62
443.149	116.62
443.371	131.62
443.592	112.62
443.813	110.62
444.034	129.62
444.255	127.62
444.476	140.62
444.698	139.62
444.919	123.62
445.14	251.62
445.361	190.62
445.582	123.62
445.803	124.62
446.024	130.62
446.245	129.62
446.466	114.62
446.687	118.62
446.908	125.62
447.129	128.62
447.35	122.62
447.571	130.62
447.792	112.62
448.013	114.62
448.234	103.62
448.455	114.62
448.675	126.62
448.896	118.62
449.117	94.62
449.338	112.62
449.559	124.62
449.779	100.62
450	101.62
450.221	119.62
450.442	131.62
450.662	120.62
450.883	110.62
451.104	114.62
451.324	119.62
451.545	109.62
451.766	113.62
451.986	117.62
452.207	99.62
452.428	122.62
452.648	99.62
452.869	104.62
453.089	111.62
453.31	118.62
453.53	112.62
453.751	112.62
453.971	100.62
454.192	106.62
454.412	102.62
454.633	106.62
454.853	107.62
455.073	114.62
455.294	123.62
455.514	106.62
455.734	106.62
455.955	112.62
456.175	73.62
456.395	109.62
456.616	97.62
456.836	106.62
457.056	114.62
457.276	100.62
457.497	107.62
457.717	108.62
457.937	111.62
458.157	92.62
458.377	107.62
458.598	95.62
458.818	100.62
459.038	92.62
459.258	102.62
459.478	106.62
459.698	105.62
459.918	98.62
460.138	101.62
460.358	114.62
460.578	120.62
460.798	115.62
461.018	127.62
461.238	107.62
461.458	130.62
461.678	126.62
461.898	122.62
462.118	115.62
462.338	102.62
462.558	114.62
462.777	122.62
462.997	134.62
463.217	122.62
463.437	123.62
463.657	132.62
463.876	123.62
464.096	106.62
464.316	120.62
464.536	123.62
464.755	137.62
464.975	121.62
465.195	114.62
465.414	115.62
465.634	118.62
465.854	111.62
466.073	119.62
466.293	118.62
466.512	122.62
466.732	116.62
466.951	121.62
467.171	117.62
467.391	126.62
467.61	125.62
467.829	122.62
468.049	110.62
468.268	102.62
468.488	118.62
468.707	116.62
468.927	116.62
469.146	124.62
469.365	138.62
469.585	116.62
469.804	112.62
470.023	112.62
470.243	122.62
470.462	120.62
470.681	132.62
470.901	121.62
471.12	132.62
471.339	124.62
471.558	119.62
471.777	115.62
471.997	130.62
472.216	130.62
472.435	119.62
472.654	100.62
472.873	112.62
473.092	107.62
473.311	101.62
473.53	122.62
473.749	122.62
473.968	111.62
474.187	105.62
474.406	119.62
474.625	115.62
474.844	119.62
475.063	122.62
475.282	123.62
475.501	107.62
475.72	122.62
475.939	121.62
476.158	131.62
476.377	120.62
476.596	111.62
476.814	99.62
477.033	126.62
477.252	106.62
477.471	126.62
477.69	126.62
477.908	124.62
478.127	138.62
478.346	132.62
478.564	123.62
478.783	122.62
479.002	140.62
479.22	133.62
479.439	126.62
479.658	127.62
479.876	120.62
480.095	106.62
480.313	118.62
480.532	128.62
480.751	116.62
480.969	130.62
481.188	125.62
481.406	109.62
481.624	112.62
481.843	108.62
482.061	100.62
482.28	117.62
482.498	128.62
482.717	112.62
482.935	119.62
483.153	127.62
483.372	147.62
483.59	142.62
483.808	126.62
484.027	126.62
484.245	119.62
484.463	122.62
484.681	119.62
484.9	130.62
485.118	127.62
485.336	128.62
485.554	126.62
485.772	110.62
485.99	106.62
486.209	128.62
486.427	134.62
486.645	125.62
486.863	131.62
487.081	135.62
487.299	137.62
487.517	138.62
487.735	134.62
487.953	149.62
488.171	132.62
488.389	156.62
488.607	136.62
488.825	142.62
489.043	124.62
489.261	119.62
489.479	120.62
489.696	129.62
489.914	122.62
490.132	131.62
490.35	144.62
490.568	140.62
490.786	137.62
491.003	150.62
491.221	148.62
491.439	145.62
491.657	154.62
491.874	163.62
492.092	151.62
492.31	187.62
492.527	163.62
492.745	159.62
492.963	171.62
493.18	158.62
493.398	148.62
493.615	149.62
493.833	153.62
494.05	147.62
494.268	150.62
494.485	148.62
494.703	143.62
494.92	143.62
495.138	155.62
495.355	162.62
495.573	145.62
495.79	150.62
496.008	141.62
496.225	147.62
496.442	148.62
496.66	153.62
496.877	142.62
497.094	151.62
497.312	127.62
497.529	152.62
497.746	149.62
497.963	134.62
498.181	154.62
498.398	132.62
498.615	144.62
498.832	139.62
499.049	154.62
499.267	165.62
499.484	155.62
499.701	176.62
499.918	188.62
500.135	204.62
500.352	204.62
500.569	216.62
500.786	218.62
501.003	204.62
501.22	190.62
501.437	181.62
501.654	158.62
501.871	167.62
502.088	161.62
502.305	159.62
502.522	154.62
502.739	140.62
502.956	149.62
503.172	144.62
503.389	139.62
503.606	154.62
503.823	130.62
504.04	146.62
504.256	134.62
504.473	127.62
504.69	145.62
504.907	136.62
505.123	142.62
505.34	136.62
505.557	130.62
505.773	131.62
505.99	118.62
506.207	134.62
506.423	136.62
506.64	141.62
506.856	128.62
507.073	127.62
507.289	113.62
507.506	130.62
507.722	121.62
507.939	119.62
508.155	128.62
508.372	131.62
508.588	111.62
508.805	129.62
509.021	114.62
509.238	137.62
509.454	110.62
509.67	120.62
509.887	120.62
510.103	98.62
510.319	119.62
510.536	120.62
510.752	116.62
510.968	108.62
511.184	88.62
511.401	112.62
511.617	118.62
511.833	100.62
512.049	112.62
512.265	110.62
512.481	105.62
512.698	98.62
512.914	110.62
513.13	118.62
513.346	127.62
513.562	116.62
513.778	111.62
513.994	110.62
514.21	123.62
514.426	118.62
514.642	103.62
514.858	110.62
515.074	118.62
515.29	106.62
515.506	114.62
515.721	118.62
515.937	115.62
516.153	111.62
516.369	118.62
516.585	114.62
516.801	120.62
517.016	108.62
517.232	132.62
517.448	141.62
517.664	148.62
517.879	130.62
518.095	134.62
518.311	127.62
518.527	114.62
518.742	128.62
518.958	128.62
519.173	116.62
519.389	116.62
519.605	124.62
519.82	131.62
520.036	117.62
520.251	119.62
520.467	109.62
520.682	123.62
520.898	107.62
521.113	113.62
521.329	128.62
521.544	115.62
521.76	98.62
521.975	124.62
522.19	118.62
522.406	129.62
522.621	123.62
522.836	105.62
523.052	108.62
523.267	118.62
523.482	136.62
523.698	124.62
523.913	127.62
524.128	121.62
524.343	122.62
524.559	140.62
524.774	118.62
524.989	124.62
525.204	134.62
525.419	131.62
525.634	122.62
525.849	110.62
526.064	107.62
526.28	121.62
526.495	125.62
526.71	120.62
526.925	90.62
527.14	103.62
527.355	120.62
527.57	111.62
527.785	101.62
527.999	118.62
528.214	118.62
528.429	114.62
528.644	132.62
528.859	130.62
529.074	123.62
529.289	130.62
529.503	119.62
529.718	114.62
529.933	107.62
530.148	111.62
530.363	124.62
530.577	110.62
530.792	112.62
531.007	102.62
531.221	115.62
531.436	93.62
531.651	105.62
531.865	118.62
532.08	129.62
532.295	106.62
532.509	99.62
532.724	102.62
532.938	118.62
533.153	92.62
533.367	106.62
533.582	115.62
533.796	122.62
534.011	114.62
534.225	116.62
534.44	110.62
534.654	127.62
534.868	116.62
535.083	114.62
535.297	108.62
535.511	110.62
535.726	114.62
535.94	114.62
536.154	105.62
536.369	122.62
536.583	120.62
536.797	119.62
537.011	119.62
537.225	96.62
537.44	111.62
537.654	97.62
537.868	114.62
538.082	112.62
538.296	105.62
538.51	108.62
538.724	114.62
538.938	107.62
539.153	130.62
539.367	114.62
539.581	115.62
539.795	121.62
540.009	127.62
540.222	118.62
540.436	119.62
540.65	118.62
540.864	119.62
541.078	114.62
541.292	140.62
541.506	134.62
541.72	149.62
541.934	134.62
542.147	141.62
542.361	128.62
542.575	128.62
542.789	141.62
543.002	121.62
543.216	122.62
543.43	126.62
543.644	115.62
543.857	135.62
544.071	132.62
544.285	130.62
544.498	128.62
544.712	138.62
544.925	137.62
545.139	132.62
545.352	146.62
545.566	141.62
545.779	146.62
545.993	133.62
546.206	134.62
546.42	150.62
546.633	155.62
546.847	136.62
547.06	132.62
547.274	156.62
547.487	138.62
547.7	124.62
547.914	130.62
548.127	126.62
548.34	146.62
548.554	121.62
548.767	125.62
548.98	144.62
549.193	135.62
549.407	121.62
549.62	135.62
549.833	139.62
550.046	130.62
550.259	124.62
550.473	123.62
550.686	123.62
550.899	133.62
551.112	133.62
551.325	129.62
551.538	118.62
551.751	128.62
551.964	104.62
552.177	127.62
552.39	116.62
552.603	126.62
552.816	136.62
553.029	133.62
553.242	124.62
553.455	137.62
553.667	129.62
553.88	122.62
554.093	127.62
554.306	139.62
554.519	149.62
554.732	120.62
554.944	134.62
555.157	125.62
555.37	120.62
555.583	126.62
555.795	127.62
556.008	136.62
556.221	116.62
556.433	122.62
556.646	118.62
556.859	110.62
557.071	131.62
557.284	120.62
557.496	122.62
557.709	128.62
557.921	116.62
558.134	109.62
558.346	127.62
558.559	112.62
558.771	126.62
558.984	120.62
559.196	130.62
559.409	118.62
559.621	119.62
559.833	104.62
560.046	103.62
560.258	120.62
560.47	123.62
560.683	110.62
560.895	116.62
561.107	104.62
561.32	104.62
561.532	118.62
561.744	106.62
561.956	123.62
562.168	105.62
562.381	112.62
562.593	106.62
562.805	121.62
563.017	115.62
563.229	126.62
563.441	111.62
563.653	105.62
563.865	97.62
564.077	114.62
564.289	122.62
564.501	112.62
564.713	116.62
564.925	106.62
565.137	132.62
565.349	122.62
565.561	124.62
565.773	127.62
565.985	115.62
566.197	114.62
566.408	113.62
566.62	111.62
566.832	132.62
567.044	127.62
567.255	143.62
567.467	122.62
567.679	128.62
567.891	116.62
568.102	127.62
568.314	120.62
568.526	128.62
568.737	126.62
568.949	99.62
569.161	88.62
569.372	96.62
569.584	106.62
569.795	102.62
570.007	97.62
570.218	100.62
570.43	99.62
570.641	91.62
570.853	113.62
571.064	115.62
571.276	110.62
571.487	102.62
571.698	105.62
571.91	102.62
572.121	100.62
572.333	114.62
572.544	109.62
572.755	95.62
572.966	106.62
573.178	110.62
573.389	102.62
573.6	96.62
573.811	99.62
574.023	97.62
574.234	94.62
574.445	99.62
574.656	88.62
574.867	116.62
575.078	104.62
575.289	95.62
575.501	85.62
575.712	103.62
575.923	96.62
576.134	83.62
576.345	93.62
576.556	118.62
576.767	99.62
576.978	88.62
577.188	93.62
577.399	91.62
577.61	107.62
577.821	88.62
578.032	101.62
578.243	118.62
578.454	94.62
578.665	101.62
578.875	100.62
579.086	99.62
579.297	84.62
579.508	86.62
579.718	92.62
579.929	79.62
580.14	107.62
580.35	98.62
580.561	101.62
580.772	100.62
580.982	96.62
581.193	90.62
581.403	82.62
581.614	92.62
581.825	101.62
582.035	102.62
582.246	105.62
582.456	89.62
582.667	107.62
582.877	94.62
583.087	102.62
583.298	94.62
583.508	89.62
583.719	98.62
583.929	95.62
584.139	96.62
584.35	88.62
584.56	86.62
584.77	81.62
584.981	85.62
585.191	93.62
585.401	104.62
585.611	103.62
585.821	99.62
586.032	98.62
586.242	98.62
586.452	83.62
586.662	84.62
586.872	91.62
587.082	84.62
587.292	88.62
587.502	108.62
587.713	98.62
587.923	97.62
588.133	91.62
588.343	89.62
588.553	98.62
588.762	98.62
588.972	92.62
589.182	92.62
589.392	101.62
589.602	91.62
589.812	85.62
590.022	91.62
590.232	101.62
590.441	97.62
590.651	92.62
590.861	106.62
591.071	96.62
591.281	94.62
591.49	95.62
591.7	115.62
591.91	112.62
592.119	74.62
592.329	88.62
592.539	92.62
592.748	99.62
592.958	106.62
593.167	97.62
593.377	75.62
593.587	103.62
593.796	93.62
594.006	83.62
594.215	96.62
594.424	96.62
594.634	98.62
594.843	97.62
595.053	98.62
595.262	77.62
595.472	84.62
595.681	102.62
595.89	101.62
596.1	100.62
596.309	94.62
596.518	84.62
596.727	92.62
596.937	100.62
597.146	94.62
597.355	106.62
597.564	92.62
597.774	80.62
597.983	84.62
598.192	92.62
598.401	98.62
598.61	96.62
598.819	113.62
599.028	81.62
599.237	97.62
599.446	92.62
599.655	106.62
599.864	90.62
600.073	96.62
600.282	95.62
600.491	86.62
600.7	79.62
600.909	89.62
601.118	88.62
601.327	82.62
601.536	87.62
601.745	103.62
601.953	98.62
602.162	108.62
602.371	103.62
602.58	95.62
602.789	108.62
602.997	102.62
603.206	94.62
603.415	101.62
603.623	102.62
603.832	89.62
604.041	95.62
604.249	99.62
604.458	105.62
604.666	104.62
604.875	103.62
605.084	102.62
605.292	99.62
605.501	103.62
605.709	95.62
605.918	109.62
606.126	97.62
606.334	86.62
606.543	104.62
606.751	107.62
606.96	97.62
607.168	106.62
607.376	89.62
607.585	104.62
607.793	98.62
608.001	97.62
608.21	86.62
608.418	86.62
608.626	103.62
608.834	103.62
609.043	95.62
609.251	108.62
609.459	86.62
609.667	94.62
609.875	88.62
610.083	103.62
610.291	88.62
610.499	82.62
610.707	93.62
610.916	86.62
611.124	79.62
611.332	87.62
611.54	93.62
611.748	89.62
611.955	82.62
612.163	105.62
612.371	89.62
612.579	95.62
612.787	83.62
612.995	113.62
613.203	97.62
613.411	91.62
613.618	102.62
613.826	98.62
614.034	94.62
614.242	97.62
614.449	89.62
614.657	95.62
614.865	89.62
615.072	92.62
615.28	91.62
615.488	98.62
615.695	74.62
615.903	88.62
616.111	89.62
616.318	102.62
616.526	97.62
616.733	110.62
616.941	94.62
617.148	103.62
617.356	90.62
617.563	105.62
617.771	103.62
617.978	91.62
618.185	90.62
618.393	99.62
618.6	98.62
618.807	97.62
619.015	87.62
619.222	100.62
619.429	85.62
619.637	106.62
619.844	102.62
620.051	88.62
620.258	87.62
620.466	80.62
620.673	86.62
620.88	87.62
621.087	89.62
621.294	91.62
621.501	90.62
621.708	91.62
621.915	79.62
622.122	82.62
622.329	87.62
622.536	99.62
622.743	100.62
622.95	91.62
623.157	106.62
623.364	97.62
623.571	86.62
623.778	94.62
623.985	100.62
624.192	72.62
624.399	105.62
624.606	86.62
624.812	86.62
625.019	97.62
625.226	97.62
625.433	89.62
625.639	100.62
625.846	95.62
626.053	101.62
626.259	96.62
626.466	82.62
626.673	86.62
626.879	94.62
627.086	84.62
627.293	100.62
627.499	90.62
627.706	85.62
627.912	90.62
628.119	92.62
628.325	106.62
628.532	103.62
628.738	99.62
628.945	83.62
629.151	101.62
629.357	93.62
629.564	83.62
629.77	89.62
629.976	79.62
630.183	92.62
630.389	95.62
630.595	87.62
630.802	92.62
631.008	100.62
631.214	97.62
631.42	82.62
631.627	104.62
631.833	79.62
632.039	94.62
632.245	85.62
632.451	87.62
632.657	87.62
632.863	95.62
633.069	75.62
633.275	79.62
633.481	82.62
633.688	82.62
633.893	96.62
634.099	104.62
634.305	95.62
634.511	82.62
634.717	83.62
634.923	91.62
635.129	81.62
635.335	82.62
635.541	94.62
635.747	82.62
635.952	96.62
636.158	84.62
636.364	96.62
636.57	80.62
636.775	88.62
636.981	84.62
637.187	94.62
637.392	93.62
637.598	82.62
637.804	115.62
638.009	88.62
638.215	99.62
638.421	89.62
638.626	94.62
638.832	83.62
639.037	97.62
639.243	84.62
639.448	84.62
639.654	99.62
639.859	86.62
640.065	67.62
640.27	100.62
640.475	91.62
640.681	78.62
640.886	98.62
641.091	91.62
641.297	88.62
641.502	84.62
641.707	84.62
641.913	70.62
642.118	87.62
642.323	87.62
642.528	81.62
642.733	86.62
642.939	80.62
643.144	90.62
643.349	92.62
643.554	95.62
643.759	83.62
643.964	83.62
644.169	99.62
644.374	98.62
644.579	102.62
644.784	89.62
644.989	93.62
645.194	93.62
645.399	99.62
645.604	86.62
645.809	100.62
646.014	73.62
646.219	94.62
646.423	96.62
646.628	108.62
646.833	89.62
647.038	100.62
647.243	88.62
647.447	99.62
647.652	104.62
647.857	99.62
648.062	87.62
648.266	96.62
648.471	82.62
648.676	90.62
648.88	75.62
649.085	83.62
649.289	92.62
649.494	77.62
649.698	90.62
649.903	75.62
650.107	96.62
650.312	89.62
650.516	94.62
650.721	86.62
650.925	80.62
651.13	82.62
651.334	75.62
651.539	96.62
651.743	74.62
651.947	80.62
652.152	81.62
652.356	84.62
652.56	83.62
652.764	92.62
652.969	104.62
653.173	90.62
653.377	86.62
653.581	88.62
653.785	89.62
653.99	75.62
654.194	75.62
654.398	81.62
654.602	87.62
654.806	84.62
655.01	91.62
655.214	83.62
655.418	90.62
655.622	93.62
655.826	92.62
656.03	91.62
656.234	105.62
656.438	84.62
656.642	80.62
656.846	86.62
657.049	85.62
657.253	78.62
657.457	80.62
657.661	83.62
657.865	74.62
658.068	90.62
658.272	84.62
658.476	77.62
658.68	84.62
658.883	89.62
659.087	98.62
659.291	71.62
659.494	85.62
659.698	78.62
659.901	72.62
660.105	87.62
660.309	85.62
660.512	83.62
660.716	83.62
660.919	81.62
661.123	84.62
661.326	78.62
661.53	84.62
661.733	73.62
661.936	76.62
662.14	79.62
662.343	77.62
662.546	87.62
662.75	82.62
662.953	59.62
663.156	70.62
663.36	92.62
663.563	83.62
663.766	88.62
663.969	75.62
664.173	76.62
664.376	82.62
664.579	94.62
664.782	67.62
664.985	74.62
665.188	89.62
665.391	97.62
665.594	87.62
665.797	76.62
666	83.62
666.203	86.62
666.406	82.62
666.609	86.62
666.812	95.62
667.015	81.62
667.218	71.62
667.421	76.62
667.624	75.62
667.827	80.62
668.03	81.62
668.232	75.62
668.435	86.62
668.638	83.62
668.841	88.62
669.043	72.62
669.246	82.62
669.449	75.62
669.651	74.62
669.854	93.62
670.057	86.62
670.259	76.62
670.462	59.62
670.665	79.62
670.867	78.62
671.07	84.62
671.272	81.62
671.475	75.62
671.677	83.62
671.88	74.62
672.082	90.62
672.284	80.62
672.487	79.62
672.689	79.62
672.892	94.62
