Data from StandardFe(NO3)3.TAE.3%Agarose.FlatLispGreen.Lamp.Energy10.07252019_HRD10591_11-55-15-440.txt Node
Date: Thu Jul 25 11:55:15 EDT 2019
User: cochatt
Spectrometer: HR+D1059
Trigger mode: 1
Integration Time (sec): 1.000000E-1
Scans to average: 1
Electric dark correction enabled: true
Nonlinearity correction enabled: false
Boxcar width: 0
XAxis mode: Wavelengths
Number of Pixels in Spectrum: 2048
>>>>>Begin Spectral Data<<<<<
223.165	-13.81
223.4	-13.81
223.635	-13.81
223.869	-13.81
224.104	-0.81
224.338	-7.81
224.573	-12.81
224.808	-18.81
225.042	-13.81
225.277	2.19
225.511	6.19
225.746	3.19
225.98	13.19
226.215	-8.81
226.449	10.19
226.683	-1.81
226.918	20.19
227.152	37.19
227.387	24.19
227.621	36.19
227.856	47.19
228.09	44.19
228.324	45.19
228.559	53.19
228.793	70.19
229.027	65.19
229.262	49.19
229.496	68.19
229.73	78.19
229.964	68.19
230.199	77.19
230.433	82.19
230.667	77.19
230.901	73.19
231.136	72.19
231.37	83.19
231.604	86.19
231.838	75.19
232.072	68.19
232.306	79.19
232.541	82.19
232.775	82.19
233.009	78.19
233.243	73.19
233.477	68.19
233.711	81.19
233.945	79.19
234.179	78.19
234.413	97.19
234.647	85.19
234.881	76.19
235.115	75.19
235.349	79.19
235.583	77.19
235.817	72.19
236.051	85.19
236.285	68.19
236.519	74.19
236.753	78.19
236.987	73.19
237.221	77.19
237.455	77.19
237.689	73.19
237.922	83.19
238.156	68.19
238.39	53.19
238.624	74.19
238.858	75.19
239.091	85.19
239.325	86.19
239.559	82.19
239.793	61.19
240.027	61.19
240.26	89.19
240.494	79.19
240.728	86.19
240.961	69.19
241.195	78.19
241.429	80.19
241.662	72.19
241.896	72.19
242.13	73.19
242.363	75.19
242.597	74.19
242.83	86.19
243.064	79.19
243.298	76.19
243.531	67.19
243.765	81.19
243.998	73.19
244.232	66.19
244.465	65.19
244.699	61.19
244.932	85.19
245.166	78.19
245.399	79.19
245.633	85.19
245.866	89.19
246.099	66.19
246.333	82.19
246.566	76.19
246.8	85.19
247.033	71.19
247.266	76.19
247.5	81.19
247.733	74.19
247.966	80.19
248.2	75.19
248.433	72.19
248.666	78.19
248.899	85.19
249.133	80.19
249.366	91.19
249.599	81.19
249.832	83.19
250.066	84.19
250.299	83.19
250.532	82.19
250.765	82.19
250.998	69.19
251.231	82.19
251.465	81.19
251.698	84.19
251.931	81.19
252.164	72.19
252.397	77.19
252.63	84.19
252.863	83.19
253.096	72.19
253.329	75.19
253.562	82.19
253.795	95.19
254.028	78.19
254.261	81.19
254.494	68.19
254.727	84.19
254.96	81.19
255.193	94.19
255.426	86.19
255.659	81.19
255.892	96.19
256.124	79.19
256.357	75.19
256.59	78.19
256.823	81.19
257.056	72.19
257.289	74.19
257.521	83.19
257.754	75.19
257.987	76.19
258.22	75.19
258.452	75.19
258.685	83.19
258.918	82.19
259.151	90.19
259.383	85.19
259.616	87.19
259.849	77.19
260.081	86.19
260.314	88.19
260.547	100.19
260.779	82.19
261.012	66.19
261.244	84.19
261.477	104.19
261.71	83.19
261.942	84.19
262.175	75.19
262.407	76.19
262.64	77.19
262.872	79.19
263.105	75.19
263.337	82.19
263.57	87.19
263.802	86.19
264.035	66.19
264.267	71.19
264.499	76.19
264.732	91.19
264.964	94.19
265.197	87.19
265.429	83.19
265.661	84.19
265.894	85.19
266.126	78.19
266.358	78.19
266.591	69.19
266.823	77.19
267.055	78.19
267.287	100.19
267.52	78.19
267.752	71.19
267.984	66.19
268.216	84.19
268.448	83.19
268.681	82.19
268.913	85.19
269.145	78.19
269.377	87.19
269.609	96.19
269.841	86.19
270.073	86.19
270.306	95.19
270.538	78.19
270.77	76.19
271.002	87.19
271.234	85.19
271.466	89.19
271.698	82.19
271.93	75.19
272.162	81.19
272.394	81.19
272.626	83.19
272.858	56.19
273.09	86.19
273.322	72.19
273.553	84.19
273.785	75.19
274.017	88.19
274.249	78.19
274.481	87.19
274.713	90.19
274.945	80.19
275.176	80.19
275.408	86.19
275.64	91.19
275.872	73.19
276.104	93.19
276.335	75.19
276.567	87.19
276.799	85.19
277.031	87.19
277.262	85.19
277.494	87.19
277.726	83.19
277.957	73.19
278.189	84.19
278.421	73.19
278.652	96.19
278.884	73.19
279.115	73.19
279.347	72.19
279.579	83.19
279.81	84.19
280.042	80.19
280.273	86.19
280.505	85.19
280.736	75.19
280.968	87.19
281.199	72.19
281.431	85.19
281.662	79.19
281.894	77.19
282.125	87.19
282.356	79.19
282.588	98.19
282.819	83.19
283.051	87.19
283.282	69.19
283.513	73.19
283.745	87.19
283.976	78.19
284.207	82.19
284.439	84.19
284.67	76.19
284.901	75.19
285.132	77.19
285.364	88.19
285.595	86.19
285.826	81.19
286.057	80.19
286.288	86.19
286.52	83.19
286.751	74.19
286.982	95.19
287.213	90.19
287.444	84.19
287.675	72.19
287.906	81.19
288.138	81.19
288.369	82.19
288.6	91.19
288.831	86.19
289.062	91.19
289.293	83.19
289.524	86.19
289.755	77.19
289.986	73.19
290.217	78.19
290.448	78.19
290.679	88.19
290.91	86.19
291.141	84.19
291.371	79.19
291.602	84.19
291.833	90.19
292.064	97.19
292.295	86.19
292.526	74.19
292.757	81.19
292.987	80.19
293.218	88.19
293.449	87.19
293.68	82.19
293.91	70.19
294.141	87.19
294.372	80.19
294.603	85.19
294.833	83.19
295.064	84.19
295.295	78.19
295.525	89.19
295.756	92.19
295.987	80.19
296.217	81.19
296.448	91.19
296.679	88.19
296.909	93.19
297.14	92.19
297.37	78.19
297.601	73.19
297.831	98.19
298.062	76.19
298.292	76.19
298.523	78.19
298.753	79.19
298.984	84.19
299.214	87.19
299.445	84.19
299.675	101.19
299.905	72.19
300.136	79.19
300.366	81.19
300.597	80.19
300.827	81.19
301.057	82.19
301.288	80.19
301.518	75.19
301.748	81.19
301.979	76.19
302.209	74.19
302.439	80.19
302.669	77.19
302.9	79.19
303.13	79.19
303.36	73.19
303.59	95.19
303.82	89.19
304.051	92.19
304.281	75.19
304.511	71.19
304.741	80.19
304.971	82.19
305.201	89.19
305.431	86.19
305.661	72.19
305.891	80.19
306.121	87.19
306.352	87.19
306.582	82.19
306.812	81.19
307.042	90.19
307.272	80.19
307.502	72.19
307.731	84.19
307.961	74.19
308.191	75.19
308.421	76.19
308.651	87.19
308.881	105.19
309.111	73.19
309.341	71.19
309.571	84.19
309.8	71.19
310.03	74.19
310.26	82.19
310.49	85.19
310.72	91.19
310.949	68.19
311.179	77.19
311.409	65.19
311.639	70.19
311.868	84.19
312.098	86.19
312.328	94.19
312.557	88.19
312.787	67.19
313.017	86.19
313.246	91.19
313.476	83.19
313.706	74.19
313.935	76.19
314.165	77.19
314.394	86.19
314.624	78.19
314.853	93.19
315.083	84.19
315.312	63.19
315.542	91.19
315.771	87.19
316.001	72.19
316.23	84.19
316.46	84.19
316.689	75.19
316.919	78.19
317.148	81.19
317.377	82.19
317.607	70.19
317.836	76.19
318.065	84.19
318.295	81.19
318.524	85.19
318.753	61.19
318.983	83.19
319.212	73.19
319.441	85.19
319.67	73.19
319.9	84.19
320.129	81.19
320.358	72.19
320.587	96.19
320.816	75.19
321.046	77.19
321.275	79.19
321.504	78.19
321.733	82.19
321.962	86.19
322.191	88.19
322.42	93.19
322.649	86.19
322.878	69.19
323.108	90.19
323.337	90.19
323.566	73.19
323.795	89.19
324.024	77.19
324.253	68.19
324.482	88.19
324.71	81.19
324.939	73.19
325.168	72.19
325.397	83.19
325.626	80.19
325.855	78.19
326.084	89.19
326.313	87.19
326.542	78.19
326.77	86.19
326.999	85.19
327.228	74.19
327.457	90.19
327.686	89.19
327.914	72.19
328.143	76.19
328.372	78.19
328.6	82.19
328.829	90.19
329.058	85.19
329.287	77.19
329.515	82.19
329.744	94.19
329.972	84.19
330.201	73.19
330.43	94.19
330.658	79.19
330.887	84.19
331.115	82.19
331.344	79.19
331.572	79.19
331.801	82.19
332.03	81.19
332.258	89.19
332.486	84.19
332.715	89.19
332.943	90.19
333.172	78.19
333.4	90.19
333.629	86.19
333.857	88.19
334.085	71.19
334.314	93.19
334.542	59.19
334.771	84.19
334.999	69.19
335.227	82.19
335.455	79.19
335.684	86.19
335.912	84.19
336.14	84.19
336.369	75.19
336.597	87.19
336.825	78.19
337.053	80.19
337.281	86.19
337.51	66.19
337.738	72.19
337.966	88.19
338.194	71.19
338.422	87.19
338.65	79.19
338.878	72.19
339.106	87.19
339.334	88.19
339.562	65.19
339.79	86.19
340.018	83.19
340.246	87.19
340.474	99.19
340.702	79.19
340.93	96.19
341.158	71.19
341.386	91.19
341.614	87.19
341.842	58.19
342.07	79.19
342.298	74.19
342.526	87.19
342.754	84.19
342.981	70.19
343.209	80.19
343.437	89.19
343.665	82.19
343.893	95.19
344.12	86.19
344.348	76.19
344.576	84.19
344.804	82.19
345.031	81.19
345.259	80.19
345.487	81.19
345.714	74.19
345.942	73.19
346.17	85.19
346.397	90.19
346.625	80.19
346.853	87.19
347.08	79.19
347.308	84.19
347.535	75.19
347.763	74.19
347.99	74.19
348.218	88.19
348.445	88.19
348.673	79.19
348.9	82.19
349.128	94.19
349.355	80.19
349.583	90.19
349.81	86.19
350.037	72.19
350.265	71.19
350.492	78.19
350.72	85.19
350.947	85.19
351.174	88.19
351.402	70.19
351.629	81.19
351.856	79.19
352.083	82.19
352.311	89.19
352.538	83.19
352.765	86.19
352.992	97.19
353.22	94.19
353.447	66.19
353.674	74.19
353.901	84.19
354.128	67.19
354.355	72.19
354.583	75.19
354.81	92.19
355.037	89.19
355.264	92.19
355.491	83.19
355.718	80.19
355.945	88.19
356.172	82.19
356.399	100.19
356.626	83.19
356.853	82.19
357.08	102.19
357.307	92.19
357.534	78.19
357.761	67.19
357.988	75.19
358.215	69.19
358.441	94.19
358.668	73.19
358.895	77.19
359.122	90.19
359.349	85.19
359.576	90.19
359.802	84.19
360.029	86.19
360.256	86.19
360.483	79.19
360.709	81.19
360.936	98.19
361.163	88.19
361.39	92.19
361.616	88.19
361.843	82.19
362.07	87.19
362.296	69.19
362.523	75.19
362.749	94.19
362.976	85.19
363.203	92.19
363.429	79.19
363.656	76.19
363.882	80.19
364.109	88.19
364.335	87.19
364.562	79.19
364.788	78.19
365.015	79.19
365.241	85.19
365.468	79.19
365.694	86.19
365.92	81.19
366.147	85.19
366.373	81.19
366.599	78.19
366.826	78.19
367.052	78.19
367.278	80.19
367.505	84.19
367.731	67.19
367.957	73.19
368.184	70.19
368.41	80.19
368.636	101.19
368.862	81.19
369.089	64.19
369.315	79.19
369.541	85.19
369.767	86.19
369.993	83.19
370.219	85.19
370.445	78.19
370.672	86.19
370.898	71.19
371.124	82.19
371.35	83.19
371.576	89.19
371.802	74.19
372.028	97.19
372.254	93.19
372.48	80.19
372.706	83.19
372.932	90.19
373.158	77.19
373.384	85.19
373.61	89.19
373.835	100.19
374.061	70.19
374.287	87.19
374.513	87.19
374.739	89.19
374.965	85.19
375.191	84.19
375.416	96.19
375.642	91.19
375.868	91.19
376.094	86.19
376.319	78.19
376.545	87.19
376.771	87.19
376.997	97.19
377.222	90.19
377.448	98.19
377.674	79.19
377.899	86.19
378.125	81.19
378.35	83.19
378.576	94.19
378.802	77.19
379.027	86.19
379.253	76.19
379.478	82.19
379.704	88.19
379.929	88.19
380.155	89.19
380.38	84.19
380.606	95.19
380.831	96.19
381.057	89.19
381.282	92.19
381.507	95.19
381.733	87.19
381.958	78.19
382.184	81.19
382.409	77.19
382.634	89.19
382.86	80.19
383.085	103.19
383.31	103.19
383.535	91.19
383.761	80.19
383.986	109.19
384.211	87.19
384.436	87.19
384.662	101.19
384.887	85.19
385.112	94.19
385.337	87.19
385.562	92.19
385.787	82.19
386.013	93.19
386.238	90.19
386.463	93.19
386.688	91.19
386.913	89.19
387.138	109.19
387.363	96.19
387.588	97.19
387.813	93.19
388.038	84.19
388.263	91.19
388.488	89.19
388.713	90.19
388.938	98.19
389.163	90.19
389.387	97.19
389.612	93.19
389.837	86.19
390.062	99.19
390.287	89.19
390.512	98.19
390.736	83.19
390.961	90.19
391.186	89.19
391.411	89.19
391.636	90.19
391.86	88.19
392.085	91.19
392.31	73.19
392.534	97.19
392.759	99.19
392.984	109.19
393.208	95.19
393.433	113.19
393.658	85.19
393.882	82.19
394.107	82.19
394.331	85.19
394.556	80.19
394.78	85.19
395.005	90.19
395.229	89.19
395.454	91.19
395.678	92.19
395.903	86.19
396.127	92.19
396.352	98.19
396.576	105.19
396.801	100.19
397.025	84.19
397.249	106.19
397.474	99.19
397.698	83.19
397.922	109.19
398.147	103.19
398.371	97.19
398.595	102.19
398.82	99.19
399.044	88.19
399.268	104.19
399.492	111.19
399.717	111.19
399.941	109.19
400.165	112.19
400.389	90.19
400.613	81.19
400.837	98.19
401.062	110.19
401.286	117.19
401.51	91.19
401.734	100.19
401.958	92.19
402.182	101.19
402.406	103.19
402.63	101.19
402.854	100.19
403.078	91.19
403.302	101.19
403.526	99.19
403.75	107.19
403.974	95.19
404.198	103.19
404.422	96.19
404.645	94.19
404.869	103.19
405.093	96.19
405.317	108.19
405.541	100.19
405.765	110.19
405.988	93.19
406.212	102.19
406.436	98.19
406.66	100.19
406.883	109.19
407.107	113.19
407.331	109.19
407.555	104.19
407.778	98.19
408.002	94.19
408.226	109.19
408.449	119.19
408.673	117.19
408.896	97.19
409.12	112.19
409.344	117.19
409.567	117.19
409.791	100.19
410.014	109.19
410.238	111.19
410.461	113.19
410.685	106.19
410.908	104.19
411.132	110.19
411.355	106.19
411.578	113.19
411.802	102.19
412.025	114.19
412.249	117.19
412.472	87.19
412.695	98.19
412.919	106.19
413.142	101.19
413.365	99.19
413.589	111.19
413.812	90.19
414.035	102.19
414.258	104.19
414.482	103.19
414.705	106.19
414.928	106.19
415.151	99.19
415.374	106.19
415.597	115.19
415.821	113.19
416.044	105.19
416.267	100.19
416.49	101.19
416.713	111.19
416.936	115.19
417.159	120.19
417.382	112.19
417.605	111.19
417.828	109.19
418.051	88.19
418.274	119.19
418.497	102.19
418.72	117.19
418.943	108.19
419.166	109.19
419.389	106.19
419.611	102.19
419.834	109.19
420.057	106.19
420.28	110.19
420.503	121.19
420.726	113.19
420.948	103.19
421.171	111.19
421.394	112.19
421.617	114.19
421.839	113.19
422.062	101.19
422.285	87.19
422.507	110.19
422.73	98.19
422.953	110.19
423.175	119.19
423.398	111.19
423.621	127.19
423.843	111.19
424.066	93.19
424.288	113.19
424.511	126.19
424.733	103.19
424.956	104.19
425.178	129.19
425.401	111.19
425.623	106.19
425.846	121.19
426.068	101.19
426.291	109.19
426.513	88.19
426.735	103.19
426.958	106.19
427.18	106.19
427.402	113.19
427.625	114.19
427.847	101.19
428.069	104.19
428.292	113.19
428.514	111.19
428.736	93.19
428.958	105.19
429.181	96.19
429.403	111.19
429.625	94.19
429.847	88.19
430.069	99.19
430.292	113.19
430.514	105.19
430.736	105.19
430.958	110.19
431.18	99.19
431.402	100.19
431.624	100.19
431.846	96.19
432.068	96.19
432.29	95.19
432.512	111.19
432.734	104.19
432.956	113.19
433.178	118.19
433.4	114.19
433.622	111.19
433.844	115.19
434.066	107.19
434.287	101.19
434.509	111.19
434.731	97.19
434.953	121.19
435.175	122.19
435.397	110.19
435.618	111.19
435.84	99.19
436.062	96.19
436.284	119.19
436.505	115.19
436.727	101.19
436.949	119.19
437.17	110.19
437.392	112.19
437.614	96.19
437.835	114.19
438.057	101.19
438.278	103.19
438.5	117.19
438.721	111.19
438.943	112.19
439.165	126.19
439.386	111.19
439.608	108.19
439.829	115.19
440.05	120.19
440.272	111.19
440.493	106.19
440.715	134.19
440.936	115.19
441.158	112.19
441.379	104.19
441.6	107.19
441.822	109.19
442.043	119.19
442.264	117.19
442.486	111.19
442.707	102.19
442.928	125.19
443.149	109.19
443.371	134.19
443.592	106.19
443.813	120.19
444.034	110.19
444.255	98.19
444.476	119.19
444.698	116.19
444.919	120.19
445.14	232.19
445.361	171.19
445.582	122.19
445.803	110.19
446.024	101.19
446.245	103.19
446.466	112.19
446.687	117.19
446.908	118.19
447.129	120.19
447.35	125.19
447.571	99.19
447.792	112.19
448.013	105.19
448.234	103.19
448.455	119.19
448.675	98.19
448.896	110.19
449.117	106.19
449.338	119.19
449.559	121.19
449.779	108.19
450	112.19
450.221	110.19
450.442	110.19
450.662	120.19
450.883	106.19
451.104	102.19
451.324	106.19
451.545	98.19
451.766	93.19
451.986	98.19
452.207	107.19
452.428	101.19
452.648	93.19
452.869	100.19
453.089	111.19
453.31	105.19
453.53	104.19
453.751	98.19
453.971	90.19
454.192	93.19
454.412	97.19
454.633	103.19
454.853	113.19
455.073	96.19
455.294	104.19
455.514	98.19
455.734	103.19
455.955	102.19
456.175	108.19
456.395	122.19
456.616	114.19
456.836	102.19
457.056	82.19
457.276	96.19
457.497	98.19
457.717	103.19
457.937	99.19
458.157	95.19
458.377	100.19
458.598	107.19
458.818	88.19
459.038	93.19
459.258	110.19
459.478	94.19
459.698	97.19
459.918	113.19
460.138	102.19
460.358	101.19
460.578	113.19
460.798	112.19
461.018	105.19
461.238	116.19
461.458	104.19
461.678	110.19
461.898	108.19
462.118	121.19
462.338	118.19
462.558	121.19
462.777	135.19
462.997	123.19
463.217	112.19
463.437	126.19
463.657	103.19
463.876	121.19
464.096	113.19
464.316	115.19
464.536	109.19
464.755	126.19
464.975	120.19
465.195	127.19
465.414	118.19
465.634	116.19
465.854	111.19
466.073	98.19
466.293	118.19
466.512	112.19
466.732	125.19
466.951	112.19
467.171	113.19
467.391	94.19
467.61	106.19
467.829	118.19
468.049	121.19
468.268	107.19
468.488	121.19
468.707	100.19
468.927	112.19
469.146	113.19
469.365	97.19
469.585	98.19
469.804	109.19
470.023	129.19
470.243	110.19
470.462	121.19
470.681	125.19
470.901	118.19
471.12	102.19
471.339	115.19
471.558	120.19
471.777	114.19
471.997	112.19
472.216	107.19
472.435	118.19
472.654	115.19
472.873	102.19
473.092	109.19
473.311	111.19
473.53	109.19
473.749	114.19
473.968	118.19
474.187	124.19
474.406	99.19
474.625	96.19
474.844	120.19
475.063	118.19
475.282	105.19
475.501	101.19
475.72	115.19
475.939	119.19
476.158	113.19
476.377	107.19
476.596	120.19
476.814	99.19
477.033	118.19
477.252	106.19
477.471	130.19
477.69	121.19
477.908	112.19
478.127	103.19
478.346	115.19
478.564	129.19
478.783	107.19
479.002	126.19
479.22	129.19
479.439	116.19
479.658	129.19
479.876	112.19
480.095	120.19
480.313	121.19
480.532	113.19
480.751	112.19
480.969	115.19
481.188	113.19
481.406	112.19
481.624	119.19
481.843	109.19
482.061	123.19
482.28	125.19
482.498	116.19
482.717	117.19
482.935	109.19
483.153	121.19
483.372	124.19
483.59	127.19
483.808	120.19
484.027	122.19
484.245	126.19
484.463	131.19
484.681	133.19
484.9	133.19
485.118	128.19
485.336	119.19
485.554	112.19
485.772	119.19
485.99	106.19
486.209	111.19
486.427	109.19
486.645	111.19
486.863	114.19
487.081	122.19
487.299	133.19
487.517	111.19
487.735	126.19
487.953	131.19
488.171	139.19
488.389	150.19
488.607	115.19
488.825	102.19
489.043	119.19
489.261	127.19
489.479	117.19
489.696	128.19
489.914	120.19
490.132	133.19
490.35	141.19
490.568	130.19
490.786	133.19
491.003	131.19
491.221	151.19
491.439	135.19
491.657	145.19
491.874	141.19
492.092	153.19
492.31	162.19
492.527	163.19
492.745	154.19
492.963	150.19
493.18	150.19
493.398	148.19
493.615	139.19
493.833	133.19
494.05	130.19
494.268	139.19
494.485	128.19
494.703	137.19
494.92	143.19
495.138	151.19
495.355	134.19
495.573	156.19
495.79	145.19
496.008	145.19
496.225	143.19
496.442	149.19
496.66	134.19
496.877	141.19
497.094	135.19
497.312	137.19
497.529	138.19
497.746	134.19
497.963	125.19
498.181	130.19
498.398	136.19
498.615	127.19
498.832	149.19
499.049	144.19
499.267	149.19
499.484	160.19
499.701	173.19
499.918	186.19
500.135	192.19
500.352	199.19
500.569	181.19
500.786	217.19
501.003	206.19
501.22	196.19
501.437	178.19
501.654	158.19
501.871	155.19
502.088	135.19
502.305	135.19
502.522	145.19
502.739	133.19
502.956	130.19
503.172	134.19
503.389	123.19
503.606	122.19
503.823	138.19
504.04	124.19
504.256	139.19
504.473	123.19
504.69	161.19
504.907	140.19
505.123	112.19
505.34	117.19
505.557	113.19
505.773	118.19
505.99	114.19
506.207	110.19
506.423	116.19
506.64	110.19
506.856	118.19
507.073	127.19
507.289	122.19
507.506	126.19
507.722	117.19
507.939	123.19
508.155	132.19
508.372	111.19
508.588	122.19
508.805	110.19
509.021	112.19
509.238	112.19
509.454	122.19
509.67	98.19
509.887	104.19
510.103	119.19
510.319	106.19
510.536	107.19
510.752	112.19
510.968	122.19
511.184	109.19
511.401	104.19
511.617	113.19
511.833	95.19
512.049	112.19
512.265	113.19
512.481	112.19
512.698	96.19
512.914	97.19
513.13	105.19
513.346	115.19
513.562	101.19
513.778	110.19
513.994	97.19
514.21	116.19
514.426	110.19
514.642	115.19
514.858	112.19
515.074	117.19
515.29	120.19
515.506	104.19
515.721	111.19
515.937	107.19
516.153	110.19
516.369	100.19
516.585	115.19
516.801	117.19
517.016	118.19
517.232	121.19
517.448	128.19
517.664	122.19
517.879	131.19
518.095	118.19
518.311	116.19
518.527	123.19
518.742	126.19
518.958	113.19
519.173	124.19
519.389	100.19
519.605	123.19
519.82	118.19
520.036	113.19
520.251	106.19
520.467	114.19
520.682	118.19
520.898	104.19
521.113	111.19
521.329	113.19
521.544	93.19
521.76	112.19
521.975	119.19
522.19	116.19
522.406	114.19
522.621	102.19
522.836	106.19
523.052	110.19
523.267	127.19
523.482	126.19
523.698	106.19
523.913	107.19
524.128	105.19
524.343	133.19
524.559	116.19
524.774	112.19
524.989	134.19
525.204	112.19
525.419	126.19
525.634	115.19
525.849	111.19
526.064	110.19
526.28	109.19
526.495	113.19
526.71	102.19
526.925	102.19
527.14	102.19
527.355	107.19
527.57	104.19
527.785	104.19
527.999	104.19
528.214	94.19
528.429	112.19
528.644	114.19
528.859	118.19
529.074	117.19
529.289	120.19
529.503	109.19
529.718	128.19
529.933	130.19
530.148	95.19
530.363	94.19
530.577	91.19
530.792	101.19
531.007	109.19
531.221	112.19
531.436	119.19
531.651	106.19
531.865	100.19
532.08	100.19
532.295	102.19
532.509	98.19
532.724	102.19
532.938	115.19
533.153	94.19
533.367	107.19
533.582	115.19
533.796	113.19
534.011	124.19
534.225	95.19
534.44	115.19
534.654	109.19
534.868	102.19
535.083	99.19
535.297	107.19
535.511	118.19
535.726	120.19
535.94	116.19
536.154	104.19
536.369	117.19
536.583	86.19
536.797	114.19
537.011	104.19
537.225	110.19
537.44	93.19
537.654	105.19
537.868	103.19
538.082	110.19
538.296	101.19
538.51	103.19
538.724	120.19
538.938	135.19
539.153	129.19
539.367	112.19
539.581	119.19
539.795	117.19
540.009	116.19
540.222	102.19
540.436	114.19
540.65	105.19
540.864	109.19
541.078	116.19
541.292	118.19
541.506	113.19
541.72	115.19
541.934	130.19
542.147	146.19
542.361	127.19
542.575	129.19
542.789	122.19
543.002	114.19
543.216	119.19
543.43	119.19
543.644	121.19
543.857	113.19
544.071	132.19
544.285	135.19
544.498	127.19
544.712	128.19
544.925	139.19
545.139	128.19
545.352	120.19
545.566	135.19
545.779	137.19
545.993	134.19
546.206	131.19
546.42	130.19
546.633	120.19
546.847	121.19
547.06	142.19
547.274	129.19
547.487	125.19
547.7	135.19
547.914	142.19
548.127	125.19
548.34	135.19
548.554	134.19
548.767	120.19
548.98	126.19
549.193	140.19
549.407	131.19
549.62	127.19
549.833	153.19
550.046	128.19
550.259	120.19
550.473	129.19
550.686	123.19
550.899	116.19
551.112	127.19
551.325	130.19
551.538	117.19
551.751	115.19
551.964	126.19
552.177	126.19
552.39	126.19
552.603	122.19
552.816	123.19
553.029	125.19
553.242	142.19
553.455	127.19
553.667	131.19
553.88	122.19
554.093	119.19
554.306	130.19
554.519	117.19
554.732	114.19
554.944	112.19
555.157	117.19
555.37	119.19
555.583	127.19
555.795	115.19
556.008	126.19
556.221	111.19
556.433	112.19
556.646	123.19
556.859	119.19
557.071	123.19
557.284	114.19
557.496	100.19
557.709	124.19
557.921	112.19
558.134	118.19
558.346	112.19
558.559	117.19
558.771	119.19
558.984	113.19
559.196	103.19
559.409	106.19
559.621	116.19
559.833	119.19
560.046	104.19
560.258	115.19
560.47	106.19
560.683	112.19
560.895	107.19
561.107	113.19
561.32	101.19
561.532	115.19
561.744	121.19
561.956	118.19
562.168	117.19
562.381	113.19
562.593	105.19
562.805	97.19
563.017	118.19
563.229	99.19
563.441	108.19
563.653	105.19
563.865	109.19
564.077	111.19
564.289	99.19
564.501	125.19
564.713	112.19
564.925	109.19
565.137	114.19
565.349	96.19
565.561	118.19
565.773	116.19
565.985	106.19
566.197	102.19
566.408	114.19
566.62	113.19
566.832	93.19
567.044	113.19
567.255	119.19
567.467	113.19
567.679	103.19
567.891	124.19
568.102	105.19
568.314	112.19
568.526	113.19
568.737	105.19
568.949	112.19
569.161	109.19
569.372	93.19
569.584	96.19
569.795	89.19
570.007	99.19
570.218	102.19
570.43	101.19
570.641	94.19
570.853	94.19
571.064	83.19
571.276	95.19
571.487	110.19
571.698	102.19
571.91	116.19
572.121	101.19
572.333	85.19
572.544	100.19
572.755	98.19
572.966	92.19
573.178	91.19
573.389	109.19
573.6	87.19
573.811	80.19
574.023	98.19
574.234	82.19
574.445	90.19
574.656	90.19
574.867	95.19
575.078	91.19
575.289	109.19
575.501	100.19
575.712	103.19
575.923	101.19
576.134	97.19
576.345	93.19
576.556	87.19
576.767	99.19
576.978	91.19
577.188	112.19
577.399	108.19
577.61	101.19
577.821	104.19
578.032	94.19
578.243	82.19
578.454	95.19
578.665	109.19
578.875	92.19
579.086	76.19
579.297	97.19
579.508	96.19
579.718	104.19
579.929	90.19
580.14	90.19
580.35	85.19
580.561	86.19
580.772	82.19
580.982	81.19
581.193	98.19
581.403	96.19
581.614	98.19
581.825	95.19
582.035	86.19
582.246	100.19
582.456	83.19
582.667	97.19
582.877	94.19
583.087	87.19
583.298	98.19
583.508	94.19
583.719	102.19
583.929	107.19
584.139	96.19
584.35	83.19
584.56	85.19
584.77	88.19
584.981	98.19
585.191	98.19
585.401	109.19
585.611	86.19
585.821	89.19
586.032	95.19
586.242	98.19
586.452	92.19
586.662	87.19
586.872	90.19
587.082	91.19
587.292	99.19
587.502	88.19
587.713	87.19
587.923	78.19
588.133	82.19
588.343	81.19
588.553	83.19
588.762	82.19
588.972	89.19
589.182	87.19
589.392	93.19
589.602	106.19
589.812	95.19
590.022	106.19
590.232	103.19
590.441	101.19
590.651	91.19
590.861	82.19
591.071	88.19
591.281	86.19
591.49	103.19
591.7	93.19
591.91	95.19
592.119	92.19
592.329	84.19
592.539	93.19
592.748	92.19
592.958	80.19
593.167	82.19
593.377	86.19
593.587	84.19
593.796	91.19
594.006	98.19
594.215	95.19
594.424	107.19
594.634	86.19
594.843	85.19
595.053	88.19
595.262	92.19
595.472	81.19
595.681	98.19
595.89	84.19
596.1	99.19
596.309	92.19
596.518	86.19
596.727	82.19
596.937	97.19
597.146	90.19
597.355	97.19
597.564	91.19
597.774	92.19
597.983	86.19
598.192	91.19
598.401	103.19
598.61	89.19
598.819	86.19
599.028	96.19
599.237	92.19
599.446	107.19
599.655	86.19
599.864	86.19
600.073	94.19
600.282	90.19
600.491	88.19
600.7	96.19
600.909	97.19
601.118	94.19
601.327	106.19
601.536	81.19
601.745	85.19
601.953	93.19
602.162	98.19
602.371	85.19
602.58	99.19
602.789	101.19
602.997	98.19
603.206	99.19
603.415	99.19
603.623	86.19
603.832	81.19
604.041	89.19
604.249	86.19
604.458	81.19
604.666	82.19
604.875	92.19
605.084	91.19
605.292	95.19
605.501	86.19
605.709	93.19
605.918	92.19
606.126	88.19
606.334	97.19
606.543	99.19
606.751	86.19
606.96	98.19
607.168	86.19
607.376	94.19
607.585	81.19
607.793	102.19
608.001	96.19
608.21	86.19
608.418	85.19
608.626	82.19
608.834	96.19
609.043	93.19
609.251	83.19
609.459	87.19
609.667	93.19
609.875	111.19
610.083	102.19
610.291	81.19
610.499	104.19
610.707	97.19
610.916	74.19
611.124	81.19
611.332	83.19
611.54	87.19
611.748	105.19
611.955	95.19
612.163	85.19
612.371	100.19
612.579	87.19
612.787	93.19
612.995	97.19
613.203	103.19
613.411	100.19
613.618	97.19
613.826	85.19
614.034	86.19
614.242	100.19
614.449	93.19
614.657	90.19
614.865	81.19
615.072	92.19
615.28	111.19
615.488	83.19
615.695	95.19
615.903	93.19
616.111	85.19
616.318	96.19
616.526	83.19
616.733	85.19
616.941	82.19
617.148	87.19
617.356	94.19
617.563	89.19
617.771	103.19
617.978	93.19
618.185	106.19
618.393	102.19
618.6	83.19
618.807	94.19
619.015	101.19
619.222	94.19
619.429	89.19
619.637	109.19
619.844	86.19
620.051	87.19
620.258	101.19
620.466	69.19
620.673	91.19
620.88	90.19
621.087	82.19
621.294	92.19
621.501	76.19
621.708	102.19
621.915	80.19
622.122	89.19
622.329	104.19
622.536	85.19
622.743	88.19
622.95	92.19
623.157	95.19
623.364	94.19
623.571	92.19
623.778	90.19
623.985	103.19
624.192	81.19
624.399	98.19
624.606	92.19
624.812	94.19
625.019	106.19
625.226	89.19
625.433	97.19
625.639	72.19
625.846	85.19
626.053	79.19
626.259	79.19
626.466	79.19
626.673	80.19
626.879	81.19
627.086	86.19
627.293	94.19
627.499	90.19
627.706	89.19
627.912	86.19
628.119	78.19
628.325	80.19
628.532	92.19
628.738	81.19
628.945	89.19
629.151	89.19
629.357	86.19
629.564	79.19
629.77	81.19
629.976	87.19
630.183	92.19
630.389	95.19
630.595	86.19
630.802	92.19
631.008	81.19
631.214	88.19
631.42	86.19
631.627	69.19
631.833	91.19
632.039	81.19
632.245	90.19
632.451	76.19
632.657	81.19
632.863	89.19
633.069	102.19
633.275	96.19
633.481	84.19
633.688	91.19
633.893	82.19
634.099	86.19
634.305	94.19
634.511	87.19
634.717	100.19
634.923	81.19
635.129	98.19
635.335	92.19
635.541	79.19
635.747	96.19
635.952	78.19
636.158	90.19
636.364	95.19
636.57	98.19
636.775	78.19
636.981	86.19
637.187	86.19
637.392	84.19
637.598	87.19
637.804	88.19
638.009	101.19
638.215	81.19
638.421	81.19
638.626	77.19
638.832	80.19
639.037	74.19
639.243	99.19
639.448	83.19
639.654	91.19
639.859	84.19
640.065	86.19
640.27	82.19
640.475	96.19
640.681	89.19
640.886	93.19
641.091	87.19
641.297	87.19
641.502	75.19
641.707	83.19
641.913	88.19
642.118	94.19
642.323	87.19
642.528	76.19
642.733	82.19
642.939	90.19
643.144	99.19
643.349	102.19
643.554	86.19
643.759	100.19
643.964	91.19
644.169	81.19
644.374	91.19
644.579	79.19
644.784	81.19
644.989	74.19
645.194	79.19
645.399	98.19
645.604	85.19
645.809	85.19
646.014	79.19
646.219	87.19
646.423	79.19
646.628	99.19
646.833	96.19
647.038	84.19
647.243	90.19
647.447	83.19
647.652	81.19
647.857	85.19
648.062	79.19
648.266	97.19
648.471	80.19
648.676	89.19
648.88	98.19
649.085	83.19
649.289	80.19
649.494	83.19
649.698	78.19
649.903	80.19
650.107	72.19
650.312	87.19
650.516	85.19
650.721	83.19
650.925	93.19
651.13	75.19
651.334	79.19
651.539	98.19
651.743	90.19
651.947	101.19
652.152	97.19
652.356	71.19
652.56	75.19
652.764	85.19
652.969	78.19
653.173	78.19
653.377	77.19
653.581	82.19
653.785	72.19
653.99	83.19
654.194	86.19
654.398	80.19
654.602	75.19
654.806	83.19
655.01	80.19
655.214	73.19
655.418	83.19
655.622	99.19
655.826	82.19
656.03	85.19
656.234	93.19
656.438	85.19
656.642	91.19
656.846	85.19
657.049	80.19
657.253	63.19
657.457	79.19
657.661	79.19
657.865	86.19
658.068	79.19
658.272	83.19
658.476	69.19
658.68	77.19
658.883	80.19
659.087	86.19
659.291	77.19
659.494	81.19
659.698	88.19
659.901	77.19
660.105	79.19
660.309	83.19
660.512	67.19
660.716	83.19
660.919	86.19
661.123	80.19
661.326	79.19
661.53	82.19
661.733	82.19
661.936	88.19
662.14	65.19
662.343	66.19
662.546	94.19
662.75	72.19
662.953	95.19
663.156	94.19
663.36	86.19
663.563	78.19
663.766	84.19
663.969	78.19
664.173	80.19
664.376	82.19
664.579	75.19
664.782	87.19
664.985	78.19
665.188	82.19
665.391	90.19
665.594	105.19
665.797	67.19
666	61.19
666.203	93.19
666.406	71.19
666.609	87.19
666.812	90.19
667.015	75.19
667.218	82.19
667.421	73.19
667.624	74.19
667.827	98.19
668.03	80.19
668.232	81.19
668.435	88.19
668.638	82.19
668.841	82.19
669.043	60.19
669.246	78.19
669.449	86.19
669.651	69.19
669.854	77.19
670.057	85.19
670.259	76.19
670.462	79.19
670.665	72.19
670.867	81.19
671.07	74.19
671.272	96.19
671.475	97.19
671.677	77.19
671.88	82.19
672.082	81.19
672.284	86.19
672.487	84.19
672.689	81.19
672.892	82.19
