Data from WStandard_LampEnergy10_LIBS07252019.E.O._I.C._HRD10591_15-54-18-928.txt Node
Date: Thu Jul 25 15:54:18 EDT 2019
User: cochatt
Spectrometer: HR+D1059
Trigger mode: 1
Integration Time (sec): 1.000000E-1
Scans to average: 1
Electric dark correction enabled: true
Nonlinearity correction enabled: false
Boxcar width: 0
XAxis mode: Wavelengths
Number of Pixels in Spectrum: 2048
>>>>>Begin Spectral Data<<<<<
223.165	-19.81
223.4	-19.81
223.635	-19.81
223.869	-10.81
224.104	-26.81
224.338	-13.81
224.573	-18.81
224.808	-17.81
225.042	4.19
225.277	-11.81
225.511	6.19
225.746	1.19
225.98	14.19
226.215	1.19
226.449	18.19
226.683	25.19
226.918	11.19
227.152	38.19
227.387	30.19
227.621	41.19
227.856	61.19
228.09	53.19
228.324	45.19
228.559	47.19
228.793	78.19
229.027	130.19
229.262	143.19
229.496	154.19
229.73	157.19
229.964	152.19
230.199	148.19
230.433	157.19
230.667	194.19
230.901	192.19
231.136	190.19
231.37	193.19
231.604	168.19
231.838	177.19
232.072	165.19
232.306	166.19
232.541	167.19
232.775	196.19
233.009	217.19
233.243	206.19
233.477	186.19
233.711	191.19
233.945	204.19
234.179	199.19
234.413	196.19
234.647	211.19
234.881	214.19
235.115	205.19
235.349	203.19
235.583	205.19
235.817	181.19
236.051	188.19
236.285	187.19
236.519	214.19
236.753	224.19
236.987	227.19
237.221	215.19
237.455	230.19
237.689	225.19
237.922	215.19
238.156	216.19
238.39	210.19
238.624	218.19
238.858	259.19
239.091	257.19
239.325	247.19
239.559	287.19
239.793	290.19
240.027	318.19
240.26	300.19
240.494	236.19
240.728	234.19
240.961	238.19
241.195	251.19
241.429	270.19
241.662	247.19
241.896	238.19
242.13	248.19
242.363	268.19
242.597	287.19
242.83	275.19
243.064	281.19
243.298	270.19
243.531	273.19
243.765	275.19
243.998	274.19
244.232	247.19
244.465	250.19
244.699	245.19
244.932	277.19
245.166	315.19
245.399	285.19
245.633	279.19
245.866	291.19
246.099	285.19
246.333	278.19
246.566	294.19
246.8	327.19
247.033	330.19
247.266	330.19
247.5	327.19
247.733	313.19
247.966	328.19
248.2	352.19
248.433	360.19
248.666	394.19
248.899	397.19
249.133	455.19
249.366	471.19
249.599	390.19
249.832	340.19
250.066	378.19
250.299	373.19
250.532	349.19
250.765	323.19
250.998	351.19
251.231	340.19
251.465	349.19
251.698	344.19
251.931	335.19
252.164	327.19
252.397	355.19
252.63	337.19
252.863	325.19
253.096	335.19
253.329	355.19
253.562	338.19
253.795	366.19
254.028	354.19
254.261	350.19
254.494	316.19
254.727	327.19
254.96	353.19
255.193	400.19
255.426	413.19
255.659	461.19
255.892	426.19
256.124	387.19
256.357	400.19
256.59	413.19
256.823	425.19
257.056	408.19
257.289	482.19
257.521	489.19
257.754	473.19
257.987	456.19
258.22	463.19
258.452	467.19
258.685	382.19
258.918	389.19
259.151	384.19
259.383	385.19
259.616	359.19
259.849	382.19
260.081	415.19
260.314	450.19
260.547	473.19
260.779	455.19
261.012	419.19
261.244	408.19
261.477	392.19
261.71	398.19
261.942	398.19
262.175	396.19
262.407	405.19
262.64	378.19
262.872	355.19
263.105	366.19
263.337	361.19
263.57	384.19
263.802	360.19
264.035	353.19
264.267	342.19
264.499	335.19
264.732	359.19
264.964	396.19
265.197	407.19
265.429	406.19
265.661	445.19
265.894	494.19
266.126	490.19
266.358	463.19
266.591	463.19
266.823	499.19
267.055	465.19
267.287	468.19
267.52	453.19
267.752	423.19
267.984	445.19
268.216	460.19
268.448	473.19
268.681	463.19
268.913	435.19
269.145	403.19
269.377	436.19
269.609	433.19
269.841	503.19
270.073	580.19
270.306	612.19
270.538	648.19
270.77	534.19
271.002	486.19
271.234	468.19
271.466	504.19
271.698	559.19
271.93	601.19
272.162	605.19
272.394	550.19
272.626	491.19
272.858	451.19
273.09	419.19
273.322	428.19
273.553	397.19
273.785	391.19
274.017	412.19
274.249	427.19
274.481	451.19
274.713	405.19
274.945	428.19
275.176	395.19
275.408	385.19
275.64	408.19
275.872	397.19
276.104	431.19
276.335	509.19
276.567	545.19
276.799	525.19
277.031	500.19
277.262	482.19
277.494	492.19
277.726	537.19
277.957	505.19
278.189	460.19
278.421	426.19
278.652	437.19
278.884	435.19
279.115	437.19
279.347	433.19
279.579	429.19
279.81	434.19
280.042	473.19
280.273	502.19
280.505	507.19
280.736	500.19
280.968	486.19
281.199	448.19
281.431	420.19
281.662	415.19
281.894	430.19
282.125	447.19
282.356	457.19
282.588	457.19
282.819	464.19
283.051	501.19
283.282	534.19
283.513	505.19
283.745	442.19
283.976	433.19
284.207	413.19
284.439	427.19
284.67	441.19
284.901	462.19
285.132	477.19
285.364	457.19
285.595	433.19
285.826	467.19
286.057	441.19
286.288	469.19
286.52	462.19
286.751	468.19
286.982	485.19
287.213	454.19
287.444	451.19
287.675	445.19
287.906	469.19
288.138	483.19
288.369	483.19
288.6	434.19
288.831	435.19
289.062	439.19
289.293	454.19
289.524	443.19
289.755	473.19
289.986	493.19
290.217	421.19
290.448	479.19
290.679	451.19
290.91	467.19
291.141	498.19
291.371	499.19
291.602	470.19
291.833	487.19
292.064	505.19
292.295	465.19
292.526	499.19
292.757	533.19
292.987	499.19
293.218	477.19
293.449	529.19
293.68	568.19
293.91	574.19
294.141	557.19
294.372	537.19
294.603	551.19
294.833	574.19
295.064	536.19
295.295	463.19
295.525	472.19
295.756	448.19
295.987	450.19
296.217	466.19
296.448	450.19
296.679	466.19
296.909	458.19
297.14	448.19
297.37	485.19
297.601	504.19
297.831	516.19
298.062	522.19
298.292	491.19
298.523	489.19
298.753	464.19
298.984	469.19
299.214	486.19
299.445	487.19
299.675	523.19
299.905	503.19
300.136	479.19
300.366	458.19
300.597	473.19
300.827	465.19
301.057	495.19
301.288	496.19
301.518	513.19
301.748	519.19
301.979	551.19
302.209	554.19
302.439	587.19
302.669	609.19
302.9	555.19
303.13	503.19
303.36	508.19
303.59	501.19
303.82	515.19
304.051	510.19
304.281	525.19
304.511	540.19
304.741	567.19
304.971	634.19
305.201	614.19
305.431	555.19
305.661	477.19
305.891	439.19
306.121	455.19
306.352	497.19
306.582	508.19
306.812	552.19
307.042	580.19
307.272	563.19
307.502	590.19
307.731	609.19
307.961	627.19
308.191	582.19
308.421	526.19
308.651	500.19
308.881	501.19
309.111	497.19
309.341	511.19
309.571	481.19
309.8	521.19
310.03	480.19
310.26	495.19
310.49	493.19
310.72	530.19
310.949	527.19
311.179	550.19
311.409	532.19
311.639	511.19
311.868	518.19
312.098	502.19
312.328	521.19
312.557	509.19
312.787	533.19
313.017	548.19
313.246	519.19
313.476	534.19
313.706	516.19
313.935	522.19
314.165	519.19
314.394	574.19
314.624	595.19
314.853	620.19
315.083	605.19
315.312	587.19
315.542	589.19
315.771	552.19
316.001	556.19
316.23	567.19
316.46	561.19
316.689	535.19
316.919	541.19
317.148	512.19
317.377	548.19
317.607	591.19
317.836	616.19
318.065	640.19
318.295	610.19
318.524	600.19
318.753	577.19
318.983	564.19
319.212	549.19
319.441	551.19
319.67	545.19
319.9	547.19
320.129	589.19
320.358	605.19
320.587	627.19
320.816	637.19
321.046	598.19
321.275	573.19
321.504	590.19
321.733	612.19
321.962	580.19
322.191	566.19
322.42	550.19
322.649	542.19
322.878	552.19
323.108	565.19
323.337	585.19
323.566	573.19
323.795	574.19
324.024	557.19
324.253	553.19
324.482	555.19
324.71	525.19
324.939	528.19
325.168	562.19
325.397	570.19
325.626	606.19
325.855	572.19
326.084	565.19
326.313	577.19
326.542	575.19
326.77	617.19
326.999	561.19
327.228	568.19
327.457	545.19
327.686	539.19
327.914	557.19
328.143	565.19
328.372	584.19
328.6	565.19
328.829	558.19
329.058	543.19
329.287	567.19
329.515	586.19
329.744	590.19
329.972	590.19
330.201	630.19
330.43	606.19
330.658	585.19
330.887	615.19
331.115	600.19
331.344	580.19
331.572	591.19
331.801	585.19
332.03	591.19
332.258	612.19
332.486	622.19
332.715	594.19
332.943	607.19
333.172	575.19
333.4	629.19
333.629	645.19
333.857	677.19
334.085	739.19
334.314	811.19
334.542	836.19
334.771	748.19
334.999	699.19
335.227	635.19
335.455	633.19
335.684	643.19
335.912	648.19
336.14	658.19
336.369	645.19
336.597	601.19
336.825	597.19
337.053	630.19
337.281	671.19
337.51	705.19
337.738	725.19
337.966	662.19
338.194	617.19
338.422	584.19
338.65	591.19
338.878	589.19
339.106	578.19
339.334	563.19
339.562	567.19
339.79	601.19
340.018	628.19
340.246	637.19
340.474	641.19
340.702	597.19
340.93	639.19
341.158	609.19
341.386	627.19
341.614	602.19
341.842	575.19
342.07	604.19
342.298	616.19
342.526	609.19
342.754	601.19
342.981	604.19
343.209	611.19
343.437	586.19
343.665	587.19
343.893	607.19
344.12	649.19
344.348	636.19
344.576	609.19
344.804	599.19
345.031	611.19
345.259	600.19
345.487	588.19
345.714	553.19
345.942	537.19
346.17	573.19
346.397	583.19
346.625	568.19
346.853	551.19
347.08	547.19
347.308	549.19
347.535	567.19
347.763	582.19
347.99	570.19
348.218	559.19
348.445	561.19
348.673	561.19
348.9	578.19
349.128	610.19
349.355	608.19
349.583	589.19
349.81	561.19
350.037	567.19
350.265	567.19
350.492	558.19
350.72	565.19
350.947	560.19
351.174	563.19
351.402	533.19
351.629	539.19
351.856	546.19
352.083	535.19
352.311	536.19
352.538	555.19
352.765	586.19
352.992	567.19
353.22	555.19
353.447	545.19
353.674	570.19
353.901	574.19
354.128	546.19
354.355	585.19
354.583	575.19
354.81	601.19
355.037	591.19
355.264	577.19
355.491	579.19
355.718	575.19
355.945	562.19
356.172	532.19
356.399	556.19
356.626	546.19
356.853	595.19
357.08	654.19
357.307	679.19
357.534	661.19
357.761	586.19
357.988	577.19
358.215	534.19
358.441	553.19
358.668	539.19
358.895	560.19
359.122	609.19
359.349	646.19
359.576	619.19
359.802	589.19
360.029	572.19
360.256	556.19
360.483	581.19
360.709	598.19
360.936	606.19
361.163	619.19
361.39	693.19
361.616	707.19
361.843	711.19
362.07	659.19
362.296	601.19
362.523	567.19
362.749	549.19
362.976	589.19
363.203	587.19
363.429	578.19
363.656	562.19
363.882	604.19
364.109	658.19
364.335	663.19
364.562	596.19
364.788	599.19
365.015	545.19
365.241	575.19
365.468	595.19
365.694	639.19
365.92	614.19
366.147	581.19
366.373	557.19
366.599	555.19
366.826	548.19
367.052	584.19
367.278	573.19
367.505	574.19
367.731	613.19
367.957	592.19
368.184	639.19
368.41	671.19
368.636	669.19
368.862	669.19
369.089	647.19
369.315	637.19
369.541	629.19
369.767	626.19
369.993	580.19
370.219	591.19
370.445	600.19
370.672	659.19
370.898	670.19
371.124	656.19
371.35	638.19
371.576	669.19
371.802	654.19
372.028	662.19
372.254	625.19
372.48	603.19
372.706	601.19
372.932	619.19
373.158	606.19
373.384	633.19
373.61	655.19
373.835	662.19
374.061	635.19
374.287	630.19
374.513	645.19
374.739	641.19
374.965	641.19
375.191	663.19
375.416	654.19
375.642	696.19
375.868	708.19
376.094	734.19
376.319	671.19
376.545	652.19
376.771	675.19
376.997	694.19
377.222	693.19
377.448	673.19
377.674	687.19
377.899	697.19
378.125	730.19
378.35	693.19
378.576	658.19
378.802	643.19
379.027	627.19
379.253	630.19
379.478	631.19
379.704	646.19
379.929	651.19
380.155	647.19
380.38	639.19
380.606	653.19
380.831	663.19
381.057	691.19
381.282	677.19
381.507	683.19
381.733	742.19
381.958	757.19
382.184	715.19
382.409	699.19
382.634	675.19
382.86	686.19
383.085	678.19
383.31	702.19
383.535	797.19
383.761	825.19
383.986	797.19
384.211	736.19
384.436	728.19
384.662	740.19
384.887	773.19
385.112	754.19
385.337	734.19
385.562	734.19
385.787	739.19
386.013	749.19
386.238	763.19
386.463	802.19
386.688	835.19
386.913	843.19
387.138	813.19
387.363	773.19
387.588	805.19
387.813	759.19
388.038	796.19
388.263	815.19
388.488	767.19
388.713	744.19
388.938	725.19
389.163	738.19
389.387	738.19
389.612	751.19
389.837	782.19
390.062	772.19
390.287	747.19
390.512	753.19
390.736	758.19
390.961	728.19
391.186	717.19
391.411	722.19
391.636	745.19
391.86	769.19
392.085	740.19
392.31	760.19
392.534	749.19
392.759	754.19
392.984	753.19
393.208	781.19
393.433	795.19
393.658	843.19
393.882	822.19
394.107	777.19
394.331	740.19
394.556	754.19
394.78	787.19
395.005	794.19
395.229	853.19
395.454	907.19
395.678	854.19
395.903	840.19
396.127	818.19
396.352	823.19
396.576	841.19
396.801	851.19
397.025	841.19
397.249	881.19
397.474	817.19
397.698	830.19
397.922	886.19
398.147	897.19
398.371	910.19
398.595	899.19
398.82	876.19
399.044	879.19
399.268	918.19
399.492	989.19
399.717	1006.19
399.941	1021.19
400.165	970.19
400.389	965.19
400.613	990.19
400.837	1132.19
401.062	1182.19
401.286	1022.19
401.51	977.19
401.734	981.19
401.958	984.19
402.182	921.19
402.406	894.19
402.63	865.19
402.854	883.19
403.078	883.19
403.302	895.19
403.526	937.19
403.75	900.19
403.974	933.19
404.198	980.19
404.422	978.19
404.645	1025.19
404.869	975.19
405.093	909.19
405.317	889.19
405.541	943.19
405.765	930.19
405.988	933.19
406.212	947.19
406.436	974.19
406.66	1002.19
406.883	995.19
407.107	1126.19
407.331	1232.19
407.555	1301.19
407.778	1101.19
408.002	982.19
408.226	986.19
408.449	952.19
408.673	932.19
408.896	935.19
409.12	955.19
409.344	976.19
409.567	909.19
409.791	954.19
410.014	935.19
410.238	1040.19
410.461	1042.19
410.685	980.19
410.908	926.19
411.132	976.19
411.355	922.19
411.578	927.19
411.802	949.19
412.025	935.19
412.249	950.19
412.472	927.19
412.695	912.19
412.919	902.19
413.142	879.19
413.365	919.19
413.589	960.19
413.812	1002.19
414.035	986.19
414.258	926.19
414.482	914.19
414.705	933.19
414.928	919.19
415.151	912.19
415.374	944.19
415.597	969.19
415.821	938.19
416.044	974.19
416.267	965.19
416.49	931.19
416.713	893.19
416.936	973.19
417.159	1001.19
417.382	986.19
417.605	927.19
417.828	939.19
418.051	949.19
418.274	952.19
418.497	956.19
418.72	943.19
418.943	917.19
419.166	951.19
419.389	977.19
419.611	960.19
419.834	956.19
420.057	949.19
420.28	947.19
420.503	955.19
420.726	941.19
420.948	959.19
421.171	915.19
421.394	923.19
421.617	1019.19
421.839	991.19
422.062	970.19
422.285	953.19
422.507	935.19
422.73	915.19
422.953	890.19
423.175	883.19
423.398	906.19
423.621	897.19
423.843	972.19
424.066	971.19
424.288	1043.19
424.511	1051.19
424.733	1049.19
424.956	967.19
425.178	926.19
425.401	946.19
425.623	951.19
425.846	937.19
426.068	1000.19
426.291	991.19
426.513	949.19
426.735	947.19
426.958	1025.19
427.18	1069.19
427.402	1014.19
427.625	987.19
427.847	994.19
428.069	934.19
428.292	910.19
428.514	906.19
428.736	926.19
428.958	919.19
429.181	945.19
429.403	1078.19
429.625	1254.19
429.847	1033.19
430.069	969.19
430.292	1051.19
430.514	1053.19
430.736	989.19
430.958	982.19
431.18	941.19
431.402	886.19
431.624	831.19
431.846	784.19
432.068	714.19
432.29	742.19
432.512	795.19
432.734	876.19
432.956	925.19
433.178	969.19
433.4	960.19
433.622	976.19
433.844	907.19
434.066	884.19
434.287	819.19
434.509	773.19
434.731	809.19
434.953	918.19
435.175	929.19
435.397	921.19
435.618	870.19
435.84	852.19
436.062	838.19
436.284	919.19
436.505	917.19
436.727	932.19
436.949	916.19
437.17	881.19
437.392	897.19
437.614	865.19
437.835	794.19
438.057	820.19
438.278	887.19
438.5	863.19
438.721	923.19
438.943	895.19
439.165	918.19
439.386	954.19
439.608	965.19
439.829	939.19
440.05	962.19
440.272	963.19
440.493	949.19
440.715	961.19
440.936	1038.19
441.158	1062.19
441.379	1040.19
441.6	1077.19
441.822	1059.19
442.043	1016.19
442.264	981.19
442.486	951.19
442.707	952.19
442.928	946.19
443.149	1002.19
443.371	1032.19
443.592	1037.19
443.813	1023.19
444.034	1003.19
444.255	1034.19
444.476	1041.19
444.698	1061.19
444.919	1067.19
445.14	1136.19
445.361	1097.19
445.582	1075.19
445.803	1050.19
446.024	1041.19
446.245	1067.19
446.466	1074.19
446.687	1046.19
446.908	1055.19
447.129	1031.19
447.35	1014.19
447.571	1015.19
447.792	973.19
448.013	956.19
448.234	974.19
448.455	997.19
448.675	971.19
448.896	925.19
449.117	924.19
449.338	901.19
449.559	964.19
449.779	994.19
450	1027.19
450.221	1049.19
450.442	1047.19
450.662	958.19
450.883	889.19
451.104	868.19
451.324	885.19
451.545	892.19
451.766	847.19
451.986	852.19
452.207	847.19
452.428	778.19
452.648	810.19
452.869	781.19
453.089	787.19
453.31	797.19
453.53	795.19
453.751	715.19
453.971	691.19
454.192	736.19
454.412	791.19
454.633	795.19
454.853	814.19
455.073	751.19
455.294	779.19
455.514	799.19
455.734	783.19
455.955	767.19
456.175	725.19
456.395	737.19
456.616	725.19
456.836	739.19
457.056	742.19
457.276	745.19
457.497	716.19
457.717	699.19
457.937	718.19
458.157	738.19
458.377	704.19
458.598	671.19
458.818	686.19
459.038	699.19
459.258	738.19
459.478	700.19
459.698	680.19
459.918	743.19
460.138	803.19
460.358	820.19
460.578	847.19
460.798	859.19
461.018	922.19
461.238	897.19
461.458	869.19
461.678	848.19
461.898	839.19
462.118	828.19
462.338	846.19
462.558	861.19
462.777	853.19
462.997	859.19
463.217	905.19
463.437	906.19
463.657	861.19
463.876	838.19
464.096	856.19
464.316	847.19
464.536	868.19
464.755	884.19
464.975	866.19
465.195	851.19
465.414	906.19
465.634	867.19
465.854	881.19
466.073	950.19
466.293	922.19
466.512	863.19
466.732	896.19
466.951	957.19
467.171	938.19
467.391	896.19
467.61	870.19
467.829	925.19
468.049	998.19
468.268	1043.19
468.488	983.19
468.707	906.19
468.927	919.19
469.146	935.19
469.365	916.19
469.585	932.19
469.804	917.19
470.023	942.19
470.243	973.19
470.462	971.19
470.681	918.19
470.901	907.19
471.12	949.19
471.339	918.19
471.558	889.19
471.777	908.19
471.997	914.19
472.216	848.19
472.435	757.19
472.654	746.19
472.873	789.19
473.092	828.19
473.311	849.19
473.53	828.19
473.749	841.19
473.968	850.19
474.187	854.19
474.406	833.19
474.625	860.19
474.844	845.19
475.063	876.19
475.282	879.19
475.501	829.19
475.72	852.19
475.939	928.19
476.158	921.19
476.377	876.19
476.596	876.19
476.814	836.19
477.033	818.19
477.252	849.19
477.471	881.19
477.69	939.19
477.908	953.19
478.127	996.19
478.346	996.19
478.564	1012.19
478.783	1004.19
479.002	1049.19
479.22	997.19
479.439	1033.19
479.658	1048.19
479.876	996.19
480.095	917.19
480.313	913.19
480.532	890.19
480.751	863.19
480.969	851.19
481.188	787.19
481.406	794.19
481.624	788.19
481.843	783.19
482.061	811.19
482.28	893.19
482.498	907.19
482.717	868.19
482.935	889.19
483.153	973.19
483.372	1033.19
483.59	999.19
483.808	978.19
484.027	949.19
484.245	1006.19
484.463	1219.19
484.681	1301.19
484.9	1006.19
485.118	1000.19
485.336	933.19
485.554	899.19
485.772	885.19
485.99	852.19
486.209	903.19
486.427	924.19
486.645	925.19
486.863	1006.19
487.081	1053.19
487.299	1017.19
487.517	1063.19
487.735	1144.19
487.953	1207.19
488.171	1188.19
488.389	1161.19
488.607	1111.19
488.825	1153.19
489.043	1068.19
489.261	965.19
489.479	1059.19
489.696	1058.19
489.914	1036.19
490.132	1043.19
490.35	1095.19
490.568	1152.19
490.786	1178.19
491.003	1225.19
491.221	1238.19
491.439	1273.19
491.657	1322.19
491.874	1364.19
492.092	1469.19
492.31	1492.19
492.527	1465.19
492.745	1376.19
492.963	1313.19
493.18	1315.19
493.398	1382.19
493.615	1357.19
493.833	1278.19
494.05	1224.19
494.268	1262.19
494.485	1256.19
494.703	1227.19
494.92	1270.19
495.138	1253.19
495.355	1239.19
495.573	1243.19
495.79	1362.19
496.008	1311.19
496.225	1228.19
496.442	1240.19
496.66	1276.19
496.877	1207.19
497.094	1261.19
497.312	1220.19
497.529	1197.19
497.746	1173.19
497.963	1311.19
498.181	1326.19
498.398	1285.19
498.615	1196.19
498.832	1189.19
499.049	1162.19
499.267	1187.19
499.484	1282.19
499.701	1349.19
499.918	1398.19
500.135	1486.19
500.352	1572.19
500.569	1555.19
500.786	1743.19
501.003	1583.19
501.22	1462.19
501.437	1430.19
501.654	1425.19
501.871	1336.19
502.088	1213.19
502.305	1181.19
502.522	1148.19
502.739	1128.19
502.956	1072.19
503.172	1061.19
503.389	990.19
503.606	1013.19
503.823	997.19
504.04	1015.19
504.256	1016.19
504.473	1008.19
504.69	1012.19
504.907	1013.19
505.123	965.19
505.34	1113.19
505.557	1361.19
505.773	1106.19
505.99	989.19
506.207	912.19
506.423	889.19
506.64	865.19
506.856	921.19
507.073	1032.19
507.289	1077.19
507.506	1043.19
507.722	880.19
507.939	869.19
508.155	876.19
508.372	840.19
508.588	834.19
508.805	775.19
509.021	775.19
509.238	802.19
509.454	793.19
509.67	773.19
509.887	736.19
510.103	746.19
510.319	775.19
510.536	760.19
510.752	781.19
510.968	787.19
511.184	803.19
511.401	744.19
511.617	725.19
511.833	710.19
512.049	702.19
512.265	709.19
512.481	721.19
512.698	735.19
512.914	806.19
513.13	773.19
513.346	718.19
513.562	730.19
513.778	747.19
513.994	774.19
514.21	774.19
514.426	747.19
514.642	830.19
514.858	774.19
515.074	726.19
515.29	731.19
515.506	731.19
515.721	748.19
515.937	774.19
516.153	798.19
516.369	764.19
516.585	755.19
516.801	737.19
517.016	730.19
517.232	759.19
517.448	793.19
517.664	815.19
517.879	805.19
518.095	813.19
518.311	780.19
518.527	781.19
518.742	760.19
518.958	717.19
519.173	757.19
519.389	809.19
519.605	793.19
519.82	788.19
520.036	814.19
520.251	784.19
520.467	773.19
520.682	837.19
520.898	817.19
521.113	723.19
521.329	715.19
521.544	793.19
521.76	706.19
521.975	717.19
522.19	745.19
522.406	724.19
522.621	953.19
522.836	901.19
523.052	738.19
523.267	748.19
523.482	753.19
523.698	730.19
523.913	755.19
524.128	751.19
524.343	810.19
524.559	843.19
524.774	778.19
524.989	794.19
525.204	747.19
525.419	773.19
525.634	758.19
525.849	738.19
526.064	743.19
526.28	723.19
526.495	673.19
526.71	665.19
526.925	642.19
527.14	659.19
527.355	633.19
527.57	638.19
527.785	683.19
527.999	679.19
528.214	677.19
528.429	710.19
528.644	768.19
528.859	779.19
529.074	837.19
529.289	907.19
529.503	881.19
529.718	817.19
529.933	741.19
530.148	680.19
530.363	639.19
530.577	629.19
530.792	641.19
531.007	618.19
531.221	618.19
531.436	646.19
531.651	642.19
531.865	656.19
532.08	659.19
532.295	641.19
532.509	643.19
532.724	614.19
532.938	662.19
533.153	722.19
533.367	717.19
533.582	715.19
533.796	743.19
534.011	730.19
534.225	674.19
534.44	661.19
534.654	649.19
534.868	663.19
535.083	691.19
535.297	712.19
535.511	676.19
535.726	677.19
535.94	710.19
536.154	655.19
536.369	615.19
536.583	615.19
536.797	608.19
537.011	622.19
537.225	589.19
537.44	608.19
537.654	627.19
537.868	619.19
538.082	602.19
538.296	581.19
538.51	651.19
538.724	667.19
538.938	711.19
539.153	727.19
539.367	746.19
539.581	718.19
539.795	664.19
540.009	641.19
540.222	647.19
540.436	671.19
540.65	779.19
540.864	788.19
541.078	841.19
541.292	838.19
541.506	908.19
541.72	980.19
541.934	1053.19
542.147	1081.19
542.361	1019.19
542.575	912.19
542.789	833.19
543.002	759.19
543.216	747.19
543.43	772.19
543.644	820.19
543.857	898.19
544.071	917.19
544.285	901.19
544.498	920.19
544.712	933.19
544.925	964.19
545.139	987.19
545.352	971.19
545.566	907.19
545.779	927.19
545.993	959.19
546.206	1000.19
546.42	967.19
546.633	949.19
546.847	945.19
547.06	959.19
547.274	974.19
547.487	991.19
547.7	1009.19
547.914	981.19
548.127	941.19
548.34	948.19
548.554	909.19
548.767	947.19
548.98	942.19
549.193	950.19
549.407	955.19
549.62	950.19
549.833	924.19
550.046	890.19
550.259	911.19
550.473	915.19
550.686	913.19
550.899	884.19
551.112	862.19
551.325	817.19
551.538	851.19
551.751	892.19
551.964	701.19
552.177	742.19
552.39	815.19
552.603	848.19
552.816	873.19
553.029	892.19
553.242	901.19
553.455	928.19
553.667	911.19
553.88	912.19
554.093	875.19
554.306	863.19
554.519	841.19
554.732	834.19
554.944	844.19
555.157	818.19
555.37	815.19
555.583	814.19
555.795	774.19
556.008	745.19
556.221	719.19
556.433	725.19
556.646	712.19
556.859	732.19
557.071	765.19
557.284	740.19
557.496	775.19
557.709	761.19
557.921	758.19
558.134	722.19
558.346	739.19
558.559	723.19
558.771	702.19
558.984	691.19
559.196	703.19
559.409	675.19
559.621	693.19
559.833	682.19
560.046	693.19
560.258	667.19
560.47	681.19
560.683	677.19
560.895	690.19
561.107	687.19
561.32	681.19
561.532	673.19
561.744	678.19
561.956	708.19
562.168	665.19
562.381	655.19
562.593	649.19
562.805	662.19
563.017	634.19
563.229	653.19
563.441	664.19
563.653	641.19
563.865	631.19
564.077	642.19
564.289	604.19
564.501	633.19
564.713	639.19
564.925	644.19
565.137	693.19
565.349	637.19
565.561	613.19
565.773	620.19
565.985	628.19
566.197	684.19
566.408	677.19
566.62	687.19
566.832	702.19
567.044	684.19
567.255	699.19
567.467	631.19
567.679	692.19
567.891	660.19
568.102	644.19
568.314	601.19
568.526	556.19
568.737	546.19
568.949	479.19
569.161	470.19
569.372	466.19
569.584	458.19
569.795	441.19
570.007	439.19
570.218	442.19
570.43	440.19
570.641	457.19
570.853	455.19
571.064	507.19
571.276	509.19
571.487	493.19
571.698	484.19
571.91	458.19
572.121	451.19
572.333	461.19
572.544	439.19
572.755	427.19
572.966	422.19
573.178	407.19
573.389	388.19
573.6	419.19
573.811	443.19
574.023	402.19
574.234	397.19
574.445	383.19
574.656	395.19
574.867	409.19
575.078	411.19
575.289	423.19
575.501	405.19
575.712	394.19
575.923	411.19
576.134	414.19
576.345	412.19
576.556	414.19
576.767	404.19
576.978	404.19
577.188	388.19
577.399	392.19
577.61	381.19
577.821	379.19
578.032	370.19
578.243	367.19
578.454	366.19
578.665	366.19
578.875	356.19
579.086	329.19
579.297	349.19
579.508	362.19
579.718	360.19
579.929	339.19
580.14	366.19
580.35	333.19
580.561	379.19
580.772	399.19
580.982	375.19
581.193	357.19
581.403	346.19
581.614	347.19
581.825	348.19
582.035	344.19
582.246	346.19
582.456	358.19
582.667	364.19
582.877	342.19
583.087	326.19
583.298	314.19
583.508	338.19
583.719	334.19
583.929	346.19
584.139	330.19
584.35	321.19
584.56	323.19
584.77	335.19
584.981	321.19
585.191	337.19
585.401	347.19
585.611	345.19
585.821	321.19
586.032	311.19
586.242	311.19
586.452	312.19
586.662	331.19
586.872	326.19
587.082	301.19
587.292	330.19
587.502	325.19
587.713	335.19
587.923	320.19
588.133	298.19
588.343	323.19
588.553	310.19
588.762	326.19
588.972	310.19
589.182	335.19
589.392	316.19
589.602	318.19
589.812	300.19
590.022	320.19
590.232	329.19
590.441	315.19
590.651	315.19
590.861	321.19
591.071	317.19
591.281	303.19
591.49	313.19
591.7	299.19
591.91	296.19
592.119	304.19
592.329	316.19
592.539	321.19
592.748	325.19
592.958	319.19
593.167	325.19
593.377	328.19
593.587	331.19
593.796	334.19
594.006	316.19
594.215	334.19
594.424	341.19
594.634	348.19
594.843	358.19
595.053	343.19
595.262	340.19
595.472	325.19
595.681	314.19
595.89	328.19
596.1	309.19
596.309	317.19
596.518	314.19
596.727	337.19
596.937	342.19
597.146	312.19
597.355	313.19
597.564	318.19
597.774	295.19
597.983	312.19
598.192	291.19
598.401	280.19
598.61	286.19
598.819	299.19
599.028	306.19
599.237	312.19
599.446	300.19
599.655	305.19
599.864	301.19
600.073	301.19
600.282	297.19
600.491	294.19
600.7	307.19
600.909	309.19
601.118	327.19
601.327	321.19
601.536	330.19
601.745	343.19
601.953	361.19
602.162	351.19
602.371	359.19
602.58	360.19
602.789	359.19
602.997	346.19
603.206	373.19
603.415	349.19
603.623	357.19
603.832	329.19
604.041	337.19
604.249	323.19
604.458	312.19
604.666	300.19
604.875	295.19
605.084	319.19
605.292	340.19
605.501	341.19
605.709	341.19
605.918	354.19
606.126	366.19
606.334	350.19
606.543	366.19
606.751	381.19
606.96	368.19
607.168	351.19
607.376	355.19
607.585	354.19
607.793	366.19
608.001	343.19
608.21	356.19
608.418	371.19
608.626	358.19
608.834	366.19
609.043	378.19
609.251	371.19
609.459	369.19
609.667	377.19
609.875	384.19
610.083	395.19
610.291	369.19
610.499	350.19
610.707	373.19
610.916	346.19
611.124	371.19
611.332	361.19
611.54	381.19
611.748	367.19
611.955	353.19
612.163	363.19
612.371	376.19
612.579	364.19
612.787	367.19
612.995	350.19
613.203	379.19
613.411	355.19
613.618	343.19
613.826	357.19
614.034	361.19
614.242	362.19
614.449	365.19
614.657	358.19
614.865	341.19
615.072	364.19
615.28	353.19
615.488	360.19
615.695	380.19
615.903	363.19
616.111	355.19
616.318	378.19
616.526	372.19
616.733	356.19
616.941	345.19
617.148	348.19
617.356	355.19
617.563	363.19
617.771	345.19
617.978	350.19
618.185	317.19
618.393	356.19
618.6	359.19
618.807	336.19
619.015	376.19
619.222	341.19
619.429	343.19
619.637	313.19
619.844	305.19
620.051	301.19
620.258	339.19
620.466	327.19
620.673	325.19
620.88	326.19
621.087	317.19
621.294	303.19
621.501	298.19
621.708	286.19
621.915	327.19
622.122	333.19
622.329	336.19
622.536	348.19
622.743	334.19
622.95	337.19
623.157	316.19
623.364	333.19
623.571	335.19
623.778	332.19
623.985	316.19
624.192	323.19
624.399	325.19
624.606	302.19
624.812	302.19
625.019	295.19
625.226	298.19
625.433	300.19
625.639	293.19
625.846	270.19
626.053	262.19
626.259	245.19
626.466	247.19
626.673	253.19
626.879	245.19
627.086	246.19
627.293	269.19
627.499	281.19
627.706	301.19
627.912	291.19
628.119	310.19
628.325	299.19
628.532	302.19
628.738	312.19
628.945	307.19
629.151	282.19
629.357	284.19
629.564	279.19
629.77	278.19
629.976	264.19
630.183	265.19
630.389	274.19
630.595	270.19
630.802	293.19
631.008	279.19
631.214	278.19
631.42	263.19
631.627	254.19
631.833	252.19
632.039	264.19
632.245	278.19
632.451	257.19
632.657	272.19
632.863	281.19
633.069	272.19
633.275	275.19
633.481	269.19
633.688	261.19
633.893	257.19
634.099	264.19
634.305	252.19
634.511	241.19
634.717	241.19
634.923	231.19
635.129	228.19
635.335	241.19
635.541	241.19
635.747	266.19
635.952	251.19
636.158	276.19
636.364	265.19
636.57	255.19
636.775	266.19
636.981	265.19
637.187	245.19
637.392	264.19
637.598	262.19
637.804	273.19
638.009	270.19
638.215	252.19
638.421	233.19
638.626	277.19
638.832	263.19
639.037	253.19
639.243	258.19
639.448	252.19
639.654	237.19
639.859	247.19
640.065	250.19
640.27	233.19
640.475	245.19
640.681	258.19
640.886	263.19
641.091	271.19
641.297	272.19
641.502	269.19
641.707	247.19
641.913	262.19
642.118	246.19
642.323	261.19
642.528	253.19
642.733	246.19
642.939	246.19
643.144	223.19
643.349	252.19
643.554	239.19
643.759	250.19
643.964	238.19
644.169	235.19
644.374	245.19
644.579	249.19
644.784	261.19
644.989	234.19
645.194	260.19
645.399	254.19
645.604	230.19
645.809	226.19
646.014	234.19
646.219	246.19
646.423	254.19
646.628	263.19
646.833	247.19
647.038	233.19
647.243	237.19
647.447	233.19
647.652	249.19
647.857	232.19
648.062	253.19
648.266	246.19
648.471	227.19
648.676	241.19
648.88	229.19
649.085	232.19
649.289	233.19
649.494	246.19
649.698	235.19
649.903	230.19
650.107	243.19
650.312	241.19
650.516	231.19
650.721	223.19
650.925	225.19
651.13	216.19
651.334	213.19
651.539	218.19
651.743	225.19
651.947	236.19
652.152	211.19
652.356	221.19
652.56	199.19
652.764	212.19
652.969	212.19
653.173	229.19
653.377	219.19
653.581	211.19
653.785	215.19
653.99	211.19
654.194	201.19
654.398	206.19
654.602	206.19
654.806	191.19
655.01	212.19
655.214	221.19
655.418	218.19
655.622	218.19
655.826	200.19
656.03	194.19
656.234	211.19
656.438	229.19
656.642	226.19
656.846	218.19
657.049	193.19
657.253	201.19
657.457	207.19
657.661	174.19
657.865	183.19
658.068	167.19
658.272	163.19
658.476	174.19
658.68	162.19
658.883	157.19
659.087	150.19
659.291	150.19
659.494	133.19
659.698	122.19
659.901	133.19
660.105	122.19
660.309	135.19
660.512	129.19
660.716	121.19
660.919	118.19
661.123	99.19
661.326	102.19
661.53	121.19
661.733	108.19
661.936	106.19
662.14	94.19
662.343	104.19
662.546	104.19
662.75	105.19
662.953	100.19
663.156	102.19
663.36	100.19
663.563	87.19
663.766	85.19
663.969	87.19
664.173	91.19
664.376	90.19
664.579	101.19
664.782	83.19
664.985	93.19
665.188	79.19
665.391	81.19
665.594	83.19
665.797	96.19
666	67.19
666.203	88.19
666.406	79.19
666.609	90.19
666.812	92.19
667.015	96.19
667.218	87.19
667.421	98.19
667.624	91.19
667.827	84.19
668.03	91.19
668.232	101.19
668.435	90.19
668.638	73.19
668.841	93.19
669.043	88.19
669.246	85.19
669.449	103.19
669.651	76.19
669.854	86.19
670.057	85.19
670.259	81.19
670.462	82.19
670.665	84.19
670.867	82.19
671.07	80.19
671.272	84.19
671.475	79.19
671.677	86.19
671.88	92.19
672.082	85.19
672.284	79.19
672.487	86.19
672.689	84.19
672.892	83.19
