Data from Zn(NO3)2Standard.Agarose3%.GreenCap.LampEnergy10E.O_HRD10591_15-06-27-942.txt Node
Date: Mon Jul 22 15:06:27 EDT 2019
User: cochatt
Spectrometer: HR+D1059
Trigger mode: 1
Integration Time (sec): 1.000000E-1
Scans to average: 1
Electric dark correction enabled: true
Nonlinearity correction enabled: false
Boxcar width: 0
XAxis mode: Wavelengths
Number of Pixels in Spectrum: 2048
>>>>>Begin Spectral Data<<<<<
223.165	-11.19
223.4	-11.19
223.635	-11.19
223.869	-20.19
224.104	-17.19
224.338	-11.19
224.573	-2.19
224.808	-18.19
225.042	-20.19
225.277	-1.19
225.511	-5.19
225.746	13.81
225.98	1.81
226.215	-1.19
226.449	-0.19
226.683	8.81
226.918	45.81
227.152	37.81
227.387	30.81
227.621	29.81
227.856	49.81
228.09	36.81
228.324	54.81
228.559	57.81
228.793	70.81
229.027	63.81
229.262	73.81
229.496	68.81
229.73	76.81
229.964	74.81
230.199	77.81
230.433	77.81
230.667	67.81
230.901	73.81
231.136	76.81
231.37	93.81
231.604	82.81
231.838	88.81
232.072	82.81
232.306	91.81
232.541	94.81
232.775	81.81
233.009	81.81
233.243	82.81
233.477	88.81
233.711	91.81
233.945	77.81
234.179	84.81
234.413	86.81
234.647	82.81
234.881	75.81
235.115	74.81
235.349	82.81
235.583	93.81
235.817	86.81
236.051	82.81
236.285	75.81
236.519	73.81
236.753	88.81
236.987	77.81
237.221	76.81
237.455	81.81
237.689	88.81
237.922	75.81
238.156	86.81
238.39	80.81
238.624	79.81
238.858	86.81
239.091	75.81
239.325	88.81
239.559	83.81
239.793	78.81
240.027	82.81
240.26	79.81
240.494	75.81
240.728	79.81
240.961	54.81
241.195	70.81
241.429	86.81
241.662	75.81
241.896	75.81
242.13	79.81
242.363	75.81
242.597	84.81
242.83	80.81
243.064	85.81
243.298	73.81
243.531	78.81
243.765	81.81
243.998	77.81
244.232	86.81
244.465	76.81
244.699	89.81
244.932	73.81
245.166	73.81
245.399	80.81
245.633	90.81
245.866	82.81
246.099	81.81
246.333	78.81
246.566	81.81
246.8	83.81
247.033	65.81
247.266	77.81
247.5	82.81
247.733	84.81
247.966	77.81
248.2	82.81
248.433	77.81
248.666	78.81
248.899	82.81
249.133	83.81
249.366	84.81
249.599	74.81
249.832	93.81
250.066	84.81
250.299	76.81
250.532	86.81
250.765	76.81
250.998	80.81
251.231	80.81
251.465	81.81
251.698	67.81
251.931	76.81
252.164	78.81
252.397	85.81
252.63	87.81
252.863	74.81
253.096	83.81
253.329	88.81
253.562	87.81
253.795	85.81
254.028	99.81
254.261	93.81
254.494	57.81
254.727	78.81
254.96	84.81
255.193	81.81
255.426	90.81
255.659	72.81
255.892	70.81
256.124	80.81
256.357	82.81
256.59	79.81
256.823	93.81
257.056	77.81
257.289	74.81
257.521	79.81
257.754	90.81
257.987	71.81
258.22	77.81
258.452	77.81
258.685	79.81
258.918	75.81
259.151	73.81
259.383	82.81
259.616	69.81
259.849	77.81
260.081	84.81
260.314	83.81
260.547	87.81
260.779	79.81
261.012	88.81
261.244	86.81
261.477	73.81
261.71	79.81
261.942	76.81
262.175	75.81
262.407	86.81
262.64	85.81
262.872	89.81
263.105	83.81
263.337	97.81
263.57	92.81
263.802	82.81
264.035	75.81
264.267	78.81
264.499	87.81
264.732	94.81
264.964	77.81
265.197	76.81
265.429	85.81
265.661	81.81
265.894	78.81
266.126	80.81
266.358	79.81
266.591	87.81
266.823	83.81
267.055	88.81
267.287	82.81
267.52	85.81
267.752	87.81
267.984	96.81
268.216	94.81
268.448	87.81
268.681	88.81
268.913	86.81
269.145	87.81
269.377	75.81
269.609	83.81
269.841	81.81
270.073	85.81
270.306	81.81
270.538	78.81
270.77	92.81
271.002	91.81
271.234	87.81
271.466	82.81
271.698	78.81
271.93	77.81
272.162	91.81
272.394	76.81
272.626	90.81
272.858	85.81
273.09	96.81
273.322	91.81
273.553	76.81
273.785	92.81
274.017	66.81
274.249	85.81
274.481	84.81
274.713	92.81
274.945	86.81
275.176	82.81
275.408	86.81
275.64	82.81
275.872	87.81
276.104	83.81
276.335	82.81
276.567	75.81
276.799	83.81
277.031	87.81
277.262	96.81
277.494	87.81
277.726	71.81
277.957	87.81
278.189	80.81
278.421	81.81
278.652	70.81
278.884	83.81
279.115	96.81
279.347	84.81
279.579	89.81
279.81	77.81
280.042	69.81
280.273	92.81
280.505	79.81
280.736	73.81
280.968	77.81
281.199	79.81
281.431	93.81
281.662	98.81
281.894	73.81
282.125	82.81
282.356	97.81
282.588	81.81
282.819	92.81
283.051	73.81
283.282	87.81
283.513	84.81
283.745	90.81
283.976	95.81
284.207	87.81
284.439	89.81
284.67	81.81
284.901	78.81
285.132	95.81
285.364	83.81
285.595	93.81
285.826	83.81
286.057	85.81
286.288	88.81
286.52	100.81
286.751	97.81
286.982	93.81
287.213	87.81
287.444	88.81
287.675	79.81
287.906	92.81
288.138	94.81
288.369	83.81
288.6	78.81
288.831	95.81
289.062	92.81
289.293	83.81
289.524	98.81
289.755	85.81
289.986	74.81
290.217	85.81
290.448	78.81
290.679	95.81
290.91	97.81
291.141	101.81
291.371	91.81
291.602	81.81
291.833	83.81
292.064	89.81
292.295	86.81
292.526	81.81
292.757	75.81
292.987	90.81
293.218	88.81
293.449	85.81
293.68	92.81
293.91	85.81
294.141	78.81
294.372	90.81
294.603	82.81
294.833	72.81
295.064	83.81
295.295	98.81
295.525	102.81
295.756	78.81
295.987	87.81
296.217	90.81
296.448	86.81
296.679	88.81
296.909	86.81
297.14	94.81
297.37	102.81
297.601	87.81
297.831	86.81
298.062	74.81
298.292	75.81
298.523	83.81
298.753	64.81
298.984	85.81
299.214	102.81
299.445	99.81
299.675	89.81
299.905	97.81
300.136	79.81
300.366	80.81
300.597	76.81
300.827	79.81
301.057	79.81
301.288	86.81
301.518	91.81
301.748	82.81
301.979	77.81
302.209	88.81
302.439	94.81
302.669	93.81
302.9	81.81
303.13	81.81
303.36	74.81
303.59	79.81
303.82	99.81
304.051	98.81
304.281	95.81
304.511	86.81
304.741	78.81
304.971	78.81
305.201	85.81
305.431	96.81
305.661	88.81
305.891	87.81
306.121	81.81
306.352	94.81
306.582	100.81
306.812	74.81
307.042	92.81
307.272	97.81
307.502	85.81
307.731	86.81
307.961	84.81
308.191	87.81
308.421	84.81
308.651	82.81
308.881	92.81
309.111	87.81
309.341	87.81
309.571	76.81
309.8	87.81
310.03	95.81
310.26	84.81
310.49	85.81
310.72	83.81
310.949	104.81
311.179	99.81
311.409	91.81
311.639	90.81
311.868	79.81
312.098	73.81
312.328	92.81
312.557	91.81
312.787	97.81
313.017	79.81
313.246	100.81
313.476	89.81
313.706	98.81
313.935	78.81
314.165	84.81
314.394	79.81
314.624	77.81
314.853	76.81
315.083	92.81
315.312	98.81
315.542	97.81
315.771	83.81
316.001	85.81
316.23	100.81
316.46	89.81
316.689	82.81
316.919	97.81
317.148	95.81
317.377	78.81
317.607	85.81
317.836	69.81
318.065	78.81
318.295	73.81
318.524	85.81
318.753	84.81
318.983	91.81
319.212	78.81
319.441	90.81
319.67	106.81
319.9	99.81
320.129	104.81
320.358	90.81
320.587	87.81
320.816	91.81
321.046	95.81
321.275	87.81
321.504	74.81
321.733	84.81
321.962	80.81
322.191	86.81
322.42	83.81
322.649	79.81
322.878	83.81
323.108	90.81
323.337	96.81
323.566	79.81
323.795	79.81
324.024	84.81
324.253	94.81
324.482	89.81
324.71	97.81
324.939	100.81
325.168	85.81
325.397	81.81
325.626	79.81
325.855	96.81
326.084	93.81
326.313	89.81
326.542	93.81
326.77	70.81
326.999	77.81
327.228	103.81
327.457	94.81
327.686	81.81
327.914	69.81
328.143	90.81
328.372	81.81
328.6	93.81
328.829	78.81
329.058	77.81
329.287	87.81
329.515	86.81
329.744	87.81
329.972	73.81
330.201	78.81
330.43	97.81
330.658	91.81
330.887	91.81
331.115	82.81
331.344	73.81
331.572	90.81
331.801	81.81
332.03	88.81
332.258	91.81
332.486	98.81
332.715	78.81
332.943	67.81
333.172	91.81
333.4	98.81
333.629	79.81
333.857	86.81
334.085	82.81
334.314	85.81
334.542	78.81
334.771	75.81
334.999	80.81
335.227	66.81
335.455	93.81
335.684	79.81
335.912	102.81
336.14	91.81
336.369	86.81
336.597	76.81
336.825	94.81
337.053	82.81
337.281	91.81
337.51	90.81
337.738	97.81
337.966	83.81
338.194	110.81
338.422	81.81
338.65	88.81
338.878	88.81
339.106	87.81
339.334	85.81
339.562	100.81
339.79	83.81
340.018	88.81
340.246	79.81
340.474	93.81
340.702	86.81
340.93	80.81
341.158	77.81
341.386	81.81
341.614	87.81
341.842	91.81
342.07	76.81
342.298	101.81
342.526	87.81
342.754	80.81
342.981	79.81
343.209	87.81
343.437	78.81
343.665	83.81
343.893	91.81
344.12	97.81
344.348	82.81
344.576	85.81
344.804	85.81
345.031	85.81
345.259	67.81
345.487	75.81
345.714	86.81
345.942	91.81
346.17	85.81
346.397	89.81
346.625	95.81
346.853	97.81
347.08	87.81
347.308	92.81
347.535	84.81
347.763	80.81
347.99	98.81
348.218	92.81
348.445	85.81
348.673	86.81
348.9	90.81
349.128	95.81
349.355	77.81
349.583	77.81
349.81	89.81
350.037	84.81
350.265	92.81
350.492	82.81
350.72	93.81
350.947	79.81
351.174	85.81
351.402	88.81
351.629	83.81
351.856	77.81
352.083	83.81
352.311	93.81
352.538	73.81
352.765	92.81
352.992	79.81
353.22	86.81
353.447	81.81
353.674	85.81
353.901	93.81
354.128	98.81
354.355	90.81
354.583	82.81
354.81	96.81
355.037	90.81
355.264	90.81
355.491	84.81
355.718	93.81
355.945	91.81
356.172	89.81
356.399	80.81
356.626	89.81
356.853	88.81
357.08	75.81
357.307	82.81
357.534	74.81
357.761	80.81
357.988	97.81
358.215	80.81
358.441	87.81
358.668	87.81
358.895	89.81
359.122	91.81
359.349	92.81
359.576	97.81
359.802	90.81
360.029	85.81
360.256	87.81
360.483	97.81
360.709	82.81
360.936	82.81
361.163	89.81
361.39	75.81
361.616	87.81
361.843	86.81
362.07	82.81
362.296	87.81
362.523	86.81
362.749	92.81
362.976	87.81
363.203	84.81
363.429	80.81
363.656	83.81
363.882	76.81
364.109	87.81
364.335	83.81
364.562	84.81
364.788	99.81
365.015	87.81
365.241	96.81
365.468	78.81
365.694	89.81
365.92	94.81
366.147	90.81
366.373	89.81
366.599	86.81
366.826	99.81
367.052	87.81
367.278	93.81
367.505	88.81
367.731	90.81
367.957	93.81
368.184	93.81
368.41	95.81
368.636	90.81
368.862	79.81
369.089	97.81
369.315	87.81
369.541	87.81
369.767	88.81
369.993	78.81
370.219	89.81
370.445	76.81
370.672	76.81
370.898	89.81
371.124	90.81
371.35	90.81
371.576	76.81
371.802	80.81
372.028	86.81
372.254	87.81
372.48	98.81
372.706	93.81
372.932	71.81
373.158	94.81
373.384	76.81
373.61	81.81
373.835	91.81
374.061	90.81
374.287	103.81
374.513	80.81
374.739	87.81
374.965	90.81
375.191	90.81
375.416	90.81
375.642	92.81
375.868	93.81
376.094	93.81
376.319	86.81
376.545	95.81
376.771	96.81
376.997	77.81
377.222	82.81
377.448	89.81
377.674	84.81
377.899	92.81
378.125	99.81
378.35	89.81
378.576	98.81
378.802	89.81
379.027	79.81
379.253	89.81
379.478	90.81
379.704	90.81
379.929	89.81
380.155	89.81
380.38	93.81
380.606	88.81
380.831	79.81
381.057	108.81
381.282	88.81
381.507	85.81
381.733	74.81
381.958	78.81
382.184	71.81
382.409	100.81
382.634	102.81
382.86	98.81
383.085	88.81
383.31	90.81
383.535	82.81
383.761	71.81
383.986	85.81
384.211	76.81
384.436	79.81
384.662	87.81
384.887	90.81
385.112	83.81
385.337	86.81
385.562	85.81
385.787	83.81
386.013	91.81
386.238	101.81
386.463	95.81
386.688	96.81
386.913	92.81
387.138	86.81
387.363	86.81
387.588	102.81
387.813	110.81
388.038	83.81
388.263	86.81
388.488	77.81
388.713	78.81
388.938	90.81
389.163	99.81
389.387	89.81
389.612	92.81
389.837	91.81
390.062	94.81
390.287	87.81
390.512	90.81
390.736	97.81
390.961	92.81
391.186	99.81
391.411	96.81
391.636	86.81
391.86	105.81
392.085	94.81
392.31	94.81
392.534	90.81
392.759	85.81
392.984	96.81
393.208	93.81
393.433	90.81
393.658	101.81
393.882	93.81
394.107	95.81
394.331	84.81
394.556	90.81
394.78	92.81
395.005	85.81
395.229	95.81
395.454	85.81
395.678	109.81
395.903	87.81
396.127	92.81
396.352	94.81
396.576	95.81
396.801	98.81
397.025	99.81
397.249	93.81
397.474	88.81
397.698	95.81
397.922	102.81
398.147	105.81
398.371	90.81
398.595	96.81
398.82	83.81
399.044	95.81
399.268	94.81
399.492	79.81
399.717	81.81
399.941	101.81
400.165	85.81
400.389	105.81
400.613	101.81
400.837	90.81
401.062	98.81
401.286	96.81
401.51	101.81
401.734	110.81
401.958	102.81
402.182	117.81
402.406	106.81
402.63	119.81
402.854	107.81
403.078	97.81
403.302	93.81
403.526	95.81
403.75	98.81
403.974	96.81
404.198	106.81
404.422	88.81
404.645	101.81
404.869	100.81
405.093	100.81
405.317	122.81
405.541	106.81
405.765	100.81
405.988	106.81
406.212	109.81
406.436	116.81
406.66	105.81
406.883	95.81
407.107	102.81
407.331	91.81
407.555	105.81
407.778	108.81
408.002	84.81
408.226	100.81
408.449	101.81
408.673	117.81
408.896	103.81
409.12	105.81
409.344	88.81
409.567	100.81
409.791	104.81
410.014	110.81
410.238	107.81
410.461	98.81
410.685	107.81
410.908	102.81
411.132	105.81
411.355	107.81
411.578	95.81
411.802	92.81
412.025	94.81
412.249	106.81
412.472	91.81
412.695	89.81
412.919	89.81
413.142	98.81
413.365	112.81
413.589	95.81
413.812	111.81
414.035	109.81
414.258	100.81
414.482	87.81
414.705	106.81
414.928	105.81
415.151	90.81
415.374	113.81
415.597	86.81
415.821	101.81
416.044	93.81
416.267	99.81
416.49	89.81
416.713	113.81
416.936	97.81
417.159	100.81
417.382	116.81
417.605	99.81
417.828	114.81
418.051	88.81
418.274	113.81
418.497	117.81
418.72	114.81
418.943	107.81
419.166	100.81
419.389	123.81
419.611	93.81
419.834	103.81
420.057	115.81
420.28	120.81
420.503	101.81
420.726	110.81
420.948	101.81
421.171	119.81
421.394	104.81
421.617	103.81
421.839	113.81
422.062	106.81
422.285	118.81
422.507	101.81
422.73	108.81
422.953	86.81
423.175	87.81
423.398	107.81
423.621	92.81
423.843	114.81
424.066	113.81
424.288	113.81
424.511	124.81
424.733	114.81
424.956	116.81
425.178	103.81
425.401	116.81
425.623	100.81
425.846	109.81
426.068	118.81
426.291	117.81
426.513	101.81
426.735	100.81
426.958	113.81
427.18	119.81
427.402	96.81
427.625	93.81
427.847	99.81
428.069	91.81
428.292	100.81
428.514	111.81
428.736	95.81
428.958	90.81
429.181	101.81
429.403	94.81
429.625	98.81
429.847	108.81
430.069	106.81
430.292	110.81
430.514	90.81
430.736	95.81
430.958	115.81
431.18	99.81
431.402	104.81
431.624	95.81
431.846	96.81
432.068	91.81
432.29	106.81
432.512	100.81
432.734	102.81
432.956	105.81
433.178	107.81
433.4	123.81
433.622	115.81
433.844	97.81
434.066	83.81
434.287	97.81
434.509	89.81
434.731	85.81
434.953	94.81
435.175	106.81
435.397	117.81
435.618	101.81
435.84	97.81
436.062	97.81
436.284	102.81
436.505	106.81
436.727	110.81
436.949	103.81
437.17	105.81
437.392	110.81
437.614	114.81
437.835	99.81
438.057	77.81
438.278	91.81
438.5	101.81
438.721	101.81
438.943	116.81
439.165	110.81
439.386	114.81
439.608	115.81
439.829	118.81
440.05	120.81
440.272	118.81
440.493	107.81
440.715	115.81
440.936	105.81
441.158	110.81
441.379	110.81
441.6	115.81
441.822	122.81
442.043	106.81
442.264	116.81
442.486	99.81
442.707	104.81
442.928	114.81
443.149	96.81
443.371	105.81
443.592	116.81
443.813	115.81
444.034	113.81
444.255	109.81
444.476	107.81
444.698	115.81
444.919	114.81
445.14	248.81
445.361	167.81
445.582	107.81
445.803	103.81
446.024	103.81
446.245	124.81
446.466	109.81
446.687	105.81
446.908	131.81
447.129	116.81
447.35	123.81
447.571	116.81
447.792	110.81
448.013	115.81
448.234	109.81
448.455	120.81
448.675	115.81
448.896	107.81
449.117	93.81
449.338	102.81
449.559	118.81
449.779	125.81
450	106.81
450.221	114.81
450.442	107.81
450.662	106.81
450.883	113.81
451.104	102.81
451.324	110.81
451.545	109.81
451.766	121.81
451.986	113.81
452.207	103.81
452.428	103.81
452.648	95.81
452.869	103.81
453.089	92.81
453.31	111.81
453.53	117.81
453.751	89.81
453.971	102.81
454.192	110.81
454.412	91.81
454.633	95.81
454.853	92.81
455.073	96.81
455.294	102.81
455.514	109.81
455.734	105.81
455.955	105.81
456.175	103.81
456.395	108.81
456.616	100.81
456.836	99.81
457.056	91.81
457.276	92.81
457.497	86.81
457.717	94.81
457.937	89.81
458.157	103.81
458.377	95.81
458.598	99.81
458.818	95.81
459.038	93.81
459.258	84.81
459.478	91.81
459.698	90.81
459.918	77.81
460.138	95.81
460.358	107.81
460.578	111.81
460.798	105.81
461.018	94.81
461.238	98.81
461.458	105.81
461.678	101.81
461.898	96.81
462.118	110.81
462.338	103.81
462.558	99.81
462.777	104.81
462.997	101.81
463.217	88.81
463.437	91.81
463.657	104.81
463.876	102.81
464.096	94.81
464.316	106.81
464.536	92.81
464.755	96.81
464.975	86.81
465.195	106.81
465.414	102.81
465.634	98.81
465.854	97.81
466.073	117.81
466.293	98.81
466.512	101.81
466.732	122.81
466.951	101.81
467.171	110.81
467.391	108.81
467.61	108.81
467.829	104.81
468.049	110.81
468.268	114.81
468.488	107.81
468.707	106.81
468.927	109.81
469.146	117.81
469.365	115.81
469.585	108.81
469.804	106.81
470.023	123.81
470.243	121.81
470.462	124.81
470.681	129.81
470.901	104.81
471.12	115.81
471.339	112.81
471.558	125.81
471.777	103.81
471.997	103.81
472.216	116.81
472.435	100.81
472.654	113.81
472.873	106.81
473.092	91.81
473.311	99.81
473.53	116.81
473.749	118.81
473.968	113.81
474.187	104.81
474.406	88.81
474.625	98.81
474.844	110.81
475.063	99.81
475.282	100.81
475.501	114.81
475.72	104.81
475.939	105.81
476.158	100.81
476.377	105.81
476.596	115.81
476.814	101.81
477.033	93.81
477.252	91.81
477.471	102.81
477.69	114.81
477.908	111.81
478.127	108.81
478.346	111.81
478.564	112.81
478.783	110.81
479.002	113.81
479.22	107.81
479.439	117.81
479.658	95.81
479.876	103.81
480.095	98.81
480.313	102.81
480.532	99.81
480.751	95.81
480.969	91.81
481.188	87.81
481.406	80.81
481.624	75.81
481.843	78.81
482.061	98.81
482.28	95.81
482.498	99.81
482.717	109.81
482.935	106.81
483.153	123.81
483.372	123.81
483.59	114.81
483.808	110.81
484.027	104.81
484.245	95.81
484.463	117.81
484.681	127.81
484.9	103.81
485.118	105.81
485.336	102.81
485.554	109.81
485.772	102.81
485.99	104.81
486.209	80.81
486.427	92.81
486.645	105.81
486.863	109.81
487.081	121.81
487.299	121.81
487.517	102.81
487.735	126.81
487.953	131.81
488.171	107.81
488.389	120.81
488.607	115.81
488.825	117.81
489.043	105.81
489.261	119.81
489.479	114.81
489.696	124.81
489.914	99.81
490.132	109.81
490.35	110.81
490.568	130.81
490.786	113.81
491.003	131.81
491.221	124.81
491.439	138.81
491.657	117.81
491.874	129.81
492.092	130.81
492.31	159.81
492.527	143.81
492.745	131.81
492.963	143.81
493.18	134.81
493.398	124.81
493.615	135.81
493.833	130.81
494.05	121.81
494.268	129.81
494.485	118.81
494.703	137.81
494.92	122.81
495.138	121.81
495.355	135.81
495.573	135.81
495.79	130.81
496.008	133.81
496.225	134.81
496.442	119.81
496.66	126.81
496.877	126.81
497.094	126.81
497.312	116.81
497.529	115.81
497.746	126.81
497.963	101.81
498.181	87.81
498.398	94.81
498.615	104.81
498.832	105.81
499.049	99.81
499.267	106.81
499.484	114.81
499.701	124.81
499.918	113.81
500.135	120.81
500.352	100.81
500.569	112.81
500.786	109.81
501.003	108.81
501.22	113.81
501.437	104.81
501.654	114.81
501.871	123.81
502.088	107.81
502.305	110.81
502.522	113.81
502.739	113.81
502.956	120.81
503.172	114.81
503.389	108.81
503.606	94.81
503.823	99.81
504.04	110.81
504.256	103.81
504.473	102.81
504.69	108.81
504.907	107.81
505.123	97.81
505.34	103.81
505.557	103.81
505.773	114.81
505.99	108.81
506.207	109.81
506.423	101.81
506.64	98.81
506.856	113.81
507.073	106.81
507.289	105.81
507.506	85.81
507.722	102.81
507.939	109.81
508.155	109.81
508.372	107.81
508.588	100.81
508.805	105.81
509.021	103.81
509.238	103.81
509.454	90.81
509.67	85.81
509.887	86.81
510.103	95.81
510.319	83.81
510.536	89.81
510.752	93.81
510.968	90.81
511.184	93.81
511.401	85.81
511.617	86.81
511.833	93.81
512.049	102.81
512.265	89.81
512.481	75.81
512.698	93.81
512.914	85.81
513.13	95.81
513.346	95.81
513.562	84.81
513.778	99.81
513.994	94.81
514.21	79.81
514.426	98.81
514.642	103.81
514.858	89.81
515.074	79.81
515.29	104.81
515.506	80.81
515.721	87.81
515.937	90.81
516.153	83.81
516.369	84.81
516.585	113.81
516.801	89.81
517.016	87.81
517.232	76.81
517.448	85.81
517.664	94.81
517.879	90.81
518.095	90.81
518.311	78.81
518.527	89.81
518.742	100.81
518.958	83.81
519.173	99.81
519.389	97.81
519.605	86.81
519.82	89.81
520.036	97.81
520.251	88.81
520.467	97.81
520.682	86.81
520.898	94.81
521.113	91.81
521.329	84.81
521.544	88.81
521.76	102.81
521.975	94.81
522.19	104.81
522.406	93.81
522.621	103.81
522.836	85.81
523.052	94.81
523.267	96.81
523.482	96.81
523.698	106.81
523.913	100.81
524.128	102.81
524.343	103.81
524.559	104.81
524.774	98.81
524.989	113.81
525.204	92.81
525.419	93.81
525.634	92.81
525.849	101.81
526.064	98.81
526.28	92.81
526.495	80.81
526.71	80.81
526.925	83.81
527.14	86.81
527.355	92.81
527.57	83.81
527.785	88.81
527.999	76.81
528.214	89.81
528.429	100.81
528.644	86.81
528.859	103.81
529.074	121.81
529.289	127.81
529.503	106.81
529.718	109.81
529.933	107.81
530.148	106.81
530.363	91.81
530.577	82.81
530.792	83.81
531.007	87.81
531.221	84.81
531.436	91.81
531.651	87.81
531.865	90.81
532.08	80.81
532.295	94.81
532.509	90.81
532.724	80.81
532.938	88.81
533.153	85.81
533.367	106.81
533.582	108.81
533.796	106.81
534.011	114.81
534.225	105.81
534.44	97.81
534.654	93.81
534.868	90.81
535.083	87.81
535.297	106.81
535.511	104.81
535.726	90.81
535.94	100.81
536.154	100.81
536.369	90.81
536.583	96.81
536.797	107.81
537.011	77.81
537.225	78.81
537.44	89.81
537.654	89.81
537.868	89.81
538.082	94.81
538.296	84.81
538.51	105.81
538.724	91.81
538.938	104.81
539.153	105.81
539.367	114.81
539.581	104.81
539.795	83.81
540.009	93.81
540.222	94.81
540.436	87.81
540.65	97.81
540.864	90.81
541.078	112.81
541.292	114.81
541.506	118.81
541.72	123.81
541.934	140.81
542.147	127.81
542.361	135.81
542.575	121.81
542.789	114.81
543.002	136.81
543.216	103.81
543.43	114.81
543.644	110.81
543.857	111.81
544.071	120.81
544.285	123.81
544.498	113.81
544.712	125.81
544.925	115.81
545.139	130.81
545.352	108.81
545.566	121.81
545.779	123.81
545.993	118.81
546.206	125.81
546.42	128.81
546.633	130.81
546.847	134.81
547.06	127.81
547.274	147.81
547.487	129.81
547.7	141.81
547.914	131.81
548.127	133.81
548.34	127.81
548.554	122.81
548.767	119.81
548.98	124.81
549.193	123.81
549.407	124.81
549.62	110.81
549.833	101.81
550.046	133.81
550.259	123.81
550.473	116.81
550.686	117.81
550.899	111.81
551.112	119.81
551.325	110.81
551.538	124.81
551.751	107.81
551.964	91.81
552.177	105.81
552.39	118.81
552.603	115.81
552.816	131.81
553.029	127.81
553.242	122.81
553.455	129.81
553.667	133.81
553.88	119.81
554.093	127.81
554.306	127.81
554.519	115.81
554.732	115.81
554.944	121.81
555.157	120.81
555.37	117.81
555.583	107.81
555.795	123.81
556.008	107.81
556.221	113.81
556.433	104.81
556.646	101.81
556.859	115.81
557.071	115.81
557.284	123.81
557.496	121.81
557.709	106.81
557.921	101.81
558.134	122.81
558.346	122.81
558.559	100.81
558.771	101.81
558.984	108.81
559.196	105.81
559.409	106.81
559.621	119.81
559.833	125.81
560.046	114.81
560.258	101.81
560.47	119.81
560.683	120.81
560.895	106.81
561.107	117.81
561.32	110.81
561.532	99.81
561.744	102.81
561.956	108.81
562.168	90.81
562.381	127.81
562.593	104.81
562.805	108.81
563.017	106.81
563.229	97.81
563.441	94.81
563.653	109.81
563.865	107.81
564.077	116.81
564.289	113.81
564.501	98.81
564.713	116.81
564.925	111.81
565.137	93.81
565.349	87.81
565.561	107.81
565.773	115.81
565.985	99.81
566.197	102.81
566.408	106.81
566.62	107.81
566.832	102.81
567.044	93.81
567.255	93.81
567.467	97.81
567.679	96.81
567.891	97.81
568.102	86.81
568.314	94.81
568.526	68.81
568.737	78.81
568.949	98.81
569.161	83.81
569.372	77.81
569.584	79.81
569.795	81.81
570.007	86.81
570.218	92.81
570.43	94.81
570.641	85.81
570.853	93.81
571.064	96.81
571.276	101.81
571.487	98.81
571.698	91.81
571.91	87.81
572.121	99.81
572.333	86.81
572.544	73.81
572.755	107.81
572.966	95.81
573.178	86.81
573.389	87.81
573.6	100.81
573.811	81.81
574.023	92.81
574.234	80.81
574.445	105.81
574.656	94.81
574.867	98.81
575.078	87.81
575.289	97.81
575.501	93.81
575.712	84.81
575.923	87.81
576.134	89.81
576.345	102.81
576.556	94.81
576.767	95.81
576.978	82.81
577.188	81.81
577.399	102.81
577.61	87.81
577.821	84.81
578.032	94.81
578.243	97.81
578.454	89.81
578.665	99.81
578.875	87.81
579.086	82.81
579.297	78.81
579.508	72.81
579.718	79.81
579.929	88.81
580.14	95.81
580.35	83.81
580.561	91.81
580.772	95.81
580.982	92.81
581.193	88.81
581.403	90.81
581.614	76.81
581.825	85.81
582.035	94.81
582.246	98.81
582.456	90.81
582.667	86.81
582.877	95.81
583.087	78.81
583.298	95.81
583.508	102.81
583.719	92.81
583.929	86.81
584.139	87.81
584.35	95.81
584.56	90.81
584.77	91.81
584.981	83.81
585.191	91.81
585.401	90.81
585.611	91.81
585.821	90.81
586.032	94.81
586.242	92.81
586.452	86.81
586.662	90.81
586.872	80.81
587.082	77.81
587.292	96.81
587.502	83.81
587.713	90.81
587.923	86.81
588.133	98.81
588.343	84.81
588.553	87.81
588.762	85.81
588.972	86.81
589.182	86.81
589.392	87.81
589.602	84.81
589.812	80.81
590.022	79.81
590.232	78.81
590.441	90.81
590.651	80.81
590.861	71.81
591.071	94.81
591.281	91.81
591.49	89.81
591.7	76.81
591.91	101.81
592.119	74.81
592.329	89.81
592.539	83.81
592.748	73.81
592.958	88.81
593.167	90.81
593.377	77.81
593.587	91.81
593.796	96.81
594.006	89.81
594.215	86.81
594.424	91.81
594.634	88.81
594.843	93.81
595.053	93.81
595.262	87.81
595.472	89.81
595.681	83.81
595.89	83.81
596.1	82.81
596.309	88.81
596.518	99.81
596.727	98.81
596.937	97.81
597.146	89.81
597.355	76.81
597.564	98.81
597.774	89.81
597.983	95.81
598.192	78.81
598.401	83.81
598.61	94.81
598.819	85.81
599.028	85.81
599.237	88.81
599.446	79.81
599.655	90.81
599.864	90.81
600.073	95.81
600.282	93.81
600.491	83.81
600.7	78.81
600.909	94.81
601.118	87.81
601.327	104.81
601.536	108.81
601.745	97.81
601.953	97.81
602.162	90.81
602.371	106.81
602.58	106.81
602.789	98.81
602.997	84.81
603.206	111.81
603.415	113.81
603.623	93.81
603.832	91.81
604.041	105.81
604.249	116.81
604.458	95.81
604.666	105.81
604.875	88.81
605.084	85.81
605.292	95.81
605.501	107.81
605.709	95.81
605.918	83.81
606.126	106.81
606.334	106.81
606.543	118.81
606.751	113.81
606.96	93.81
607.168	103.81
607.376	106.81
607.585	94.81
607.793	109.81
608.001	89.81
608.21	99.81
608.418	104.81
608.626	94.81
608.834	104.81
609.043	109.81
609.251	89.81
609.459	84.81
609.667	107.81
609.875	110.81
610.083	92.81
610.291	102.81
610.499	97.81
610.707	91.81
610.916	79.81
611.124	95.81
611.332	115.81
611.54	101.81
611.748	101.81
611.955	109.81
612.163	87.81
612.371	94.81
612.579	98.81
612.787	117.81
612.995	109.81
613.203	100.81
613.411	94.81
613.618	94.81
613.826	95.81
614.034	113.81
614.242	107.81
614.449	105.81
614.657	103.81
614.865	85.81
615.072	105.81
615.28	113.81
615.488	97.81
615.695	93.81
615.903	97.81
616.111	94.81
616.318	98.81
616.526	88.81
616.733	94.81
616.941	113.81
617.148	107.81
617.356	100.81
617.563	87.81
617.771	91.81
617.978	100.81
618.185	96.81
618.393	88.81
618.6	94.81
618.807	107.81
619.015	102.81
619.222	87.81
619.429	108.81
619.637	106.81
619.844	96.81
620.051	94.81
620.258	92.81
620.466	96.81
620.673	83.81
620.88	102.81
621.087	96.81
621.294	97.81
621.501	110.81
621.708	108.81
621.915	108.81
622.122	93.81
622.329	104.81
622.536	97.81
622.743	103.81
622.95	102.81
623.157	98.81
623.364	87.81
623.571	99.81
623.778	95.81
623.985	109.81
624.192	91.81
624.399	101.81
624.606	106.81
624.812	101.81
625.019	95.81
625.226	91.81
625.433	100.81
625.639	87.81
625.846	99.81
626.053	79.81
626.259	86.81
626.466	90.81
626.673	89.81
626.879	79.81
627.086	89.81
627.293	88.81
627.499	94.81
627.706	106.81
627.912	99.81
628.119	99.81
628.325	98.81
628.532	104.81
628.738	90.81
628.945	98.81
629.151	94.81
629.357	94.81
629.564	95.81
629.77	102.81
629.976	75.81
630.183	93.81
630.389	85.81
630.595	91.81
630.802	105.81
631.008	93.81
631.214	101.81
631.42	79.81
631.627	97.81
631.833	95.81
632.039	100.81
632.245	92.81
632.451	90.81
632.657	90.81
632.863	90.81
633.069	96.81
633.275	107.81
633.481	95.81
633.688	97.81
633.893	88.81
634.099	88.81
634.305	94.81
634.511	94.81
634.717	97.81
634.923	99.81
635.129	91.81
635.335	96.81
635.541	86.81
635.747	96.81
635.952	98.81
636.158	96.81
636.364	98.81
636.57	88.81
636.775	106.81
636.981	95.81
637.187	87.81
637.392	90.81
637.598	91.81
637.804	77.81
638.009	96.81
638.215	83.81
638.421	94.81
638.626	95.81
638.832	101.81
639.037	100.81
639.243	90.81
639.448	84.81
639.654	93.81
639.859	86.81
640.065	94.81
640.27	101.81
640.475	91.81
640.681	85.81
640.886	94.81
641.091	91.81
641.297	81.81
641.502	82.81
641.707	86.81
641.913	101.81
642.118	108.81
642.323	100.81
642.528	95.81
642.733	84.81
642.939	89.81
643.144	90.81
643.349	93.81
643.554	86.81
643.759	84.81
643.964	87.81
644.169	91.81
644.374	84.81
644.579	79.81
644.784	94.81
644.989	103.81
645.194	84.81
645.399	96.81
645.604	93.81
645.809	82.81
646.014	87.81
646.219	100.81
646.423	100.81
646.628	101.81
646.833	88.81
647.038	102.81
647.243	85.81
647.447	95.81
647.652	97.81
647.857	88.81
648.062	90.81
648.266	79.81
648.471	99.81
648.676	92.81
648.88	95.81
649.085	97.81
649.289	87.81
649.494	92.81
649.698	73.81
649.903	77.81
650.107	97.81
650.312	95.81
650.516	87.81
650.721	90.81
650.925	87.81
651.13	99.81
651.334	94.81
651.539	94.81
651.743	100.81
651.947	90.81
652.152	84.81
652.356	101.81
652.56	88.81
652.764	91.81
652.969	81.81
653.173	94.81
653.377	89.81
653.581	87.81
653.785	78.81
653.99	91.81
654.194	77.81
654.398	85.81
654.602	83.81
654.806	72.81
655.01	92.81
655.214	88.81
655.418	87.81
655.622	91.81
655.826	93.81
656.03	75.81
656.234	85.81
656.438	87.81
656.642	97.81
656.846	86.81
657.049	95.81
657.253	82.81
657.457	85.81
657.661	87.81
657.865	93.81
658.068	86.81
658.272	90.81
658.476	83.81
658.68	86.81
658.883	68.81
659.087	86.81
659.291	87.81
659.494	92.81
659.698	74.81
659.901	69.81
660.105	88.81
660.309	87.81
660.512	87.81
660.716	91.81
660.919	79.81
661.123	88.81
661.326	105.81
661.53	85.81
661.733	77.81
661.936	84.81
662.14	84.81
662.343	83.81
662.546	82.81
662.75	83.81
662.953	92.81
663.156	82.81
663.36	69.81
663.563	77.81
663.766	90.81
663.969	90.81
664.173	76.81
664.376	77.81
664.579	71.81
664.782	88.81
664.985	70.81
665.188	89.81
665.391	88.81
665.594	77.81
665.797	82.81
666	83.81
666.203	72.81
666.406	79.81
666.609	79.81
666.812	84.81
667.015	78.81
667.218	89.81
667.421	87.81
667.624	81.81
667.827	82.81
668.03	73.81
668.232	81.81
668.435	98.81
668.638	80.81
668.841	91.81
669.043	86.81
669.246	77.81
669.449	87.81
669.651	88.81
669.854	76.81
670.057	90.81
670.259	80.81
670.462	93.81
670.665	86.81
670.867	89.81
671.07	93.81
671.272	79.81
671.475	90.81
671.677	64.81
671.88	83.81
672.082	89.81
672.284	94.81
672.487	75.81
672.689	85.81
672.892	80.81
