Data from Zn(NO3)2Standard.Agarose3%.GreenCap.LampEnergy5.5.E.O_HRD10591_15-01-14-768.txt Node
Date: Mon Jul 22 15:01:14 EDT 2019
User: cochatt
Spectrometer: HR+D1059
Trigger mode: 1
Integration Time (sec): 1.000000E-1
Scans to average: 1
Electric dark correction enabled: true
Nonlinearity correction enabled: false
Boxcar width: 0
XAxis mode: Wavelengths
Number of Pixels in Spectrum: 2048
>>>>>Begin Spectral Data<<<<<
223.165	-23.19
223.4	-23.19
223.635	-23.19
223.869	-24.19
224.104	-14.19
224.338	-10.19
224.573	-15.19
224.808	-9.19
225.042	-20.19
225.277	-8.19
225.511	0.81
225.746	-2.19
225.98	19.81
226.215	11.81
226.449	7.81
226.683	20.81
226.918	27.81
227.152	37.81
227.387	26.81
227.621	43.81
227.856	36.81
228.09	39.81
228.324	59.81
228.559	48.81
228.793	54.81
229.027	62.81
229.262	65.81
229.496	69.81
229.73	65.81
229.964	47.81
230.199	73.81
230.433	87.81
230.667	84.81
230.901	77.81
231.136	74.81
231.37	78.81
231.604	79.81
231.838	74.81
232.072	85.81
232.306	81.81
232.541	86.81
232.775	84.81
233.009	91.81
233.243	79.81
233.477	99.81
233.711	68.81
233.945	81.81
234.179	73.81
234.413	85.81
234.647	75.81
234.881	86.81
235.115	85.81
235.349	76.81
235.583	86.81
235.817	80.81
236.051	79.81
236.285	74.81
236.519	87.81
236.753	88.81
236.987	82.81
237.221	77.81
237.455	71.81
237.689	74.81
237.922	87.81
238.156	69.81
238.39	61.81
238.624	80.81
238.858	82.81
239.091	79.81
239.325	66.81
239.559	83.81
239.793	101.81
240.027	83.81
240.26	86.81
240.494	84.81
240.728	66.81
240.961	81.81
241.195	69.81
241.429	80.81
241.662	87.81
241.896	78.81
242.13	88.81
242.363	70.81
242.597	68.81
242.83	80.81
243.064	80.81
243.298	69.81
243.531	90.81
243.765	73.81
243.998	81.81
244.232	77.81
244.465	98.81
244.699	86.81
244.932	76.81
245.166	81.81
245.399	69.81
245.633	96.81
245.866	77.81
246.099	72.81
246.333	80.81
246.566	76.81
246.8	80.81
247.033	82.81
247.266	78.81
247.5	65.81
247.733	65.81
247.966	62.81
248.2	68.81
248.433	76.81
248.666	85.81
248.899	69.81
249.133	73.81
249.366	79.81
249.599	80.81
249.832	74.81
250.066	65.81
250.299	61.81
250.532	82.81
250.765	79.81
250.998	86.81
251.231	84.81
251.465	70.81
251.698	80.81
251.931	83.81
252.164	86.81
252.397	85.81
252.63	93.81
252.863	77.81
253.096	74.81
253.329	94.81
253.562	82.81
253.795	76.81
254.028	74.81
254.261	84.81
254.494	71.81
254.727	87.81
254.96	85.81
255.193	79.81
255.426	85.81
255.659	80.81
255.892	85.81
256.124	80.81
256.357	79.81
256.59	72.81
256.823	80.81
257.056	79.81
257.289	84.81
257.521	82.81
257.754	82.81
257.987	77.81
258.22	81.81
258.452	70.81
258.685	70.81
258.918	79.81
259.151	73.81
259.383	93.81
259.616	78.81
259.849	72.81
260.081	94.81
260.314	76.81
260.547	76.81
260.779	81.81
261.012	69.81
261.244	78.81
261.477	86.81
261.71	83.81
261.942	73.81
262.175	88.81
262.407	78.81
262.64	83.81
262.872	78.81
263.105	91.81
263.337	86.81
263.57	81.81
263.802	79.81
264.035	94.81
264.267	87.81
264.499	75.81
264.732	78.81
264.964	83.81
265.197	86.81
265.429	91.81
265.661	75.81
265.894	81.81
266.126	82.81
266.358	91.81
266.591	85.81
266.823	79.81
267.055	94.81
267.287	79.81
267.52	83.81
267.752	89.81
267.984	84.81
268.216	65.81
268.448	80.81
268.681	88.81
268.913	90.81
269.145	86.81
269.377	88.81
269.609	86.81
269.841	74.81
270.073	89.81
270.306	93.81
270.538	90.81
270.77	84.81
271.002	85.81
271.234	96.81
271.466	93.81
271.698	77.81
271.93	75.81
272.162	96.81
272.394	72.81
272.626	79.81
272.858	93.81
273.09	85.81
273.322	78.81
273.553	88.81
273.785	89.81
274.017	79.81
274.249	88.81
274.481	81.81
274.713	89.81
274.945	89.81
275.176	88.81
275.408	85.81
275.64	89.81
275.872	82.81
276.104	95.81
276.335	87.81
276.567	84.81
276.799	81.81
277.031	75.81
277.262	84.81
277.494	74.81
277.726	98.81
277.957	87.81
278.189	87.81
278.421	81.81
278.652	78.81
278.884	79.81
279.115	78.81
279.347	77.81
279.579	88.81
279.81	84.81
280.042	96.81
280.273	66.81
280.505	83.81
280.736	90.81
280.968	90.81
281.199	80.81
281.431	101.81
281.662	82.81
281.894	89.81
282.125	75.81
282.356	92.81
282.588	90.81
282.819	97.81
283.051	86.81
283.282	90.81
283.513	75.81
283.745	78.81
283.976	82.81
284.207	78.81
284.439	83.81
284.67	82.81
284.901	70.81
285.132	75.81
285.364	95.81
285.595	76.81
285.826	72.81
286.057	77.81
286.288	85.81
286.52	66.81
286.751	93.81
286.982	78.81
287.213	76.81
287.444	87.81
287.675	90.81
287.906	90.81
288.138	80.81
288.369	90.81
288.6	96.81
288.831	83.81
289.062	77.81
289.293	79.81
289.524	80.81
289.755	78.81
289.986	76.81
290.217	82.81
290.448	80.81
290.679	71.81
290.91	85.81
291.141	85.81
291.371	93.81
291.602	79.81
291.833	77.81
292.064	85.81
292.295	81.81
292.526	85.81
292.757	93.81
292.987	91.81
293.218	87.81
293.449	98.81
293.68	88.81
293.91	85.81
294.141	91.81
294.372	84.81
294.603	83.81
294.833	86.81
295.064	84.81
295.295	94.81
295.525	98.81
295.756	90.81
295.987	93.81
296.217	76.81
296.448	79.81
296.679	83.81
296.909	81.81
297.14	87.81
297.37	87.81
297.601	102.81
297.831	77.81
298.062	91.81
298.292	84.81
298.523	85.81
298.753	88.81
298.984	85.81
299.214	86.81
299.445	90.81
299.675	99.81
299.905	83.81
300.136	72.81
300.366	77.81
300.597	86.81
300.827	77.81
301.057	80.81
301.288	85.81
301.518	93.81
301.748	89.81
301.979	89.81
302.209	85.81
302.439	82.81
302.669	83.81
302.9	84.81
303.13	83.81
303.36	102.81
303.59	75.81
303.82	89.81
304.051	79.81
304.281	86.81
304.511	97.81
304.741	94.81
304.971	92.81
305.201	90.81
305.431	89.81
305.661	97.81
305.891	95.81
306.121	79.81
306.352	74.81
306.582	84.81
306.812	93.81
307.042	82.81
307.272	87.81
307.502	85.81
307.731	89.81
307.961	78.81
308.191	80.81
308.421	90.81
308.651	87.81
308.881	99.81
309.111	87.81
309.341	78.81
309.571	77.81
309.8	94.81
310.03	91.81
310.26	91.81
310.49	89.81
310.72	91.81
310.949	92.81
311.179	83.81
311.409	87.81
311.639	98.81
311.868	86.81
312.098	90.81
312.328	80.81
312.557	96.81
312.787	82.81
313.017	82.81
313.246	85.81
313.476	98.81
313.706	79.81
313.935	81.81
314.165	89.81
314.394	83.81
314.624	83.81
314.853	89.81
315.083	87.81
315.312	76.81
315.542	97.81
315.771	89.81
316.001	88.81
316.23	86.81
316.46	99.81
316.689	83.81
316.919	94.81
317.148	88.81
317.377	93.81
317.607	81.81
317.836	83.81
318.065	89.81
318.295	89.81
318.524	91.81
318.753	88.81
318.983	82.81
319.212	88.81
319.441	78.81
319.67	96.81
319.9	74.81
320.129	82.81
320.358	108.81
320.587	84.81
320.816	78.81
321.046	89.81
321.275	89.81
321.504	79.81
321.733	84.81
321.962	92.81
322.191	88.81
322.42	82.81
322.649	85.81
322.878	95.81
323.108	95.81
323.337	86.81
323.566	92.81
323.795	99.81
324.024	80.81
324.253	84.81
324.482	87.81
324.71	82.81
324.939	73.81
325.168	85.81
325.397	82.81
325.626	88.81
325.855	83.81
326.084	74.81
326.313	87.81
326.542	92.81
326.77	91.81
326.999	77.81
327.228	84.81
327.457	90.81
327.686	85.81
327.914	75.81
328.143	67.81
328.372	89.81
328.6	88.81
328.829	96.81
329.058	83.81
329.287	80.81
329.515	84.81
329.744	90.81
329.972	70.81
330.201	77.81
330.43	88.81
330.658	94.81
330.887	79.81
331.115	73.81
331.344	88.81
331.572	78.81
331.801	88.81
332.03	81.81
332.258	91.81
332.486	86.81
332.715	83.81
332.943	84.81
333.172	76.81
333.4	96.81
333.629	79.81
333.857	97.81
334.085	84.81
334.314	82.81
334.542	76.81
334.771	75.81
334.999	83.81
335.227	76.81
335.455	90.81
335.684	87.81
335.912	90.81
336.14	82.81
336.369	95.81
336.597	85.81
336.825	97.81
337.053	83.81
337.281	77.81
337.51	83.81
337.738	90.81
337.966	85.81
338.194	87.81
338.422	98.81
338.65	87.81
338.878	80.81
339.106	103.81
339.334	87.81
339.562	85.81
339.79	88.81
340.018	87.81
340.246	78.81
340.474	87.81
340.702	92.81
340.93	91.81
341.158	79.81
341.386	83.81
341.614	99.81
341.842	95.81
342.07	78.81
342.298	79.81
342.526	89.81
342.754	74.81
342.981	97.81
343.209	93.81
343.437	100.81
343.665	83.81
343.893	71.81
344.12	86.81
344.348	90.81
344.576	80.81
344.804	92.81
345.031	76.81
345.259	97.81
345.487	86.81
345.714	87.81
345.942	99.81
346.17	88.81
346.397	101.81
346.625	80.81
346.853	90.81
347.08	77.81
347.308	65.81
347.535	100.81
347.763	87.81
347.99	74.81
348.218	85.81
348.445	87.81
348.673	79.81
348.9	89.81
349.128	87.81
349.355	78.81
349.583	77.81
349.81	92.81
350.037	92.81
350.265	76.81
350.492	98.81
350.72	86.81
350.947	92.81
351.174	82.81
351.402	86.81
351.629	76.81
351.856	85.81
352.083	78.81
352.311	75.81
352.538	88.81
352.765	67.81
352.992	97.81
353.22	76.81
353.447	85.81
353.674	76.81
353.901	73.81
354.128	93.81
354.355	87.81
354.583	91.81
354.81	80.81
355.037	91.81
355.264	91.81
355.491	74.81
355.718	85.81
355.945	103.81
356.172	84.81
356.399	93.81
356.626	79.81
356.853	91.81
357.08	88.81
357.307	82.81
357.534	87.81
357.761	76.81
357.988	77.81
358.215	87.81
358.441	92.81
358.668	89.81
358.895	76.81
359.122	80.81
359.349	73.81
359.576	85.81
359.802	76.81
360.029	80.81
360.256	93.81
360.483	85.81
360.709	76.81
360.936	79.81
361.163	63.81
361.39	92.81
361.616	83.81
361.843	93.81
362.07	74.81
362.296	74.81
362.523	87.81
362.749	93.81
362.976	88.81
363.203	84.81
363.429	95.81
363.656	93.81
363.882	72.81
364.109	89.81
364.335	88.81
364.562	76.81
364.788	83.81
365.015	86.81
365.241	75.81
365.468	89.81
365.694	83.81
365.92	81.81
366.147	101.81
366.373	85.81
366.599	83.81
366.826	91.81
367.052	77.81
367.278	86.81
367.505	88.81
367.731	84.81
367.957	86.81
368.184	98.81
368.41	88.81
368.636	93.81
368.862	80.81
369.089	68.81
369.315	85.81
369.541	88.81
369.767	88.81
369.993	81.81
370.219	84.81
370.445	84.81
370.672	90.81
370.898	92.81
371.124	86.81
371.35	81.81
371.576	90.81
371.802	94.81
372.028	75.81
372.254	89.81
372.48	83.81
372.706	88.81
372.932	85.81
373.158	93.81
373.384	87.81
373.61	75.81
373.835	76.81
374.061	85.81
374.287	94.81
374.513	80.81
374.739	95.81
374.965	84.81
375.191	92.81
375.416	78.81
375.642	89.81
375.868	88.81
376.094	76.81
376.319	78.81
376.545	66.81
376.771	70.81
376.997	83.81
377.222	85.81
377.448	77.81
377.674	73.81
377.899	84.81
378.125	71.81
378.35	83.81
378.576	74.81
378.802	93.81
379.027	92.81
379.253	77.81
379.478	77.81
379.704	75.81
379.929	89.81
380.155	79.81
380.38	85.81
380.606	81.81
380.831	87.81
381.057	89.81
381.282	80.81
381.507	89.81
381.733	87.81
381.958	82.81
382.184	83.81
382.409	82.81
382.634	80.81
382.86	82.81
383.085	90.81
383.31	94.81
383.535	84.81
383.761	82.81
383.986	79.81
384.211	88.81
384.436	88.81
384.662	88.81
384.887	82.81
385.112	71.81
385.337	81.81
385.562	81.81
385.787	85.81
386.013	104.81
386.238	83.81
386.463	99.81
386.688	88.81
386.913	93.81
387.138	94.81
387.363	80.81
387.588	87.81
387.813	91.81
388.038	91.81
388.263	87.81
388.488	90.81
388.713	97.81
388.938	82.81
389.163	75.81
389.387	87.81
389.612	105.81
389.837	90.81
390.062	99.81
390.287	82.81
390.512	81.81
390.736	85.81
390.961	86.81
391.186	75.81
391.411	96.81
391.636	91.81
391.86	86.81
392.085	84.81
392.31	82.81
392.534	98.81
392.759	99.81
392.984	89.81
393.208	80.81
393.433	90.81
393.658	80.81
393.882	80.81
394.107	81.81
394.331	90.81
394.556	71.81
394.78	85.81
395.005	93.81
395.229	85.81
395.454	83.81
395.678	83.81
395.903	74.81
396.127	86.81
396.352	69.81
396.576	87.81
396.801	90.81
397.025	84.81
397.249	81.81
397.474	88.81
397.698	85.81
397.922	89.81
398.147	90.81
398.371	84.81
398.595	86.81
398.82	76.81
399.044	77.81
399.268	103.81
399.492	85.81
399.717	86.81
399.941	72.81
400.165	76.81
400.389	92.81
400.613	79.81
400.837	82.81
401.062	79.81
401.286	93.81
401.51	91.81
401.734	94.81
401.958	90.81
402.182	92.81
402.406	100.81
402.63	79.81
402.854	87.81
403.078	86.81
403.302	81.81
403.526	82.81
403.75	86.81
403.974	81.81
404.198	87.81
404.422	80.81
404.645	88.81
404.869	83.81
405.093	101.81
405.317	81.81
405.541	94.81
405.765	67.81
405.988	86.81
406.212	91.81
406.436	83.81
406.66	80.81
406.883	92.81
407.107	89.81
407.331	79.81
407.555	74.81
407.778	84.81
408.002	73.81
408.226	93.81
408.449	98.81
408.673	70.81
408.896	99.81
409.12	77.81
409.344	99.81
409.567	92.81
409.791	92.81
410.014	87.81
410.238	81.81
410.461	99.81
410.685	93.81
410.908	88.81
411.132	104.81
411.355	88.81
411.578	81.81
411.802	82.81
412.025	67.81
412.249	80.81
412.472	80.81
412.695	85.81
412.919	59.81
413.142	84.81
413.365	91.81
413.589	81.81
413.812	82.81
414.035	90.81
414.258	89.81
414.482	86.81
414.705	97.81
414.928	88.81
415.151	92.81
415.374	97.81
415.597	98.81
415.821	89.81
416.044	95.81
416.267	96.81
416.49	97.81
416.713	100.81
416.936	99.81
417.159	95.81
417.382	86.81
417.605	74.81
417.828	94.81
418.051	90.81
418.274	85.81
418.497	96.81
418.72	89.81
418.943	95.81
419.166	86.81
419.389	92.81
419.611	91.81
419.834	91.81
420.057	88.81
420.28	95.81
420.503	100.81
420.726	70.81
420.948	82.81
421.171	100.81
421.394	93.81
421.617	109.81
421.839	96.81
422.062	88.81
422.285	86.81
422.507	97.81
422.73	80.81
422.953	93.81
423.175	76.81
423.398	88.81
423.621	81.81
423.843	91.81
424.066	76.81
424.288	94.81
424.511	95.81
424.733	93.81
424.956	101.81
425.178	100.81
425.401	89.81
425.623	98.81
425.846	83.81
426.068	86.81
426.291	105.81
426.513	93.81
426.735	103.81
426.958	91.81
427.18	87.81
427.402	97.81
427.625	89.81
427.847	95.81
428.069	81.81
428.292	91.81
428.514	82.81
428.736	98.81
428.958	92.81
429.181	94.81
429.403	86.81
429.625	87.81
429.847	91.81
430.069	91.81
430.292	86.81
430.514	74.81
430.736	74.81
430.958	89.81
431.18	102.81
431.402	97.81
431.624	87.81
431.846	94.81
432.068	83.81
432.29	73.81
432.512	92.81
432.734	106.81
432.956	105.81
433.178	87.81
433.4	91.81
433.622	109.81
433.844	88.81
434.066	84.81
434.287	76.81
434.509	89.81
434.731	88.81
434.953	89.81
435.175	84.81
435.397	87.81
435.618	93.81
435.84	99.81
436.062	90.81
436.284	95.81
436.505	102.81
436.727	87.81
436.949	87.81
437.17	94.81
437.392	76.81
437.614	79.81
437.835	87.81
438.057	96.81
438.278	84.81
438.5	92.81
438.721	94.81
438.943	90.81
439.165	78.81
439.386	76.81
439.608	91.81
439.829	105.81
440.05	95.81
440.272	79.81
440.493	102.81
440.715	86.81
440.936	89.81
441.158	90.81
441.379	88.81
441.6	81.81
441.822	87.81
442.043	86.81
442.264	89.81
442.486	81.81
442.707	88.81
442.928	81.81
443.149	105.81
443.371	94.81
443.592	99.81
443.813	101.81
444.034	100.81
444.255	89.81
444.476	102.81
444.698	100.81
444.919	71.81
445.14	181.81
445.361	149.81
445.582	92.81
445.803	102.81
446.024	88.81
446.245	111.81
446.466	98.81
446.687	107.81
446.908	83.81
447.129	108.81
447.35	88.81
447.571	101.81
447.792	107.81
448.013	96.81
448.234	96.81
448.455	97.81
448.675	86.81
448.896	92.81
449.117	86.81
449.338	98.81
449.559	107.81
449.779	79.81
450	85.81
450.221	91.81
450.442	85.81
450.662	86.81
450.883	98.81
451.104	94.81
451.324	80.81
451.545	74.81
451.766	91.81
451.986	94.81
452.207	85.81
452.428	81.81
452.648	88.81
452.869	83.81
453.089	93.81
453.31	97.81
453.53	81.81
453.751	90.81
453.971	97.81
454.192	86.81
454.412	82.81
454.633	106.81
454.853	94.81
455.073	94.81
455.294	93.81
455.514	89.81
455.734	84.81
455.955	85.81
456.175	73.81
456.395	90.81
456.616	72.81
456.836	87.81
457.056	99.81
457.276	91.81
457.497	82.81
457.717	86.81
457.937	92.81
458.157	98.81
458.377	99.81
458.598	89.81
458.818	93.81
459.038	80.81
459.258	82.81
459.478	90.81
459.698	80.81
459.918	97.81
460.138	92.81
460.358	82.81
460.578	98.81
460.798	83.81
461.018	89.81
461.238	90.81
461.458	91.81
461.678	90.81
461.898	82.81
462.118	85.81
462.338	88.81
462.558	85.81
462.777	93.81
462.997	84.81
463.217	95.81
463.437	88.81
463.657	89.81
463.876	94.81
464.096	83.81
464.316	79.81
464.536	101.81
464.755	96.81
464.975	85.81
465.195	97.81
465.414	92.81
465.634	85.81
465.854	92.81
466.073	93.81
466.293	85.81
466.512	85.81
466.732	81.81
466.951	89.81
467.171	109.81
467.391	98.81
467.61	86.81
467.829	90.81
468.049	79.81
468.268	93.81
468.488	84.81
468.707	77.81
468.927	91.81
469.146	90.81
469.365	94.81
469.585	102.81
469.804	86.81
470.023	85.81
470.243	88.81
470.462	87.81
470.681	86.81
470.901	74.81
471.12	88.81
471.339	96.81
471.558	95.81
471.777	97.81
471.997	99.81
472.216	102.81
472.435	88.81
472.654	86.81
472.873	90.81
473.092	92.81
473.311	80.81
473.53	72.81
473.749	101.81
473.968	86.81
474.187	82.81
474.406	97.81
474.625	87.81
474.844	93.81
475.063	95.81
475.282	74.81
475.501	80.81
475.72	87.81
475.939	87.81
476.158	97.81
476.377	90.81
476.596	92.81
476.814	89.81
477.033	92.81
477.252	101.81
477.471	82.81
477.69	95.81
477.908	98.81
478.127	97.81
478.346	88.81
478.564	92.81
478.783	83.81
479.002	89.81
479.22	96.81
479.439	88.81
479.658	94.81
479.876	92.81
480.095	93.81
480.313	89.81
480.532	90.81
480.751	98.81
480.969	86.81
481.188	81.81
481.406	77.81
481.624	90.81
481.843	80.81
482.061	94.81
482.28	78.81
482.498	82.81
482.717	95.81
482.935	84.81
483.153	85.81
483.372	99.81
483.59	108.81
483.808	102.81
484.027	100.81
484.245	94.81
484.463	114.81
484.681	90.81
484.9	99.81
485.118	88.81
485.336	90.81
485.554	77.81
485.772	92.81
485.99	92.81
486.209	85.81
486.427	95.81
486.645	92.81
486.863	99.81
487.081	97.81
487.299	82.81
487.517	86.81
487.735	86.81
487.953	103.81
488.171	88.81
488.389	94.81
488.607	102.81
488.825	90.81
489.043	90.81
489.261	99.81
489.479	82.81
489.696	88.81
489.914	101.81
490.132	106.81
490.35	99.81
490.568	100.81
490.786	97.81
491.003	94.81
491.221	101.81
491.439	105.81
491.657	110.81
491.874	98.81
492.092	109.81
492.31	108.81
492.527	116.81
492.745	94.81
492.963	120.81
493.18	101.81
493.398	94.81
493.615	109.81
493.833	107.81
494.05	95.81
494.268	104.81
494.485	98.81
494.703	107.81
494.92	108.81
495.138	95.81
495.355	103.81
495.573	98.81
495.79	103.81
496.008	107.81
496.225	102.81
496.442	85.81
496.66	124.81
496.877	90.81
497.094	109.81
497.312	106.81
497.529	88.81
497.746	102.81
497.963	105.81
498.181	90.81
498.398	94.81
498.615	91.81
498.832	95.81
499.049	90.81
499.267	98.81
499.484	92.81
499.701	94.81
499.918	87.81
500.135	86.81
500.352	92.81
500.569	93.81
500.786	103.81
501.003	99.81
501.22	90.81
501.437	101.81
501.654	90.81
501.871	94.81
502.088	94.81
502.305	99.81
502.522	82.81
502.739	91.81
502.956	97.81
503.172	86.81
503.389	88.81
503.606	88.81
503.823	79.81
504.04	90.81
504.256	87.81
504.473	83.81
504.69	100.81
504.907	99.81
505.123	87.81
505.34	106.81
505.557	80.81
505.773	88.81
505.99	97.81
506.207	79.81
506.423	89.81
506.64	86.81
506.856	86.81
507.073	84.81
507.289	102.81
507.506	81.81
507.722	82.81
507.939	94.81
508.155	104.81
508.372	86.81
508.588	90.81
508.805	102.81
509.021	76.81
509.238	95.81
509.454	90.81
509.67	73.81
509.887	87.81
510.103	88.81
510.319	89.81
510.536	78.81
510.752	79.81
510.968	78.81
511.184	93.81
511.401	89.81
511.617	80.81
511.833	89.81
512.049	85.81
512.265	109.81
512.481	96.81
512.698	90.81
512.914	79.81
513.13	79.81
513.346	90.81
513.562	89.81
513.778	79.81
513.994	87.81
514.21	85.81
514.426	82.81
514.642	86.81
514.858	81.81
515.074	84.81
515.29	82.81
515.506	95.81
515.721	75.81
515.937	85.81
516.153	85.81
516.369	93.81
516.585	90.81
516.801	71.81
517.016	90.81
517.232	91.81
517.448	95.81
517.664	84.81
517.879	88.81
518.095	93.81
518.311	79.81
518.527	85.81
518.742	78.81
518.958	79.81
519.173	88.81
519.389	98.81
519.605	94.81
519.82	91.81
520.036	91.81
520.251	98.81
520.467	85.81
520.682	86.81
520.898	85.81
521.113	76.81
521.329	75.81
521.544	87.81
521.76	92.81
521.975	81.81
522.19	85.81
522.406	74.81
522.621	88.81
522.836	95.81
523.052	101.81
523.267	84.81
523.482	96.81
523.698	89.81
523.913	85.81
524.128	92.81
524.343	95.81
524.559	99.81
524.774	90.81
524.989	93.81
525.204	87.81
525.419	93.81
525.634	87.81
525.849	78.81
526.064	87.81
526.28	85.81
526.495	94.81
526.71	85.81
526.925	85.81
527.14	77.81
527.355	87.81
527.57	93.81
527.785	87.81
527.999	85.81
528.214	97.81
528.429	86.81
528.644	78.81
528.859	86.81
529.074	101.81
529.289	100.81
529.503	86.81
529.718	102.81
529.933	86.81
530.148	93.81
530.363	84.81
530.577	92.81
530.792	92.81
531.007	84.81
531.221	82.81
531.436	84.81
531.651	82.81
531.865	86.81
532.08	68.81
532.295	93.81
532.509	57.81
532.724	78.81
532.938	72.81
533.153	92.81
533.367	93.81
533.582	99.81
533.796	89.81
534.011	86.81
534.225	79.81
534.44	103.81
534.654	79.81
534.868	89.81
535.083	80.81
535.297	80.81
535.511	94.81
535.726	90.81
535.94	98.81
536.154	92.81
536.369	87.81
536.583	83.81
536.797	93.81
537.011	87.81
537.225	90.81
537.44	82.81
537.654	99.81
537.868	81.81
538.082	86.81
538.296	85.81
538.51	82.81
538.724	97.81
538.938	95.81
539.153	91.81
539.367	86.81
539.581	93.81
539.795	92.81
540.009	92.81
540.222	80.81
540.436	92.81
540.65	78.81
540.864	96.81
541.078	96.81
541.292	102.81
541.506	84.81
541.72	103.81
541.934	109.81
542.147	97.81
542.361	98.81
542.575	93.81
542.789	101.81
543.002	100.81
543.216	88.81
543.43	89.81
543.644	97.81
543.857	93.81
544.071	78.81
544.285	102.81
544.498	93.81
544.712	101.81
544.925	96.81
545.139	102.81
545.352	94.81
545.566	107.81
545.779	102.81
545.993	110.81
546.206	101.81
546.42	98.81
546.633	104.81
546.847	90.81
547.06	106.81
547.274	111.81
547.487	99.81
547.7	95.81
547.914	102.81
548.127	97.81
548.34	98.81
548.554	105.81
548.767	101.81
548.98	110.81
549.193	101.81
549.407	109.81
549.62	101.81
549.833	94.81
550.046	103.81
550.259	101.81
550.473	109.81
550.686	106.81
550.899	98.81
551.112	104.81
551.325	90.81
551.538	91.81
551.751	99.81
551.964	90.81
552.177	103.81
552.39	94.81
552.603	97.81
552.816	94.81
553.029	94.81
553.242	111.81
553.455	99.81
553.667	113.81
553.88	101.81
554.093	105.81
554.306	89.81
554.519	75.81
554.732	103.81
554.944	95.81
555.157	110.81
555.37	100.81
555.583	100.81
555.795	89.81
556.008	104.81
556.221	98.81
556.433	99.81
556.646	91.81
556.859	93.81
557.071	93.81
557.284	79.81
557.496	93.81
557.709	93.81
557.921	102.81
558.134	99.81
558.346	106.81
558.559	91.81
558.771	104.81
558.984	95.81
559.196	108.81
559.409	93.81
559.621	102.81
559.833	82.81
560.046	82.81
560.258	95.81
560.47	98.81
560.683	100.81
560.895	71.81
561.107	93.81
561.32	89.81
561.532	110.81
561.744	89.81
561.956	101.81
562.168	91.81
562.381	96.81
562.593	98.81
562.805	96.81
563.017	99.81
563.229	94.81
563.441	94.81
563.653	88.81
563.865	89.81
564.077	92.81
564.289	93.81
564.501	104.81
564.713	86.81
564.925	83.81
565.137	87.81
565.349	94.81
565.561	88.81
565.773	98.81
565.985	98.81
566.197	97.81
566.408	83.81
566.62	94.81
566.832	84.81
567.044	84.81
567.255	100.81
567.467	90.81
567.679	95.81
567.891	93.81
568.102	89.81
568.314	83.81
568.526	98.81
568.737	83.81
568.949	84.81
569.161	77.81
569.372	78.81
569.584	88.81
569.795	86.81
570.007	83.81
570.218	77.81
570.43	86.81
570.641	85.81
570.853	84.81
571.064	92.81
571.276	85.81
571.487	99.81
571.698	86.81
571.91	87.81
572.121	85.81
572.333	78.81
572.544	84.81
572.755	92.81
572.966	90.81
573.178	81.81
573.389	92.81
573.6	98.81
573.811	89.81
574.023	92.81
574.234	89.81
574.445	89.81
574.656	84.81
574.867	83.81
575.078	83.81
575.289	87.81
575.501	106.81
575.712	88.81
575.923	85.81
576.134	89.81
576.345	73.81
576.556	86.81
576.767	91.81
576.978	89.81
577.188	85.81
577.399	77.81
577.61	65.81
577.821	93.81
578.032	86.81
578.243	88.81
578.454	93.81
578.665	91.81
578.875	79.81
579.086	72.81
579.297	89.81
579.508	79.81
579.718	96.81
579.929	106.81
580.14	89.81
580.35	78.81
580.561	83.81
580.772	67.81
580.982	91.81
581.193	85.81
581.403	86.81
581.614	89.81
581.825	77.81
582.035	100.81
582.246	77.81
582.456	77.81
582.667	89.81
582.877	95.81
583.087	74.81
583.298	65.81
583.508	72.81
583.719	87.81
583.929	86.81
584.139	94.81
584.35	83.81
584.56	91.81
584.77	93.81
584.981	89.81
585.191	71.81
585.401	72.81
585.611	78.81
585.821	89.81
586.032	82.81
586.242	90.81
586.452	88.81
586.662	74.81
586.872	80.81
587.082	90.81
587.292	82.81
587.502	98.81
587.713	83.81
587.923	79.81
588.133	79.81
588.343	97.81
588.553	81.81
588.762	91.81
588.972	77.81
589.182	95.81
589.392	77.81
589.602	100.81
589.812	90.81
590.022	99.81
590.232	75.81
590.441	78.81
590.651	87.81
590.861	99.81
591.071	81.81
591.281	88.81
591.49	89.81
591.7	85.81
591.91	78.81
592.119	80.81
592.329	78.81
592.539	78.81
592.748	94.81
592.958	87.81
593.167	81.81
593.377	87.81
593.587	88.81
593.796	91.81
594.006	88.81
594.215	102.81
594.424	89.81
594.634	76.81
594.843	71.81
595.053	105.81
595.262	91.81
595.472	76.81
595.681	97.81
595.89	89.81
596.1	88.81
596.309	77.81
596.518	98.81
596.727	103.81
596.937	94.81
597.146	78.81
597.355	91.81
597.564	87.81
597.774	88.81
597.983	94.81
598.192	89.81
598.401	89.81
598.61	94.81
598.819	83.81
599.028	87.81
599.237	90.81
599.446	82.81
599.655	90.81
599.864	80.81
600.073	79.81
600.282	85.81
600.491	94.81
600.7	92.81
600.909	67.81
601.118	85.81
601.327	76.81
601.536	82.81
601.745	95.81
601.953	89.81
602.162	101.81
602.371	89.81
602.58	99.81
602.789	86.81
602.997	92.81
603.206	89.81
603.415	87.81
603.623	98.81
603.832	102.81
604.041	80.81
604.249	80.81
604.458	86.81
604.666	85.81
604.875	91.81
605.084	85.81
605.292	83.81
605.501	91.81
605.709	87.81
605.918	90.81
606.126	91.81
606.334	94.81
606.543	106.81
606.751	101.81
606.96	100.81
607.168	87.81
607.376	87.81
607.585	90.81
607.793	86.81
608.001	82.81
608.21	93.81
608.418	96.81
608.626	93.81
608.834	85.81
609.043	91.81
609.251	97.81
609.459	91.81
609.667	94.81
609.875	94.81
610.083	103.81
610.291	85.81
610.499	95.81
610.707	89.81
610.916	89.81
611.124	86.81
611.332	89.81
611.54	91.81
611.748	81.81
611.955	99.81
612.163	92.81
612.371	76.81
612.579	93.81
612.787	84.81
612.995	87.81
613.203	115.81
613.411	96.81
613.618	95.81
613.826	89.81
614.034	97.81
614.242	86.81
614.449	76.81
614.657	92.81
614.865	93.81
615.072	86.81
615.28	87.81
615.488	92.81
615.695	102.81
615.903	100.81
616.111	75.81
616.318	100.81
616.526	85.81
616.733	94.81
616.941	85.81
617.148	89.81
617.356	77.81
617.563	101.81
617.771	99.81
617.978	99.81
618.185	89.81
618.393	88.81
618.6	89.81
618.807	91.81
619.015	97.81
619.222	85.81
619.429	94.81
619.637	80.81
619.844	84.81
620.051	85.81
620.258	86.81
620.466	82.81
620.673	107.81
620.88	97.81
621.087	89.81
621.294	82.81
621.501	92.81
621.708	84.81
621.915	88.81
622.122	79.81
622.329	87.81
622.536	85.81
622.743	76.81
622.95	86.81
623.157	94.81
623.364	93.81
623.571	104.81
623.778	99.81
623.985	94.81
624.192	103.81
624.399	102.81
624.606	88.81
624.812	80.81
625.019	76.81
625.226	96.81
625.433	95.81
625.639	91.81
625.846	94.81
626.053	82.81
626.259	78.81
626.466	81.81
626.673	75.81
626.879	79.81
627.086	103.81
627.293	78.81
627.499	90.81
627.706	96.81
627.912	76.81
628.119	92.81
628.325	82.81
628.532	87.81
628.738	90.81
628.945	103.81
629.151	74.81
629.357	89.81
629.564	86.81
629.77	96.81
629.976	93.81
630.183	97.81
630.389	76.81
630.595	66.81
630.802	92.81
631.008	79.81
631.214	87.81
631.42	87.81
631.627	97.81
631.833	76.81
632.039	79.81
632.245	68.81
632.451	79.81
632.657	102.81
632.863	85.81
633.069	93.81
633.275	88.81
633.481	79.81
633.688	87.81
633.893	101.81
634.099	90.81
634.305	89.81
634.511	96.81
634.717	94.81
634.923	92.81
635.129	91.81
635.335	87.81
635.541	81.81
635.747	87.81
635.952	77.81
636.158	101.81
636.364	89.81
636.57	74.81
636.775	90.81
636.981	90.81
637.187	89.81
637.392	97.81
637.598	86.81
637.804	91.81
638.009	95.81
638.215	82.81
638.421	72.81
638.626	77.81
638.832	85.81
639.037	84.81
639.243	94.81
639.448	90.81
639.654	96.81
639.859	104.81
640.065	95.81
640.27	100.81
640.475	83.81
640.681	91.81
640.886	87.81
641.091	84.81
641.297	95.81
641.502	86.81
641.707	97.81
641.913	93.81
642.118	89.81
642.323	79.81
642.528	85.81
642.733	96.81
642.939	90.81
643.144	102.81
643.349	93.81
643.554	86.81
643.759	89.81
643.964	82.81
644.169	72.81
644.374	77.81
644.579	90.81
644.784	79.81
644.989	96.81
645.194	98.81
645.399	97.81
645.604	107.81
645.809	80.81
646.014	66.81
646.219	77.81
646.423	89.81
646.628	75.81
646.833	84.81
647.038	98.81
647.243	95.81
647.447	89.81
647.652	86.81
647.857	78.81
648.062	90.81
648.266	83.81
648.471	86.81
648.676	94.81
648.88	91.81
649.085	90.81
649.289	82.81
649.494	93.81
649.698	87.81
649.903	78.81
650.107	87.81
650.312	87.81
650.516	86.81
650.721	81.81
650.925	98.81
651.13	89.81
651.334	80.81
651.539	88.81
651.743	89.81
651.947	71.81
652.152	99.81
652.356	96.81
652.56	88.81
652.764	91.81
652.969	87.81
653.173	85.81
653.377	73.81
653.581	92.81
653.785	86.81
653.99	83.81
654.194	74.81
654.398	85.81
654.602	83.81
654.806	75.81
655.01	88.81
655.214	87.81
655.418	79.81
655.622	92.81
655.826	93.81
656.03	83.81
656.234	90.81
656.438	76.81
656.642	82.81
656.846	94.81
657.049	89.81
657.253	87.81
657.457	81.81
657.661	79.81
657.865	91.81
658.068	70.81
658.272	84.81
658.476	91.81
658.68	90.81
658.883	79.81
659.087	87.81
659.291	85.81
659.494	92.81
659.698	86.81
659.901	93.81
660.105	86.81
660.309	82.81
660.512	76.81
660.716	82.81
660.919	86.81
661.123	79.81
661.326	95.81
661.53	78.81
661.733	79.81
661.936	71.81
662.14	90.81
662.343	89.81
662.546	91.81
662.75	80.81
662.953	90.81
663.156	84.81
663.36	83.81
663.563	85.81
663.766	91.81
663.969	83.81
664.173	66.81
664.376	76.81
664.579	86.81
664.782	79.81
664.985	91.81
665.188	66.81
665.391	78.81
665.594	83.81
665.797	91.81
666	91.81
666.203	85.81
666.406	73.81
666.609	89.81
666.812	83.81
667.015	95.81
667.218	82.81
667.421	79.81
667.624	87.81
667.827	79.81
668.03	81.81
668.232	88.81
668.435	89.81
668.638	86.81
668.841	85.81
669.043	86.81
669.246	91.81
669.449	86.81
669.651	86.81
669.854	89.81
670.057	73.81
670.259	89.81
670.462	95.81
670.665	91.81
670.867	80.81
671.07	75.81
671.272	58.81
671.475	86.81
671.677	83.81
671.88	84.81
672.082	97.81
672.284	91.81
672.487	95.81
672.689	74.81
672.892	77.81
