Data from Zn(NO3)2Standard.Agarose3%.GreenCap.LampEnergy5.5.E.O_HRD10591_15-02-03-767.txt Node
Date: Mon Jul 22 15:02:03 EDT 2019
User: cochatt
Spectrometer: HR+D1059
Trigger mode: 1
Integration Time (sec): 1.000000E-1
Scans to average: 1
Electric dark correction enabled: true
Nonlinearity correction enabled: false
Boxcar width: 0
XAxis mode: Wavelengths
Number of Pixels in Spectrum: 2048
>>>>>Begin Spectral Data<<<<<
223.165	-12.56
223.4	-12.56
223.635	-12.56
223.869	-15.56
224.104	-12.56
224.338	9.44
224.573	-23.56
224.808	-15.56
225.042	-17.56
225.277	-11.56
225.511	-9.56
225.746	-6.56
225.98	-3.56
226.215	25.44
226.449	18.44
226.683	25.44
226.918	20.44
227.152	29.44
227.387	28.44
227.621	24.44
227.856	37.44
228.09	47.44
228.324	36.44
228.559	56.44
228.793	48.44
229.027	56.44
229.262	56.44
229.496	63.44
229.73	73.44
229.964	66.44
230.199	90.44
230.433	81.44
230.667	78.44
230.901	67.44
231.136	79.44
231.37	83.44
231.604	78.44
231.838	81.44
232.072	78.44
232.306	82.44
232.541	78.44
232.775	92.44
233.009	75.44
233.243	88.44
233.477	72.44
233.711	78.44
233.945	84.44
234.179	74.44
234.413	83.44
234.647	80.44
234.881	72.44
235.115	85.44
235.349	82.44
235.583	88.44
235.817	79.44
236.051	75.44
236.285	68.44
236.519	92.44
236.753	77.44
236.987	81.44
237.221	76.44
237.455	70.44
237.689	84.44
237.922	67.44
238.156	67.44
238.39	64.44
238.624	75.44
238.858	72.44
239.091	64.44
239.325	58.44
239.559	69.44
239.793	82.44
240.027	69.44
240.26	69.44
240.494	78.44
240.728	76.44
240.961	72.44
241.195	77.44
241.429	71.44
241.662	84.44
241.896	85.44
242.13	70.44
242.363	70.44
242.597	76.44
242.83	67.44
243.064	72.44
243.298	83.44
243.531	71.44
243.765	70.44
243.998	78.44
244.232	80.44
244.465	71.44
244.699	75.44
244.932	59.44
245.166	74.44
245.399	67.44
245.633	75.44
245.866	68.44
246.099	81.44
246.333	76.44
246.566	53.44
246.8	71.44
247.033	70.44
247.266	70.44
247.5	80.44
247.733	77.44
247.966	78.44
248.2	83.44
248.433	75.44
248.666	78.44
248.899	74.44
249.133	75.44
249.366	73.44
249.599	73.44
249.832	76.44
250.066	58.44
250.299	78.44
250.532	70.44
250.765	66.44
250.998	79.44
251.231	76.44
251.465	78.44
251.698	79.44
251.931	72.44
252.164	76.44
252.397	81.44
252.63	85.44
252.863	80.44
253.096	71.44
253.329	80.44
253.562	78.44
253.795	80.44
254.028	83.44
254.261	75.44
254.494	75.44
254.727	78.44
254.96	59.44
255.193	92.44
255.426	77.44
255.659	66.44
255.892	80.44
256.124	79.44
256.357	83.44
256.59	70.44
256.823	84.44
257.056	75.44
257.289	76.44
257.521	74.44
257.754	90.44
257.987	69.44
258.22	83.44
258.452	79.44
258.685	63.44
258.918	81.44
259.151	80.44
259.383	81.44
259.616	85.44
259.849	86.44
260.081	82.44
260.314	68.44
260.547	71.44
260.779	63.44
261.012	72.44
261.244	83.44
261.477	76.44
261.71	78.44
261.942	90.44
262.175	85.44
262.407	78.44
262.64	83.44
262.872	78.44
263.105	72.44
263.337	86.44
263.57	96.44
263.802	75.44
264.035	83.44
264.267	70.44
264.499	75.44
264.732	95.44
264.964	87.44
265.197	72.44
265.429	79.44
265.661	78.44
265.894	82.44
266.126	77.44
266.358	85.44
266.591	91.44
266.823	79.44
267.055	80.44
267.287	86.44
267.52	82.44
267.752	78.44
267.984	90.44
268.216	74.44
268.448	78.44
268.681	75.44
268.913	93.44
269.145	74.44
269.377	81.44
269.609	96.44
269.841	83.44
270.073	86.44
270.306	81.44
270.538	75.44
270.77	86.44
271.002	84.44
271.234	79.44
271.466	77.44
271.698	72.44
271.93	73.44
272.162	77.44
272.394	79.44
272.626	80.44
272.858	72.44
273.09	93.44
273.322	78.44
273.553	71.44
273.785	75.44
274.017	76.44
274.249	88.44
274.481	77.44
274.713	75.44
274.945	62.44
275.176	78.44
275.408	69.44
275.64	80.44
275.872	73.44
276.104	68.44
276.335	84.44
276.567	68.44
276.799	93.44
277.031	78.44
277.262	80.44
277.494	81.44
277.726	82.44
277.957	87.44
278.189	75.44
278.421	72.44
278.652	86.44
278.884	71.44
279.115	85.44
279.347	84.44
279.579	100.44
279.81	89.44
280.042	76.44
280.273	70.44
280.505	82.44
280.736	66.44
280.968	72.44
281.199	74.44
281.431	89.44
281.662	99.44
281.894	77.44
282.125	77.44
282.356	82.44
282.588	75.44
282.819	74.44
283.051	83.44
283.282	92.44
283.513	88.44
283.745	76.44
283.976	81.44
284.207	62.44
284.439	87.44
284.67	79.44
284.901	85.44
285.132	74.44
285.364	70.44
285.595	68.44
285.826	75.44
286.057	90.44
286.288	80.44
286.52	82.44
286.751	75.44
286.982	78.44
287.213	81.44
287.444	86.44
287.675	79.44
287.906	101.44
288.138	74.44
288.369	86.44
288.6	92.44
288.831	79.44
289.062	95.44
289.293	75.44
289.524	86.44
289.755	91.44
289.986	87.44
290.217	96.44
290.448	91.44
290.679	85.44
290.91	82.44
291.141	77.44
291.371	90.44
291.602	87.44
291.833	73.44
292.064	74.44
292.295	83.44
292.526	75.44
292.757	103.44
292.987	91.44
293.218	81.44
293.449	86.44
293.68	79.44
293.91	84.44
294.141	92.44
294.372	73.44
294.603	92.44
294.833	80.44
295.064	77.44
295.295	87.44
295.525	73.44
295.756	75.44
295.987	95.44
296.217	72.44
296.448	89.44
296.679	75.44
296.909	88.44
297.14	67.44
297.37	71.44
297.601	79.44
297.831	97.44
298.062	88.44
298.292	85.44
298.523	91.44
298.753	72.44
298.984	78.44
299.214	86.44
299.445	79.44
299.675	75.44
299.905	81.44
300.136	86.44
300.366	89.44
300.597	78.44
300.827	86.44
301.057	80.44
301.288	78.44
301.518	78.44
301.748	79.44
301.979	77.44
302.209	84.44
302.439	73.44
302.669	86.44
302.9	76.44
303.13	92.44
303.36	82.44
303.59	91.44
303.82	90.44
304.051	75.44
304.281	88.44
304.511	87.44
304.741	83.44
304.971	67.44
305.201	80.44
305.431	73.44
305.661	75.44
305.891	67.44
306.121	88.44
306.352	92.44
306.582	95.44
306.812	94.44
307.042	80.44
307.272	79.44
307.502	71.44
307.731	85.44
307.961	85.44
308.191	84.44
308.421	82.44
308.651	78.44
308.881	78.44
309.111	85.44
309.341	75.44
309.571	85.44
309.8	76.44
310.03	82.44
310.26	76.44
310.49	81.44
310.72	80.44
310.949	81.44
311.179	90.44
311.409	89.44
311.639	88.44
311.868	85.44
312.098	75.44
312.328	93.44
312.557	81.44
312.787	75.44
313.017	83.44
313.246	77.44
313.476	76.44
313.706	81.44
313.935	88.44
314.165	77.44
314.394	75.44
314.624	73.44
314.853	76.44
315.083	85.44
315.312	81.44
315.542	84.44
315.771	80.44
316.001	82.44
316.23	81.44
316.46	77.44
316.689	89.44
316.919	76.44
317.148	76.44
317.377	87.44
317.607	84.44
317.836	71.44
318.065	84.44
318.295	94.44
318.524	76.44
318.753	89.44
318.983	85.44
319.212	78.44
319.441	75.44
319.67	84.44
319.9	76.44
320.129	76.44
320.358	79.44
320.587	86.44
320.816	73.44
321.046	88.44
321.275	82.44
321.504	89.44
321.733	82.44
321.962	77.44
322.191	84.44
322.42	87.44
322.649	76.44
322.878	86.44
323.108	74.44
323.337	85.44
323.566	67.44
323.795	74.44
324.024	91.44
324.253	86.44
324.482	75.44
324.71	85.44
324.939	80.44
325.168	82.44
325.397	77.44
325.626	69.44
325.855	85.44
326.084	80.44
326.313	83.44
326.542	85.44
326.77	84.44
326.999	82.44
327.228	79.44
327.457	75.44
327.686	94.44
327.914	96.44
328.143	83.44
328.372	88.44
328.6	80.44
328.829	88.44
329.058	84.44
329.287	70.44
329.515	76.44
329.744	83.44
329.972	77.44
330.201	98.44
330.43	87.44
330.658	73.44
330.887	74.44
331.115	83.44
331.344	79.44
331.572	95.44
331.801	88.44
332.03	73.44
332.258	92.44
332.486	69.44
332.715	78.44
332.943	88.44
333.172	69.44
333.4	87.44
333.629	80.44
333.857	89.44
334.085	91.44
334.314	73.44
334.542	81.44
334.771	82.44
334.999	72.44
335.227	82.44
335.455	89.44
335.684	76.44
335.912	83.44
336.14	80.44
336.369	81.44
336.597	65.44
336.825	85.44
337.053	84.44
337.281	87.44
337.51	77.44
337.738	83.44
337.966	86.44
338.194	84.44
338.422	95.44
338.65	82.44
338.878	81.44
339.106	88.44
339.334	94.44
339.562	82.44
339.79	87.44
340.018	83.44
340.246	73.44
340.474	84.44
340.702	75.44
340.93	90.44
341.158	87.44
341.386	79.44
341.614	86.44
341.842	92.44
342.07	98.44
342.298	78.44
342.526	82.44
342.754	82.44
342.981	73.44
343.209	76.44
343.437	78.44
343.665	80.44
343.893	86.44
344.12	97.44
344.348	86.44
344.576	83.44
344.804	85.44
345.031	99.44
345.259	76.44
345.487	78.44
345.714	86.44
345.942	83.44
346.17	91.44
346.397	81.44
346.625	97.44
346.853	81.44
347.08	81.44
347.308	75.44
347.535	80.44
347.763	70.44
347.99	93.44
348.218	92.44
348.445	81.44
348.673	83.44
348.9	82.44
349.128	91.44
349.355	74.44
349.583	79.44
349.81	82.44
350.037	86.44
350.265	73.44
350.492	78.44
350.72	86.44
350.947	83.44
351.174	84.44
351.402	82.44
351.629	66.44
351.856	74.44
352.083	71.44
352.311	71.44
352.538	80.44
352.765	78.44
352.992	88.44
353.22	96.44
353.447	76.44
353.674	79.44
353.901	82.44
354.128	87.44
354.355	65.44
354.583	66.44
354.81	76.44
355.037	82.44
355.264	72.44
355.491	77.44
355.718	71.44
355.945	78.44
356.172	87.44
356.399	58.44
356.626	87.44
356.853	74.44
357.08	70.44
357.307	72.44
357.534	87.44
357.761	90.44
357.988	91.44
358.215	85.44
358.441	80.44
358.668	74.44
358.895	92.44
359.122	73.44
359.349	73.44
359.576	88.44
359.802	74.44
360.029	91.44
360.256	90.44
360.483	76.44
360.709	89.44
360.936	75.44
361.163	84.44
361.39	74.44
361.616	91.44
361.843	86.44
362.07	94.44
362.296	97.44
362.523	99.44
362.749	81.44
362.976	89.44
363.203	80.44
363.429	78.44
363.656	87.44
363.882	82.44
364.109	63.44
364.335	77.44
364.562	76.44
364.788	87.44
365.015	92.44
365.241	89.44
365.468	66.44
365.694	76.44
365.92	83.44
366.147	73.44
366.373	90.44
366.599	74.44
366.826	85.44
367.052	77.44
367.278	76.44
367.505	85.44
367.731	88.44
367.957	63.44
368.184	79.44
368.41	78.44
368.636	84.44
368.862	74.44
369.089	69.44
369.315	82.44
369.541	78.44
369.767	80.44
369.993	90.44
370.219	77.44
370.445	95.44
370.672	87.44
370.898	76.44
371.124	75.44
371.35	83.44
371.576	95.44
371.802	95.44
372.028	86.44
372.254	75.44
372.48	93.44
372.706	87.44
372.932	71.44
373.158	91.44
373.384	80.44
373.61	86.44
373.835	98.44
374.061	83.44
374.287	86.44
374.513	85.44
374.739	80.44
374.965	60.44
375.191	86.44
375.416	82.44
375.642	75.44
375.868	84.44
376.094	80.44
376.319	81.44
376.545	80.44
376.771	86.44
376.997	77.44
377.222	83.44
377.448	65.44
377.674	78.44
377.899	81.44
378.125	82.44
378.35	77.44
378.576	78.44
378.802	77.44
379.027	68.44
379.253	79.44
379.478	77.44
379.704	76.44
379.929	80.44
380.155	99.44
380.38	81.44
380.606	84.44
380.831	88.44
381.057	89.44
381.282	77.44
381.507	70.44
381.733	95.44
381.958	92.44
382.184	84.44
382.409	69.44
382.634	71.44
382.86	63.44
383.085	73.44
383.31	90.44
383.535	98.44
383.761	86.44
383.986	87.44
384.211	87.44
384.436	80.44
384.662	70.44
384.887	81.44
385.112	69.44
385.337	75.44
385.562	75.44
385.787	61.44
386.013	86.44
386.238	71.44
386.463	84.44
386.688	75.44
386.913	80.44
387.138	76.44
387.363	76.44
387.588	88.44
387.813	80.44
388.038	86.44
388.263	91.44
388.488	87.44
388.713	97.44
388.938	83.44
389.163	81.44
389.387	82.44
389.612	72.44
389.837	83.44
390.062	89.44
390.287	72.44
390.512	86.44
390.736	80.44
390.961	75.44
391.186	84.44
391.411	88.44
391.636	89.44
391.86	80.44
392.085	90.44
392.31	92.44
392.534	92.44
392.759	78.44
392.984	72.44
393.208	70.44
393.433	81.44
393.658	88.44
393.882	72.44
394.107	68.44
394.331	98.44
394.556	86.44
394.78	82.44
395.005	79.44
395.229	86.44
395.454	88.44
395.678	79.44
395.903	83.44
396.127	87.44
396.352	87.44
396.576	82.44
396.801	75.44
397.025	82.44
397.249	76.44
397.474	75.44
397.698	79.44
397.922	64.44
398.147	82.44
398.371	84.44
398.595	70.44
398.82	80.44
399.044	86.44
399.268	94.44
399.492	81.44
399.717	90.44
399.941	80.44
400.165	90.44
400.389	87.44
400.613	91.44
400.837	78.44
401.062	76.44
401.286	88.44
401.51	70.44
401.734	84.44
401.958	86.44
402.182	86.44
402.406	82.44
402.63	95.44
402.854	72.44
403.078	88.44
403.302	81.44
403.526	90.44
403.75	92.44
403.974	86.44
404.198	81.44
404.422	82.44
404.645	86.44
404.869	76.44
405.093	87.44
405.317	82.44
405.541	76.44
405.765	97.44
405.988	84.44
406.212	75.44
406.436	86.44
406.66	85.44
406.883	88.44
407.107	95.44
407.331	84.44
407.555	83.44
407.778	96.44
408.002	91.44
408.226	96.44
408.449	82.44
408.673	97.44
408.896	75.44
409.12	88.44
409.344	76.44
409.567	73.44
409.791	96.44
410.014	83.44
410.238	83.44
410.461	83.44
410.685	75.44
410.908	91.44
411.132	73.44
411.355	86.44
411.578	90.44
411.802	77.44
412.025	76.44
412.249	78.44
412.472	84.44
412.695	91.44
412.919	83.44
413.142	92.44
413.365	85.44
413.589	89.44
413.812	79.44
414.035	95.44
414.258	72.44
414.482	69.44
414.705	94.44
414.928	78.44
415.151	85.44
415.374	82.44
415.597	86.44
415.821	81.44
416.044	87.44
416.267	83.44
416.49	72.44
416.713	77.44
416.936	73.44
417.159	83.44
417.382	82.44
417.605	82.44
417.828	89.44
418.051	82.44
418.274	95.44
418.497	71.44
418.72	103.44
418.943	77.44
419.166	84.44
419.389	97.44
419.611	91.44
419.834	87.44
420.057	84.44
420.28	95.44
420.503	77.44
420.726	86.44
420.948	101.44
421.171	100.44
421.394	86.44
421.617	89.44
421.839	93.44
422.062	90.44
422.285	77.44
422.507	94.44
422.73	96.44
422.953	97.44
423.175	81.44
423.398	85.44
423.621	90.44
423.843	91.44
424.066	82.44
424.288	87.44
424.511	78.44
424.733	87.44
424.956	101.44
425.178	102.44
425.401	79.44
425.623	86.44
425.846	96.44
426.068	88.44
426.291	83.44
426.513	85.44
426.735	87.44
426.958	80.44
427.18	88.44
427.402	98.44
427.625	96.44
427.847	81.44
428.069	82.44
428.292	87.44
428.514	97.44
428.736	78.44
428.958	76.44
429.181	101.44
429.403	88.44
429.625	100.44
429.847	88.44
430.069	89.44
430.292	90.44
430.514	85.44
430.736	84.44
430.958	82.44
431.18	96.44
431.402	75.44
431.624	100.44
431.846	82.44
432.068	56.44
432.29	82.44
432.512	85.44
432.734	87.44
432.956	94.44
433.178	85.44
433.4	90.44
433.622	89.44
433.844	88.44
434.066	86.44
434.287	108.44
434.509	68.44
434.731	79.44
434.953	81.44
435.175	90.44
435.397	83.44
435.618	70.44
435.84	82.44
436.062	85.44
436.284	88.44
436.505	94.44
436.727	107.44
436.949	83.44
437.17	77.44
437.392	94.44
437.614	81.44
437.835	87.44
438.057	102.44
438.278	96.44
438.5	79.44
438.721	93.44
438.943	79.44
439.165	91.44
439.386	79.44
439.608	96.44
439.829	97.44
440.05	88.44
440.272	84.44
440.493	100.44
440.715	97.44
440.936	96.44
441.158	85.44
441.379	103.44
441.6	113.44
441.822	83.44
442.043	86.44
442.264	98.44
442.486	66.44
442.707	91.44
442.928	90.44
443.149	85.44
443.371	99.44
443.592	100.44
443.813	94.44
444.034	93.44
444.255	89.44
444.476	100.44
444.698	95.44
444.919	75.44
445.14	199.44
445.361	146.44
445.582	110.44
445.803	95.44
446.024	77.44
446.245	88.44
446.466	82.44
446.687	99.44
446.908	85.44
447.129	96.44
447.35	89.44
447.571	92.44
447.792	100.44
448.013	84.44
448.234	84.44
448.455	81.44
448.675	88.44
448.896	77.44
449.117	83.44
449.338	88.44
449.559	94.44
449.779	79.44
450	84.44
450.221	90.44
450.442	88.44
450.662	92.44
450.883	94.44
451.104	90.44
451.324	88.44
451.545	103.44
451.766	90.44
451.986	83.44
452.207	75.44
452.428	81.44
452.648	83.44
452.869	83.44
453.089	85.44
453.31	75.44
453.53	93.44
453.751	85.44
453.971	88.44
454.192	89.44
454.412	86.44
454.633	83.44
454.853	75.44
455.073	87.44
455.294	79.44
455.514	93.44
455.734	78.44
455.955	71.44
456.175	95.44
456.395	81.44
456.616	71.44
456.836	76.44
457.056	68.44
457.276	75.44
457.497	78.44
457.717	89.44
457.937	81.44
458.157	102.44
458.377	92.44
458.598	65.44
458.818	80.44
459.038	69.44
459.258	85.44
459.478	95.44
459.698	78.44
459.918	84.44
460.138	94.44
460.358	74.44
460.578	85.44
460.798	102.44
461.018	75.44
461.238	85.44
461.458	83.44
461.678	81.44
461.898	80.44
462.118	85.44
462.338	86.44
462.558	78.44
462.777	95.44
462.997	87.44
463.217	75.44
463.437	84.44
463.657	86.44
463.876	68.44
464.096	76.44
464.316	67.44
464.536	86.44
464.755	84.44
464.975	73.44
465.195	90.44
465.414	74.44
465.634	86.44
465.854	87.44
466.073	91.44
466.293	76.44
466.512	94.44
466.732	90.44
466.951	101.44
467.171	97.44
467.391	79.44
467.61	94.44
467.829	72.44
468.049	86.44
468.268	79.44
468.488	84.44
468.707	89.44
468.927	90.44
469.146	95.44
469.365	92.44
469.585	86.44
469.804	93.44
470.023	105.44
470.243	87.44
470.462	89.44
470.681	90.44
470.901	92.44
471.12	96.44
471.339	104.44
471.558	79.44
471.777	80.44
471.997	87.44
472.216	86.44
472.435	95.44
472.654	87.44
472.873	86.44
473.092	92.44
473.311	88.44
473.53	97.44
473.749	80.44
473.968	83.44
474.187	94.44
474.406	78.44
474.625	102.44
474.844	104.44
475.063	91.44
475.282	84.44
475.501	96.44
475.72	82.44
475.939	99.44
476.158	78.44
476.377	74.44
476.596	74.44
476.814	82.44
477.033	95.44
477.252	80.44
477.471	71.44
477.69	89.44
477.908	99.44
478.127	111.44
478.346	98.44
478.564	81.44
478.783	78.44
479.002	91.44
479.22	94.44
479.439	77.44
479.658	84.44
479.876	83.44
480.095	76.44
480.313	86.44
480.532	94.44
480.751	92.44
480.969	91.44
481.188	90.44
481.406	81.44
481.624	75.44
481.843	91.44
482.061	87.44
482.28	92.44
482.498	83.44
482.717	91.44
482.935	94.44
483.153	76.44
483.372	107.44
483.59	95.44
483.808	94.44
484.027	93.44
484.245	99.44
484.463	96.44
484.681	97.44
484.9	80.44
485.118	106.44
485.336	89.44
485.554	78.44
485.772	78.44
485.99	87.44
486.209	81.44
486.427	82.44
486.645	104.44
486.863	87.44
487.081	105.44
487.299	102.44
487.517	89.44
487.735	81.44
487.953	79.44
488.171	106.44
488.389	99.44
488.607	93.44
488.825	98.44
489.043	95.44
489.261	74.44
489.479	96.44
489.696	82.44
489.914	97.44
490.132	96.44
490.35	79.44
490.568	85.44
490.786	112.44
491.003	86.44
491.221	97.44
491.439	94.44
491.657	127.44
491.874	110.44
492.092	116.44
492.31	105.44
492.527	112.44
492.745	109.44
492.963	89.44
493.18	96.44
493.398	89.44
493.615	105.44
493.833	96.44
494.05	90.44
494.268	90.44
494.485	92.44
494.703	100.44
494.92	102.44
495.138	89.44
495.355	84.44
495.573	98.44
495.79	86.44
496.008	98.44
496.225	88.44
496.442	85.44
496.66	89.44
496.877	101.44
497.094	101.44
497.312	83.44
497.529	87.44
497.746	96.44
497.963	90.44
498.181	84.44
498.398	104.44
498.615	79.44
498.832	96.44
499.049	102.44
499.267	92.44
499.484	97.44
499.701	86.44
499.918	83.44
500.135	100.44
500.352	83.44
500.569	97.44
500.786	96.44
501.003	82.44
501.22	100.44
501.437	90.44
501.654	87.44
501.871	98.44
502.088	100.44
502.305	87.44
502.522	75.44
502.739	87.44
502.956	85.44
503.172	76.44
503.389	97.44
503.606	94.44
503.823	84.44
504.04	92.44
504.256	84.44
504.473	86.44
504.69	73.44
504.907	75.44
505.123	80.44
505.34	86.44
505.557	86.44
505.773	100.44
505.99	94.44
506.207	86.44
506.423	93.44
506.64	94.44
506.856	88.44
507.073	89.44
507.289	90.44
507.506	90.44
507.722	90.44
507.939	92.44
508.155	89.44
508.372	90.44
508.588	73.44
508.805	87.44
509.021	91.44
509.238	85.44
509.454	71.44
509.67	74.44
509.887	78.44
510.103	80.44
510.319	89.44
510.536	78.44
510.752	82.44
510.968	80.44
511.184	89.44
511.401	86.44
511.617	94.44
511.833	70.44
512.049	82.44
512.265	90.44
512.481	82.44
512.698	79.44
512.914	90.44
513.13	95.44
513.346	76.44
513.562	81.44
513.778	81.44
513.994	82.44
514.21	80.44
514.426	90.44
514.642	76.44
514.858	91.44
515.074	80.44
515.29	87.44
515.506	94.44
515.721	93.44
515.937	80.44
516.153	96.44
516.369	64.44
516.585	93.44
516.801	84.44
517.016	87.44
517.232	89.44
517.448	80.44
517.664	95.44
517.879	79.44
518.095	78.44
518.311	76.44
518.527	86.44
518.742	68.44
518.958	87.44
519.173	84.44
519.389	81.44
519.605	95.44
519.82	74.44
520.036	77.44
520.251	72.44
520.467	86.44
520.682	82.44
520.898	86.44
521.113	90.44
521.329	73.44
521.544	78.44
521.76	83.44
521.975	86.44
522.19	80.44
522.406	96.44
522.621	85.44
522.836	80.44
523.052	78.44
523.267	99.44
523.482	76.44
523.698	87.44
523.913	89.44
524.128	93.44
524.343	83.44
524.559	88.44
524.774	91.44
524.989	99.44
525.204	76.44
525.419	85.44
525.634	79.44
525.849	84.44
526.064	81.44
526.28	88.44
526.495	82.44
526.71	76.44
526.925	73.44
527.14	88.44
527.355	89.44
527.57	83.44
527.785	79.44
527.999	84.44
528.214	86.44
528.429	74.44
528.644	75.44
528.859	88.44
529.074	77.44
529.289	94.44
529.503	95.44
529.718	88.44
529.933	85.44
530.148	100.44
530.363	92.44
530.577	84.44
530.792	86.44
531.007	85.44
531.221	90.44
531.436	94.44
531.651	86.44
531.865	79.44
532.08	74.44
532.295	95.44
532.509	83.44
532.724	63.44
532.938	73.44
533.153	83.44
533.367	95.44
533.582	99.44
533.796	92.44
534.011	85.44
534.225	89.44
534.44	91.44
534.654	88.44
534.868	74.44
535.083	78.44
535.297	79.44
535.511	92.44
535.726	79.44
535.94	74.44
536.154	86.44
536.369	69.44
536.583	84.44
536.797	80.44
537.011	82.44
537.225	60.44
537.44	75.44
537.654	90.44
537.868	80.44
538.082	82.44
538.296	97.44
538.51	83.44
538.724	93.44
538.938	92.44
539.153	90.44
539.367	96.44
539.581	87.44
539.795	86.44
540.009	85.44
540.222	79.44
540.436	91.44
540.65	89.44
540.864	86.44
541.078	88.44
541.292	98.44
541.506	98.44
541.72	91.44
541.934	102.44
542.147	108.44
542.361	111.44
542.575	80.44
542.789	81.44
543.002	94.44
543.216	93.44
543.43	97.44
543.644	98.44
543.857	93.44
544.071	99.44
544.285	88.44
544.498	89.44
544.712	105.44
544.925	103.44
545.139	93.44
545.352	97.44
545.566	92.44
545.779	98.44
545.993	111.44
546.206	97.44
546.42	92.44
546.633	101.44
546.847	99.44
547.06	86.44
547.274	108.44
547.487	88.44
547.7	99.44
547.914	77.44
548.127	118.44
548.34	92.44
548.554	105.44
548.767	92.44
548.98	100.44
549.193	89.44
549.407	100.44
549.62	111.44
549.833	93.44
550.046	90.44
550.259	92.44
550.473	97.44
550.686	96.44
550.899	84.44
551.112	84.44
551.325	90.44
551.538	96.44
551.751	90.44
551.964	96.44
552.177	88.44
552.39	96.44
552.603	89.44
552.816	94.44
553.029	93.44
553.242	100.44
553.455	87.44
553.667	105.44
553.88	96.44
554.093	98.44
554.306	101.44
554.519	96.44
554.732	94.44
554.944	101.44
555.157	89.44
555.37	86.44
555.583	99.44
555.795	94.44
556.008	90.44
556.221	85.44
556.433	80.44
556.646	76.44
556.859	94.44
557.071	92.44
557.284	94.44
557.496	86.44
557.709	98.44
557.921	87.44
558.134	89.44
558.346	86.44
558.559	89.44
558.771	97.44
558.984	97.44
559.196	83.44
559.409	91.44
559.621	81.44
559.833	89.44
560.046	81.44
560.258	91.44
560.47	97.44
560.683	99.44
560.895	85.44
561.107	98.44
561.32	90.44
561.532	83.44
561.744	86.44
561.956	90.44
562.168	88.44
562.381	92.44
562.593	96.44
562.805	99.44
563.017	83.44
563.229	96.44
563.441	91.44
563.653	95.44
563.865	98.44
564.077	87.44
564.289	92.44
564.501	82.44
564.713	80.44
564.925	87.44
565.137	94.44
565.349	97.44
565.561	85.44
565.773	85.44
565.985	88.44
566.197	87.44
566.408	99.44
566.62	86.44
566.832	92.44
567.044	82.44
567.255	87.44
567.467	89.44
567.679	100.44
567.891	80.44
568.102	89.44
568.314	96.44
568.526	91.44
568.737	91.44
568.949	83.44
569.161	79.44
569.372	60.44
569.584	71.44
569.795	84.44
570.007	86.44
570.218	93.44
570.43	79.44
570.641	73.44
570.853	86.44
571.064	76.44
571.276	92.44
571.487	87.44
571.698	76.44
571.91	91.44
572.121	75.44
572.333	88.44
572.544	77.44
572.755	88.44
572.966	82.44
573.178	75.44
573.389	81.44
573.6	75.44
573.811	98.44
574.023	83.44
574.234	70.44
574.445	87.44
574.656	88.44
574.867	86.44
575.078	88.44
575.289	80.44
575.501	84.44
575.712	75.44
575.923	77.44
576.134	70.44
576.345	94.44
576.556	85.44
576.767	82.44
576.978	80.44
577.188	90.44
577.399	82.44
577.61	77.44
577.821	87.44
578.032	91.44
578.243	83.44
578.454	88.44
578.665	74.44
578.875	82.44
579.086	86.44
579.297	83.44
579.508	85.44
579.718	82.44
579.929	69.44
580.14	80.44
580.35	81.44
580.561	80.44
580.772	74.44
580.982	86.44
581.193	77.44
581.403	83.44
581.614	71.44
581.825	74.44
582.035	80.44
582.246	87.44
582.456	77.44
582.667	70.44
582.877	94.44
583.087	83.44
583.298	80.44
583.508	73.44
583.719	70.44
583.929	81.44
584.139	88.44
584.35	69.44
584.56	76.44
584.77	88.44
584.981	70.44
585.191	90.44
585.401	86.44
585.611	81.44
585.821	88.44
586.032	92.44
586.242	79.44
586.452	85.44
586.662	83.44
586.872	83.44
587.082	87.44
587.292	80.44
587.502	88.44
587.713	77.44
587.923	67.44
588.133	87.44
588.343	69.44
588.553	76.44
588.762	87.44
588.972	76.44
589.182	87.44
589.392	86.44
589.602	86.44
589.812	85.44
590.022	92.44
590.232	81.44
590.441	72.44
590.651	82.44
590.861	83.44
591.071	80.44
591.281	90.44
591.49	91.44
591.7	87.44
591.91	77.44
592.119	89.44
592.329	85.44
592.539	83.44
592.748	96.44
592.958	85.44
593.167	95.44
593.377	81.44
593.587	102.44
593.796	81.44
594.006	83.44
594.215	83.44
594.424	80.44
594.634	72.44
594.843	80.44
595.053	102.44
595.262	82.44
595.472	85.44
595.681	82.44
595.89	75.44
596.1	75.44
596.309	83.44
596.518	86.44
596.727	87.44
596.937	83.44
597.146	83.44
597.355	91.44
597.564	94.44
597.774	80.44
597.983	88.44
598.192	83.44
598.401	77.44
598.61	84.44
598.819	76.44
599.028	84.44
599.237	83.44
599.446	92.44
599.655	67.44
599.864	80.44
600.073	77.44
600.282	84.44
600.491	91.44
600.7	88.44
600.909	86.44
601.118	82.44
601.327	83.44
601.536	88.44
601.745	88.44
601.953	87.44
602.162	95.44
602.371	85.44
602.58	78.44
602.789	82.44
602.997	90.44
603.206	97.44
603.415	95.44
603.623	82.44
603.832	96.44
604.041	84.44
604.249	93.44
604.458	91.44
604.666	74.44
604.875	78.44
605.084	97.44
605.292	74.44
605.501	82.44
605.709	83.44
605.918	94.44
606.126	92.44
606.334	64.44
606.543	88.44
606.751	84.44
606.96	86.44
607.168	99.44
607.376	75.44
607.585	88.44
607.793	92.44
608.001	86.44
608.21	71.44
608.418	85.44
608.626	69.44
608.834	102.44
609.043	92.44
609.251	82.44
609.459	91.44
609.667	99.44
609.875	97.44
610.083	94.44
610.291	87.44
610.499	84.44
610.707	76.44
610.916	100.44
611.124	87.44
611.332	72.44
611.54	88.44
611.748	88.44
611.955	82.44
612.163	95.44
612.371	89.44
612.579	94.44
612.787	90.44
612.995	91.44
613.203	93.44
613.411	81.44
613.618	72.44
613.826	96.44
614.034	74.44
614.242	92.44
614.449	94.44
614.657	94.44
614.865	81.44
615.072	78.44
615.28	98.44
615.488	81.44
615.695	85.44
615.903	91.44
616.111	99.44
616.318	99.44
616.526	86.44
616.733	92.44
616.941	85.44
617.148	88.44
617.356	97.44
617.563	81.44
617.771	85.44
617.978	83.44
618.185	75.44
618.393	92.44
618.6	90.44
618.807	92.44
619.015	87.44
619.222	92.44
619.429	92.44
619.637	79.44
619.844	86.44
620.051	74.44
620.258	78.44
620.466	78.44
620.673	79.44
620.88	77.44
621.087	88.44
621.294	85.44
621.501	86.44
621.708	82.44
621.915	101.44
622.122	78.44
622.329	99.44
622.536	91.44
622.743	94.44
622.95	94.44
623.157	81.44
623.364	79.44
623.571	84.44
623.778	98.44
623.985	78.44
624.192	79.44
624.399	81.44
624.606	81.44
624.812	82.44
625.019	88.44
625.226	88.44
625.433	79.44
625.639	85.44
625.846	76.44
626.053	106.44
626.259	80.44
626.466	88.44
626.673	70.44
626.879	81.44
627.086	82.44
627.293	69.44
627.499	83.44
627.706	85.44
627.912	81.44
628.119	76.44
628.325	83.44
628.532	91.44
628.738	73.44
628.945	74.44
629.151	83.44
629.357	74.44
629.564	89.44
629.77	94.44
629.976	90.44
630.183	79.44
630.389	80.44
630.595	89.44
630.802	82.44
631.008	85.44
631.214	84.44
631.42	95.44
631.627	93.44
631.833	87.44
632.039	88.44
632.245	83.44
632.451	58.44
632.657	83.44
632.863	92.44
633.069	89.44
633.275	86.44
633.481	87.44
633.688	80.44
633.893	96.44
634.099	75.44
634.305	79.44
634.511	99.44
634.717	88.44
634.923	92.44
635.129	85.44
635.335	81.44
635.541	88.44
635.747	71.44
635.952	90.44
636.158	80.44
636.364	92.44
636.57	102.44
636.775	91.44
636.981	89.44
637.187	86.44
637.392	81.44
637.598	74.44
637.804	89.44
638.009	90.44
638.215	76.44
638.421	84.44
638.626	82.44
638.832	86.44
639.037	83.44
639.243	91.44
639.448	70.44
639.654	90.44
639.859	82.44
640.065	92.44
640.27	95.44
640.475	91.44
640.681	100.44
640.886	89.44
641.091	84.44
641.297	92.44
641.502	86.44
641.707	91.44
641.913	76.44
642.118	80.44
642.323	91.44
642.528	87.44
642.733	103.44
642.939	83.44
643.144	82.44
643.349	99.44
643.554	81.44
643.759	91.44
643.964	81.44
644.169	81.44
644.374	83.44
644.579	70.44
644.784	92.44
644.989	81.44
645.194	84.44
645.399	91.44
645.604	75.44
645.809	83.44
646.014	80.44
646.219	75.44
646.423	86.44
646.628	82.44
646.833	72.44
647.038	82.44
647.243	89.44
647.447	94.44
647.652	73.44
647.857	78.44
648.062	85.44
648.266	82.44
648.471	86.44
648.676	95.44
648.88	82.44
649.085	83.44
649.289	83.44
649.494	82.44
649.698	87.44
649.903	94.44
650.107	103.44
650.312	88.44
650.516	89.44
650.721	81.44
650.925	81.44
651.13	85.44
651.334	74.44
651.539	87.44
651.743	72.44
651.947	71.44
652.152	84.44
652.356	87.44
652.56	88.44
652.764	66.44
652.969	78.44
653.173	104.44
653.377	100.44
653.581	68.44
653.785	84.44
653.99	87.44
654.194	84.44
654.398	85.44
654.602	71.44
654.806	78.44
655.01	80.44
655.214	82.44
655.418	97.44
655.622	85.44
655.826	74.44
656.03	74.44
656.234	88.44
656.438	79.44
656.642	74.44
656.846	79.44
657.049	97.44
657.253	84.44
657.457	82.44
657.661	91.44
657.865	78.44
658.068	84.44
658.272	75.44
658.476	80.44
658.68	87.44
658.883	85.44
659.087	84.44
659.291	82.44
659.494	76.44
659.698	85.44
659.901	80.44
660.105	92.44
660.309	88.44
660.512	78.44
660.716	83.44
660.919	80.44
661.123	89.44
661.326	79.44
661.53	93.44
661.733	77.44
661.936	80.44
662.14	68.44
662.343	74.44
662.546	87.44
662.75	76.44
662.953	87.44
663.156	79.44
663.36	71.44
663.563	80.44
663.766	80.44
663.969	81.44
664.173	73.44
664.376	77.44
664.579	79.44
664.782	82.44
664.985	84.44
665.188	79.44
665.391	82.44
665.594	73.44
665.797	87.44
666	84.44
666.203	71.44
666.406	80.44
666.609	88.44
666.812	85.44
667.015	69.44
667.218	82.44
667.421	73.44
667.624	76.44
667.827	83.44
668.03	73.44
668.232	65.44
668.435	67.44
668.638	85.44
668.841	85.44
669.043	73.44
669.246	102.44
669.449	67.44
669.651	81.44
669.854	76.44
670.057	68.44
670.259	74.44
670.462	78.44
670.665	67.44
670.867	65.44
671.07	78.44
671.272	90.44
671.475	79.44
671.677	97.44
671.88	82.44
672.082	85.44
672.284	86.44
672.487	69.44
672.689	80.44
672.892	88.44
