Data from Zn(NO3)2Standard.Agarose3%.GreenCap.LampEnergy5.5.E.O_HRD10591_15-02-46-768.txt Node
Date: Mon Jul 22 15:02:46 EDT 2019
User: cochatt
Spectrometer: HR+D1059
Trigger mode: 1
Integration Time (sec): 1.000000E-1
Scans to average: 1
Electric dark correction enabled: true
Nonlinearity correction enabled: false
Boxcar width: 0
XAxis mode: Wavelengths
Number of Pixels in Spectrum: 2048
>>>>>Begin Spectral Data<<<<<
223.165	-7.69
223.4	-7.69
223.635	-7.69
223.869	-14.69
224.104	-7.69
224.338	-16.69
224.573	-5.69
224.808	-15.69
225.042	-4.69
225.277	-18.69
225.511	1.31
225.746	-10.69
225.98	-9.69
226.215	21.31
226.449	9.31
226.683	30.31
226.918	29.31
227.152	20.31
227.387	27.31
227.621	29.31
227.856	30.31
228.09	46.31
228.324	54.31
228.559	62.31
228.793	55.31
229.027	69.31
229.262	65.31
229.496	62.31
229.73	89.31
229.964	72.31
230.199	93.31
230.433	72.31
230.667	72.31
230.901	74.31
231.136	92.31
231.37	73.31
231.604	75.31
231.838	91.31
232.072	70.31
232.306	78.31
232.541	84.31
232.775	83.31
233.009	87.31
233.243	88.31
233.477	79.31
233.711	97.31
233.945	66.31
234.179	99.31
234.413	90.31
234.647	87.31
234.881	89.31
235.115	76.31
235.349	80.31
235.583	80.31
235.817	74.31
236.051	84.31
236.285	82.31
236.519	87.31
236.753	72.31
236.987	72.31
237.221	71.31
237.455	82.31
237.689	85.31
237.922	77.31
238.156	82.31
238.39	82.31
238.624	75.31
238.858	72.31
239.091	66.31
239.325	76.31
239.559	69.31
239.793	67.31
240.027	78.31
240.26	75.31
240.494	78.31
240.728	84.31
240.961	78.31
241.195	89.31
241.429	86.31
241.662	78.31
241.896	81.31
242.13	58.31
242.363	80.31
242.597	74.31
242.83	73.31
243.064	65.31
243.298	84.31
243.531	73.31
243.765	76.31
243.998	81.31
244.232	77.31
244.465	66.31
244.699	67.31
244.932	84.31
245.166	79.31
245.399	76.31
245.633	73.31
245.866	68.31
246.099	87.31
246.333	78.31
246.566	73.31
246.8	69.31
247.033	94.31
247.266	67.31
247.5	67.31
247.733	73.31
247.966	73.31
248.2	78.31
248.433	62.31
248.666	81.31
248.899	82.31
249.133	77.31
249.366	77.31
249.599	85.31
249.832	78.31
250.066	81.31
250.299	90.31
250.532	74.31
250.765	78.31
250.998	82.31
251.231	77.31
251.465	81.31
251.698	67.31
251.931	71.31
252.164	77.31
252.397	76.31
252.63	78.31
252.863	88.31
253.096	88.31
253.329	70.31
253.562	81.31
253.795	75.31
254.028	101.31
254.261	77.31
254.494	66.31
254.727	84.31
254.96	68.31
255.193	76.31
255.426	87.31
255.659	69.31
255.892	97.31
256.124	73.31
256.357	94.31
256.59	75.31
256.823	83.31
257.056	72.31
257.289	75.31
257.521	77.31
257.754	75.31
257.987	78.31
258.22	78.31
258.452	83.31
258.685	93.31
258.918	83.31
259.151	69.31
259.383	71.31
259.616	74.31
259.849	84.31
260.081	83.31
260.314	87.31
260.547	97.31
260.779	79.31
261.012	84.31
261.244	78.31
261.477	86.31
261.71	69.31
261.942	79.31
262.175	92.31
262.407	78.31
262.64	83.31
262.872	84.31
263.105	58.31
263.337	81.31
263.57	87.31
263.802	90.31
264.035	77.31
264.267	88.31
264.499	85.31
264.732	77.31
264.964	82.31
265.197	79.31
265.429	89.31
265.661	73.31
265.894	83.31
266.126	85.31
266.358	92.31
266.591	85.31
266.823	90.31
267.055	77.31
267.287	80.31
267.52	90.31
267.752	77.31
267.984	90.31
268.216	81.31
268.448	87.31
268.681	82.31
268.913	83.31
269.145	87.31
269.377	82.31
269.609	88.31
269.841	81.31
270.073	71.31
270.306	80.31
270.538	89.31
270.77	72.31
271.002	94.31
271.234	97.31
271.466	94.31
271.698	72.31
271.93	72.31
272.162	75.31
272.394	94.31
272.626	80.31
272.858	84.31
273.09	68.31
273.322	69.31
273.553	85.31
273.785	76.31
274.017	75.31
274.249	78.31
274.481	84.31
274.713	78.31
274.945	77.31
275.176	91.31
275.408	79.31
275.64	93.31
275.872	69.31
276.104	100.31
276.335	79.31
276.567	99.31
276.799	92.31
277.031	79.31
277.262	78.31
277.494	84.31
277.726	100.31
277.957	99.31
278.189	87.31
278.421	92.31
278.652	84.31
278.884	81.31
279.115	77.31
279.347	88.31
279.579	90.31
279.81	90.31
280.042	81.31
280.273	89.31
280.505	91.31
280.736	82.31
280.968	81.31
281.199	75.31
281.431	78.31
281.662	82.31
281.894	69.31
282.125	93.31
282.356	73.31
282.588	80.31
282.819	87.31
283.051	86.31
283.282	79.31
283.513	90.31
283.745	89.31
283.976	84.31
284.207	83.31
284.439	77.31
284.67	77.31
284.901	73.31
285.132	73.31
285.364	89.31
285.595	77.31
285.826	75.31
286.057	85.31
286.288	85.31
286.52	63.31
286.751	73.31
286.982	90.31
287.213	88.31
287.444	78.31
287.675	99.31
287.906	97.31
288.138	88.31
288.369	77.31
288.6	93.31
288.831	84.31
289.062	86.31
289.293	86.31
289.524	85.31
289.755	78.31
289.986	68.31
290.217	83.31
290.448	83.31
290.679	92.31
290.91	89.31
291.141	88.31
291.371	79.31
291.602	87.31
291.833	87.31
292.064	89.31
292.295	89.31
292.526	95.31
292.757	76.31
292.987	87.31
293.218	82.31
293.449	89.31
293.68	78.31
293.91	87.31
294.141	84.31
294.372	87.31
294.603	88.31
294.833	83.31
295.064	78.31
295.295	84.31
295.525	82.31
295.756	87.31
295.987	77.31
296.217	86.31
296.448	92.31
296.679	86.31
296.909	87.31
297.14	90.31
297.37	76.31
297.601	103.31
297.831	85.31
298.062	85.31
298.292	92.31
298.523	76.31
298.753	92.31
298.984	100.31
299.214	88.31
299.445	92.31
299.675	71.31
299.905	73.31
300.136	101.31
300.366	85.31
300.597	97.31
300.827	88.31
301.057	88.31
301.288	84.31
301.518	84.31
301.748	89.31
301.979	82.31
302.209	73.31
302.439	83.31
302.669	77.31
302.9	75.31
303.13	94.31
303.36	83.31
303.59	79.31
303.82	77.31
304.051	91.31
304.281	85.31
304.511	88.31
304.741	80.31
304.971	92.31
305.201	95.31
305.431	78.31
305.661	70.31
305.891	69.31
306.121	80.31
306.352	79.31
306.582	99.31
306.812	89.31
307.042	82.31
307.272	95.31
307.502	87.31
307.731	82.31
307.961	87.31
308.191	86.31
308.421	90.31
308.651	102.31
308.881	93.31
309.111	88.31
309.341	88.31
309.571	92.31
309.8	84.31
310.03	70.31
310.26	102.31
310.49	78.31
310.72	95.31
310.949	81.31
311.179	90.31
311.409	90.31
311.639	97.31
311.868	79.31
312.098	86.31
312.328	78.31
312.557	88.31
312.787	86.31
313.017	67.31
313.246	85.31
313.476	76.31
313.706	97.31
313.935	86.31
314.165	78.31
314.394	78.31
314.624	90.31
314.853	85.31
315.083	79.31
315.312	81.31
315.542	88.31
315.771	81.31
316.001	98.31
316.23	89.31
316.46	89.31
316.689	77.31
316.919	76.31
317.148	77.31
317.377	103.31
317.607	90.31
317.836	85.31
318.065	75.31
318.295	77.31
318.524	86.31
318.753	90.31
318.983	93.31
319.212	96.31
319.441	96.31
319.67	85.31
319.9	82.31
320.129	91.31
320.358	86.31
320.587	89.31
320.816	70.31
321.046	89.31
321.275	90.31
321.504	78.31
321.733	75.31
321.962	90.31
322.191	86.31
322.42	74.31
322.649	77.31
322.878	74.31
323.108	79.31
323.337	77.31
323.566	84.31
323.795	96.31
324.024	81.31
324.253	91.31
324.482	90.31
324.71	82.31
324.939	99.31
325.168	84.31
325.397	88.31
325.626	77.31
325.855	82.31
326.084	75.31
326.313	80.31
326.542	90.31
326.77	88.31
326.999	91.31
327.228	77.31
327.457	97.31
327.686	81.31
327.914	94.31
328.143	81.31
328.372	85.31
328.6	83.31
328.829	91.31
329.058	80.31
329.287	89.31
329.515	78.31
329.744	74.31
329.972	66.31
330.201	96.31
330.43	78.31
330.658	89.31
330.887	72.31
331.115	83.31
331.344	82.31
331.572	93.31
331.801	96.31
332.03	78.31
332.258	93.31
332.486	91.31
332.715	73.31
332.943	82.31
333.172	88.31
333.4	82.31
333.629	87.31
333.857	71.31
334.085	72.31
334.314	78.31
334.542	75.31
334.771	84.31
334.999	92.31
335.227	74.31
335.455	82.31
335.684	78.31
335.912	96.31
336.14	80.31
336.369	89.31
336.597	95.31
336.825	84.31
337.053	80.31
337.281	91.31
337.51	82.31
337.738	83.31
337.966	92.31
338.194	85.31
338.422	81.31
338.65	88.31
338.878	87.31
339.106	86.31
339.334	92.31
339.562	84.31
339.79	74.31
340.018	85.31
340.246	68.31
340.474	79.31
340.702	86.31
340.93	82.31
341.158	91.31
341.386	77.31
341.614	88.31
341.842	88.31
342.07	92.31
342.298	92.31
342.526	81.31
342.754	82.31
342.981	75.31
343.209	84.31
343.437	94.31
343.665	84.31
343.893	79.31
344.12	72.31
344.348	85.31
344.576	72.31
344.804	89.31
345.031	80.31
345.259	90.31
345.487	93.31
345.714	83.31
345.942	81.31
346.17	82.31
346.397	101.31
346.625	89.31
346.853	73.31
347.08	85.31
347.308	84.31
347.535	97.31
347.763	82.31
347.99	92.31
348.218	90.31
348.445	79.31
348.673	74.31
348.9	75.31
349.128	81.31
349.355	90.31
349.583	84.31
349.81	74.31
350.037	75.31
350.265	81.31
350.492	80.31
350.72	75.31
350.947	75.31
351.174	77.31
351.402	74.31
351.629	84.31
351.856	73.31
352.083	85.31
352.311	88.31
352.538	83.31
352.765	74.31
352.992	77.31
353.22	85.31
353.447	88.31
353.674	96.31
353.901	75.31
354.128	90.31
354.355	90.31
354.583	89.31
354.81	73.31
355.037	75.31
355.264	79.31
355.491	79.31
355.718	93.31
355.945	93.31
356.172	85.31
356.399	95.31
356.626	77.31
356.853	85.31
357.08	83.31
357.307	91.31
357.534	72.31
357.761	85.31
357.988	84.31
358.215	88.31
358.441	76.31
358.668	78.31
358.895	80.31
359.122	103.31
359.349	73.31
359.576	90.31
359.802	73.31
360.029	85.31
360.256	81.31
360.483	78.31
360.709	78.31
360.936	101.31
361.163	77.31
361.39	76.31
361.616	83.31
361.843	98.31
362.07	86.31
362.296	79.31
362.523	90.31
362.749	99.31
362.976	72.31
363.203	83.31
363.429	86.31
363.656	71.31
363.882	76.31
364.109	87.31
364.335	90.31
364.562	90.31
364.788	100.31
365.015	83.31
365.241	88.31
365.468	90.31
365.694	93.31
365.92	78.31
366.147	70.31
366.373	90.31
366.599	84.31
366.826	78.31
367.052	71.31
367.278	79.31
367.505	87.31
367.731	98.31
367.957	94.31
368.184	83.31
368.41	97.31
368.636	93.31
368.862	80.31
369.089	78.31
369.315	69.31
369.541	82.31
369.767	98.31
369.993	81.31
370.219	86.31
370.445	83.31
370.672	67.31
370.898	90.31
371.124	96.31
371.35	94.31
371.576	96.31
371.802	82.31
372.028	75.31
372.254	76.31
372.48	81.31
372.706	75.31
372.932	90.31
373.158	87.31
373.384	76.31
373.61	86.31
373.835	97.31
374.061	86.31
374.287	95.31
374.513	74.31
374.739	65.31
374.965	75.31
375.191	89.31
375.416	75.31
375.642	89.31
375.868	91.31
376.094	96.31
376.319	88.31
376.545	77.31
376.771	72.31
376.997	74.31
377.222	85.31
377.448	76.31
377.674	89.31
377.899	76.31
378.125	77.31
378.35	97.31
378.576	97.31
378.802	92.31
379.027	86.31
379.253	57.31
379.478	94.31
379.704	86.31
379.929	91.31
380.155	78.31
380.38	86.31
380.606	74.31
380.831	78.31
381.057	75.31
381.282	76.31
381.507	98.31
381.733	82.31
381.958	88.31
382.184	89.31
382.409	89.31
382.634	78.31
382.86	70.31
383.085	88.31
383.31	82.31
383.535	74.31
383.761	85.31
383.986	87.31
384.211	84.31
384.436	89.31
384.662	90.31
384.887	64.31
385.112	103.31
385.337	86.31
385.562	81.31
385.787	94.31
386.013	102.31
386.238	97.31
386.463	73.31
386.688	84.31
386.913	81.31
387.138	86.31
387.363	86.31
387.588	65.31
387.813	82.31
388.038	86.31
388.263	69.31
388.488	85.31
388.713	87.31
388.938	77.31
389.163	99.31
389.387	78.31
389.612	93.31
389.837	95.31
390.062	88.31
390.287	88.31
390.512	61.31
390.736	88.31
390.961	78.31
391.186	86.31
391.411	90.31
391.636	76.31
391.86	83.31
392.085	93.31
392.31	78.31
392.534	89.31
392.759	82.31
392.984	73.31
393.208	66.31
393.433	74.31
393.658	89.31
393.882	73.31
394.107	82.31
394.331	93.31
394.556	78.31
394.78	85.31
395.005	90.31
395.229	90.31
395.454	74.31
395.678	90.31
395.903	99.31
396.127	86.31
396.352	79.31
396.576	81.31
396.801	84.31
397.025	77.31
397.249	72.31
397.474	78.31
397.698	82.31
397.922	93.31
398.147	85.31
398.371	81.31
398.595	87.31
398.82	92.31
399.044	73.31
399.268	84.31
399.492	92.31
399.717	99.31
399.941	82.31
400.165	75.31
400.389	71.31
400.613	84.31
400.837	85.31
401.062	88.31
401.286	86.31
401.51	90.31
401.734	86.31
401.958	90.31
402.182	85.31
402.406	74.31
402.63	76.31
402.854	77.31
403.078	93.31
403.302	80.31
403.526	79.31
403.75	99.31
403.974	95.31
404.198	103.31
404.422	80.31
404.645	86.31
404.869	83.31
405.093	81.31
405.317	74.31
405.541	85.31
405.765	90.31
405.988	86.31
406.212	81.31
406.436	75.31
406.66	82.31
406.883	87.31
407.107	68.31
407.331	69.31
407.555	73.31
407.778	91.31
408.002	73.31
408.226	84.31
408.449	87.31
408.673	69.31
408.896	85.31
409.12	77.31
409.344	79.31
409.567	83.31
409.791	75.31
410.014	96.31
410.238	93.31
410.461	76.31
410.685	87.31
410.908	73.31
411.132	91.31
411.355	78.31
411.578	81.31
411.802	84.31
412.025	84.31
412.249	88.31
412.472	89.31
412.695	74.31
412.919	81.31
413.142	84.31
413.365	84.31
413.589	86.31
413.812	86.31
414.035	91.31
414.258	77.31
414.482	89.31
414.705	86.31
414.928	104.31
415.151	91.31
415.374	85.31
415.597	87.31
415.821	85.31
416.044	93.31
416.267	91.31
416.49	99.31
416.713	99.31
416.936	83.31
417.159	94.31
417.382	94.31
417.605	87.31
417.828	98.31
418.051	78.31
418.274	73.31
418.497	84.31
418.72	88.31
418.943	74.31
419.166	91.31
419.389	88.31
419.611	76.31
419.834	77.31
420.057	78.31
420.28	77.31
420.503	84.31
420.726	104.31
420.948	88.31
421.171	93.31
421.394	84.31
421.617	105.31
421.839	90.31
422.062	99.31
422.285	77.31
422.507	86.31
422.73	99.31
422.953	76.31
423.175	93.31
423.398	77.31
423.621	87.31
423.843	79.31
424.066	87.31
424.288	99.31
424.511	89.31
424.733	81.31
424.956	95.31
425.178	97.31
425.401	94.31
425.623	84.31
425.846	85.31
426.068	97.31
426.291	94.31
426.513	71.31
426.735	87.31
426.958	84.31
427.18	86.31
427.402	86.31
427.625	81.31
427.847	84.31
428.069	81.31
428.292	87.31
428.514	101.31
428.736	101.31
428.958	67.31
429.181	76.31
429.403	84.31
429.625	102.31
429.847	91.31
430.069	87.31
430.292	90.31
430.514	82.31
430.736	74.31
430.958	80.31
431.18	71.31
431.402	84.31
431.624	80.31
431.846	72.31
432.068	79.31
432.29	85.31
432.512	77.31
432.734	91.31
432.956	89.31
433.178	94.31
433.4	96.31
433.622	89.31
433.844	80.31
434.066	89.31
434.287	82.31
434.509	93.31
434.731	79.31
434.953	84.31
435.175	86.31
435.397	80.31
435.618	103.31
435.84	93.31
436.062	91.31
436.284	96.31
436.505	86.31
436.727	93.31
436.949	86.31
437.17	76.31
437.392	91.31
437.614	90.31
437.835	90.31
438.057	91.31
438.278	90.31
438.5	86.31
438.721	87.31
438.943	89.31
439.165	94.31
439.386	82.31
439.608	79.31
439.829	98.31
440.05	96.31
440.272	102.31
440.493	85.31
440.715	78.31
440.936	105.31
441.158	87.31
441.379	90.31
441.6	92.31
441.822	96.31
442.043	104.31
442.264	93.31
442.486	82.31
442.707	83.31
442.928	98.31
443.149	93.31
443.371	101.31
443.592	77.31
443.813	98.31
444.034	79.31
444.255	68.31
444.476	86.31
444.698	78.31
444.919	99.31
445.14	198.31
445.361	151.31
445.582	83.31
445.803	80.31
446.024	96.31
446.245	100.31
446.466	109.31
446.687	99.31
446.908	99.31
447.129	94.31
447.35	93.31
447.571	99.31
447.792	86.31
448.013	85.31
448.234	73.31
448.455	94.31
448.675	84.31
448.896	89.31
449.117	92.31
449.338	84.31
449.559	97.31
449.779	89.31
450	77.31
450.221	86.31
450.442	102.31
450.662	104.31
450.883	79.31
451.104	93.31
451.324	99.31
451.545	81.31
451.766	82.31
451.986	81.31
452.207	97.31
452.428	77.31
452.648	85.31
452.869	97.31
453.089	78.31
453.31	83.31
453.53	81.31
453.751	68.31
453.971	74.31
454.192	74.31
454.412	85.31
454.633	95.31
454.853	90.31
455.073	87.31
455.294	96.31
455.514	86.31
455.734	83.31
455.955	92.31
456.175	82.31
456.395	83.31
456.616	75.31
456.836	82.31
457.056	107.31
457.276	87.31
457.497	68.31
457.717	86.31
457.937	59.31
458.157	84.31
458.377	84.31
458.598	76.31
458.818	84.31
459.038	85.31
459.258	101.31
459.478	85.31
459.698	78.31
459.918	84.31
460.138	91.31
460.358	75.31
460.578	95.31
460.798	80.31
461.018	79.31
461.238	95.31
461.458	92.31
461.678	99.31
461.898	87.31
462.118	85.31
462.338	78.31
462.558	78.31
462.777	80.31
462.997	74.31
463.217	84.31
463.437	76.31
463.657	78.31
463.876	86.31
464.096	88.31
464.316	86.31
464.536	74.31
464.755	102.31
464.975	93.31
465.195	85.31
465.414	75.31
465.634	88.31
465.854	93.31
466.073	71.31
466.293	78.31
466.512	92.31
466.732	96.31
466.951	103.31
467.171	95.31
467.391	85.31
467.61	91.31
467.829	89.31
468.049	81.31
468.268	96.31
468.488	86.31
468.707	92.31
468.927	98.31
469.146	100.31
469.365	82.31
469.585	78.31
469.804	95.31
470.023	85.31
470.243	102.31
470.462	92.31
470.681	94.31
470.901	87.31
471.12	89.31
471.339	99.31
471.558	94.31
471.777	93.31
471.997	74.31
472.216	99.31
472.435	81.31
472.654	91.31
472.873	83.31
473.092	93.31
473.311	96.31
473.53	75.31
473.749	78.31
473.968	93.31
474.187	89.31
474.406	75.31
474.625	77.31
474.844	93.31
475.063	93.31
475.282	90.31
475.501	90.31
475.72	91.31
475.939	83.31
476.158	83.31
476.377	92.31
476.596	88.31
476.814	85.31
477.033	76.31
477.252	81.31
477.471	82.31
477.69	106.31
477.908	96.31
478.127	98.31
478.346	86.31
478.564	89.31
478.783	108.31
479.002	98.31
479.22	104.31
479.439	96.31
479.658	95.31
479.876	84.31
480.095	82.31
480.313	85.31
480.532	79.31
480.751	89.31
480.969	98.31
481.188	85.31
481.406	76.31
481.624	90.31
481.843	71.31
482.061	89.31
482.28	93.31
482.498	93.31
482.717	98.31
482.935	89.31
483.153	83.31
483.372	91.31
483.59	108.31
483.808	97.31
484.027	96.31
484.245	96.31
484.463	86.31
484.681	108.31
484.9	85.31
485.118	97.31
485.336	95.31
485.554	100.31
485.772	75.31
485.99	67.31
486.209	84.31
486.427	85.31
486.645	77.31
486.863	81.31
487.081	92.31
487.299	74.31
487.517	78.31
487.735	98.31
487.953	98.31
488.171	107.31
488.389	106.31
488.607	101.31
488.825	94.31
489.043	83.31
489.261	85.31
489.479	93.31
489.696	81.31
489.914	79.31
490.132	98.31
490.35	88.31
490.568	90.31
490.786	96.31
491.003	98.31
491.221	103.31
491.439	104.31
491.657	89.31
491.874	96.31
492.092	112.31
492.31	100.31
492.527	121.31
492.745	90.31
492.963	96.31
493.18	87.31
493.398	99.31
493.615	92.31
493.833	96.31
494.05	88.31
494.268	99.31
494.485	101.31
494.703	98.31
494.92	97.31
495.138	112.31
495.355	100.31
495.573	106.31
495.79	90.31
496.008	91.31
496.225	99.31
496.442	79.31
496.66	108.31
496.877	88.31
497.094	91.31
497.312	102.31
497.529	89.31
497.746	100.31
497.963	85.31
498.181	88.31
498.398	94.31
498.615	77.31
498.832	76.31
499.049	99.31
499.267	89.31
499.484	102.31
499.701	86.31
499.918	78.31
500.135	81.31
500.352	88.31
500.569	91.31
500.786	72.31
501.003	82.31
501.22	82.31
501.437	79.31
501.654	97.31
501.871	94.31
502.088	103.31
502.305	74.31
502.522	92.31
502.739	77.31
502.956	103.31
503.172	94.31
503.389	98.31
503.606	72.31
503.823	93.31
504.04	87.31
504.256	87.31
504.473	85.31
504.69	74.31
504.907	96.31
505.123	86.31
505.34	88.31
505.557	87.31
505.773	84.31
505.99	96.31
506.207	81.31
506.423	92.31
506.64	89.31
506.856	92.31
507.073	84.31
507.289	96.31
507.506	88.31
507.722	91.31
507.939	91.31
508.155	94.31
508.372	93.31
508.588	81.31
508.805	83.31
509.021	93.31
509.238	93.31
509.454	85.31
509.67	88.31
509.887	83.31
510.103	86.31
510.319	87.31
510.536	86.31
510.752	83.31
510.968	70.31
511.184	88.31
511.401	82.31
511.617	77.31
511.833	84.31
512.049	87.31
512.265	92.31
512.481	84.31
512.698	76.31
512.914	72.31
513.13	77.31
513.346	77.31
513.562	86.31
513.778	90.31
513.994	89.31
514.21	78.31
514.426	77.31
514.642	75.31
514.858	87.31
515.074	88.31
515.29	97.31
515.506	80.31
515.721	77.31
515.937	78.31
516.153	94.31
516.369	73.31
516.585	91.31
516.801	86.31
517.016	101.31
517.232	81.31
517.448	87.31
517.664	78.31
517.879	80.31
518.095	96.31
518.311	90.31
518.527	88.31
518.742	75.31
518.958	97.31
519.173	84.31
519.389	82.31
519.605	88.31
519.82	82.31
520.036	79.31
520.251	93.31
520.467	82.31
520.682	82.31
520.898	85.31
521.113	78.31
521.329	74.31
521.544	86.31
521.76	94.31
521.975	82.31
522.19	90.31
522.406	90.31
522.621	93.31
522.836	81.31
523.052	81.31
523.267	81.31
523.482	86.31
523.698	97.31
523.913	85.31
524.128	86.31
524.343	97.31
524.559	90.31
524.774	81.31
524.989	88.31
525.204	94.31
525.419	90.31
525.634	83.31
525.849	96.31
526.064	91.31
526.28	90.31
526.495	90.31
526.71	85.31
526.925	88.31
527.14	78.31
527.355	96.31
527.57	72.31
527.785	79.31
527.999	81.31
528.214	81.31
528.429	79.31
528.644	91.31
528.859	95.31
529.074	100.31
529.289	94.31
529.503	83.31
529.718	95.31
529.933	83.31
530.148	90.31
530.363	92.31
530.577	68.31
530.792	100.31
531.007	85.31
531.221	69.31
531.436	93.31
531.651	89.31
531.865	86.31
532.08	89.31
532.295	92.31
532.509	63.31
532.724	90.31
532.938	90.31
533.153	73.31
533.367	88.31
533.582	97.31
533.796	102.31
534.011	89.31
534.225	86.31
534.44	79.31
534.654	73.31
534.868	91.31
535.083	70.31
535.297	71.31
535.511	87.31
535.726	76.31
535.94	82.31
536.154	89.31
536.369	74.31
536.583	84.31
536.797	94.31
537.011	89.31
537.225	96.31
537.44	79.31
537.654	81.31
537.868	93.31
538.082	80.31
538.296	84.31
538.51	83.31
538.724	85.31
538.938	81.31
539.153	96.31
539.367	91.31
539.581	92.31
539.795	77.31
540.009	92.31
540.222	80.31
540.436	85.31
540.65	89.31
540.864	101.31
541.078	95.31
541.292	105.31
541.506	91.31
541.72	92.31
541.934	114.31
542.147	105.31
542.361	90.31
542.575	98.31
542.789	96.31
543.002	105.31
543.216	89.31
543.43	84.31
543.644	89.31
543.857	96.31
544.071	93.31
544.285	94.31
544.498	104.31
544.712	95.31
544.925	107.31
545.139	106.31
545.352	99.31
545.566	116.31
545.779	104.31
545.993	102.31
546.206	101.31
546.42	99.31
546.633	105.31
546.847	94.31
547.06	100.31
547.274	89.31
547.487	96.31
547.7	107.31
547.914	110.31
548.127	101.31
548.34	92.31
548.554	94.31
548.767	102.31
548.98	100.31
549.193	103.31
549.407	101.31
549.62	108.31
549.833	101.31
550.046	97.31
550.259	109.31
550.473	78.31
550.686	105.31
550.899	105.31
551.112	102.31
551.325	94.31
551.538	85.31
551.751	85.31
551.964	82.31
552.177	94.31
552.39	95.31
552.603	93.31
552.816	96.31
553.029	98.31
553.242	95.31
553.455	100.31
553.667	106.31
553.88	98.31
554.093	115.31
554.306	96.31
554.519	93.31
554.732	103.31
554.944	97.31
555.157	101.31
555.37	87.31
555.583	100.31
555.795	85.31
556.008	85.31
556.221	99.31
556.433	102.31
556.646	101.31
556.859	82.31
557.071	88.31
557.284	75.31
557.496	97.31
557.709	102.31
557.921	92.31
558.134	96.31
558.346	89.31
558.559	64.31
558.771	102.31
558.984	88.31
559.196	88.31
559.409	86.31
559.621	85.31
559.833	99.31
560.046	95.31
560.258	84.31
560.47	90.31
560.683	96.31
560.895	91.31
561.107	88.31
561.32	93.31
561.532	101.31
561.744	88.31
561.956	83.31
562.168	104.31
562.381	98.31
562.593	84.31
562.805	96.31
563.017	86.31
563.229	92.31
563.441	89.31
563.653	94.31
563.865	80.31
564.077	92.31
564.289	103.31
564.501	102.31
564.713	90.31
564.925	92.31
565.137	92.31
565.349	94.31
565.561	90.31
565.773	83.31
565.985	94.31
566.197	73.31
566.408	90.31
566.62	84.31
566.832	90.31
567.044	99.31
567.255	88.31
567.467	85.31
567.679	83.31
567.891	85.31
568.102	74.31
568.314	80.31
568.526	79.31
568.737	85.31
568.949	78.31
569.161	91.31
569.372	86.31
569.584	74.31
569.795	80.31
570.007	83.31
570.218	78.31
570.43	91.31
570.641	76.31
570.853	81.31
571.064	90.31
571.276	77.31
571.487	88.31
571.698	102.31
571.91	96.31
572.121	100.31
572.333	82.31
572.544	88.31
572.755	75.31
572.966	96.31
573.178	101.31
573.389	93.31
573.6	84.31
573.811	78.31
574.023	93.31
574.234	103.31
574.445	96.31
574.656	77.31
574.867	74.31
575.078	77.31
575.289	93.31
575.501	88.31
575.712	86.31
575.923	75.31
576.134	79.31
576.345	80.31
576.556	95.31
576.767	74.31
576.978	75.31
577.188	102.31
577.399	96.31
577.61	83.31
577.821	81.31
578.032	73.31
578.243	76.31
578.454	85.31
578.665	96.31
578.875	77.31
579.086	78.31
579.297	83.31
579.508	93.31
579.718	91.31
579.929	77.31
580.14	84.31
580.35	84.31
580.561	81.31
580.772	104.31
580.982	60.31
581.193	86.31
581.403	93.31
581.614	95.31
581.825	90.31
582.035	74.31
582.246	73.31
582.456	79.31
582.667	93.31
582.877	83.31
583.087	84.31
583.298	86.31
583.508	78.31
583.719	90.31
583.929	97.31
584.139	90.31
584.35	78.31
584.56	92.31
584.77	89.31
584.981	84.31
585.191	82.31
585.401	82.31
585.611	90.31
585.821	92.31
586.032	83.31
586.242	76.31
586.452	90.31
586.662	80.31
586.872	83.31
587.082	89.31
587.292	92.31
587.502	93.31
587.713	78.31
587.923	79.31
588.133	90.31
588.343	76.31
588.553	85.31
588.762	94.31
588.972	100.31
589.182	80.31
589.392	87.31
589.602	81.31
589.812	93.31
590.022	89.31
590.232	73.31
590.441	75.31
590.651	89.31
590.861	85.31
591.071	78.31
591.281	92.31
591.49	77.31
591.7	70.31
591.91	81.31
592.119	77.31
592.329	84.31
592.539	91.31
592.748	88.31
592.958	94.31
593.167	83.31
593.377	80.31
593.587	81.31
593.796	93.31
594.006	82.31
594.215	84.31
594.424	76.31
594.634	93.31
594.843	84.31
595.053	94.31
595.262	76.31
595.472	89.31
595.681	100.31
595.89	82.31
596.1	76.31
596.309	68.31
596.518	86.31
596.727	101.31
596.937	82.31
597.146	88.31
597.355	88.31
597.564	89.31
597.774	94.31
597.983	83.31
598.192	88.31
598.401	97.31
598.61	93.31
598.819	84.31
599.028	98.31
599.237	84.31
599.446	65.31
599.655	70.31
599.864	82.31
600.073	82.31
600.282	85.31
600.491	87.31
600.7	92.31
600.909	89.31
601.118	74.31
601.327	85.31
601.536	81.31
601.745	85.31
601.953	94.31
602.162	91.31
602.371	106.31
602.58	93.31
602.789	93.31
602.997	94.31
603.206	77.31
603.415	76.31
603.623	78.31
603.832	91.31
604.041	78.31
604.249	88.31
604.458	91.31
604.666	81.31
604.875	90.31
605.084	92.31
605.292	88.31
605.501	93.31
605.709	97.31
605.918	87.31
606.126	96.31
606.334	89.31
606.543	74.31
606.751	85.31
606.96	91.31
607.168	78.31
607.376	87.31
607.585	94.31
607.793	109.31
608.001	100.31
608.21	103.31
608.418	77.31
608.626	94.31
608.834	74.31
609.043	74.31
609.251	100.31
609.459	90.31
609.667	92.31
609.875	96.31
610.083	92.31
610.291	85.31
610.499	93.31
610.707	81.31
610.916	94.31
611.124	91.31
611.332	83.31
611.54	93.31
611.748	86.31
611.955	89.31
612.163	85.31
612.371	85.31
612.579	90.31
612.787	76.31
612.995	93.31
613.203	96.31
613.411	99.31
613.618	88.31
613.826	100.31
614.034	61.31
614.242	87.31
614.449	83.31
614.657	101.31
614.865	102.31
615.072	85.31
615.28	82.31
615.488	96.31
615.695	72.31
615.903	93.31
616.111	85.31
616.318	102.31
616.526	99.31
616.733	83.31
616.941	86.31
617.148	96.31
617.356	82.31
617.563	89.31
617.771	82.31
617.978	96.31
618.185	94.31
618.393	96.31
618.6	90.31
618.807	96.31
619.015	96.31
619.222	83.31
619.429	86.31
619.637	96.31
619.844	91.31
620.051	76.31
620.258	88.31
620.466	83.31
620.673	93.31
620.88	89.31
621.087	100.31
621.294	110.31
621.501	95.31
621.708	85.31
621.915	78.31
622.122	87.31
622.329	83.31
622.536	97.31
622.743	80.31
622.95	89.31
623.157	81.31
623.364	89.31
623.571	88.31
623.778	97.31
623.985	86.31
624.192	85.31
624.399	79.31
624.606	97.31
624.812	84.31
625.019	90.31
625.226	84.31
625.433	109.31
625.639	94.31
625.846	78.31
626.053	88.31
626.259	79.31
626.466	93.31
626.673	81.31
626.879	85.31
627.086	78.31
627.293	84.31
627.499	79.31
627.706	88.31
627.912	72.31
628.119	98.31
628.325	92.31
628.532	91.31
628.738	88.31
628.945	82.31
629.151	98.31
629.357	84.31
629.564	91.31
629.77	97.31
629.976	90.31
630.183	67.31
630.389	84.31
630.595	85.31
630.802	93.31
631.008	92.31
631.214	87.31
631.42	96.31
631.627	92.31
631.833	97.31
632.039	85.31
632.245	90.31
632.451	86.31
632.657	85.31
632.863	101.31
633.069	95.31
633.275	106.31
633.481	97.31
633.688	81.31
633.893	91.31
634.099	89.31
634.305	89.31
634.511	77.31
634.717	94.31
634.923	72.31
635.129	77.31
635.335	81.31
635.541	77.31
635.747	87.31
635.952	83.31
636.158	88.31
636.364	87.31
636.57	85.31
636.775	83.31
636.981	86.31
637.187	100.31
637.392	88.31
637.598	94.31
637.804	91.31
638.009	83.31
638.215	97.31
638.421	86.31
638.626	82.31
638.832	83.31
639.037	88.31
639.243	86.31
639.448	86.31
639.654	94.31
639.859	96.31
640.065	84.31
640.27	83.31
640.475	85.31
640.681	85.31
640.886	95.31
641.091	92.31
641.297	74.31
641.502	73.31
641.707	90.31
641.913	77.31
642.118	91.31
642.323	96.31
642.528	93.31
642.733	78.31
642.939	78.31
643.144	84.31
643.349	81.31
643.554	86.31
643.759	102.31
643.964	97.31
644.169	95.31
644.374	88.31
644.579	88.31
644.784	93.31
644.989	87.31
645.194	68.31
645.399	93.31
645.604	85.31
645.809	81.31
646.014	85.31
646.219	86.31
646.423	81.31
646.628	84.31
646.833	87.31
647.038	88.31
647.243	85.31
647.447	91.31
647.652	91.31
647.857	86.31
648.062	93.31
648.266	84.31
648.471	91.31
648.676	81.31
648.88	70.31
649.085	93.31
649.289	77.31
649.494	75.31
649.698	82.31
649.903	95.31
650.107	87.31
650.312	90.31
650.516	90.31
650.721	80.31
650.925	97.31
651.13	92.31
651.334	98.31
651.539	86.31
651.743	88.31
651.947	91.31
652.152	97.31
652.356	92.31
652.56	83.31
652.764	86.31
652.969	90.31
653.173	76.31
653.377	91.31
653.581	84.31
653.785	80.31
653.99	81.31
654.194	87.31
654.398	83.31
654.602	75.31
654.806	79.31
655.01	84.31
655.214	88.31
655.418	78.31
655.622	94.31
655.826	81.31
656.03	80.31
656.234	76.31
656.438	81.31
656.642	88.31
656.846	88.31
657.049	72.31
657.253	82.31
657.457	94.31
657.661	84.31
657.865	81.31
658.068	72.31
658.272	92.31
658.476	92.31
658.68	73.31
658.883	101.31
659.087	88.31
659.291	88.31
659.494	68.31
659.698	76.31
659.901	84.31
660.105	82.31
660.309	75.31
660.512	92.31
660.716	97.31
660.919	70.31
661.123	82.31
661.326	82.31
661.53	92.31
661.733	87.31
661.936	83.31
662.14	97.31
662.343	84.31
662.546	74.31
662.75	76.31
662.953	71.31
663.156	93.31
663.36	81.31
663.563	84.31
663.766	87.31
663.969	80.31
664.173	82.31
664.376	85.31
664.579	83.31
664.782	84.31
664.985	91.31
665.188	81.31
665.391	96.31
665.594	78.31
665.797	76.31
666	76.31
666.203	90.31
666.406	84.31
666.609	99.31
666.812	83.31
667.015	71.31
667.218	84.31
667.421	96.31
667.624	75.31
667.827	87.31
668.03	82.31
668.232	86.31
668.435	80.31
668.638	89.31
668.841	77.31
669.043	71.31
669.246	92.31
669.449	86.31
669.651	93.31
669.854	80.31
670.057	82.31
670.259	83.31
670.462	80.31
670.665	75.31
670.867	72.31
671.07	87.31
671.272	72.31
671.475	97.31
671.677	84.31
671.88	80.31
672.082	86.31
672.284	69.31
672.487	84.31
672.689	69.31
672.892	82.31
