Data from Zn(NO3)2Standard.Agarose3%.GreenCap.LampEnergy5.5.E.O_HRD10591_15-01-40-767.txt Node
Date: Mon Jul 22 15:01:40 EDT 2019
User: cochatt
Spectrometer: HR+D1059
Trigger mode: 1
Integration Time (sec): 1.000000E-1
Scans to average: 1
Electric dark correction enabled: true
Nonlinearity correction enabled: false
Boxcar width: 0
XAxis mode: Wavelengths
Number of Pixels in Spectrum: 2048
>>>>>Begin Spectral Data<<<<<
223.165	-15.88
223.4	-15.88
223.635	-15.88
223.869	-7.88
224.104	-14.88
224.338	-20.88
224.573	-14.88
224.808	-11.88
225.042	-8.88
225.277	-2.88
225.511	-12.88
225.746	7.12
225.98	13.12
226.215	8.12
226.449	9.12
226.683	15.12
226.918	25.12
227.152	33.12
227.387	39.12
227.621	41.12
227.856	54.12
228.09	37.12
228.324	53.12
228.559	63.12
228.793	50.12
229.027	49.12
229.262	63.12
229.496	65.12
229.73	72.12
229.964	67.12
230.199	80.12
230.433	73.12
230.667	77.12
230.901	95.12
231.136	86.12
231.37	68.12
231.604	73.12
231.838	92.12
232.072	73.12
232.306	87.12
232.541	83.12
232.775	72.12
233.009	83.12
233.243	77.12
233.477	93.12
233.711	93.12
233.945	81.12
234.179	80.12
234.413	77.12
234.647	87.12
234.881	87.12
235.115	88.12
235.349	100.12
235.583	78.12
235.817	67.12
236.051	61.12
236.285	77.12
236.519	87.12
236.753	82.12
236.987	64.12
237.221	85.12
237.455	73.12
237.689	71.12
237.922	83.12
238.156	75.12
238.39	54.12
238.624	75.12
238.858	71.12
239.091	75.12
239.325	75.12
239.559	90.12
239.793	81.12
240.027	80.12
240.26	68.12
240.494	83.12
240.728	74.12
240.961	82.12
241.195	91.12
241.429	94.12
241.662	77.12
241.896	95.12
242.13	79.12
242.363	72.12
242.597	81.12
242.83	91.12
243.064	72.12
243.298	75.12
243.531	77.12
243.765	98.12
243.998	87.12
244.232	78.12
244.465	82.12
244.699	80.12
244.932	74.12
245.166	73.12
245.399	87.12
245.633	64.12
245.866	80.12
246.099	82.12
246.333	77.12
246.566	88.12
246.8	66.12
247.033	66.12
247.266	88.12
247.5	76.12
247.733	87.12
247.966	84.12
248.2	93.12
248.433	73.12
248.666	62.12
248.899	80.12
249.133	78.12
249.366	78.12
249.599	71.12
249.832	80.12
250.066	83.12
250.299	82.12
250.532	73.12
250.765	93.12
250.998	75.12
251.231	87.12
251.465	92.12
251.698	71.12
251.931	81.12
252.164	74.12
252.397	70.12
252.63	95.12
252.863	83.12
253.096	76.12
253.329	93.12
253.562	80.12
253.795	86.12
254.028	92.12
254.261	73.12
254.494	83.12
254.727	86.12
254.96	85.12
255.193	80.12
255.426	71.12
255.659	78.12
255.892	79.12
256.124	77.12
256.357	92.12
256.59	82.12
256.823	72.12
257.056	89.12
257.289	89.12
257.521	76.12
257.754	69.12
257.987	81.12
258.22	101.12
258.452	85.12
258.685	84.12
258.918	89.12
259.151	89.12
259.383	99.12
259.616	86.12
259.849	80.12
260.081	75.12
260.314	80.12
260.547	76.12
260.779	71.12
261.012	76.12
261.244	72.12
261.477	78.12
261.71	93.12
261.942	92.12
262.175	78.12
262.407	81.12
262.64	79.12
262.872	87.12
263.105	85.12
263.337	99.12
263.57	76.12
263.802	71.12
264.035	95.12
264.267	89.12
264.499	78.12
264.732	94.12
264.964	89.12
265.197	87.12
265.429	82.12
265.661	79.12
265.894	84.12
266.126	82.12
266.358	82.12
266.591	76.12
266.823	95.12
267.055	72.12
267.287	86.12
267.52	85.12
267.752	83.12
267.984	80.12
268.216	87.12
268.448	87.12
268.681	95.12
268.913	100.12
269.145	88.12
269.377	85.12
269.609	75.12
269.841	87.12
270.073	78.12
270.306	83.12
270.538	91.12
270.77	76.12
271.002	87.12
271.234	89.12
271.466	104.12
271.698	82.12
271.93	87.12
272.162	85.12
272.394	87.12
272.626	69.12
272.858	81.12
273.09	79.12
273.322	81.12
273.553	82.12
273.785	78.12
274.017	94.12
274.249	86.12
274.481	83.12
274.713	77.12
274.945	85.12
275.176	77.12
275.408	88.12
275.64	93.12
275.872	91.12
276.104	86.12
276.335	96.12
276.567	69.12
276.799	88.12
277.031	92.12
277.262	84.12
277.494	84.12
277.726	86.12
277.957	78.12
278.189	95.12
278.421	80.12
278.652	91.12
278.884	83.12
279.115	80.12
279.347	79.12
279.579	74.12
279.81	96.12
280.042	78.12
280.273	77.12
280.505	71.12
280.736	90.12
280.968	92.12
281.199	92.12
281.431	79.12
281.662	92.12
281.894	92.12
282.125	84.12
282.356	74.12
282.588	67.12
282.819	78.12
283.051	85.12
283.282	83.12
283.513	96.12
283.745	79.12
283.976	91.12
284.207	70.12
284.439	92.12
284.67	80.12
284.901	97.12
285.132	89.12
285.364	85.12
285.595	92.12
285.826	89.12
286.057	77.12
286.288	83.12
286.52	94.12
286.751	89.12
286.982	76.12
287.213	92.12
287.444	89.12
287.675	84.12
287.906	88.12
288.138	84.12
288.369	88.12
288.6	88.12
288.831	82.12
289.062	80.12
289.293	84.12
289.524	94.12
289.755	94.12
289.986	78.12
290.217	90.12
290.448	93.12
290.679	87.12
290.91	67.12
291.141	80.12
291.371	104.12
291.602	78.12
291.833	91.12
292.064	84.12
292.295	92.12
292.526	81.12
292.757	89.12
292.987	78.12
293.218	83.12
293.449	91.12
293.68	97.12
293.91	81.12
294.141	75.12
294.372	95.12
294.603	80.12
294.833	68.12
295.064	84.12
295.295	79.12
295.525	97.12
295.756	84.12
295.987	85.12
296.217	84.12
296.448	66.12
296.679	82.12
296.909	72.12
297.14	84.12
297.37	80.12
297.601	91.12
297.831	78.12
298.062	93.12
298.292	85.12
298.523	78.12
298.753	79.12
298.984	92.12
299.214	103.12
299.445	87.12
299.675	92.12
299.905	86.12
300.136	91.12
300.366	99.12
300.597	83.12
300.827	81.12
301.057	83.12
301.288	93.12
301.518	84.12
301.748	91.12
301.979	94.12
302.209	90.12
302.439	67.12
302.669	71.12
302.9	83.12
303.13	94.12
303.36	83.12
303.59	89.12
303.82	90.12
304.051	92.12
304.281	79.12
304.511	94.12
304.741	72.12
304.971	96.12
305.201	78.12
305.431	87.12
305.661	88.12
305.891	87.12
306.121	86.12
306.352	81.12
306.582	87.12
306.812	87.12
307.042	74.12
307.272	87.12
307.502	84.12
307.731	80.12
307.961	95.12
308.191	87.12
308.421	90.12
308.651	85.12
308.881	100.12
309.111	92.12
309.341	95.12
309.571	90.12
309.8	89.12
310.03	83.12
310.26	81.12
310.49	73.12
310.72	94.12
310.949	90.12
311.179	77.12
311.409	76.12
311.639	97.12
311.868	90.12
312.098	83.12
312.328	90.12
312.557	101.12
312.787	90.12
313.017	81.12
313.246	98.12
313.476	79.12
313.706	96.12
313.935	83.12
314.165	93.12
314.394	78.12
314.624	95.12
314.853	80.12
315.083	87.12
315.312	73.12
315.542	81.12
315.771	92.12
316.001	73.12
316.23	100.12
316.46	97.12
316.689	78.12
316.919	89.12
317.148	77.12
317.377	76.12
317.607	96.12
317.836	88.12
318.065	94.12
318.295	88.12
318.524	80.12
318.753	81.12
318.983	93.12
319.212	89.12
319.441	76.12
319.67	95.12
319.9	78.12
320.129	87.12
320.358	87.12
320.587	95.12
320.816	101.12
321.046	81.12
321.275	86.12
321.504	103.12
321.733	96.12
321.962	101.12
322.191	83.12
322.42	85.12
322.649	99.12
322.878	86.12
323.108	69.12
323.337	99.12
323.566	94.12
323.795	94.12
324.024	86.12
324.253	91.12
324.482	80.12
324.71	83.12
324.939	85.12
325.168	84.12
325.397	93.12
325.626	93.12
325.855	91.12
326.084	80.12
326.313	90.12
326.542	93.12
326.77	91.12
326.999	100.12
327.228	101.12
327.457	90.12
327.686	100.12
327.914	79.12
328.143	84.12
328.372	93.12
328.6	87.12
328.829	68.12
329.058	83.12
329.287	92.12
329.515	81.12
329.744	93.12
329.972	82.12
330.201	98.12
330.43	87.12
330.658	87.12
330.887	82.12
331.115	84.12
331.344	74.12
331.572	97.12
331.801	92.12
332.03	79.12
332.258	86.12
332.486	94.12
332.715	92.12
332.943	91.12
333.172	90.12
333.4	86.12
333.629	97.12
333.857	84.12
334.085	86.12
334.314	86.12
334.542	81.12
334.771	84.12
334.999	93.12
335.227	83.12
335.455	81.12
335.684	89.12
335.912	94.12
336.14	92.12
336.369	90.12
336.597	99.12
336.825	95.12
337.053	83.12
337.281	89.12
337.51	69.12
337.738	103.12
337.966	97.12
338.194	93.12
338.422	79.12
338.65	91.12
338.878	98.12
339.106	96.12
339.334	85.12
339.562	96.12
339.79	81.12
340.018	80.12
340.246	93.12
340.474	93.12
340.702	92.12
340.93	80.12
341.158	89.12
341.386	85.12
341.614	79.12
341.842	97.12
342.07	96.12
342.298	92.12
342.526	84.12
342.754	100.12
342.981	98.12
343.209	78.12
343.437	95.12
343.665	92.12
343.893	79.12
344.12	87.12
344.348	68.12
344.576	91.12
344.804	85.12
345.031	76.12
345.259	91.12
345.487	82.12
345.714	99.12
345.942	73.12
346.17	75.12
346.397	80.12
346.625	68.12
346.853	75.12
347.08	81.12
347.308	90.12
347.535	69.12
347.763	80.12
347.99	92.12
348.218	67.12
348.445	88.12
348.673	87.12
348.9	96.12
349.128	105.12
349.355	84.12
349.583	92.12
349.81	94.12
350.037	95.12
350.265	101.12
350.492	100.12
350.72	83.12
350.947	94.12
351.174	83.12
351.402	72.12
351.629	87.12
351.856	79.12
352.083	87.12
352.311	88.12
352.538	81.12
352.765	82.12
352.992	98.12
353.22	104.12
353.447	80.12
353.674	94.12
353.901	85.12
354.128	87.12
354.355	88.12
354.583	87.12
354.81	87.12
355.037	92.12
355.264	87.12
355.491	77.12
355.718	90.12
355.945	84.12
356.172	77.12
356.399	92.12
356.626	88.12
356.853	67.12
357.08	80.12
357.307	89.12
357.534	84.12
357.761	85.12
357.988	99.12
358.215	83.12
358.441	91.12
358.668	94.12
358.895	73.12
359.122	102.12
359.349	77.12
359.576	85.12
359.802	78.12
360.029	83.12
360.256	95.12
360.483	91.12
360.709	89.12
360.936	94.12
361.163	85.12
361.39	85.12
361.616	92.12
361.843	106.12
362.07	82.12
362.296	88.12
362.523	87.12
362.749	99.12
362.976	80.12
363.203	90.12
363.429	100.12
363.656	86.12
363.882	89.12
364.109	91.12
364.335	81.12
364.562	80.12
364.788	82.12
365.015	84.12
365.241	80.12
365.468	88.12
365.694	80.12
365.92	91.12
366.147	109.12
366.373	85.12
366.599	101.12
366.826	74.12
367.052	92.12
367.278	83.12
367.505	93.12
367.731	92.12
367.957	103.12
368.184	101.12
368.41	72.12
368.636	81.12
368.862	90.12
369.089	85.12
369.315	89.12
369.541	85.12
369.767	80.12
369.993	84.12
370.219	87.12
370.445	98.12
370.672	87.12
370.898	88.12
371.124	88.12
371.35	85.12
371.576	85.12
371.802	79.12
372.028	83.12
372.254	73.12
372.48	87.12
372.706	93.12
372.932	94.12
373.158	91.12
373.384	79.12
373.61	81.12
373.835	87.12
374.061	94.12
374.287	95.12
374.513	93.12
374.739	89.12
374.965	87.12
375.191	85.12
375.416	88.12
375.642	79.12
375.868	86.12
376.094	80.12
376.319	88.12
376.545	76.12
376.771	101.12
376.997	84.12
377.222	73.12
377.448	91.12
377.674	104.12
377.899	91.12
378.125	83.12
378.35	76.12
378.576	81.12
378.802	84.12
379.027	84.12
379.253	96.12
379.478	77.12
379.704	93.12
379.929	89.12
380.155	82.12
380.38	81.12
380.606	94.12
380.831	97.12
381.057	100.12
381.282	80.12
381.507	80.12
381.733	76.12
381.958	87.12
382.184	100.12
382.409	85.12
382.634	80.12
382.86	73.12
383.085	88.12
383.31	76.12
383.535	85.12
383.761	74.12
383.986	79.12
384.211	94.12
384.436	78.12
384.662	85.12
384.887	95.12
385.112	80.12
385.337	84.12
385.562	73.12
385.787	88.12
386.013	87.12
386.238	85.12
386.463	94.12
386.688	83.12
386.913	86.12
387.138	89.12
387.363	98.12
387.588	93.12
387.813	93.12
388.038	79.12
388.263	79.12
388.488	93.12
388.713	72.12
388.938	86.12
389.163	104.12
389.387	83.12
389.612	96.12
389.837	85.12
390.062	75.12
390.287	93.12
390.512	81.12
390.736	81.12
390.961	82.12
391.186	95.12
391.411	80.12
391.636	92.12
391.86	80.12
392.085	84.12
392.31	105.12
392.534	86.12
392.759	103.12
392.984	83.12
393.208	85.12
393.433	92.12
393.658	87.12
393.882	95.12
394.107	93.12
394.331	83.12
394.556	76.12
394.78	88.12
395.005	92.12
395.229	82.12
395.454	91.12
395.678	80.12
395.903	82.12
396.127	97.12
396.352	77.12
396.576	70.12
396.801	89.12
397.025	91.12
397.249	96.12
397.474	100.12
397.698	85.12
397.922	75.12
398.147	96.12
398.371	75.12
398.595	73.12
398.82	86.12
399.044	82.12
399.268	80.12
399.492	93.12
399.717	89.12
399.941	92.12
400.165	91.12
400.389	82.12
400.613	96.12
400.837	101.12
401.062	90.12
401.286	77.12
401.51	76.12
401.734	76.12
401.958	77.12
402.182	90.12
402.406	91.12
402.63	104.12
402.854	96.12
403.078	61.12
403.302	81.12
403.526	82.12
403.75	96.12
403.974	92.12
404.198	95.12
404.422	88.12
404.645	93.12
404.869	94.12
405.093	72.12
405.317	101.12
405.541	86.12
405.765	66.12
405.988	85.12
406.212	97.12
406.436	90.12
406.66	98.12
406.883	97.12
407.107	100.12
407.331	81.12
407.555	83.12
407.778	90.12
408.002	81.12
408.226	86.12
408.449	101.12
408.673	83.12
408.896	94.12
409.12	84.12
409.344	84.12
409.567	76.12
409.791	93.12
410.014	78.12
410.238	93.12
410.461	88.12
410.685	89.12
410.908	90.12
411.132	103.12
411.355	82.12
411.578	103.12
411.802	96.12
412.025	92.12
412.249	103.12
412.472	100.12
412.695	100.12
412.919	94.12
413.142	83.12
413.365	90.12
413.589	77.12
413.812	99.12
414.035	90.12
414.258	90.12
414.482	96.12
414.705	91.12
414.928	99.12
415.151	100.12
415.374	85.12
415.597	85.12
415.821	88.12
416.044	95.12
416.267	91.12
416.49	83.12
416.713	93.12
416.936	85.12
417.159	75.12
417.382	86.12
417.605	90.12
417.828	95.12
418.051	92.12
418.274	97.12
418.497	89.12
418.72	105.12
418.943	96.12
419.166	84.12
419.389	95.12
419.611	89.12
419.834	88.12
420.057	99.12
420.28	87.12
420.503	89.12
420.726	105.12
420.948	93.12
421.171	95.12
421.394	88.12
421.617	99.12
421.839	95.12
422.062	76.12
422.285	84.12
422.507	81.12
422.73	91.12
422.953	97.12
423.175	91.12
423.398	86.12
423.621	100.12
423.843	97.12
424.066	95.12
424.288	100.12
424.511	92.12
424.733	94.12
424.956	99.12
425.178	88.12
425.401	99.12
425.623	99.12
425.846	84.12
426.068	79.12
426.291	90.12
426.513	94.12
426.735	89.12
426.958	96.12
427.18	89.12
427.402	85.12
427.625	81.12
427.847	93.12
428.069	106.12
428.292	99.12
428.514	94.12
428.736	96.12
428.958	86.12
429.181	99.12
429.403	94.12
429.625	94.12
429.847	92.12
430.069	101.12
430.292	110.12
430.514	87.12
430.736	99.12
430.958	93.12
431.18	88.12
431.402	80.12
431.624	85.12
431.846	81.12
432.068	81.12
432.29	88.12
432.512	85.12
432.734	80.12
432.956	108.12
433.178	79.12
433.4	93.12
433.622	105.12
433.844	94.12
434.066	86.12
434.287	90.12
434.509	89.12
434.731	79.12
434.953	101.12
435.175	89.12
435.397	83.12
435.618	87.12
435.84	85.12
436.062	85.12
436.284	85.12
436.505	92.12
436.727	92.12
436.949	95.12
437.17	87.12
437.392	103.12
437.614	89.12
437.835	93.12
438.057	72.12
438.278	84.12
438.5	110.12
438.721	103.12
438.943	90.12
439.165	99.12
439.386	106.12
439.608	108.12
439.829	96.12
440.05	97.12
440.272	91.12
440.493	108.12
440.715	93.12
440.936	100.12
441.158	95.12
441.379	94.12
441.6	96.12
441.822	82.12
442.043	95.12
442.264	95.12
442.486	83.12
442.707	78.12
442.928	99.12
443.149	93.12
443.371	94.12
443.592	91.12
443.813	119.12
444.034	85.12
444.255	101.12
444.476	88.12
444.698	99.12
444.919	83.12
445.14	205.12
445.361	139.12
445.582	101.12
445.803	103.12
446.024	95.12
446.245	100.12
446.466	95.12
446.687	100.12
446.908	76.12
447.129	109.12
447.35	85.12
447.571	86.12
447.792	88.12
448.013	92.12
448.234	94.12
448.455	91.12
448.675	90.12
448.896	79.12
449.117	105.12
449.338	101.12
449.559	80.12
449.779	91.12
450	75.12
450.221	85.12
450.442	103.12
450.662	99.12
450.883	103.12
451.104	93.12
451.324	95.12
451.545	100.12
451.766	90.12
451.986	78.12
452.207	87.12
452.428	96.12
452.648	84.12
452.869	81.12
453.089	85.12
453.31	80.12
453.53	83.12
453.751	88.12
453.971	87.12
454.192	85.12
454.412	86.12
454.633	90.12
454.853	87.12
455.073	100.12
455.294	89.12
455.514	86.12
455.734	87.12
455.955	86.12
456.175	91.12
456.395	93.12
456.616	91.12
456.836	111.12
457.056	92.12
457.276	84.12
457.497	91.12
457.717	95.12
457.937	87.12
458.157	81.12
458.377	75.12
458.598	89.12
458.818	93.12
459.038	81.12
459.258	89.12
459.478	93.12
459.698	77.12
459.918	89.12
460.138	87.12
460.358	82.12
460.578	80.12
460.798	95.12
461.018	91.12
461.238	76.12
461.458	97.12
461.678	75.12
461.898	94.12
462.118	86.12
462.338	99.12
462.558	93.12
462.777	73.12
462.997	94.12
463.217	92.12
463.437	82.12
463.657	88.12
463.876	65.12
464.096	88.12
464.316	93.12
464.536	80.12
464.755	94.12
464.975	83.12
465.195	90.12
465.414	82.12
465.634	97.12
465.854	81.12
466.073	86.12
466.293	79.12
466.512	96.12
466.732	91.12
466.951	93.12
467.171	85.12
467.391	88.12
467.61	102.12
467.829	87.12
468.049	101.12
468.268	90.12
468.488	89.12
468.707	91.12
468.927	102.12
469.146	99.12
469.365	110.12
469.585	97.12
469.804	89.12
470.023	91.12
470.243	92.12
470.462	86.12
470.681	97.12
470.901	92.12
471.12	93.12
471.339	78.12
471.558	105.12
471.777	88.12
471.997	90.12
472.216	97.12
472.435	85.12
472.654	78.12
472.873	73.12
473.092	98.12
473.311	87.12
473.53	102.12
473.749	96.12
473.968	83.12
474.187	89.12
474.406	93.12
474.625	87.12
474.844	91.12
475.063	101.12
475.282	81.12
475.501	90.12
475.72	96.12
475.939	96.12
476.158	80.12
476.377	94.12
476.596	85.12
476.814	85.12
477.033	74.12
477.252	88.12
477.471	93.12
477.69	77.12
477.908	86.12
478.127	104.12
478.346	87.12
478.564	68.12
478.783	76.12
479.002	100.12
479.22	94.12
479.439	94.12
479.658	97.12
479.876	96.12
480.095	89.12
480.313	91.12
480.532	87.12
480.751	89.12
480.969	76.12
481.188	87.12
481.406	92.12
481.624	89.12
481.843	93.12
482.061	102.12
482.28	89.12
482.498	80.12
482.717	84.12
482.935	99.12
483.153	83.12
483.372	92.12
483.59	88.12
483.808	93.12
484.027	78.12
484.245	96.12
484.463	99.12
484.681	101.12
484.9	94.12
485.118	101.12
485.336	92.12
485.554	87.12
485.772	85.12
485.99	90.12
486.209	98.12
486.427	103.12
486.645	100.12
486.863	92.12
487.081	81.12
487.299	92.12
487.517	99.12
487.735	105.12
487.953	98.12
488.171	102.12
488.389	91.12
488.607	97.12
488.825	91.12
489.043	105.12
489.261	91.12
489.479	106.12
489.696	99.12
489.914	79.12
490.132	98.12
490.35	92.12
490.568	105.12
490.786	89.12
491.003	99.12
491.221	94.12
491.439	101.12
491.657	98.12
491.874	92.12
492.092	127.12
492.31	123.12
492.527	114.12
492.745	117.12
492.963	97.12
493.18	115.12
493.398	85.12
493.615	102.12
493.833	100.12
494.05	107.12
494.268	101.12
494.485	109.12
494.703	104.12
494.92	102.12
495.138	98.12
495.355	96.12
495.573	86.12
495.79	100.12
496.008	100.12
496.225	94.12
496.442	116.12
496.66	113.12
496.877	98.12
497.094	105.12
497.312	101.12
497.529	105.12
497.746	94.12
497.963	90.12
498.181	93.12
498.398	82.12
498.615	100.12
498.832	78.12
499.049	100.12
499.267	108.12
499.484	100.12
499.701	96.12
499.918	86.12
500.135	99.12
500.352	83.12
500.569	98.12
500.786	96.12
501.003	92.12
501.22	84.12
501.437	106.12
501.654	77.12
501.871	93.12
502.088	94.12
502.305	103.12
502.522	82.12
502.739	90.12
502.956	83.12
503.172	95.12
503.389	112.12
503.606	88.12
503.823	89.12
504.04	99.12
504.256	99.12
504.473	89.12
504.69	100.12
504.907	90.12
505.123	84.12
505.34	81.12
505.557	71.12
505.773	95.12
505.99	91.12
506.207	105.12
506.423	93.12
506.64	82.12
506.856	78.12
507.073	99.12
507.289	87.12
507.506	90.12
507.722	85.12
507.939	88.12
508.155	91.12
508.372	74.12
508.588	100.12
508.805	90.12
509.021	85.12
509.238	80.12
509.454	81.12
509.67	89.12
509.887	81.12
510.103	77.12
510.319	96.12
510.536	86.12
510.752	96.12
510.968	94.12
511.184	95.12
511.401	86.12
511.617	86.12
511.833	92.12
512.049	94.12
512.265	88.12
512.481	89.12
512.698	86.12
512.914	81.12
513.13	87.12
513.346	87.12
513.562	91.12
513.778	74.12
513.994	81.12
514.21	92.12
514.426	106.12
514.642	88.12
514.858	80.12
515.074	74.12
515.29	85.12
515.506	87.12
515.721	84.12
515.937	94.12
516.153	84.12
516.369	96.12
516.585	96.12
516.801	92.12
517.016	86.12
517.232	84.12
517.448	80.12
517.664	82.12
517.879	85.12
518.095	80.12
518.311	95.12
518.527	96.12
518.742	91.12
518.958	98.12
519.173	88.12
519.389	87.12
519.605	94.12
519.82	89.12
520.036	100.12
520.251	100.12
520.467	91.12
520.682	75.12
520.898	87.12
521.113	73.12
521.329	86.12
521.544	90.12
521.76	98.12
521.975	88.12
522.19	99.12
522.406	90.12
522.621	97.12
522.836	100.12
523.052	93.12
523.267	94.12
523.482	95.12
523.698	98.12
523.913	83.12
524.128	102.12
524.343	92.12
524.559	100.12
524.774	88.12
524.989	81.12
525.204	77.12
525.419	80.12
525.634	83.12
525.849	91.12
526.064	92.12
526.28	86.12
526.495	71.12
526.71	82.12
526.925	85.12
527.14	93.12
527.355	94.12
527.57	91.12
527.785	81.12
527.999	86.12
528.214	85.12
528.429	99.12
528.644	96.12
528.859	97.12
529.074	90.12
529.289	96.12
529.503	96.12
529.718	94.12
529.933	88.12
530.148	99.12
530.363	76.12
530.577	83.12
530.792	95.12
531.007	78.12
531.221	97.12
531.436	89.12
531.651	84.12
531.865	99.12
532.08	89.12
532.295	93.12
532.509	84.12
532.724	89.12
532.938	93.12
533.153	87.12
533.367	89.12
533.582	90.12
533.796	92.12
534.011	79.12
534.225	95.12
534.44	93.12
534.654	77.12
534.868	92.12
535.083	96.12
535.297	92.12
535.511	74.12
535.726	81.12
535.94	85.12
536.154	80.12
536.369	93.12
536.583	79.12
536.797	86.12
537.011	95.12
537.225	102.12
537.44	86.12
537.654	88.12
537.868	79.12
538.082	84.12
538.296	90.12
538.51	89.12
538.724	97.12
538.938	90.12
539.153	99.12
539.367	76.12
539.581	85.12
539.795	99.12
540.009	76.12
540.222	82.12
540.436	95.12
540.65	90.12
540.864	92.12
541.078	91.12
541.292	95.12
541.506	78.12
541.72	93.12
541.934	101.12
542.147	107.12
542.361	108.12
542.575	103.12
542.789	98.12
543.002	92.12
543.216	96.12
543.43	90.12
543.644	98.12
543.857	101.12
544.071	88.12
544.285	95.12
544.498	116.12
544.712	113.12
544.925	101.12
545.139	110.12
545.352	112.12
545.566	107.12
545.779	93.12
545.993	98.12
546.206	104.12
546.42	93.12
546.633	117.12
546.847	103.12
547.06	109.12
547.274	100.12
547.487	107.12
547.7	92.12
547.914	131.12
548.127	103.12
548.34	101.12
548.554	94.12
548.767	113.12
548.98	96.12
549.193	110.12
549.407	79.12
549.62	92.12
549.833	92.12
550.046	95.12
550.259	100.12
550.473	102.12
550.686	109.12
550.899	87.12
551.112	96.12
551.325	99.12
551.538	94.12
551.751	92.12
551.964	84.12
552.177	106.12
552.39	87.12
552.603	90.12
552.816	102.12
553.029	106.12
553.242	112.12
553.455	105.12
553.667	99.12
553.88	101.12
554.093	97.12
554.306	93.12
554.519	101.12
554.732	97.12
554.944	100.12
555.157	91.12
555.37	104.12
555.583	100.12
555.795	97.12
556.008	103.12
556.221	103.12
556.433	108.12
556.646	101.12
556.859	96.12
557.071	93.12
557.284	93.12
557.496	98.12
557.709	93.12
557.921	78.12
558.134	107.12
558.346	95.12
558.559	92.12
558.771	92.12
558.984	96.12
559.196	91.12
559.409	93.12
559.621	96.12
559.833	95.12
560.046	98.12
560.258	87.12
560.47	103.12
560.683	99.12
560.895	104.12
561.107	99.12
561.32	87.12
561.532	87.12
561.744	87.12
561.956	93.12
562.168	88.12
562.381	93.12
562.593	101.12
562.805	104.12
563.017	95.12
563.229	106.12
563.441	95.12
563.653	89.12
563.865	101.12
564.077	96.12
564.289	95.12
564.501	80.12
564.713	103.12
564.925	107.12
565.137	82.12
565.349	97.12
565.561	89.12
565.773	83.12
565.985	96.12
566.197	101.12
566.408	95.12
566.62	87.12
566.832	89.12
567.044	90.12
567.255	93.12
567.467	85.12
567.679	91.12
567.891	88.12
568.102	93.12
568.314	84.12
568.526	78.12
568.737	81.12
568.949	77.12
569.161	86.12
569.372	81.12
569.584	95.12
569.795	88.12
570.007	90.12
570.218	79.12
570.43	73.12
570.641	95.12
570.853	78.12
571.064	95.12
571.276	89.12
571.487	93.12
571.698	100.12
571.91	94.12
572.121	100.12
572.333	101.12
572.544	94.12
572.755	87.12
572.966	83.12
573.178	71.12
573.389	88.12
573.6	79.12
573.811	85.12
574.023	91.12
574.234	97.12
574.445	84.12
574.656	83.12
574.867	96.12
575.078	88.12
575.289	83.12
575.501	87.12
575.712	90.12
575.923	71.12
576.134	93.12
576.345	91.12
576.556	84.12
576.767	80.12
576.978	96.12
577.188	99.12
577.399	89.12
577.61	77.12
577.821	81.12
578.032	81.12
578.243	89.12
578.454	85.12
578.665	82.12
578.875	88.12
579.086	89.12
579.297	95.12
579.508	82.12
579.718	90.12
579.929	88.12
580.14	83.12
580.35	77.12
580.561	80.12
580.772	93.12
580.982	75.12
581.193	87.12
581.403	104.12
581.614	79.12
581.825	82.12
582.035	88.12
582.246	84.12
582.456	79.12
582.667	93.12
582.877	90.12
583.087	84.12
583.298	85.12
583.508	87.12
583.719	64.12
583.929	88.12
584.139	90.12
584.35	93.12
584.56	95.12
584.77	82.12
584.981	87.12
585.191	92.12
585.401	88.12
585.611	88.12
585.821	84.12
586.032	81.12
586.242	84.12
586.452	97.12
586.662	89.12
586.872	90.12
587.082	83.12
587.292	87.12
587.502	104.12
587.713	95.12
587.923	77.12
588.133	86.12
588.343	83.12
588.553	80.12
588.762	79.12
588.972	91.12
589.182	80.12
589.392	82.12
589.602	84.12
589.812	96.12
590.022	83.12
590.232	78.12
590.441	79.12
590.651	98.12
590.861	87.12
591.071	91.12
591.281	97.12
591.49	82.12
591.7	83.12
591.91	88.12
592.119	99.12
592.329	84.12
592.539	80.12
592.748	80.12
592.958	99.12
593.167	82.12
593.377	100.12
593.587	86.12
593.796	82.12
594.006	84.12
594.215	84.12
594.424	93.12
594.634	94.12
594.843	96.12
595.053	90.12
595.262	85.12
595.472	83.12
595.681	95.12
595.89	79.12
596.1	97.12
596.309	90.12
596.518	84.12
596.727	94.12
596.937	90.12
597.146	87.12
597.355	97.12
597.564	85.12
597.774	87.12
597.983	74.12
598.192	78.12
598.401	74.12
598.61	72.12
598.819	96.12
599.028	95.12
599.237	89.12
599.446	81.12
599.655	84.12
599.864	88.12
600.073	79.12
600.282	106.12
600.491	90.12
600.7	88.12
600.909	85.12
601.118	93.12
601.327	93.12
601.536	91.12
601.745	95.12
601.953	100.12
602.162	84.12
602.371	97.12
602.58	108.12
602.789	86.12
602.997	93.12
603.206	93.12
603.415	106.12
603.623	83.12
603.832	84.12
604.041	85.12
604.249	89.12
604.458	88.12
604.666	96.12
604.875	92.12
605.084	88.12
605.292	83.12
605.501	77.12
605.709	77.12
605.918	95.12
606.126	87.12
606.334	98.12
606.543	85.12
606.751	79.12
606.96	81.12
607.168	89.12
607.376	81.12
607.585	97.12
607.793	102.12
608.001	86.12
608.21	85.12
608.418	96.12
608.626	92.12
608.834	97.12
609.043	89.12
609.251	93.12
609.459	85.12
609.667	117.12
609.875	100.12
610.083	96.12
610.291	90.12
610.499	105.12
610.707	87.12
610.916	83.12
611.124	77.12
611.332	87.12
611.54	85.12
611.748	104.12
611.955	109.12
612.163	93.12
612.371	94.12
612.579	87.12
612.787	82.12
612.995	91.12
613.203	95.12
613.411	96.12
613.618	100.12
613.826	87.12
614.034	97.12
614.242	91.12
614.449	94.12
614.657	86.12
614.865	95.12
615.072	88.12
615.28	96.12
615.488	103.12
615.695	93.12
615.903	82.12
616.111	100.12
616.318	101.12
616.526	105.12
616.733	88.12
616.941	78.12
617.148	88.12
617.356	81.12
617.563	74.12
617.771	92.12
617.978	103.12
618.185	78.12
618.393	87.12
618.6	91.12
618.807	96.12
619.015	71.12
619.222	94.12
619.429	82.12
619.637	96.12
619.844	93.12
620.051	103.12
620.258	85.12
620.466	83.12
620.673	90.12
620.88	83.12
621.087	86.12
621.294	100.12
621.501	80.12
621.708	93.12
621.915	85.12
622.122	96.12
622.329	94.12
622.536	72.12
622.743	92.12
622.95	101.12
623.157	96.12
623.364	109.12
623.571	86.12
623.778	86.12
623.985	100.12
624.192	91.12
624.399	91.12
624.606	71.12
624.812	89.12
625.019	81.12
625.226	91.12
625.433	82.12
625.639	80.12
625.846	96.12
626.053	97.12
626.259	92.12
626.466	77.12
626.673	89.12
626.879	82.12
627.086	84.12
627.293	73.12
627.499	90.12
627.706	92.12
627.912	91.12
628.119	84.12
628.325	91.12
628.532	87.12
628.738	93.12
628.945	96.12
629.151	98.12
629.357	86.12
629.564	86.12
629.77	99.12
629.976	81.12
630.183	82.12
630.389	94.12
630.595	80.12
630.802	85.12
631.008	82.12
631.214	80.12
631.42	105.12
631.627	86.12
631.833	93.12
632.039	84.12
632.245	95.12
632.451	96.12
632.657	88.12
632.863	94.12
633.069	99.12
633.275	79.12
633.481	92.12
633.688	97.12
633.893	95.12
634.099	96.12
634.305	93.12
634.511	94.12
634.717	86.12
634.923	74.12
635.129	85.12
635.335	89.12
635.541	75.12
635.747	88.12
635.952	86.12
636.158	78.12
636.364	96.12
636.57	93.12
636.775	99.12
636.981	84.12
637.187	89.12
637.392	96.12
637.598	82.12
637.804	92.12
638.009	95.12
638.215	78.12
638.421	88.12
638.626	79.12
638.832	89.12
639.037	95.12
639.243	91.12
639.448	92.12
639.654	69.12
639.859	85.12
640.065	90.12
640.27	93.12
640.475	98.12
640.681	87.12
640.886	76.12
641.091	80.12
641.297	97.12
641.502	83.12
641.707	100.12
641.913	78.12
642.118	80.12
642.323	94.12
642.528	92.12
642.733	79.12
642.939	96.12
643.144	86.12
643.349	94.12
643.554	93.12
643.759	107.12
643.964	71.12
644.169	87.12
644.374	88.12
644.579	88.12
644.784	64.12
644.989	82.12
645.194	93.12
645.399	96.12
645.604	98.12
645.809	79.12
646.014	96.12
646.219	82.12
646.423	93.12
646.628	103.12
646.833	89.12
647.038	89.12
647.243	87.12
647.447	93.12
647.652	96.12
647.857	97.12
648.062	84.12
648.266	84.12
648.471	92.12
648.676	80.12
648.88	89.12
649.085	85.12
649.289	88.12
649.494	86.12
649.698	90.12
649.903	90.12
650.107	90.12
650.312	79.12
650.516	84.12
650.721	94.12
650.925	89.12
651.13	95.12
651.334	80.12
651.539	88.12
651.743	72.12
651.947	82.12
652.152	90.12
652.356	80.12
652.56	82.12
652.764	87.12
652.969	84.12
653.173	94.12
653.377	87.12
653.581	95.12
653.785	97.12
653.99	96.12
654.194	94.12
654.398	95.12
654.602	99.12
654.806	97.12
655.01	91.12
655.214	91.12
655.418	78.12
655.622	78.12
655.826	72.12
656.03	86.12
656.234	85.12
656.438	84.12
656.642	93.12
656.846	88.12
657.049	78.12
657.253	82.12
657.457	74.12
657.661	85.12
657.865	76.12
658.068	88.12
658.272	85.12
658.476	85.12
658.68	99.12
658.883	82.12
659.087	73.12
659.291	81.12
659.494	91.12
659.698	89.12
659.901	81.12
660.105	90.12
660.309	77.12
660.512	69.12
660.716	88.12
660.919	80.12
661.123	94.12
661.326	81.12
661.53	80.12
661.733	82.12
661.936	104.12
662.14	75.12
662.343	96.12
662.546	91.12
662.75	80.12
662.953	93.12
663.156	95.12
663.36	81.12
663.563	85.12
663.766	82.12
663.969	92.12
664.173	73.12
664.376	78.12
664.579	84.12
664.782	77.12
664.985	89.12
665.188	89.12
665.391	92.12
665.594	78.12
665.797	76.12
666	78.12
666.203	74.12
666.406	84.12
666.609	85.12
666.812	73.12
667.015	83.12
667.218	85.12
667.421	90.12
667.624	84.12
667.827	71.12
668.03	97.12
668.232	100.12
668.435	75.12
668.638	82.12
668.841	92.12
669.043	80.12
669.246	82.12
669.449	100.12
669.651	84.12
669.854	86.12
670.057	99.12
670.259	76.12
670.462	80.12
670.665	86.12
670.867	81.12
671.07	83.12
671.272	93.12
671.475	94.12
671.677	75.12
671.88	93.12
672.082	85.12
672.284	90.12
672.487	87.12
672.689	84.12
672.892	77.12
