Data from Zn(NO3)2Standard.Agarose3%.GreenCap.LampEnergy10E.O_HRD10591_15-07-30-945.txt Node
Date: Mon Jul 22 15:07:30 EDT 2019
User: cochatt
Spectrometer: HR+D1059
Trigger mode: 1
Integration Time (sec): 1.000000E-1
Scans to average: 1
Electric dark correction enabled: true
Nonlinearity correction enabled: false
Boxcar width: 0
XAxis mode: Wavelengths
Number of Pixels in Spectrum: 2048
>>>>>Begin Spectral Data<<<<<
223.165	-10.38
223.4	-10.38
223.635	-10.38
223.869	-13.38
224.104	-7.38
224.338	-19.38
224.573	-12.38
224.808	-17.38
225.042	-3.38
225.277	-16.38
225.511	-5.38
225.746	6.62
225.98	8.62
226.215	6.62
226.449	1.62
226.683	23.62
226.918	26.62
227.152	31.62
227.387	36.62
227.621	40.62
227.856	52.62
228.09	33.62
228.324	56.62
228.559	54.62
228.793	55.62
229.027	73.62
229.262	51.62
229.496	56.62
229.73	63.62
229.964	82.62
230.199	83.62
230.433	66.62
230.667	64.62
230.901	78.62
231.136	66.62
231.37	77.62
231.604	76.62
231.838	68.62
232.072	83.62
232.306	62.62
232.541	78.62
232.775	83.62
233.009	86.62
233.243	84.62
233.477	73.62
233.711	86.62
233.945	82.62
234.179	99.62
234.413	92.62
234.647	83.62
234.881	86.62
235.115	82.62
235.349	67.62
235.583	67.62
235.817	76.62
236.051	94.62
236.285	79.62
236.519	68.62
236.753	78.62
236.987	85.62
237.221	79.62
237.455	65.62
237.689	87.62
237.922	72.62
238.156	78.62
238.39	68.62
238.624	69.62
238.858	58.62
239.091	90.62
239.325	85.62
239.559	73.62
239.793	81.62
240.027	75.62
240.26	62.62
240.494	62.62
240.728	68.62
240.961	56.62
241.195	72.62
241.429	64.62
241.662	85.62
241.896	70.62
242.13	89.62
242.363	78.62
242.597	81.62
242.83	88.62
243.064	72.62
243.298	83.62
243.531	76.62
243.765	75.62
243.998	73.62
244.232	79.62
244.465	72.62
244.699	76.62
244.932	71.62
245.166	72.62
245.399	71.62
245.633	80.62
245.866	60.62
246.099	81.62
246.333	73.62
246.566	79.62
246.8	70.62
247.033	87.62
247.266	82.62
247.5	78.62
247.733	76.62
247.966	87.62
248.2	80.62
248.433	68.62
248.666	81.62
248.899	79.62
249.133	82.62
249.366	76.62
249.599	70.62
249.832	74.62
250.066	91.62
250.299	80.62
250.532	68.62
250.765	78.62
250.998	90.62
251.231	94.62
251.465	92.62
251.698	75.62
251.931	80.62
252.164	82.62
252.397	68.62
252.63	78.62
252.863	82.62
253.096	74.62
253.329	75.62
253.562	74.62
253.795	76.62
254.028	97.62
254.261	72.62
254.494	68.62
254.727	88.62
254.96	77.62
255.193	81.62
255.426	86.62
255.659	75.62
255.892	72.62
256.124	68.62
256.357	96.62
256.59	93.62
256.823	80.62
257.056	80.62
257.289	88.62
257.521	73.62
257.754	76.62
257.987	85.62
258.22	92.62
258.452	75.62
258.685	81.62
258.918	83.62
259.151	73.62
259.383	94.62
259.616	79.62
259.849	67.62
260.081	74.62
260.314	63.62
260.547	62.62
260.779	76.62
261.012	82.62
261.244	74.62
261.477	84.62
261.71	86.62
261.942	72.62
262.175	90.62
262.407	87.62
262.64	75.62
262.872	94.62
263.105	87.62
263.337	83.62
263.57	67.62
263.802	80.62
264.035	68.62
264.267	93.62
264.499	74.62
264.732	83.62
264.964	65.62
265.197	72.62
265.429	72.62
265.661	88.62
265.894	79.62
266.126	81.62
266.358	97.62
266.591	92.62
266.823	86.62
267.055	88.62
267.287	81.62
267.52	80.62
267.752	79.62
267.984	97.62
268.216	58.62
268.448	72.62
268.681	88.62
268.913	84.62
269.145	75.62
269.377	69.62
269.609	84.62
269.841	87.62
270.073	76.62
270.306	84.62
270.538	82.62
270.77	76.62
271.002	64.62
271.234	80.62
271.466	85.62
271.698	86.62
271.93	81.62
272.162	63.62
272.394	85.62
272.626	84.62
272.858	84.62
273.09	82.62
273.322	86.62
273.553	75.62
273.785	81.62
274.017	71.62
274.249	80.62
274.481	84.62
274.713	80.62
274.945	87.62
275.176	78.62
275.408	69.62
275.64	69.62
275.872	77.62
276.104	98.62
276.335	74.62
276.567	88.62
276.799	83.62
277.031	69.62
277.262	72.62
277.494	79.62
277.726	75.62
277.957	88.62
278.189	86.62
278.421	91.62
278.652	83.62
278.884	71.62
279.115	94.62
279.347	90.62
279.579	88.62
279.81	82.62
280.042	90.62
280.273	86.62
280.505	84.62
280.736	81.62
280.968	72.62
281.199	84.62
281.431	78.62
281.662	85.62
281.894	88.62
282.125	92.62
282.356	73.62
282.588	81.62
282.819	75.62
283.051	83.62
283.282	89.62
283.513	79.62
283.745	79.62
283.976	79.62
284.207	72.62
284.439	88.62
284.67	84.62
284.901	82.62
285.132	82.62
285.364	86.62
285.595	79.62
285.826	75.62
286.057	85.62
286.288	75.62
286.52	93.62
286.751	87.62
286.982	79.62
287.213	77.62
287.444	86.62
287.675	91.62
287.906	76.62
288.138	81.62
288.369	71.62
288.6	80.62
288.831	76.62
289.062	92.62
289.293	78.62
289.524	78.62
289.755	88.62
289.986	86.62
290.217	72.62
290.448	65.62
290.679	65.62
290.91	80.62
291.141	93.62
291.371	87.62
291.602	81.62
291.833	84.62
292.064	75.62
292.295	71.62
292.526	89.62
292.757	94.62
292.987	84.62
293.218	95.62
293.449	82.62
293.68	91.62
293.91	85.62
294.141	84.62
294.372	86.62
294.603	81.62
294.833	84.62
295.064	101.62
295.295	84.62
295.525	73.62
295.756	84.62
295.987	94.62
296.217	90.62
296.448	85.62
296.679	96.62
296.909	65.62
297.14	67.62
297.37	82.62
297.601	72.62
297.831	84.62
298.062	94.62
298.292	78.62
298.523	83.62
298.753	78.62
298.984	87.62
299.214	90.62
299.445	93.62
299.675	74.62
299.905	81.62
300.136	80.62
300.366	77.62
300.597	83.62
300.827	90.62
301.057	94.62
301.288	75.62
301.518	89.62
301.748	93.62
301.979	72.62
302.209	86.62
302.439	77.62
302.669	86.62
302.9	77.62
303.13	80.62
303.36	81.62
303.59	87.62
303.82	86.62
304.051	83.62
304.281	83.62
304.511	82.62
304.741	77.62
304.971	81.62
305.201	80.62
305.431	86.62
305.661	87.62
305.891	67.62
306.121	100.62
306.352	85.62
306.582	84.62
306.812	84.62
307.042	86.62
307.272	76.62
307.502	82.62
307.731	89.62
307.961	83.62
308.191	71.62
308.421	77.62
308.651	87.62
308.881	79.62
309.111	77.62
309.341	72.62
309.571	66.62
309.8	80.62
310.03	81.62
310.26	73.62
310.49	86.62
310.72	86.62
310.949	79.62
311.179	80.62
311.409	76.62
311.639	92.62
311.868	80.62
312.098	84.62
312.328	82.62
312.557	74.62
312.787	75.62
313.017	78.62
313.246	83.62
313.476	79.62
313.706	96.62
313.935	94.62
314.165	89.62
314.394	65.62
314.624	79.62
314.853	76.62
315.083	89.62
315.312	88.62
315.542	84.62
315.771	75.62
316.001	83.62
316.23	80.62
316.46	73.62
316.689	80.62
316.919	90.62
317.148	86.62
317.377	89.62
317.607	89.62
317.836	79.62
318.065	77.62
318.295	86.62
318.524	91.62
318.753	90.62
318.983	83.62
319.212	89.62
319.441	82.62
319.67	86.62
319.9	83.62
320.129	84.62
320.358	79.62
320.587	91.62
320.816	88.62
321.046	80.62
321.275	92.62
321.504	59.62
321.733	89.62
321.962	72.62
322.191	86.62
322.42	85.62
322.649	82.62
322.878	88.62
323.108	79.62
323.337	82.62
323.566	87.62
323.795	86.62
324.024	86.62
324.253	79.62
324.482	85.62
324.71	81.62
324.939	87.62
325.168	81.62
325.397	80.62
325.626	86.62
325.855	95.62
326.084	94.62
326.313	83.62
326.542	70.62
326.77	77.62
326.999	78.62
327.228	83.62
327.457	78.62
327.686	92.62
327.914	72.62
328.143	72.62
328.372	65.62
328.6	85.62
328.829	87.62
329.058	83.62
329.287	83.62
329.515	80.62
329.744	70.62
329.972	83.62
330.201	86.62
330.43	84.62
330.658	79.62
330.887	95.62
331.115	82.62
331.344	77.62
331.572	80.62
331.801	83.62
332.03	82.62
332.258	91.62
332.486	87.62
332.715	83.62
332.943	79.62
333.172	90.62
333.4	94.62
333.629	84.62
333.857	88.62
334.085	79.62
334.314	73.62
334.542	99.62
334.771	94.62
334.999	88.62
335.227	78.62
335.455	81.62
335.684	87.62
335.912	81.62
336.14	87.62
336.369	87.62
336.597	101.62
336.825	74.62
337.053	74.62
337.281	92.62
337.51	74.62
337.738	80.62
337.966	90.62
338.194	83.62
338.422	92.62
338.65	96.62
338.878	86.62
339.106	93.62
339.334	83.62
339.562	78.62
339.79	74.62
340.018	85.62
340.246	81.62
340.474	86.62
340.702	77.62
340.93	84.62
341.158	82.62
341.386	76.62
341.614	82.62
341.842	80.62
342.07	73.62
342.298	91.62
342.526	84.62
342.754	88.62
342.981	72.62
343.209	75.62
343.437	81.62
343.665	82.62
343.893	83.62
344.12	81.62
344.348	81.62
344.576	70.62
344.804	87.62
345.031	75.62
345.259	60.62
345.487	85.62
345.714	90.62
345.942	82.62
346.17	69.62
346.397	95.62
346.625	89.62
346.853	64.62
347.08	89.62
347.308	84.62
347.535	83.62
347.763	93.62
347.99	94.62
348.218	78.62
348.445	73.62
348.673	70.62
348.9	75.62
349.128	70.62
349.355	79.62
349.583	88.62
349.81	92.62
350.037	68.62
350.265	81.62
350.492	93.62
350.72	74.62
350.947	78.62
351.174	87.62
351.402	86.62
351.629	66.62
351.856	89.62
352.083	91.62
352.311	89.62
352.538	83.62
352.765	78.62
352.992	86.62
353.22	85.62
353.447	77.62
353.674	82.62
353.901	87.62
354.128	82.62
354.355	79.62
354.583	82.62
354.81	75.62
355.037	80.62
355.264	75.62
355.491	80.62
355.718	97.62
355.945	86.62
356.172	79.62
356.399	87.62
356.626	94.62
356.853	95.62
357.08	82.62
357.307	81.62
357.534	80.62
357.761	79.62
357.988	87.62
358.215	87.62
358.441	90.62
358.668	71.62
358.895	79.62
359.122	91.62
359.349	90.62
359.576	82.62
359.802	83.62
360.029	87.62
360.256	64.62
360.483	86.62
360.709	69.62
360.936	81.62
361.163	88.62
361.39	87.62
361.616	82.62
361.843	79.62
362.07	91.62
362.296	85.62
362.523	78.62
362.749	75.62
362.976	85.62
363.203	92.62
363.429	72.62
363.656	92.62
363.882	79.62
364.109	82.62
364.335	92.62
364.562	74.62
364.788	79.62
365.015	78.62
365.241	72.62
365.468	87.62
365.694	67.62
365.92	76.62
366.147	76.62
366.373	86.62
366.599	73.62
366.826	74.62
367.052	89.62
367.278	82.62
367.505	83.62
367.731	106.62
367.957	79.62
368.184	89.62
368.41	84.62
368.636	75.62
368.862	92.62
369.089	81.62
369.315	82.62
369.541	84.62
369.767	102.62
369.993	86.62
370.219	85.62
370.445	88.62
370.672	76.62
370.898	84.62
371.124	78.62
371.35	74.62
371.576	77.62
371.802	93.62
372.028	84.62
372.254	77.62
372.48	85.62
372.706	75.62
372.932	84.62
373.158	80.62
373.384	87.62
373.61	90.62
373.835	82.62
374.061	95.62
374.287	92.62
374.513	91.62
374.739	73.62
374.965	78.62
375.191	76.62
375.416	82.62
375.642	88.62
375.868	91.62
376.094	82.62
376.319	83.62
376.545	100.62
376.771	76.62
376.997	71.62
377.222	90.62
377.448	95.62
377.674	94.62
377.899	83.62
378.125	84.62
378.35	100.62
378.576	89.62
378.802	76.62
379.027	92.62
379.253	87.62
379.478	73.62
379.704	85.62
379.929	81.62
380.155	90.62
380.38	94.62
380.606	79.62
380.831	85.62
381.057	98.62
381.282	94.62
381.507	79.62
381.733	84.62
381.958	94.62
382.184	83.62
382.409	98.62
382.634	98.62
382.86	91.62
383.085	99.62
383.31	105.62
383.535	90.62
383.761	95.62
383.986	87.62
384.211	96.62
384.436	81.62
384.662	97.62
384.887	92.62
385.112	90.62
385.337	78.62
385.562	106.62
385.787	87.62
386.013	112.62
386.238	96.62
386.463	102.62
386.688	96.62
386.913	92.62
387.138	82.62
387.363	77.62
387.588	91.62
387.813	101.62
388.038	87.62
388.263	95.62
388.488	78.62
388.713	86.62
388.938	75.62
389.163	90.62
389.387	95.62
389.612	98.62
389.837	100.62
390.062	90.62
390.287	82.62
390.512	94.62
390.736	89.62
390.961	100.62
391.186	77.62
391.411	98.62
391.636	88.62
391.86	77.62
392.085	91.62
392.31	85.62
392.534	73.62
392.759	88.62
392.984	86.62
393.208	95.62
393.433	86.62
393.658	88.62
393.882	90.62
394.107	100.62
394.331	81.62
394.556	90.62
394.78	98.62
395.005	86.62
395.229	94.62
395.454	90.62
395.678	79.62
395.903	81.62
396.127	92.62
396.352	103.62
396.576	112.62
396.801	84.62
397.025	86.62
397.249	89.62
397.474	97.62
397.698	102.62
397.922	75.62
398.147	90.62
398.371	85.62
398.595	86.62
398.82	91.62
399.044	81.62
399.268	83.62
399.492	80.62
399.717	83.62
399.941	90.62
400.165	101.62
400.389	86.62
400.613	91.62
400.837	82.62
401.062	101.62
401.286	97.62
401.51	86.62
401.734	85.62
401.958	87.62
402.182	95.62
402.406	91.62
402.63	93.62
402.854	98.62
403.078	97.62
403.302	100.62
403.526	106.62
403.75	92.62
403.974	88.62
404.198	89.62
404.422	91.62
404.645	96.62
404.869	105.62
405.093	97.62
405.317	89.62
405.541	97.62
405.765	94.62
405.988	86.62
406.212	91.62
406.436	86.62
406.66	102.62
406.883	103.62
407.107	112.62
407.331	84.62
407.555	87.62
407.778	88.62
408.002	108.62
408.226	106.62
408.449	98.62
408.673	94.62
408.896	98.62
409.12	86.62
409.344	99.62
409.567	91.62
409.791	106.62
410.014	104.62
410.238	91.62
410.461	91.62
410.685	95.62
410.908	107.62
411.132	103.62
411.355	100.62
411.578	88.62
411.802	97.62
412.025	107.62
412.249	100.62
412.472	106.62
412.695	109.62
412.919	110.62
413.142	106.62
413.365	105.62
413.589	95.62
413.812	90.62
414.035	96.62
414.258	104.62
414.482	119.62
414.705	113.62
414.928	84.62
415.151	85.62
415.374	106.62
415.597	94.62
415.821	99.62
416.044	93.62
416.267	107.62
416.49	99.62
416.713	104.62
416.936	89.62
417.159	105.62
417.382	106.62
417.605	98.62
417.828	99.62
418.051	90.62
418.274	92.62
418.497	99.62
418.72	98.62
418.943	105.62
419.166	103.62
419.389	97.62
419.611	116.62
419.834	107.62
420.057	100.62
420.28	98.62
420.503	96.62
420.726	107.62
420.948	120.62
421.171	107.62
421.394	111.62
421.617	113.62
421.839	115.62
422.062	112.62
422.285	103.62
422.507	104.62
422.73	91.62
422.953	107.62
423.175	99.62
423.398	96.62
423.621	94.62
423.843	87.62
424.066	117.62
424.288	106.62
424.511	116.62
424.733	114.62
424.956	91.62
425.178	108.62
425.401	108.62
425.623	91.62
425.846	98.62
426.068	103.62
426.291	104.62
426.513	103.62
426.735	110.62
426.958	86.62
427.18	113.62
427.402	101.62
427.625	93.62
427.847	96.62
428.069	104.62
428.292	103.62
428.514	103.62
428.736	110.62
428.958	104.62
429.181	117.62
429.403	102.62
429.625	107.62
429.847	116.62
430.069	102.62
430.292	110.62
430.514	111.62
430.736	88.62
430.958	100.62
431.18	103.62
431.402	103.62
431.624	103.62
431.846	101.62
432.068	74.62
432.29	91.62
432.512	98.62
432.734	106.62
432.956	86.62
433.178	98.62
433.4	113.62
433.622	106.62
433.844	113.62
434.066	102.62
434.287	93.62
434.509	91.62
434.731	96.62
434.953	92.62
435.175	89.62
435.397	98.62
435.618	99.62
435.84	98.62
436.062	89.62
436.284	103.62
436.505	100.62
436.727	107.62
436.949	102.62
437.17	104.62
437.392	105.62
437.614	95.62
437.835	106.62
438.057	97.62
438.278	99.62
438.5	107.62
438.721	97.62
438.943	107.62
439.165	118.62
439.386	106.62
439.608	103.62
439.829	112.62
440.05	119.62
440.272	114.62
440.493	112.62
440.715	109.62
440.936	98.62
441.158	112.62
441.379	100.62
441.6	110.62
441.822	121.62
442.043	110.62
442.264	108.62
442.486	114.62
442.707	107.62
442.928	120.62
443.149	107.62
443.371	126.62
443.592	111.62
443.813	119.62
444.034	124.62
444.255	113.62
444.476	105.62
444.698	101.62
444.919	94.62
445.14	233.62
445.361	171.62
445.582	96.62
445.803	118.62
446.024	110.62
446.245	117.62
446.466	130.62
446.687	104.62
446.908	117.62
447.129	118.62
447.35	115.62
447.571	122.62
447.792	108.62
448.013	106.62
448.234	107.62
448.455	120.62
448.675	108.62
448.896	112.62
449.117	110.62
449.338	107.62
449.559	104.62
449.779	100.62
450	111.62
450.221	111.62
450.442	103.62
450.662	100.62
450.883	96.62
451.104	90.62
451.324	90.62
451.545	103.62
451.766	98.62
451.986	84.62
452.207	104.62
452.428	98.62
452.648	114.62
452.869	95.62
453.089	88.62
453.31	98.62
453.53	87.62
453.751	106.62
453.971	106.62
454.192	92.62
454.412	80.62
454.633	86.62
454.853	104.62
455.073	98.62
455.294	94.62
455.514	87.62
455.734	91.62
455.955	112.62
456.175	95.62
456.395	103.62
456.616	90.62
456.836	95.62
457.056	97.62
457.276	103.62
457.497	88.62
457.717	80.62
457.937	83.62
458.157	80.62
458.377	85.62
458.598	99.62
458.818	86.62
459.038	82.62
459.258	72.62
459.478	88.62
459.698	85.62
459.918	79.62
460.138	94.62
460.358	106.62
460.578	107.62
460.798	107.62
461.018	106.62
461.238	102.62
461.458	99.62
461.678	98.62
461.898	100.62
462.118	85.62
462.338	82.62
462.558	101.62
462.777	87.62
462.997	98.62
463.217	95.62
463.437	90.62
463.657	91.62
463.876	95.62
464.096	100.62
464.316	94.62
464.536	91.62
464.755	99.62
464.975	93.62
465.195	106.62
465.414	97.62
465.634	104.62
465.854	101.62
466.073	105.62
466.293	84.62
466.512	90.62
466.732	111.62
466.951	110.62
467.171	95.62
467.391	118.62
467.61	94.62
467.829	114.62
468.049	102.62
468.268	85.62
468.488	98.62
468.707	91.62
468.927	123.62
469.146	92.62
469.365	103.62
469.585	118.62
469.804	106.62
470.023	103.62
470.243	84.62
470.462	118.62
470.681	104.62
470.901	113.62
471.12	111.62
471.339	105.62
471.558	114.62
471.777	111.62
471.997	123.62
472.216	97.62
472.435	92.62
472.654	94.62
472.873	91.62
473.092	107.62
473.311	93.62
473.53	94.62
473.749	103.62
473.968	108.62
474.187	106.62
474.406	92.62
474.625	111.62
474.844	102.62
475.063	98.62
475.282	99.62
475.501	99.62
475.72	109.62
475.939	104.62
476.158	105.62
476.377	116.62
476.596	111.62
476.814	106.62
477.033	83.62
477.252	110.62
477.471	101.62
477.69	107.62
477.908	106.62
478.127	103.62
478.346	100.62
478.564	102.62
478.783	119.62
479.002	116.62
479.22	106.62
479.439	99.62
479.658	85.62
479.876	84.62
480.095	90.62
480.313	100.62
480.532	97.62
480.751	107.62
480.969	80.62
481.188	97.62
481.406	88.62
481.624	88.62
481.843	83.62
482.061	87.62
482.28	107.62
482.498	91.62
482.717	92.62
482.935	101.62
483.153	120.62
483.372	119.62
483.59	110.62
483.808	116.62
484.027	97.62
484.245	126.62
484.463	105.62
484.681	113.62
484.9	102.62
485.118	120.62
485.336	101.62
485.554	88.62
485.772	86.62
485.99	102.62
486.209	91.62
486.427	98.62
486.645	96.62
486.863	115.62
487.081	114.62
487.299	100.62
487.517	106.62
487.735	117.62
487.953	139.62
488.171	140.62
488.389	128.62
488.607	110.62
488.825	108.62
489.043	114.62
489.261	92.62
489.479	111.62
489.696	100.62
489.914	105.62
490.132	96.62
490.35	116.62
490.568	119.62
490.786	121.62
491.003	124.62
491.221	125.62
491.439	126.62
491.657	135.62
491.874	151.62
492.092	134.62
492.31	166.62
492.527	155.62
492.745	150.62
492.963	159.62
493.18	135.62
493.398	133.62
493.615	131.62
493.833	127.62
494.05	123.62
494.268	134.62
494.485	125.62
494.703	135.62
494.92	137.62
495.138	142.62
495.355	122.62
495.573	130.62
495.79	114.62
496.008	108.62
496.225	118.62
496.442	128.62
496.66	120.62
496.877	133.62
497.094	130.62
497.312	124.62
497.529	123.62
497.746	115.62
497.963	103.62
498.181	113.62
498.398	100.62
498.615	100.62
498.832	101.62
499.049	114.62
499.267	102.62
499.484	104.62
499.701	89.62
499.918	112.62
500.135	111.62
500.352	112.62
500.569	108.62
500.786	107.62
501.003	103.62
501.22	115.62
501.437	111.62
501.654	106.62
501.871	102.62
502.088	117.62
502.305	102.62
502.522	108.62
502.739	95.62
502.956	100.62
503.172	110.62
503.389	96.62
503.606	103.62
503.823	115.62
504.04	104.62
504.256	100.62
504.473	101.62
504.69	104.62
504.907	107.62
505.123	81.62
505.34	107.62
505.557	96.62
505.773	103.62
505.99	103.62
506.207	105.62
506.423	100.62
506.64	102.62
506.856	97.62
507.073	95.62
507.289	95.62
507.506	95.62
507.722	88.62
507.939	98.62
508.155	94.62
508.372	106.62
508.588	105.62
508.805	100.62
509.021	103.62
509.238	84.62
509.454	91.62
509.67	97.62
509.887	94.62
510.103	99.62
510.319	94.62
510.536	80.62
510.752	87.62
510.968	81.62
511.184	84.62
511.401	81.62
511.617	88.62
511.833	92.62
512.049	95.62
512.265	84.62
512.481	94.62
512.698	79.62
512.914	80.62
513.13	82.62
513.346	79.62
513.562	100.62
513.778	87.62
513.994	90.62
514.21	90.62
514.426	84.62
514.642	86.62
514.858	80.62
515.074	85.62
515.29	94.62
515.506	85.62
515.721	84.62
515.937	98.62
516.153	99.62
516.369	82.62
516.585	88.62
516.801	85.62
517.016	96.62
517.232	82.62
517.448	82.62
517.664	75.62
517.879	86.62
518.095	72.62
518.311	97.62
518.527	94.62
518.742	87.62
518.958	88.62
519.173	95.62
519.389	99.62
519.605	95.62
519.82	99.62
520.036	96.62
520.251	88.62
520.467	94.62
520.682	87.62
520.898	82.62
521.113	96.62
521.329	87.62
521.544	75.62
521.76	84.62
521.975	85.62
522.19	87.62
522.406	93.62
522.621	91.62
522.836	96.62
523.052	99.62
523.267	91.62
523.482	88.62
523.698	103.62
523.913	102.62
524.128	81.62
524.343	96.62
524.559	90.62
524.774	100.62
524.989	101.62
525.204	113.62
525.419	107.62
525.634	104.62
525.849	84.62
526.064	90.62
526.28	99.62
526.495	92.62
526.71	95.62
526.925	99.62
527.14	78.62
527.355	83.62
527.57	84.62
527.785	78.62
527.999	91.62
528.214	80.62
528.429	104.62
528.644	102.62
528.859	111.62
529.074	116.62
529.289	120.62
529.503	128.62
529.718	110.62
529.933	100.62
530.148	90.62
530.363	103.62
530.577	78.62
530.792	74.62
531.007	84.62
531.221	84.62
531.436	75.62
531.651	93.62
531.865	80.62
532.08	76.62
532.295	92.62
532.509	82.62
532.724	80.62
532.938	86.62
533.153	103.62
533.367	89.62
533.582	99.62
533.796	90.62
534.011	94.62
534.225	93.62
534.44	91.62
534.654	86.62
534.868	84.62
535.083	81.62
535.297	82.62
535.511	92.62
535.726	81.62
535.94	82.62
536.154	91.62
536.369	86.62
536.583	74.62
536.797	87.62
537.011	75.62
537.225	89.62
537.44	89.62
537.654	82.62
537.868	86.62
538.082	102.62
538.296	83.62
538.51	86.62
538.724	106.62
538.938	96.62
539.153	115.62
539.367	96.62
539.581	98.62
539.795	99.62
540.009	81.62
540.222	94.62
540.436	97.62
540.65	97.62
540.864	96.62
541.078	114.62
541.292	129.62
541.506	124.62
541.72	116.62
541.934	127.62
542.147	146.62
542.361	136.62
542.575	136.62
542.789	117.62
543.002	112.62
543.216	109.62
543.43	91.62
543.644	100.62
543.857	120.62
544.071	120.62
544.285	131.62
544.498	132.62
544.712	115.62
544.925	109.62
545.139	124.62
545.352	132.62
545.566	117.62
545.779	128.62
545.993	125.62
546.206	122.62
546.42	128.62
546.633	122.62
546.847	112.62
547.06	122.62
547.274	116.62
547.487	130.62
547.7	120.62
547.914	122.62
548.127	119.62
548.34	119.62
548.554	113.62
548.767	133.62
548.98	128.62
549.193	119.62
549.407	129.62
549.62	118.62
549.833	123.62
550.046	113.62
550.259	101.62
550.473	122.62
550.686	118.62
550.899	120.62
551.112	112.62
551.325	108.62
551.538	105.62
551.751	99.62
551.964	101.62
552.177	112.62
552.39	114.62
552.603	99.62
552.816	114.62
553.029	122.62
553.242	112.62
553.455	118.62
553.667	129.62
553.88	103.62
554.093	109.62
554.306	118.62
554.519	105.62
554.732	121.62
554.944	101.62
555.157	106.62
555.37	118.62
555.583	113.62
555.795	97.62
556.008	98.62
556.221	117.62
556.433	114.62
556.646	119.62
556.859	97.62
557.071	116.62
557.284	110.62
557.496	109.62
557.709	99.62
557.921	119.62
558.134	114.62
558.346	104.62
558.559	101.62
558.771	101.62
558.984	102.62
559.196	91.62
559.409	105.62
559.621	109.62
559.833	119.62
560.046	92.62
560.258	96.62
560.47	118.62
560.683	86.62
560.895	103.62
561.107	109.62
561.32	102.62
561.532	99.62
561.744	103.62
561.956	100.62
562.168	102.62
562.381	113.62
562.593	98.62
562.805	103.62
563.017	112.62
563.229	101.62
563.441	102.62
563.653	115.62
563.865	106.62
564.077	85.62
564.289	101.62
564.501	97.62
564.713	97.62
564.925	99.62
565.137	99.62
565.349	90.62
565.561	98.62
565.773	88.62
565.985	85.62
566.197	88.62
566.408	91.62
566.62	88.62
566.832	105.62
567.044	98.62
567.255	98.62
567.467	101.62
567.679	93.62
567.891	82.62
568.102	73.62
568.314	81.62
568.526	93.62
568.737	101.62
568.949	92.62
569.161	79.62
569.372	75.62
569.584	84.62
569.795	84.62
570.007	85.62
570.218	80.62
570.43	83.62
570.641	95.62
570.853	81.62
571.064	105.62
571.276	99.62
571.487	117.62
571.698	91.62
571.91	90.62
572.121	105.62
572.333	91.62
572.544	87.62
572.755	91.62
572.966	81.62
573.178	82.62
573.389	96.62
573.6	83.62
573.811	68.62
574.023	88.62
574.234	80.62
574.445	92.62
574.656	89.62
574.867	86.62
575.078	87.62
575.289	81.62
575.501	74.62
575.712	82.62
575.923	96.62
576.134	93.62
576.345	93.62
576.556	92.62
576.767	103.62
576.978	81.62
577.188	95.62
577.399	79.62
577.61	100.62
577.821	96.62
578.032	75.62
578.243	95.62
578.454	91.62
578.665	74.62
578.875	85.62
579.086	80.62
579.297	73.62
579.508	76.62
579.718	79.62
579.929	85.62
580.14	76.62
580.35	80.62
580.561	77.62
580.772	80.62
580.982	74.62
581.193	82.62
581.403	98.62
581.614	89.62
581.825	74.62
582.035	88.62
582.246	89.62
582.456	84.62
582.667	91.62
582.877	95.62
583.087	81.62
583.298	75.62
583.508	85.62
583.719	76.62
583.929	85.62
584.139	89.62
584.35	74.62
584.56	82.62
584.77	86.62
584.981	82.62
585.191	83.62
585.401	80.62
585.611	80.62
585.821	92.62
586.032	84.62
586.242	83.62
586.452	78.62
586.662	80.62
586.872	80.62
587.082	80.62
587.292	70.62
587.502	89.62
587.713	86.62
587.923	87.62
588.133	92.62
588.343	86.62
588.553	75.62
588.762	93.62
588.972	89.62
589.182	89.62
589.392	86.62
589.602	85.62
589.812	100.62
590.022	85.62
590.232	78.62
590.441	73.62
590.651	82.62
590.861	88.62
591.071	98.62
591.281	82.62
591.49	98.62
591.7	96.62
591.91	91.62
592.119	86.62
592.329	91.62
592.539	94.62
592.748	83.62
592.958	80.62
593.167	85.62
593.377	92.62
593.587	90.62
593.796	80.62
594.006	77.62
594.215	80.62
594.424	84.62
594.634	98.62
594.843	95.62
595.053	105.62
595.262	76.62
595.472	83.62
595.681	83.62
595.89	84.62
596.1	89.62
596.309	72.62
596.518	82.62
596.727	90.62
596.937	87.62
597.146	91.62
597.355	75.62
597.564	80.62
597.774	85.62
597.983	91.62
598.192	76.62
598.401	95.62
598.61	73.62
598.819	92.62
599.028	84.62
599.237	83.62
599.446	96.62
599.655	86.62
599.864	82.62
600.073	89.62
600.282	92.62
600.491	93.62
600.7	81.62
600.909	91.62
601.118	82.62
601.327	87.62
601.536	94.62
601.745	94.62
601.953	103.62
602.162	101.62
602.371	103.62
602.58	85.62
602.789	79.62
602.997	105.62
603.206	103.62
603.415	82.62
603.623	96.62
603.832	89.62
604.041	97.62
604.249	108.62
604.458	96.62
604.666	69.62
604.875	82.62
605.084	94.62
605.292	96.62
605.501	93.62
605.709	80.62
605.918	93.62
606.126	95.62
606.334	96.62
606.543	89.62
606.751	99.62
606.96	99.62
607.168	103.62
607.376	96.62
607.585	100.62
607.793	95.62
608.001	98.62
608.21	104.62
608.418	106.62
608.626	102.62
608.834	96.62
609.043	99.62
609.251	95.62
609.459	111.62
609.667	95.62
609.875	92.62
610.083	98.62
610.291	97.62
610.499	105.62
610.707	98.62
610.916	99.62
611.124	102.62
611.332	98.62
611.54	97.62
611.748	88.62
611.955	81.62
612.163	106.62
612.371	95.62
612.579	95.62
612.787	104.62
612.995	94.62
613.203	105.62
613.411	108.62
613.618	95.62
613.826	96.62
614.034	91.62
614.242	103.62
614.449	98.62
614.657	99.62
614.865	98.62
615.072	99.62
615.28	98.62
615.488	104.62
615.695	105.62
615.903	88.62
616.111	92.62
616.318	90.62
616.526	90.62
616.733	106.62
616.941	93.62
617.148	96.62
617.356	92.62
617.563	95.62
617.771	85.62
617.978	85.62
618.185	111.62
618.393	106.62
618.6	111.62
618.807	100.62
619.015	85.62
619.222	88.62
619.429	85.62
619.637	97.62
619.844	89.62
620.051	72.62
620.258	94.62
620.466	108.62
620.673	106.62
620.88	90.62
621.087	89.62
621.294	106.62
621.501	85.62
621.708	86.62
621.915	88.62
622.122	86.62
622.329	82.62
622.536	87.62
622.743	96.62
622.95	106.62
623.157	103.62
623.364	96.62
623.571	104.62
623.778	95.62
623.985	93.62
624.192	81.62
624.399	94.62
624.606	100.62
624.812	112.62
625.019	91.62
625.226	73.62
625.433	93.62
625.639	87.62
625.846	96.62
626.053	94.62
626.259	100.62
626.466	92.62
626.673	96.62
626.879	89.62
627.086	92.62
627.293	75.62
627.499	86.62
627.706	96.62
627.912	87.62
628.119	94.62
628.325	92.62
628.532	92.62
628.738	93.62
628.945	90.62
629.151	80.62
629.357	103.62
629.564	86.62
629.77	92.62
629.976	86.62
630.183	91.62
630.389	93.62
630.595	83.62
630.802	85.62
631.008	87.62
631.214	103.62
631.42	87.62
631.627	99.62
631.833	99.62
632.039	91.62
632.245	102.62
632.451	92.62
632.657	79.62
632.863	81.62
633.069	80.62
633.275	95.62
633.481	98.62
633.688	81.62
633.893	75.62
634.099	85.62
634.305	94.62
634.511	92.62
634.717	79.62
634.923	75.62
635.129	88.62
635.335	87.62
635.541	100.62
635.747	84.62
635.952	95.62
636.158	102.62
636.364	100.62
636.57	97.62
636.775	90.62
636.981	93.62
637.187	89.62
637.392	74.62
637.598	98.62
637.804	95.62
638.009	96.62
638.215	88.62
638.421	84.62
638.626	87.62
638.832	91.62
639.037	91.62
639.243	89.62
639.448	89.62
639.654	87.62
639.859	94.62
640.065	76.62
640.27	88.62
640.475	94.62
640.681	97.62
640.886	89.62
641.091	87.62
641.297	86.62
641.502	86.62
641.707	90.62
641.913	98.62
642.118	101.62
642.323	97.62
642.528	84.62
642.733	95.62
642.939	88.62
643.144	90.62
643.349	103.62
643.554	102.62
643.759	88.62
643.964	91.62
644.169	87.62
644.374	91.62
644.579	96.62
644.784	77.62
644.989	82.62
645.194	74.62
645.399	101.62
645.604	88.62
645.809	88.62
646.014	82.62
646.219	83.62
646.423	89.62
646.628	91.62
646.833	96.62
647.038	90.62
647.243	94.62
647.447	98.62
647.652	99.62
647.857	101.62
648.062	91.62
648.266	94.62
648.471	79.62
648.676	88.62
648.88	73.62
649.085	94.62
649.289	94.62
649.494	92.62
649.698	71.62
649.903	80.62
650.107	83.62
650.312	76.62
650.516	86.62
650.721	76.62
650.925	86.62
651.13	89.62
651.334	85.62
651.539	97.62
651.743	94.62
651.947	90.62
652.152	94.62
652.356	86.62
652.56	86.62
652.764	85.62
652.969	85.62
653.173	67.62
653.377	82.62
653.581	87.62
653.785	88.62
653.99	82.62
654.194	80.62
654.398	80.62
654.602	76.62
654.806	83.62
655.01	87.62
655.214	80.62
655.418	74.62
655.622	72.62
655.826	81.62
656.03	81.62
656.234	86.62
656.438	88.62
656.642	86.62
656.846	68.62
657.049	89.62
657.253	85.62
657.457	80.62
657.661	81.62
657.865	82.62
658.068	85.62
658.272	68.62
658.476	85.62
658.68	81.62
658.883	81.62
659.087	77.62
659.291	80.62
659.494	65.62
659.698	84.62
659.901	84.62
660.105	84.62
660.309	83.62
660.512	86.62
660.716	80.62
660.919	71.62
661.123	88.62
661.326	79.62
661.53	84.62
661.733	90.62
661.936	94.62
662.14	82.62
662.343	82.62
662.546	79.62
662.75	82.62
662.953	89.62
663.156	79.62
663.36	82.62
663.563	77.62
663.766	79.62
663.969	83.62
664.173	78.62
664.376	75.62
664.579	97.62
664.782	80.62
664.985	76.62
665.188	77.62
665.391	98.62
665.594	86.62
665.797	81.62
666	78.62
666.203	76.62
666.406	90.62
666.609	83.62
666.812	81.62
667.015	74.62
667.218	75.62
667.421	83.62
667.624	82.62
667.827	83.62
668.03	74.62
668.232	79.62
668.435	91.62
668.638	87.62
668.841	88.62
669.043	77.62
669.246	78.62
669.449	79.62
669.651	84.62
669.854	65.62
670.057	64.62
670.259	81.62
670.462	87.62
670.665	70.62
670.867	79.62
671.07	76.62
671.272	98.62
671.475	76.62
671.677	73.62
671.88	81.62
672.082	81.62
672.284	85.62
672.487	88.62
672.689	90.62
672.892	84.62
