Data from Zn(NO3)2Standard.Agarose3%.GreenCap.LampEnergy10E.O_HRD10591_15-07-03-942.txt Node
Date: Mon Jul 22 15:07:03 EDT 2019
User: cochatt
Spectrometer: HR+D1059
Trigger mode: 1
Integration Time (sec): 1.000000E-1
Scans to average: 1
Electric dark correction enabled: true
Nonlinearity correction enabled: false
Boxcar width: 0
XAxis mode: Wavelengths
Number of Pixels in Spectrum: 2048
>>>>>Begin Spectral Data<<<<<
223.165	-25.56
223.4	-25.56
223.635	-25.56
223.869	-15.56
224.104	-19.56
224.338	-11.56
224.573	-1.56
224.808	-15.56
225.042	0.44
225.277	-8.56
225.511	-17.56
225.746	5.44
225.98	0.44
226.215	16.44
226.449	19.44
226.683	17.44
226.918	18.44
227.152	37.44
227.387	29.44
227.621	39.44
227.856	40.44
228.09	39.44
228.324	62.44
228.559	47.44
228.793	52.44
229.027	57.44
229.262	61.44
229.496	62.44
229.73	70.44
229.964	74.44
230.199	68.44
230.433	79.44
230.667	75.44
230.901	70.44
231.136	78.44
231.37	72.44
231.604	89.44
231.838	79.44
232.072	80.44
232.306	73.44
232.541	88.44
232.775	76.44
233.009	69.44
233.243	83.44
233.477	79.44
233.711	84.44
233.945	82.44
234.179	99.44
234.413	80.44
234.647	69.44
234.881	76.44
235.115	85.44
235.349	71.44
235.583	86.44
235.817	81.44
236.051	77.44
236.285	66.44
236.519	82.44
236.753	79.44
236.987	78.44
237.221	71.44
237.455	89.44
237.689	64.44
237.922	74.44
238.156	72.44
238.39	75.44
238.624	73.44
238.858	77.44
239.091	64.44
239.325	81.44
239.559	77.44
239.793	79.44
240.027	87.44
240.26	72.44
240.494	66.44
240.728	71.44
240.961	79.44
241.195	81.44
241.429	76.44
241.662	75.44
241.896	68.44
242.13	89.44
242.363	79.44
242.597	69.44
242.83	63.44
243.064	64.44
243.298	76.44
243.531	71.44
243.765	74.44
243.998	80.44
244.232	77.44
244.465	66.44
244.699	75.44
244.932	83.44
245.166	81.44
245.399	67.44
245.633	74.44
245.866	70.44
246.099	82.44
246.333	85.44
246.566	74.44
246.8	67.44
247.033	73.44
247.266	67.44
247.5	76.44
247.733	81.44
247.966	75.44
248.2	78.44
248.433	64.44
248.666	83.44
248.899	78.44
249.133	65.44
249.366	69.44
249.599	69.44
249.832	73.44
250.066	74.44
250.299	62.44
250.532	92.44
250.765	78.44
250.998	73.44
251.231	63.44
251.465	91.44
251.698	78.44
251.931	62.44
252.164	79.44
252.397	100.44
252.63	70.44
252.863	88.44
253.096	81.44
253.329	74.44
253.562	89.44
253.795	88.44
254.028	86.44
254.261	86.44
254.494	78.44
254.727	83.44
254.96	74.44
255.193	65.44
255.426	82.44
255.659	69.44
255.892	87.44
256.124	78.44
256.357	70.44
256.59	75.44
256.823	82.44
257.056	92.44
257.289	67.44
257.521	79.44
257.754	85.44
257.987	78.44
258.22	80.44
258.452	85.44
258.685	81.44
258.918	71.44
259.151	77.44
259.383	79.44
259.616	71.44
259.849	83.44
260.081	86.44
260.314	98.44
260.547	74.44
260.779	80.44
261.012	81.44
261.244	73.44
261.477	74.44
261.71	85.44
261.942	75.44
262.175	84.44
262.407	84.44
262.64	95.44
262.872	82.44
263.105	80.44
263.337	95.44
263.57	91.44
263.802	76.44
264.035	85.44
264.267	85.44
264.499	84.44
264.732	86.44
264.964	82.44
265.197	69.44
265.429	94.44
265.661	88.44
265.894	68.44
266.126	80.44
266.358	75.44
266.591	75.44
266.823	80.44
267.055	82.44
267.287	72.44
267.52	77.44
267.752	74.44
267.984	95.44
268.216	84.44
268.448	74.44
268.681	79.44
268.913	81.44
269.145	81.44
269.377	83.44
269.609	69.44
269.841	92.44
270.073	83.44
270.306	77.44
270.538	69.44
270.77	85.44
271.002	81.44
271.234	77.44
271.466	86.44
271.698	86.44
271.93	95.44
272.162	81.44
272.394	84.44
272.626	69.44
272.858	73.44
273.09	76.44
273.322	85.44
273.553	95.44
273.785	82.44
274.017	81.44
274.249	58.44
274.481	83.44
274.713	66.44
274.945	78.44
275.176	83.44
275.408	65.44
275.64	75.44
275.872	85.44
276.104	90.44
276.335	92.44
276.567	81.44
276.799	67.44
277.031	81.44
277.262	81.44
277.494	78.44
277.726	86.44
277.957	85.44
278.189	79.44
278.421	78.44
278.652	75.44
278.884	95.44
279.115	84.44
279.347	91.44
279.579	93.44
279.81	89.44
280.042	89.44
280.273	83.44
280.505	67.44
280.736	96.44
280.968	86.44
281.199	85.44
281.431	84.44
281.662	76.44
281.894	79.44
282.125	86.44
282.356	86.44
282.588	97.44
282.819	74.44
283.051	67.44
283.282	86.44
283.513	85.44
283.745	70.44
283.976	73.44
284.207	73.44
284.439	88.44
284.67	71.44
284.901	90.44
285.132	78.44
285.364	72.44
285.595	81.44
285.826	69.44
286.057	88.44
286.288	81.44
286.52	89.44
286.751	75.44
286.982	72.44
287.213	79.44
287.444	88.44
287.675	89.44
287.906	78.44
288.138	83.44
288.369	82.44
288.6	74.44
288.831	68.44
289.062	89.44
289.293	87.44
289.524	79.44
289.755	88.44
289.986	80.44
290.217	81.44
290.448	83.44
290.679	88.44
290.91	77.44
291.141	86.44
291.371	91.44
291.602	86.44
291.833	86.44
292.064	87.44
292.295	86.44
292.526	86.44
292.757	88.44
292.987	90.44
293.218	87.44
293.449	74.44
293.68	88.44
293.91	86.44
294.141	91.44
294.372	79.44
294.603	79.44
294.833	94.44
295.064	79.44
295.295	83.44
295.525	73.44
295.756	84.44
295.987	92.44
296.217	68.44
296.448	71.44
296.679	85.44
296.909	75.44
297.14	86.44
297.37	80.44
297.601	78.44
297.831	88.44
298.062	77.44
298.292	78.44
298.523	70.44
298.753	87.44
298.984	77.44
299.214	87.44
299.445	89.44
299.675	95.44
299.905	82.44
300.136	80.44
300.366	78.44
300.597	81.44
300.827	88.44
301.057	89.44
301.288	76.44
301.518	79.44
301.748	91.44
301.979	89.44
302.209	88.44
302.439	80.44
302.669	86.44
302.9	80.44
303.13	88.44
303.36	81.44
303.59	91.44
303.82	77.44
304.051	79.44
304.281	85.44
304.511	88.44
304.741	78.44
304.971	80.44
305.201	84.44
305.431	90.44
305.661	88.44
305.891	92.44
306.121	83.44
306.352	71.44
306.582	91.44
306.812	71.44
307.042	80.44
307.272	66.44
307.502	87.44
307.731	88.44
307.961	96.44
308.191	92.44
308.421	87.44
308.651	79.44
308.881	82.44
309.111	81.44
309.341	66.44
309.571	78.44
309.8	79.44
310.03	93.44
310.26	91.44
310.49	78.44
310.72	82.44
310.949	99.44
311.179	85.44
311.409	80.44
311.639	89.44
311.868	96.44
312.098	81.44
312.328	89.44
312.557	80.44
312.787	79.44
313.017	95.44
313.246	79.44
313.476	85.44
313.706	79.44
313.935	83.44
314.165	70.44
314.394	76.44
314.624	65.44
314.853	77.44
315.083	87.44
315.312	87.44
315.542	79.44
315.771	82.44
316.001	77.44
316.23	83.44
316.46	82.44
316.689	86.44
316.919	90.44
317.148	91.44
317.377	81.44
317.607	94.44
317.836	86.44
318.065	71.44
318.295	92.44
318.524	69.44
318.753	75.44
318.983	90.44
319.212	70.44
319.441	87.44
319.67	70.44
319.9	74.44
320.129	85.44
320.358	81.44
320.587	93.44
320.816	96.44
321.046	74.44
321.275	80.44
321.504	87.44
321.733	75.44
321.962	86.44
322.191	86.44
322.42	86.44
322.649	83.44
322.878	76.44
323.108	80.44
323.337	87.44
323.566	79.44
323.795	78.44
324.024	81.44
324.253	75.44
324.482	82.44
324.71	58.44
324.939	90.44
325.168	92.44
325.397	72.44
325.626	72.44
325.855	88.44
326.084	79.44
326.313	72.44
326.542	90.44
326.77	88.44
326.999	78.44
327.228	91.44
327.457	83.44
327.686	81.44
327.914	91.44
328.143	84.44
328.372	89.44
328.6	85.44
328.829	76.44
329.058	82.44
329.287	82.44
329.515	79.44
329.744	68.44
329.972	87.44
330.201	85.44
330.43	82.44
330.658	77.44
330.887	76.44
331.115	76.44
331.344	87.44
331.572	98.44
331.801	83.44
332.03	83.44
332.258	101.44
332.486	81.44
332.715	92.44
332.943	79.44
333.172	85.44
333.4	76.44
333.629	89.44
333.857	90.44
334.085	81.44
334.314	71.44
334.542	82.44
334.771	75.44
334.999	80.44
335.227	71.44
335.455	87.44
335.684	83.44
335.912	84.44
336.14	76.44
336.369	81.44
336.597	89.44
336.825	81.44
337.053	87.44
337.281	83.44
337.51	86.44
337.738	76.44
337.966	88.44
338.194	86.44
338.422	79.44
338.65	86.44
338.878	89.44
339.106	85.44
339.334	95.44
339.562	74.44
339.79	82.44
340.018	79.44
340.246	93.44
340.474	75.44
340.702	71.44
340.93	86.44
341.158	85.44
341.386	74.44
341.614	76.44
341.842	78.44
342.07	86.44
342.298	78.44
342.526	73.44
342.754	87.44
342.981	85.44
343.209	82.44
343.437	92.44
343.665	85.44
343.893	73.44
344.12	82.44
344.348	79.44
344.576	79.44
344.804	80.44
345.031	90.44
345.259	83.44
345.487	77.44
345.714	71.44
345.942	77.44
346.17	79.44
346.397	74.44
346.625	68.44
346.853	85.44
347.08	90.44
347.308	76.44
347.535	64.44
347.763	65.44
347.99	87.44
348.218	80.44
348.445	77.44
348.673	92.44
348.9	85.44
349.128	76.44
349.355	82.44
349.583	71.44
349.81	67.44
350.037	78.44
350.265	69.44
350.492	84.44
350.72	79.44
350.947	90.44
351.174	75.44
351.402	92.44
351.629	94.44
351.856	94.44
352.083	87.44
352.311	67.44
352.538	88.44
352.765	84.44
352.992	85.44
353.22	70.44
353.447	81.44
353.674	98.44
353.901	85.44
354.128	90.44
354.355	84.44
354.583	82.44
354.81	85.44
355.037	95.44
355.264	92.44
355.491	75.44
355.718	82.44
355.945	79.44
356.172	83.44
356.399	69.44
356.626	75.44
356.853	90.44
357.08	79.44
357.307	70.44
357.534	79.44
357.761	75.44
357.988	89.44
358.215	75.44
358.441	84.44
358.668	81.44
358.895	95.44
359.122	88.44
359.349	89.44
359.576	75.44
359.802	76.44
360.029	83.44
360.256	79.44
360.483	58.44
360.709	83.44
360.936	85.44
361.163	78.44
361.39	72.44
361.616	76.44
361.843	66.44
362.07	84.44
362.296	75.44
362.523	80.44
362.749	88.44
362.976	83.44
363.203	71.44
363.429	89.44
363.656	95.44
363.882	93.44
364.109	91.44
364.335	78.44
364.562	81.44
364.788	83.44
365.015	85.44
365.241	76.44
365.468	75.44
365.694	80.44
365.92	87.44
366.147	75.44
366.373	99.44
366.599	88.44
366.826	86.44
367.052	86.44
367.278	81.44
367.505	81.44
367.731	74.44
367.957	78.44
368.184	62.44
368.41	78.44
368.636	74.44
368.862	84.44
369.089	86.44
369.315	79.44
369.541	96.44
369.767	79.44
369.993	90.44
370.219	75.44
370.445	84.44
370.672	68.44
370.898	88.44
371.124	77.44
371.35	99.44
371.576	91.44
371.802	95.44
372.028	91.44
372.254	79.44
372.48	81.44
372.706	71.44
372.932	90.44
373.158	83.44
373.384	78.44
373.61	77.44
373.835	92.44
374.061	83.44
374.287	86.44
374.513	83.44
374.739	80.44
374.965	90.44
375.191	84.44
375.416	86.44
375.642	81.44
375.868	92.44
376.094	87.44
376.319	79.44
376.545	75.44
376.771	80.44
376.997	90.44
377.222	86.44
377.448	70.44
377.674	75.44
377.899	80.44
378.125	85.44
378.35	80.44
378.576	71.44
378.802	66.44
379.027	68.44
379.253	69.44
379.478	76.44
379.704	75.44
379.929	77.44
380.155	83.44
380.38	79.44
380.606	87.44
380.831	89.44
381.057	101.44
381.282	95.44
381.507	69.44
381.733	94.44
381.958	71.44
382.184	85.44
382.409	72.44
382.634	81.44
382.86	79.44
383.085	94.44
383.31	82.44
383.535	93.44
383.761	93.44
383.986	86.44
384.211	83.44
384.436	94.44
384.662	93.44
384.887	80.44
385.112	77.44
385.337	81.44
385.562	86.44
385.787	84.44
386.013	87.44
386.238	67.44
386.463	85.44
386.688	82.44
386.913	76.44
387.138	82.44
387.363	80.44
387.588	94.44
387.813	84.44
388.038	85.44
388.263	86.44
388.488	90.44
388.713	81.44
388.938	78.44
389.163	93.44
389.387	85.44
389.612	73.44
389.837	93.44
390.062	81.44
390.287	86.44
390.512	94.44
390.736	87.44
390.961	103.44
391.186	86.44
391.411	85.44
391.636	85.44
391.86	82.44
392.085	82.44
392.31	82.44
392.534	94.44
392.759	84.44
392.984	76.44
393.208	105.44
393.433	88.44
393.658	79.44
393.882	79.44
394.107	81.44
394.331	77.44
394.556	103.44
394.78	69.44
395.005	87.44
395.229	85.44
395.454	104.44
395.678	82.44
395.903	96.44
396.127	94.44
396.352	89.44
396.576	94.44
396.801	103.44
397.025	85.44
397.249	103.44
397.474	100.44
397.698	101.44
397.922	84.44
398.147	70.44
398.371	94.44
398.595	86.44
398.82	90.44
399.044	90.44
399.268	100.44
399.492	83.44
399.717	87.44
399.941	93.44
400.165	101.44
400.389	100.44
400.613	110.44
400.837	93.44
401.062	94.44
401.286	91.44
401.51	82.44
401.734	86.44
401.958	81.44
402.182	73.44
402.406	81.44
402.63	79.44
402.854	93.44
403.078	90.44
403.302	98.44
403.526	81.44
403.75	93.44
403.974	91.44
404.198	84.44
404.422	87.44
404.645	92.44
404.869	96.44
405.093	96.44
405.317	107.44
405.541	95.44
405.765	95.44
405.988	88.44
406.212	76.44
406.436	89.44
406.66	90.44
406.883	91.44
407.107	90.44
407.331	80.44
407.555	90.44
407.778	97.44
408.002	93.44
408.226	76.44
408.449	86.44
408.673	104.44
408.896	92.44
409.12	95.44
409.344	100.44
409.567	95.44
409.791	95.44
410.014	103.44
410.238	87.44
410.461	94.44
410.685	97.44
410.908	95.44
411.132	81.44
411.355	94.44
411.578	98.44
411.802	106.44
412.025	88.44
412.249	94.44
412.472	87.44
412.695	91.44
412.919	88.44
413.142	112.44
413.365	99.44
413.589	115.44
413.812	89.44
414.035	103.44
414.258	96.44
414.482	89.44
414.705	103.44
414.928	112.44
415.151	107.44
415.374	98.44
415.597	103.44
415.821	83.44
416.044	106.44
416.267	99.44
416.49	96.44
416.713	79.44
416.936	101.44
417.159	90.44
417.382	98.44
417.605	91.44
417.828	107.44
418.051	86.44
418.274	93.44
418.497	97.44
418.72	91.44
418.943	88.44
419.166	93.44
419.389	110.44
419.611	83.44
419.834	90.44
420.057	107.44
420.28	103.44
420.503	88.44
420.726	99.44
420.948	92.44
421.171	102.44
421.394	102.44
421.617	106.44
421.839	94.44
422.062	96.44
422.285	100.44
422.507	99.44
422.73	106.44
422.953	128.44
423.175	95.44
423.398	117.44
423.621	106.44
423.843	100.44
424.066	99.44
424.288	102.44
424.511	113.44
424.733	97.44
424.956	111.44
425.178	97.44
425.401	117.44
425.623	108.44
425.846	101.44
426.068	95.44
426.291	97.44
426.513	101.44
426.735	91.44
426.958	106.44
427.18	94.44
427.402	98.44
427.625	104.44
427.847	88.44
428.069	103.44
428.292	104.44
428.514	96.44
428.736	100.44
428.958	98.44
429.181	96.44
429.403	106.44
429.625	107.44
429.847	91.44
430.069	102.44
430.292	109.44
430.514	85.44
430.736	111.44
430.958	101.44
431.18	101.44
431.402	101.44
431.624	100.44
431.846	79.44
432.068	83.44
432.29	94.44
432.512	85.44
432.734	103.44
432.956	94.44
433.178	105.44
433.4	99.44
433.622	97.44
433.844	118.44
434.066	88.44
434.287	102.44
434.509	81.44
434.731	96.44
434.953	88.44
435.175	107.44
435.397	98.44
435.618	95.44
435.84	83.44
436.062	95.44
436.284	101.44
436.505	101.44
436.727	123.44
436.949	104.44
437.17	91.44
437.392	95.44
437.614	95.44
437.835	79.44
438.057	82.44
438.278	93.44
438.5	96.44
438.721	111.44
438.943	94.44
439.165	110.44
439.386	104.44
439.608	116.44
439.829	93.44
440.05	122.44
440.272	115.44
440.493	102.44
440.715	99.44
440.936	124.44
441.158	99.44
441.379	104.44
441.6	110.44
441.822	116.44
442.043	121.44
442.264	111.44
442.486	107.44
442.707	95.44
442.928	105.44
443.149	91.44
443.371	117.44
443.592	114.44
443.813	106.44
444.034	119.44
444.255	105.44
444.476	101.44
444.698	122.44
444.919	97.44
445.14	220.44
445.361	157.44
445.582	117.44
445.803	100.44
446.024	98.44
446.245	119.44
446.466	115.44
446.687	99.44
446.908	119.44
447.129	115.44
447.35	106.44
447.571	117.44
447.792	99.44
448.013	104.44
448.234	110.44
448.455	111.44
448.675	107.44
448.896	113.44
449.117	95.44
449.338	103.44
449.559	85.44
449.779	113.44
450	102.44
450.221	87.44
450.442	104.44
450.662	105.44
450.883	102.44
451.104	93.44
451.324	92.44
451.545	119.44
451.766	106.44
451.986	97.44
452.207	94.44
452.428	107.44
452.648	84.44
452.869	105.44
453.089	87.44
453.31	90.44
453.53	93.44
453.751	91.44
453.971	91.44
454.192	103.44
454.412	83.44
454.633	89.44
454.853	85.44
455.073	104.44
455.294	115.44
455.514	89.44
455.734	102.44
455.955	92.44
456.175	90.44
456.395	98.44
456.616	93.44
456.836	90.44
457.056	80.44
457.276	90.44
457.497	94.44
457.717	97.44
457.937	86.44
458.157	83.44
458.377	74.44
458.598	83.44
458.818	78.44
459.038	81.44
459.258	81.44
459.478	85.44
459.698	78.44
459.918	73.44
460.138	78.44
460.358	86.44
460.578	95.44
460.798	100.44
461.018	90.44
461.238	89.44
461.458	101.44
461.678	82.44
461.898	97.44
462.118	98.44
462.338	96.44
462.558	82.44
462.777	96.44
462.997	95.44
463.217	82.44
463.437	85.44
463.657	89.44
463.876	102.44
464.096	99.44
464.316	100.44
464.536	93.44
464.755	83.44
464.975	90.44
465.195	106.44
465.414	87.44
465.634	93.44
465.854	98.44
466.073	87.44
466.293	87.44
466.512	99.44
466.732	108.44
466.951	103.44
467.171	101.44
467.391	112.44
467.61	105.44
467.829	101.44
468.049	122.44
468.268	111.44
468.488	103.44
468.707	113.44
468.927	105.44
469.146	114.44
469.365	100.44
469.585	99.44
469.804	123.44
470.023	117.44
470.243	114.44
470.462	93.44
470.681	104.44
470.901	115.44
471.12	113.44
471.339	110.44
471.558	96.44
471.777	100.44
471.997	105.44
472.216	104.44
472.435	104.44
472.654	106.44
472.873	89.44
473.092	93.44
473.311	91.44
473.53	98.44
473.749	100.44
473.968	101.44
474.187	94.44
474.406	100.44
474.625	101.44
474.844	111.44
475.063	97.44
475.282	101.44
475.501	90.44
475.72	96.44
475.939	102.44
476.158	94.44
476.377	112.44
476.596	91.44
476.814	101.44
477.033	78.44
477.252	101.44
477.471	121.44
477.69	113.44
477.908	104.44
478.127	109.44
478.346	105.44
478.564	94.44
478.783	107.44
479.002	103.44
479.22	118.44
479.439	114.44
479.658	90.44
479.876	96.44
480.095	94.44
480.313	93.44
480.532	91.44
480.751	109.44
480.969	81.44
481.188	75.44
481.406	84.44
481.624	92.44
481.843	74.44
482.061	93.44
482.28	94.44
482.498	89.44
482.717	84.44
482.935	93.44
483.153	111.44
483.372	112.44
483.59	121.44
483.808	109.44
484.027	105.44
484.245	122.44
484.463	109.44
484.681	110.44
484.9	116.44
485.118	106.44
485.336	83.44
485.554	99.44
485.772	83.44
485.99	88.44
486.209	106.44
486.427	90.44
486.645	98.44
486.863	96.44
487.081	112.44
487.299	110.44
487.517	102.44
487.735	116.44
487.953	131.44
488.171	132.44
488.389	122.44
488.607	113.44
488.825	113.44
489.043	112.44
489.261	106.44
489.479	118.44
489.696	113.44
489.914	99.44
490.132	97.44
490.35	97.44
490.568	110.44
490.786	115.44
491.003	122.44
491.221	125.44
491.439	121.44
491.657	138.44
491.874	134.44
492.092	144.44
492.31	155.44
492.527	131.44
492.745	132.44
492.963	135.44
493.18	115.44
493.398	136.44
493.615	125.44
493.833	120.44
494.05	133.44
494.268	123.44
494.485	120.44
494.703	127.44
494.92	122.44
495.138	116.44
495.355	112.44
495.573	117.44
495.79	125.44
496.008	125.44
496.225	122.44
496.442	113.44
496.66	121.44
496.877	113.44
497.094	109.44
497.312	121.44
497.529	113.44
497.746	124.44
497.963	103.44
498.181	97.44
498.398	106.44
498.615	110.44
498.832	102.44
499.049	94.44
499.267	93.44
499.484	93.44
499.701	106.44
499.918	113.44
500.135	113.44
500.352	106.44
500.569	133.44
500.786	109.44
501.003	117.44
501.22	105.44
501.437	114.44
501.654	101.44
501.871	105.44
502.088	112.44
502.305	111.44
502.522	102.44
502.739	102.44
502.956	91.44
503.172	98.44
503.389	102.44
503.606	98.44
503.823	93.44
504.04	110.44
504.256	95.44
504.473	106.44
504.69	87.44
504.907	110.44
505.123	106.44
505.34	107.44
505.557	104.44
505.773	101.44
505.99	96.44
506.207	100.44
506.423	96.44
506.64	93.44
506.856	105.44
507.073	102.44
507.289	102.44
507.506	102.44
507.722	99.44
507.939	89.44
508.155	98.44
508.372	94.44
508.588	101.44
508.805	88.44
509.021	90.44
509.238	101.44
509.454	102.44
509.67	86.44
509.887	87.44
510.103	71.44
510.319	89.44
510.536	85.44
510.752	85.44
510.968	98.44
511.184	81.44
511.401	70.44
511.617	75.44
511.833	75.44
512.049	92.44
512.265	84.44
512.481	88.44
512.698	97.44
512.914	98.44
513.13	96.44
513.346	94.44
513.562	88.44
513.778	66.44
513.994	82.44
514.21	79.44
514.426	94.44
514.642	90.44
514.858	84.44
515.074	68.44
515.29	82.44
515.506	87.44
515.721	70.44
515.937	95.44
516.153	84.44
516.369	95.44
516.585	77.44
516.801	88.44
517.016	79.44
517.232	94.44
517.448	102.44
517.664	80.44
517.879	85.44
518.095	82.44
518.311	89.44
518.527	83.44
518.742	91.44
518.958	93.44
519.173	102.44
519.389	97.44
519.605	99.44
519.82	89.44
520.036	106.44
520.251	93.44
520.467	89.44
520.682	88.44
520.898	76.44
521.113	82.44
521.329	95.44
521.544	85.44
521.76	87.44
521.975	79.44
522.19	84.44
522.406	83.44
522.621	97.44
522.836	94.44
523.052	91.44
523.267	85.44
523.482	93.44
523.698	95.44
523.913	111.44
524.128	87.44
524.343	96.44
524.559	112.44
524.774	103.44
524.989	114.44
525.204	103.44
525.419	91.44
525.634	104.44
525.849	107.44
526.064	90.44
526.28	82.44
526.495	76.44
526.71	88.44
526.925	83.44
527.14	74.44
527.355	81.44
527.57	88.44
527.785	81.44
527.999	87.44
528.214	93.44
528.429	105.44
528.644	92.44
528.859	103.44
529.074	122.44
529.289	121.44
529.503	117.44
529.718	120.44
529.933	103.44
530.148	103.44
530.363	99.44
530.577	90.44
530.792	72.44
531.007	96.44
531.221	64.44
531.436	87.44
531.651	81.44
531.865	84.44
532.08	100.44
532.295	87.44
532.509	74.44
532.724	70.44
532.938	84.44
533.153	96.44
533.367	95.44
533.582	110.44
533.796	92.44
534.011	100.44
534.225	89.44
534.44	75.44
534.654	83.44
534.868	92.44
535.083	79.44
535.297	103.44
535.511	102.44
535.726	91.44
535.94	95.44
536.154	83.44
536.369	91.44
536.583	93.44
536.797	75.44
537.011	82.44
537.225	81.44
537.44	96.44
537.654	91.44
537.868	83.44
538.082	92.44
538.296	76.44
538.51	82.44
538.724	81.44
538.938	104.44
539.153	101.44
539.367	106.44
539.581	88.44
539.795	98.44
540.009	91.44
540.222	93.44
540.436	98.44
540.65	103.44
540.864	95.44
541.078	105.44
541.292	130.44
541.506	127.44
541.72	123.44
541.934	126.44
542.147	139.44
542.361	124.44
542.575	117.44
542.789	124.44
543.002	103.44
543.216	111.44
543.43	99.44
543.644	102.44
543.857	115.44
544.071	129.44
544.285	123.44
544.498	123.44
544.712	127.44
544.925	127.44
545.139	129.44
545.352	129.44
545.566	118.44
545.779	122.44
545.993	115.44
546.206	123.44
546.42	109.44
546.633	129.44
546.847	128.44
547.06	115.44
547.274	111.44
547.487	124.44
547.7	118.44
547.914	122.44
548.127	114.44
548.34	128.44
548.554	130.44
548.767	112.44
548.98	109.44
549.193	116.44
549.407	111.44
549.62	119.44
549.833	105.44
550.046	111.44
550.259	114.44
550.473	109.44
550.686	119.44
550.899	103.44
551.112	126.44
551.325	113.44
551.538	115.44
551.751	100.44
551.964	84.44
552.177	104.44
552.39	119.44
552.603	111.44
552.816	125.44
553.029	111.44
553.242	133.44
553.455	123.44
553.667	118.44
553.88	115.44
554.093	115.44
554.306	122.44
554.519	119.44
554.732	121.44
554.944	113.44
555.157	104.44
555.37	123.44
555.583	107.44
555.795	119.44
556.008	119.44
556.221	101.44
556.433	119.44
556.646	98.44
556.859	104.44
557.071	100.44
557.284	106.44
557.496	118.44
557.709	115.44
557.921	109.44
558.134	104.44
558.346	123.44
558.559	116.44
558.771	114.44
558.984	106.44
559.196	88.44
559.409	109.44
559.621	107.44
559.833	89.44
560.046	102.44
560.258	101.44
560.47	97.44
560.683	101.44
560.895	98.44
561.107	101.44
561.32	104.44
561.532	99.44
561.744	113.44
561.956	106.44
562.168	97.44
562.381	92.44
562.593	114.44
562.805	114.44
563.017	101.44
563.229	105.44
563.441	113.44
563.653	95.44
563.865	105.44
564.077	100.44
564.289	109.44
564.501	111.44
564.713	112.44
564.925	97.44
565.137	98.44
565.349	87.44
565.561	104.44
565.773	101.44
565.985	88.44
566.197	94.44
566.408	102.44
566.62	98.44
566.832	89.44
567.044	101.44
567.255	97.44
567.467	103.44
567.679	85.44
567.891	85.44
568.102	80.44
568.314	98.44
568.526	101.44
568.737	86.44
568.949	78.44
569.161	84.44
569.372	85.44
569.584	74.44
569.795	86.44
570.007	85.44
570.218	86.44
570.43	93.44
570.641	94.44
570.853	90.44
571.064	99.44
571.276	97.44
571.487	95.44
571.698	96.44
571.91	81.44
572.121	92.44
572.333	85.44
572.544	82.44
572.755	90.44
572.966	96.44
573.178	77.44
573.389	80.44
573.6	81.44
573.811	79.44
574.023	79.44
574.234	85.44
574.445	86.44
574.656	96.44
574.867	86.44
575.078	93.44
575.289	87.44
575.501	98.44
575.712	96.44
575.923	86.44
576.134	89.44
576.345	92.44
576.556	102.44
576.767	88.44
576.978	92.44
577.188	98.44
577.399	95.44
577.61	81.44
577.821	84.44
578.032	87.44
578.243	72.44
578.454	85.44
578.665	79.44
578.875	88.44
579.086	86.44
579.297	70.44
579.508	81.44
579.718	79.44
579.929	90.44
580.14	88.44
580.35	84.44
580.561	93.44
580.772	71.44
580.982	78.44
581.193	99.44
581.403	89.44
581.614	89.44
581.825	86.44
582.035	82.44
582.246	84.44
582.456	84.44
582.667	78.44
582.877	86.44
583.087	98.44
583.298	83.44
583.508	78.44
583.719	74.44
583.929	91.44
584.139	80.44
584.35	79.44
584.56	97.44
584.77	81.44
584.981	76.44
585.191	90.44
585.401	89.44
585.611	75.44
585.821	77.44
586.032	79.44
586.242	69.44
586.452	90.44
586.662	81.44
586.872	89.44
587.082	79.44
587.292	91.44
587.502	82.44
587.713	68.44
587.923	80.44
588.133	77.44
588.343	84.44
588.553	81.44
588.762	88.44
588.972	89.44
589.182	84.44
589.392	86.44
589.602	69.44
589.812	71.44
590.022	86.44
590.232	86.44
590.441	92.44
590.651	76.44
590.861	81.44
591.071	90.44
591.281	85.44
591.49	78.44
591.7	85.44
591.91	78.44
592.119	74.44
592.329	79.44
592.539	85.44
592.748	91.44
592.958	81.44
593.167	88.44
593.377	93.44
593.587	95.44
593.796	80.44
594.006	86.44
594.215	91.44
594.424	84.44
594.634	69.44
594.843	88.44
595.053	78.44
595.262	80.44
595.472	63.44
595.681	81.44
595.89	81.44
596.1	73.44
596.309	83.44
596.518	82.44
596.727	78.44
596.937	87.44
597.146	91.44
597.355	86.44
597.564	87.44
597.774	85.44
597.983	78.44
598.192	80.44
598.401	70.44
598.61	84.44
598.819	84.44
599.028	93.44
599.237	78.44
599.446	92.44
599.655	85.44
599.864	92.44
600.073	99.44
600.282	75.44
600.491	78.44
600.7	65.44
600.909	86.44
601.118	89.44
601.327	87.44
601.536	88.44
601.745	101.44
601.953	91.44
602.162	85.44
602.371	101.44
602.58	95.44
602.789	89.44
602.997	89.44
603.206	98.44
603.415	101.44
603.623	83.44
603.832	88.44
604.041	95.44
604.249	89.44
604.458	85.44
604.666	94.44
604.875	79.44
605.084	84.44
605.292	85.44
605.501	84.44
605.709	102.44
605.918	102.44
606.126	86.44
606.334	98.44
606.543	88.44
606.751	84.44
606.96	88.44
607.168	105.44
607.376	93.44
607.585	97.44
607.793	103.44
608.001	101.44
608.21	86.44
608.418	97.44
608.626	83.44
608.834	103.44
609.043	110.44
609.251	85.44
609.459	107.44
609.667	81.44
609.875	98.44
610.083	100.44
610.291	92.44
610.499	96.44
610.707	104.44
610.916	99.44
611.124	95.44
611.332	102.44
611.54	101.44
611.748	110.44
611.955	104.44
612.163	101.44
612.371	101.44
612.579	89.44
612.787	85.44
612.995	80.44
613.203	88.44
613.411	88.44
613.618	83.44
613.826	91.44
614.034	100.44
614.242	81.44
614.449	101.44
614.657	104.44
614.865	86.44
615.072	99.44
615.28	97.44
615.488	95.44
615.695	83.44
615.903	88.44
616.111	87.44
616.318	121.44
616.526	91.44
616.733	91.44
616.941	99.44
617.148	103.44
617.356	73.44
617.563	92.44
617.771	86.44
617.978	82.44
618.185	91.44
618.393	88.44
618.6	96.44
618.807	103.44
619.015	92.44
619.222	82.44
619.429	100.44
619.637	95.44
619.844	100.44
620.051	89.44
620.258	85.44
620.466	90.44
620.673	87.44
620.88	86.44
621.087	85.44
621.294	90.44
621.501	93.44
621.708	92.44
621.915	90.44
622.122	90.44
622.329	77.44
622.536	99.44
622.743	89.44
622.95	80.44
623.157	89.44
623.364	96.44
623.571	96.44
623.778	99.44
623.985	93.44
624.192	104.44
624.399	93.44
624.606	97.44
624.812	105.44
625.019	81.44
625.226	85.44
625.433	75.44
625.639	96.44
625.846	90.44
626.053	87.44
626.259	102.44
626.466	97.44
626.673	94.44
626.879	79.44
627.086	93.44
627.293	89.44
627.499	86.44
627.706	73.44
627.912	93.44
628.119	100.44
628.325	94.44
628.532	84.44
628.738	88.44
628.945	93.44
629.151	97.44
629.357	89.44
629.564	115.44
629.77	91.44
629.976	101.44
630.183	102.44
630.389	92.44
630.595	96.44
630.802	89.44
631.008	103.44
631.214	91.44
631.42	96.44
631.627	86.44
631.833	87.44
632.039	85.44
632.245	86.44
632.451	98.44
632.657	92.44
632.863	87.44
633.069	93.44
633.275	84.44
633.481	86.44
633.688	76.44
633.893	77.44
634.099	85.44
634.305	84.44
634.511	81.44
634.717	78.44
634.923	79.44
635.129	96.44
635.335	82.44
635.541	75.44
635.747	97.44
635.952	97.44
636.158	82.44
636.364	85.44
636.57	101.44
636.775	100.44
636.981	96.44
637.187	81.44
637.392	90.44
637.598	85.44
637.804	95.44
638.009	97.44
638.215	93.44
638.421	86.44
638.626	80.44
638.832	90.44
639.037	81.44
639.243	82.44
639.448	79.44
639.654	86.44
639.859	87.44
640.065	97.44
640.27	82.44
640.475	95.44
640.681	84.44
640.886	84.44
641.091	90.44
641.297	84.44
641.502	86.44
641.707	95.44
641.913	78.44
642.118	82.44
642.323	90.44
642.528	88.44
642.733	87.44
642.939	88.44
643.144	91.44
643.349	78.44
643.554	89.44
643.759	104.44
643.964	83.44
644.169	78.44
644.374	89.44
644.579	93.44
644.784	91.44
644.989	84.44
645.194	100.44
645.399	99.44
645.604	99.44
645.809	83.44
646.014	94.44
646.219	88.44
646.423	85.44
646.628	80.44
646.833	76.44
647.038	87.44
647.243	97.44
647.447	78.44
647.652	90.44
647.857	90.44
648.062	76.44
648.266	88.44
648.471	100.44
648.676	106.44
648.88	68.44
649.085	86.44
649.289	81.44
649.494	84.44
649.698	82.44
649.903	89.44
650.107	84.44
650.312	92.44
650.516	77.44
650.721	95.44
650.925	105.44
651.13	86.44
651.334	82.44
651.539	98.44
651.743	87.44
651.947	80.44
652.152	72.44
652.356	88.44
652.56	79.44
652.764	83.44
652.969	90.44
653.173	87.44
653.377	98.44
653.581	91.44
653.785	82.44
653.99	74.44
654.194	89.44
654.398	79.44
654.602	79.44
654.806	92.44
655.01	84.44
655.214	89.44
655.418	87.44
655.622	81.44
655.826	73.44
656.03	82.44
656.234	80.44
656.438	99.44
656.642	91.44
656.846	80.44
657.049	78.44
657.253	79.44
657.457	77.44
657.661	75.44
657.865	89.44
658.068	93.44
658.272	89.44
658.476	75.44
658.68	87.44
658.883	81.44
659.087	82.44
659.291	98.44
659.494	90.44
659.698	86.44
659.901	82.44
660.105	82.44
660.309	72.44
660.512	86.44
660.716	72.44
660.919	64.44
661.123	89.44
661.326	78.44
661.53	90.44
661.733	73.44
661.936	74.44
662.14	84.44
662.343	88.44
662.546	79.44
662.75	82.44
662.953	72.44
663.156	84.44
663.36	86.44
663.563	81.44
663.766	78.44
663.969	86.44
664.173	77.44
664.376	67.44
664.579	80.44
664.782	73.44
664.985	71.44
665.188	74.44
665.391	75.44
665.594	78.44
665.797	83.44
666	92.44
666.203	84.44
666.406	66.44
666.609	72.44
666.812	72.44
667.015	76.44
667.218	82.44
667.421	90.44
667.624	75.44
667.827	85.44
668.03	82.44
668.232	77.44
668.435	88.44
668.638	75.44
668.841	81.44
669.043	89.44
669.246	79.44
669.449	76.44
669.651	89.44
669.854	77.44
670.057	88.44
670.259	74.44
670.462	72.44
670.665	71.44
670.867	73.44
671.07	98.44
671.272	81.44
671.475	76.44
671.677	77.44
671.88	85.44
672.082	81.44
672.284	70.44
672.487	76.44
672.689	69.44
672.892	74.44
