Data from Zn(NO3)2Standard.Agarose3%.GreenCap.LampEnergy5.5.E.O_HRD10591_15-01-13-767.txt Node
Date: Mon Jul 22 15:01:13 EDT 2019
User: cochatt
Spectrometer: HR+D1059
Trigger mode: 1
Integration Time (sec): 1.000000E-1
Scans to average: 1
Electric dark correction enabled: true
Nonlinearity correction enabled: false
Boxcar width: 0
XAxis mode: Wavelengths
Number of Pixels in Spectrum: 2048
>>>>>Begin Spectral Data<<<<<
223.165	-12.56
223.4	-12.56
223.635	-12.56
223.869	-20.56
224.104	-11.56
224.338	-18.56
224.573	-7.56
224.808	-7.56
225.042	-11.56
225.277	-0.56
225.511	-2.56
225.746	14.44
225.98	-4.56
226.215	2.44
226.449	13.44
226.683	12.44
226.918	25.44
227.152	29.44
227.387	34.44
227.621	32.44
227.856	57.44
228.09	50.44
228.324	46.44
228.559	55.44
228.793	46.44
229.027	60.44
229.262	53.44
229.496	61.44
229.73	71.44
229.964	59.44
230.199	68.44
230.433	74.44
230.667	78.44
230.901	68.44
231.136	62.44
231.37	93.44
231.604	76.44
231.838	62.44
232.072	75.44
232.306	82.44
232.541	87.44
232.775	85.44
233.009	90.44
233.243	76.44
233.477	77.44
233.711	73.44
233.945	65.44
234.179	79.44
234.413	71.44
234.647	83.44
234.881	85.44
235.115	76.44
235.349	72.44
235.583	85.44
235.817	66.44
236.051	84.44
236.285	81.44
236.519	77.44
236.753	83.44
236.987	70.44
237.221	79.44
237.455	70.44
237.689	71.44
237.922	85.44
238.156	77.44
238.39	85.44
238.624	85.44
238.858	75.44
239.091	84.44
239.325	77.44
239.559	77.44
239.793	84.44
240.027	82.44
240.26	63.44
240.494	77.44
240.728	77.44
240.961	81.44
241.195	68.44
241.429	83.44
241.662	78.44
241.896	75.44
242.13	73.44
242.363	88.44
242.597	75.44
242.83	77.44
243.064	100.44
243.298	68.44
243.531	72.44
243.765	64.44
243.998	77.44
244.232	79.44
244.465	68.44
244.699	77.44
244.932	81.44
245.166	76.44
245.399	66.44
245.633	61.44
245.866	68.44
246.099	74.44
246.333	72.44
246.566	76.44
246.8	81.44
247.033	81.44
247.266	78.44
247.5	60.44
247.733	70.44
247.966	73.44
248.2	77.44
248.433	78.44
248.666	66.44
248.899	86.44
249.133	89.44
249.366	86.44
249.599	88.44
249.832	75.44
250.066	84.44
250.299	84.44
250.532	72.44
250.765	67.44
250.998	73.44
251.231	83.44
251.465	68.44
251.698	75.44
251.931	79.44
252.164	76.44
252.397	74.44
252.63	81.44
252.863	81.44
253.096	78.44
253.329	77.44
253.562	65.44
253.795	92.44
254.028	72.44
254.261	86.44
254.494	79.44
254.727	74.44
254.96	100.44
255.193	85.44
255.426	74.44
255.659	77.44
255.892	83.44
256.124	78.44
256.357	89.44
256.59	94.44
256.823	79.44
257.056	76.44
257.289	73.44
257.521	84.44
257.754	90.44
257.987	89.44
258.22	81.44
258.452	83.44
258.685	71.44
258.918	82.44
259.151	71.44
259.383	85.44
259.616	70.44
259.849	72.44
260.081	78.44
260.314	93.44
260.547	84.44
260.779	81.44
261.012	84.44
261.244	70.44
261.477	89.44
261.71	72.44
261.942	62.44
262.175	75.44
262.407	78.44
262.64	78.44
262.872	95.44
263.105	92.44
263.337	94.44
263.57	75.44
263.802	85.44
264.035	71.44
264.267	60.44
264.499	80.44
264.732	77.44
264.964	86.44
265.197	75.44
265.429	87.44
265.661	78.44
265.894	75.44
266.126	70.44
266.358	88.44
266.591	80.44
266.823	95.44
267.055	85.44
267.287	84.44
267.52	87.44
267.752	80.44
267.984	65.44
268.216	73.44
268.448	81.44
268.681	76.44
268.913	82.44
269.145	88.44
269.377	81.44
269.609	78.44
269.841	78.44
270.073	98.44
270.306	82.44
270.538	78.44
270.77	83.44
271.002	84.44
271.234	76.44
271.466	84.44
271.698	88.44
271.93	94.44
272.162	86.44
272.394	86.44
272.626	71.44
272.858	88.44
273.09	93.44
273.322	83.44
273.553	92.44
273.785	88.44
274.017	87.44
274.249	75.44
274.481	79.44
274.713	82.44
274.945	91.44
275.176	89.44
275.408	91.44
275.64	96.44
275.872	80.44
276.104	90.44
276.335	95.44
276.567	74.44
276.799	80.44
277.031	85.44
277.262	84.44
277.494	78.44
277.726	78.44
277.957	84.44
278.189	71.44
278.421	70.44
278.652	90.44
278.884	80.44
279.115	90.44
279.347	84.44
279.579	80.44
279.81	82.44
280.042	74.44
280.273	88.44
280.505	98.44
280.736	83.44
280.968	83.44
281.199	83.44
281.431	78.44
281.662	87.44
281.894	87.44
282.125	72.44
282.356	76.44
282.588	102.44
282.819	78.44
283.051	69.44
283.282	80.44
283.513	88.44
283.745	81.44
283.976	93.44
284.207	79.44
284.439	85.44
284.67	91.44
284.901	91.44
285.132	89.44
285.364	86.44
285.595	89.44
285.826	78.44
286.057	82.44
286.288	92.44
286.52	85.44
286.751	86.44
286.982	77.44
287.213	70.44
287.444	86.44
287.675	88.44
287.906	77.44
288.138	85.44
288.369	82.44
288.6	77.44
288.831	76.44
289.062	91.44
289.293	74.44
289.524	77.44
289.755	84.44
289.986	87.44
290.217	73.44
290.448	72.44
290.679	80.44
290.91	89.44
291.141	80.44
291.371	92.44
291.602	82.44
291.833	84.44
292.064	84.44
292.295	73.44
292.526	73.44
292.757	77.44
292.987	90.44
293.218	81.44
293.449	85.44
293.68	79.44
293.91	79.44
294.141	94.44
294.372	86.44
294.603	92.44
294.833	85.44
295.064	83.44
295.295	88.44
295.525	79.44
295.756	97.44
295.987	83.44
296.217	86.44
296.448	73.44
296.679	88.44
296.909	92.44
297.14	97.44
297.37	92.44
297.601	80.44
297.831	77.44
298.062	82.44
298.292	78.44
298.523	83.44
298.753	88.44
298.984	88.44
299.214	82.44
299.445	87.44
299.675	94.44
299.905	78.44
300.136	85.44
300.366	80.44
300.597	93.44
300.827	73.44
301.057	77.44
301.288	76.44
301.518	85.44
301.748	77.44
301.979	76.44
302.209	87.44
302.439	80.44
302.669	73.44
302.9	95.44
303.13	81.44
303.36	79.44
303.59	105.44
303.82	82.44
304.051	73.44
304.281	79.44
304.511	90.44
304.741	75.44
304.971	98.44
305.201	81.44
305.431	95.44
305.661	81.44
305.891	84.44
306.121	74.44
306.352	84.44
306.582	81.44
306.812	71.44
307.042	91.44
307.272	79.44
307.502	82.44
307.731	96.44
307.961	90.44
308.191	78.44
308.421	80.44
308.651	82.44
308.881	77.44
309.111	80.44
309.341	75.44
309.571	77.44
309.8	94.44
310.03	84.44
310.26	87.44
310.49	82.44
310.72	84.44
310.949	102.44
311.179	77.44
311.409	79.44
311.639	78.44
311.868	78.44
312.098	89.44
312.328	85.44
312.557	85.44
312.787	82.44
313.017	76.44
313.246	88.44
313.476	86.44
313.706	89.44
313.935	78.44
314.165	88.44
314.394	96.44
314.624	100.44
314.853	79.44
315.083	78.44
315.312	81.44
315.542	87.44
315.771	97.44
316.001	91.44
316.23	99.44
316.46	82.44
316.689	81.44
316.919	83.44
317.148	88.44
317.377	86.44
317.607	88.44
317.836	81.44
318.065	88.44
318.295	88.44
318.524	82.44
318.753	84.44
318.983	88.44
319.212	69.44
319.441	85.44
319.67	93.44
319.9	83.44
320.129	99.44
320.358	86.44
320.587	87.44
320.816	100.44
321.046	93.44
321.275	82.44
321.504	80.44
321.733	75.44
321.962	80.44
322.191	94.44
322.42	88.44
322.649	91.44
322.878	98.44
323.108	79.44
323.337	71.44
323.566	69.44
323.795	85.44
324.024	86.44
324.253	85.44
324.482	90.44
324.71	89.44
324.939	84.44
325.168	91.44
325.397	81.44
325.626	74.44
325.855	82.44
326.084	84.44
326.313	86.44
326.542	82.44
326.77	88.44
326.999	87.44
327.228	72.44
327.457	85.44
327.686	78.44
327.914	74.44
328.143	91.44
328.372	88.44
328.6	75.44
328.829	75.44
329.058	92.44
329.287	82.44
329.515	87.44
329.744	85.44
329.972	95.44
330.201	86.44
330.43	86.44
330.658	100.44
330.887	83.44
331.115	88.44
331.344	82.44
331.572	85.44
331.801	75.44
332.03	90.44
332.258	72.44
332.486	78.44
332.715	86.44
332.943	87.44
333.172	76.44
333.4	91.44
333.629	88.44
333.857	71.44
334.085	89.44
334.314	88.44
334.542	90.44
334.771	74.44
334.999	76.44
335.227	79.44
335.455	94.44
335.684	94.44
335.912	86.44
336.14	87.44
336.369	91.44
336.597	79.44
336.825	88.44
337.053	94.44
337.281	96.44
337.51	98.44
337.738	88.44
337.966	91.44
338.194	78.44
338.422	78.44
338.65	86.44
338.878	97.44
339.106	84.44
339.334	89.44
339.562	78.44
339.79	89.44
340.018	87.44
340.246	78.44
340.474	92.44
340.702	97.44
340.93	84.44
341.158	77.44
341.386	62.44
341.614	88.44
341.842	92.44
342.07	78.44
342.298	94.44
342.526	91.44
342.754	72.44
342.981	89.44
343.209	89.44
343.437	85.44
343.665	70.44
343.893	96.44
344.12	98.44
344.348	89.44
344.576	64.44
344.804	81.44
345.031	86.44
345.259	57.44
345.487	69.44
345.714	72.44
345.942	80.44
346.17	75.44
346.397	91.44
346.625	91.44
346.853	88.44
347.08	83.44
347.308	88.44
347.535	85.44
347.763	92.44
347.99	93.44
348.218	85.44
348.445	86.44
348.673	90.44
348.9	95.44
349.128	91.44
349.355	65.44
349.583	79.44
349.81	75.44
350.037	76.44
350.265	82.44
350.492	94.44
350.72	96.44
350.947	88.44
351.174	98.44
351.402	82.44
351.629	89.44
351.856	79.44
352.083	72.44
352.311	82.44
352.538	75.44
352.765	77.44
352.992	79.44
353.22	86.44
353.447	92.44
353.674	101.44
353.901	98.44
354.128	87.44
354.355	76.44
354.583	97.44
354.81	72.44
355.037	83.44
355.264	92.44
355.491	85.44
355.718	70.44
355.945	87.44
356.172	78.44
356.399	89.44
356.626	91.44
356.853	95.44
357.08	96.44
357.307	90.44
357.534	81.44
357.761	78.44
357.988	93.44
358.215	72.44
358.441	85.44
358.668	90.44
358.895	98.44
359.122	79.44
359.349	90.44
359.576	83.44
359.802	82.44
360.029	88.44
360.256	96.44
360.483	87.44
360.709	83.44
360.936	94.44
361.163	78.44
361.39	84.44
361.616	89.44
361.843	74.44
362.07	101.44
362.296	78.44
362.523	64.44
362.749	62.44
362.976	85.44
363.203	92.44
363.429	90.44
363.656	89.44
363.882	75.44
364.109	82.44
364.335	77.44
364.562	76.44
364.788	77.44
365.015	82.44
365.241	82.44
365.468	71.44
365.694	68.44
365.92	82.44
366.147	88.44
366.373	88.44
366.599	87.44
366.826	84.44
367.052	89.44
367.278	87.44
367.505	77.44
367.731	97.44
367.957	83.44
368.184	95.44
368.41	90.44
368.636	74.44
368.862	82.44
369.089	81.44
369.315	92.44
369.541	90.44
369.767	70.44
369.993	82.44
370.219	86.44
370.445	81.44
370.672	89.44
370.898	86.44
371.124	85.44
371.35	68.44
371.576	93.44
371.802	71.44
372.028	87.44
372.254	69.44
372.48	84.44
372.706	73.44
372.932	85.44
373.158	86.44
373.384	87.44
373.61	66.44
373.835	82.44
374.061	76.44
374.287	97.44
374.513	74.44
374.739	72.44
374.965	72.44
375.191	77.44
375.416	94.44
375.642	88.44
375.868	75.44
376.094	90.44
376.319	67.44
376.545	68.44
376.771	90.44
376.997	84.44
377.222	85.44
377.448	79.44
377.674	93.44
377.899	87.44
378.125	84.44
378.35	78.44
378.576	91.44
378.802	89.44
379.027	73.44
379.253	91.44
379.478	86.44
379.704	71.44
379.929	96.44
380.155	83.44
380.38	88.44
380.606	87.44
380.831	78.44
381.057	85.44
381.282	92.44
381.507	85.44
381.733	82.44
381.958	80.44
382.184	88.44
382.409	102.44
382.634	94.44
382.86	88.44
383.085	88.44
383.31	66.44
383.535	81.44
383.761	84.44
383.986	70.44
384.211	82.44
384.436	80.44
384.662	91.44
384.887	83.44
385.112	72.44
385.337	85.44
385.562	80.44
385.787	68.44
386.013	75.44
386.238	72.44
386.463	73.44
386.688	102.44
386.913	96.44
387.138	93.44
387.363	94.44
387.588	88.44
387.813	81.44
388.038	84.44
388.263	78.44
388.488	87.44
388.713	83.44
388.938	84.44
389.163	82.44
389.387	82.44
389.612	73.44
389.837	75.44
390.062	85.44
390.287	88.44
390.512	72.44
390.736	91.44
390.961	80.44
391.186	88.44
391.411	101.44
391.636	83.44
391.86	84.44
392.085	91.44
392.31	86.44
392.534	85.44
392.759	90.44
392.984	90.44
393.208	81.44
393.433	88.44
393.658	81.44
393.882	78.44
394.107	96.44
394.331	96.44
394.556	96.44
394.78	75.44
395.005	86.44
395.229	85.44
395.454	89.44
395.678	92.44
395.903	88.44
396.127	78.44
396.352	84.44
396.576	82.44
396.801	92.44
397.025	90.44
397.249	80.44
397.474	88.44
397.698	100.44
397.922	83.44
398.147	73.44
398.371	84.44
398.595	92.44
398.82	81.44
399.044	97.44
399.268	82.44
399.492	82.44
399.717	76.44
399.941	73.44
400.165	76.44
400.389	84.44
400.613	86.44
400.837	88.44
401.062	98.44
401.286	82.44
401.51	81.44
401.734	98.44
401.958	82.44
402.182	84.44
402.406	85.44
402.63	100.44
402.854	88.44
403.078	94.44
403.302	82.44
403.526	78.44
403.75	72.44
403.974	73.44
404.198	85.44
404.422	87.44
404.645	81.44
404.869	84.44
405.093	82.44
405.317	81.44
405.541	83.44
405.765	98.44
405.988	84.44
406.212	84.44
406.436	68.44
406.66	88.44
406.883	80.44
407.107	92.44
407.331	87.44
407.555	84.44
407.778	93.44
408.002	88.44
408.226	82.44
408.449	90.44
408.673	75.44
408.896	83.44
409.12	74.44
409.344	85.44
409.567	87.44
409.791	78.44
410.014	85.44
410.238	91.44
410.461	97.44
410.685	67.44
410.908	93.44
411.132	82.44
411.355	96.44
411.578	92.44
411.802	81.44
412.025	84.44
412.249	83.44
412.472	87.44
412.695	99.44
412.919	84.44
413.142	93.44
413.365	93.44
413.589	74.44
413.812	84.44
414.035	97.44
414.258	104.44
414.482	97.44
414.705	99.44
414.928	87.44
415.151	104.44
415.374	92.44
415.597	89.44
415.821	89.44
416.044	91.44
416.267	93.44
416.49	88.44
416.713	83.44
416.936	93.44
417.159	83.44
417.382	77.44
417.605	75.44
417.828	89.44
418.051	100.44
418.274	88.44
418.497	102.44
418.72	85.44
418.943	102.44
419.166	88.44
419.389	93.44
419.611	84.44
419.834	83.44
420.057	86.44
420.28	87.44
420.503	98.44
420.726	89.44
420.948	92.44
421.171	79.44
421.394	91.44
421.617	94.44
421.839	97.44
422.062	79.44
422.285	75.44
422.507	98.44
422.73	86.44
422.953	85.44
423.175	78.44
423.398	84.44
423.621	76.44
423.843	85.44
424.066	91.44
424.288	85.44
424.511	83.44
424.733	104.44
424.956	89.44
425.178	104.44
425.401	73.44
425.623	88.44
425.846	99.44
426.068	97.44
426.291	97.44
426.513	83.44
426.735	92.44
426.958	97.44
427.18	68.44
427.402	94.44
427.625	90.44
427.847	81.44
428.069	85.44
428.292	85.44
428.514	74.44
428.736	86.44
428.958	102.44
429.181	90.44
429.403	91.44
429.625	81.44
429.847	101.44
430.069	82.44
430.292	87.44
430.514	84.44
430.736	88.44
430.958	84.44
431.18	106.44
431.402	87.44
431.624	85.44
431.846	77.44
432.068	93.44
432.29	86.44
432.512	78.44
432.734	88.44
432.956	75.44
433.178	95.44
433.4	106.44
433.622	92.44
433.844	75.44
434.066	96.44
434.287	92.44
434.509	84.44
434.731	73.44
434.953	109.44
435.175	99.44
435.397	80.44
435.618	77.44
435.84	88.44
436.062	91.44
436.284	77.44
436.505	80.44
436.727	93.44
436.949	81.44
437.17	84.44
437.392	84.44
437.614	84.44
437.835	72.44
438.057	75.44
438.278	83.44
438.5	78.44
438.721	88.44
438.943	86.44
439.165	81.44
439.386	85.44
439.608	89.44
439.829	92.44
440.05	78.44
440.272	90.44
440.493	84.44
440.715	101.44
440.936	88.44
441.158	80.44
441.379	84.44
441.6	95.44
441.822	92.44
442.043	94.44
442.264	82.44
442.486	99.44
442.707	82.44
442.928	100.44
443.149	90.44
443.371	81.44
443.592	80.44
443.813	86.44
444.034	91.44
444.255	99.44
444.476	82.44
444.698	81.44
444.919	87.44
445.14	172.44
445.361	148.44
445.582	88.44
445.803	91.44
446.024	88.44
446.245	89.44
446.466	88.44
446.687	92.44
446.908	93.44
447.129	86.44
447.35	109.44
447.571	94.44
447.792	86.44
448.013	93.44
448.234	87.44
448.455	82.44
448.675	101.44
448.896	88.44
449.117	74.44
449.338	88.44
449.559	81.44
449.779	76.44
450	80.44
450.221	73.44
450.442	84.44
450.662	88.44
450.883	83.44
451.104	102.44
451.324	81.44
451.545	82.44
451.766	81.44
451.986	83.44
452.207	92.44
452.428	104.44
452.648	81.44
452.869	89.44
453.089	75.44
453.31	86.44
453.53	90.44
453.751	103.44
453.971	91.44
454.192	78.44
454.412	78.44
454.633	89.44
454.853	80.44
455.073	96.44
455.294	102.44
455.514	97.44
455.734	80.44
455.955	87.44
456.175	86.44
456.395	65.44
456.616	90.44
456.836	82.44
457.056	81.44
457.276	90.44
457.497	76.44
457.717	83.44
457.937	92.44
458.157	96.44
458.377	96.44
458.598	69.44
458.818	91.44
459.038	73.44
459.258	82.44
459.478	81.44
459.698	81.44
459.918	67.44
460.138	101.44
460.358	88.44
460.578	80.44
460.798	90.44
461.018	94.44
461.238	91.44
461.458	84.44
461.678	90.44
461.898	87.44
462.118	82.44
462.338	82.44
462.558	86.44
462.777	81.44
462.997	69.44
463.217	76.44
463.437	83.44
463.657	90.44
463.876	82.44
464.096	90.44
464.316	90.44
464.536	91.44
464.755	92.44
464.975	90.44
465.195	89.44
465.414	90.44
465.634	82.44
465.854	92.44
466.073	93.44
466.293	80.44
466.512	78.44
466.732	89.44
466.951	71.44
467.171	95.44
467.391	95.44
467.61	71.44
467.829	81.44
468.049	92.44
468.268	92.44
468.488	87.44
468.707	100.44
468.927	91.44
469.146	82.44
469.365	90.44
469.585	105.44
469.804	98.44
470.023	101.44
470.243	98.44
470.462	84.44
470.681	85.44
470.901	102.44
471.12	86.44
471.339	88.44
471.558	94.44
471.777	102.44
471.997	91.44
472.216	98.44
472.435	88.44
472.654	91.44
472.873	64.44
473.092	73.44
473.311	102.44
473.53	99.44
473.749	97.44
473.968	88.44
474.187	83.44
474.406	89.44
474.625	83.44
474.844	99.44
475.063	92.44
475.282	99.44
475.501	104.44
475.72	90.44
475.939	102.44
476.158	96.44
476.377	105.44
476.596	95.44
476.814	80.44
477.033	80.44
477.252	81.44
477.471	90.44
477.69	85.44
477.908	76.44
478.127	98.44
478.346	92.44
478.564	84.44
478.783	94.44
479.002	90.44
479.22	113.44
479.439	91.44
479.658	87.44
479.876	82.44
480.095	78.44
480.313	91.44
480.532	98.44
480.751	86.44
480.969	85.44
481.188	79.44
481.406	84.44
481.624	88.44
481.843	91.44
482.061	70.44
482.28	72.44
482.498	84.44
482.717	85.44
482.935	95.44
483.153	86.44
483.372	100.44
483.59	96.44
483.808	94.44
484.027	97.44
484.245	87.44
484.463	97.44
484.681	98.44
484.9	92.44
485.118	83.44
485.336	99.44
485.554	66.44
485.772	85.44
485.99	84.44
486.209	82.44
486.427	92.44
486.645	99.44
486.863	89.44
487.081	99.44
487.299	92.44
487.517	89.44
487.735	96.44
487.953	100.44
488.171	85.44
488.389	100.44
488.607	92.44
488.825	92.44
489.043	89.44
489.261	87.44
489.479	99.44
489.696	91.44
489.914	89.44
490.132	93.44
490.35	92.44
490.568	103.44
490.786	88.44
491.003	93.44
491.221	94.44
491.439	102.44
491.657	114.44
491.874	106.44
492.092	109.44
492.31	103.44
492.527	104.44
492.745	93.44
492.963	93.44
493.18	106.44
493.398	89.44
493.615	96.44
493.833	99.44
494.05	89.44
494.268	106.44
494.485	85.44
494.703	105.44
494.92	95.44
495.138	91.44
495.355	108.44
495.573	100.44
495.79	97.44
496.008	106.44
496.225	89.44
496.442	90.44
496.66	88.44
496.877	77.44
497.094	98.44
497.312	94.44
497.529	92.44
497.746	94.44
497.963	91.44
498.181	96.44
498.398	77.44
498.615	88.44
498.832	94.44
499.049	78.44
499.267	84.44
499.484	97.44
499.701	103.44
499.918	82.44
500.135	94.44
500.352	89.44
500.569	92.44
500.786	97.44
501.003	93.44
501.22	83.44
501.437	80.44
501.654	97.44
501.871	100.44
502.088	83.44
502.305	96.44
502.522	87.44
502.739	105.44
502.956	104.44
503.172	99.44
503.389	99.44
503.606	85.44
503.823	96.44
504.04	81.44
504.256	81.44
504.473	79.44
504.69	86.44
504.907	99.44
505.123	81.44
505.34	93.44
505.557	89.44
505.773	71.44
505.99	92.44
506.207	88.44
506.423	78.44
506.64	88.44
506.856	88.44
507.073	94.44
507.289	89.44
507.506	85.44
507.722	77.44
507.939	87.44
508.155	80.44
508.372	82.44
508.588	86.44
508.805	97.44
509.021	89.44
509.238	82.44
509.454	77.44
509.67	70.44
509.887	80.44
510.103	94.44
510.319	90.44
510.536	76.44
510.752	78.44
510.968	91.44
511.184	76.44
511.401	87.44
511.617	80.44
511.833	78.44
512.049	78.44
512.265	90.44
512.481	83.44
512.698	72.44
512.914	74.44
513.13	72.44
513.346	84.44
513.562	80.44
513.778	76.44
513.994	71.44
514.21	78.44
514.426	84.44
514.642	88.44
514.858	92.44
515.074	83.44
515.29	78.44
515.506	84.44
515.721	96.44
515.937	78.44
516.153	90.44
516.369	85.44
516.585	89.44
516.801	88.44
517.016	87.44
517.232	86.44
517.448	95.44
517.664	77.44
517.879	88.44
518.095	78.44
518.311	77.44
518.527	97.44
518.742	88.44
518.958	82.44
519.173	92.44
519.389	90.44
519.605	81.44
519.82	88.44
520.036	76.44
520.251	87.44
520.467	78.44
520.682	84.44
520.898	89.44
521.113	72.44
521.329	75.44
521.544	73.44
521.76	88.44
521.975	86.44
522.19	88.44
522.406	78.44
522.621	99.44
522.836	85.44
523.052	90.44
523.267	75.44
523.482	86.44
523.698	76.44
523.913	91.44
524.128	89.44
524.343	84.44
524.559	101.44
524.774	87.44
524.989	82.44
525.204	91.44
525.419	81.44
525.634	76.44
525.849	85.44
526.064	83.44
526.28	82.44
526.495	91.44
526.71	82.44
526.925	82.44
527.14	86.44
527.355	77.44
527.57	81.44
527.785	86.44
527.999	82.44
528.214	80.44
528.429	82.44
528.644	85.44
528.859	86.44
529.074	99.44
529.289	90.44
529.503	90.44
529.718	88.44
529.933	76.44
530.148	85.44
530.363	81.44
530.577	87.44
530.792	67.44
531.007	68.44
531.221	89.44
531.436	80.44
531.651	84.44
531.865	87.44
532.08	57.44
532.295	92.44
532.509	89.44
532.724	84.44
532.938	64.44
533.153	88.44
533.367	83.44
533.582	78.44
533.796	81.44
534.011	84.44
534.225	88.44
534.44	74.44
534.654	73.44
534.868	80.44
535.083	93.44
535.297	91.44
535.511	87.44
535.726	88.44
535.94	83.44
536.154	84.44
536.369	78.44
536.583	72.44
536.797	86.44
537.011	78.44
537.225	88.44
537.44	75.44
537.654	87.44
537.868	74.44
538.082	82.44
538.296	78.44
538.51	78.44
538.724	89.44
538.938	82.44
539.153	89.44
539.367	93.44
539.581	96.44
539.795	76.44
540.009	77.44
540.222	86.44
540.436	84.44
540.65	84.44
540.864	97.44
541.078	98.44
541.292	115.44
541.506	107.44
541.72	84.44
541.934	106.44
542.147	105.44
542.361	104.44
542.575	99.44
542.789	90.44
543.002	106.44
543.216	89.44
543.43	85.44
543.644	89.44
543.857	98.44
544.071	97.44
544.285	101.44
544.498	106.44
544.712	98.44
544.925	89.44
545.139	112.44
545.352	97.44
545.566	102.44
545.779	88.44
545.993	96.44
546.206	85.44
546.42	95.44
546.633	96.44
546.847	101.44
547.06	99.44
547.274	98.44
547.487	95.44
547.7	92.44
547.914	94.44
548.127	101.44
548.34	108.44
548.554	90.44
548.767	88.44
548.98	105.44
549.193	94.44
549.407	100.44
549.62	92.44
549.833	99.44
550.046	95.44
550.259	88.44
550.473	110.44
550.686	92.44
550.899	96.44
551.112	90.44
551.325	114.44
551.538	96.44
551.751	106.44
551.964	81.44
552.177	91.44
552.39	88.44
552.603	91.44
552.816	98.44
553.029	102.44
553.242	101.44
553.455	94.44
553.667	106.44
553.88	107.44
554.093	93.44
554.306	88.44
554.519	96.44
554.732	101.44
554.944	97.44
555.157	103.44
555.37	78.44
555.583	93.44
555.795	99.44
556.008	108.44
556.221	84.44
556.433	103.44
556.646	84.44
556.859	80.44
557.071	81.44
557.284	85.44
557.496	88.44
557.709	76.44
557.921	95.44
558.134	93.44
558.346	94.44
558.559	80.44
558.771	85.44
558.984	98.44
559.196	87.44
559.409	84.44
559.621	93.44
559.833	96.44
560.046	77.44
560.258	97.44
560.47	86.44
560.683	91.44
560.895	97.44
561.107	96.44
561.32	82.44
561.532	90.44
561.744	98.44
561.956	99.44
562.168	85.44
562.381	92.44
562.593	93.44
562.805	86.44
563.017	111.44
563.229	84.44
563.441	103.44
563.653	80.44
563.865	104.44
564.077	84.44
564.289	94.44
564.501	104.44
564.713	103.44
564.925	88.44
565.137	79.44
565.349	103.44
565.561	101.44
565.773	107.44
565.985	86.44
566.197	86.44
566.408	88.44
566.62	92.44
566.832	92.44
567.044	102.44
567.255	105.44
567.467	92.44
567.679	80.44
567.891	74.44
568.102	103.44
568.314	88.44
568.526	91.44
568.737	76.44
568.949	77.44
569.161	88.44
569.372	89.44
569.584	76.44
569.795	83.44
570.007	85.44
570.218	89.44
570.43	77.44
570.641	81.44
570.853	84.44
571.064	96.44
571.276	93.44
571.487	92.44
571.698	90.44
571.91	95.44
572.121	71.44
572.333	81.44
572.544	87.44
572.755	88.44
572.966	76.44
573.178	70.44
573.389	92.44
573.6	88.44
573.811	86.44
574.023	89.44
574.234	90.44
574.445	90.44
574.656	91.44
574.867	96.44
575.078	88.44
575.289	77.44
575.501	82.44
575.712	69.44
575.923	78.44
576.134	85.44
576.345	89.44
576.556	102.44
576.767	91.44
576.978	82.44
577.188	95.44
577.399	82.44
577.61	86.44
577.821	82.44
578.032	84.44
578.243	83.44
578.454	93.44
578.665	86.44
578.875	79.44
579.086	84.44
579.297	65.44
579.508	79.44
579.718	99.44
579.929	84.44
580.14	82.44
580.35	73.44
580.561	80.44
580.772	87.44
580.982	91.44
581.193	85.44
581.403	90.44
581.614	86.44
581.825	96.44
582.035	86.44
582.246	85.44
582.456	93.44
582.667	91.44
582.877	97.44
583.087	86.44
583.298	83.44
583.508	85.44
583.719	80.44
583.929	84.44
584.139	84.44
584.35	75.44
584.56	78.44
584.77	80.44
584.981	76.44
585.191	83.44
585.401	85.44
585.611	91.44
585.821	78.44
586.032	84.44
586.242	85.44
586.452	70.44
586.662	86.44
586.872	77.44
587.082	73.44
587.292	79.44
587.502	86.44
587.713	74.44
587.923	90.44
588.133	87.44
588.343	87.44
588.553	78.44
588.762	73.44
588.972	76.44
589.182	98.44
589.392	86.44
589.602	81.44
589.812	78.44
590.022	91.44
590.232	78.44
590.441	89.44
590.651	96.44
590.861	78.44
591.071	74.44
591.281	88.44
591.49	94.44
591.7	76.44
591.91	87.44
592.119	87.44
592.329	85.44
592.539	83.44
592.748	75.44
592.958	76.44
593.167	95.44
593.377	85.44
593.587	81.44
593.796	89.44
594.006	91.44
594.215	86.44
594.424	90.44
594.634	85.44
594.843	79.44
595.053	73.44
595.262	77.44
595.472	90.44
595.681	93.44
595.89	100.44
596.1	84.44
596.309	74.44
596.518	78.44
596.727	86.44
596.937	88.44
597.146	79.44
597.355	84.44
597.564	89.44
597.774	90.44
597.983	82.44
598.192	103.44
598.401	81.44
598.61	75.44
598.819	95.44
599.028	93.44
599.237	88.44
599.446	87.44
599.655	83.44
599.864	92.44
600.073	88.44
600.282	83.44
600.491	94.44
600.7	90.44
600.909	83.44
601.118	77.44
601.327	98.44
601.536	94.44
601.745	84.44
601.953	83.44
602.162	93.44
602.371	93.44
602.58	90.44
602.789	98.44
602.997	96.44
603.206	77.44
603.415	81.44
603.623	73.44
603.832	86.44
604.041	78.44
604.249	101.44
604.458	93.44
604.666	84.44
604.875	79.44
605.084	87.44
605.292	88.44
605.501	77.44
605.709	89.44
605.918	94.44
606.126	85.44
606.334	84.44
606.543	101.44
606.751	82.44
606.96	78.44
607.168	104.44
607.376	84.44
607.585	94.44
607.793	85.44
608.001	86.44
608.21	86.44
608.418	112.44
608.626	83.44
608.834	82.44
609.043	76.44
609.251	94.44
609.459	105.44
609.667	86.44
609.875	100.44
610.083	87.44
610.291	88.44
610.499	84.44
610.707	85.44
610.916	102.44
611.124	88.44
611.332	81.44
611.54	86.44
611.748	98.44
611.955	105.44
612.163	84.44
612.371	97.44
612.579	89.44
612.787	74.44
612.995	81.44
613.203	76.44
613.411	73.44
613.618	93.44
613.826	89.44
614.034	89.44
614.242	104.44
614.449	72.44
614.657	77.44
614.865	82.44
615.072	95.44
615.28	98.44
615.488	86.44
615.695	104.44
615.903	100.44
616.111	86.44
616.318	94.44
616.526	96.44
616.733	87.44
616.941	97.44
617.148	94.44
617.356	90.44
617.563	80.44
617.771	97.44
617.978	87.44
618.185	94.44
618.393	105.44
618.6	105.44
618.807	93.44
619.015	82.44
619.222	86.44
619.429	83.44
619.637	92.44
619.844	76.44
620.051	91.44
620.258	83.44
620.466	78.44
620.673	77.44
620.88	92.44
621.087	94.44
621.294	92.44
621.501	97.44
621.708	86.44
621.915	92.44
622.122	77.44
622.329	89.44
622.536	83.44
622.743	78.44
622.95	101.44
623.157	94.44
623.364	98.44
623.571	80.44
623.778	93.44
623.985	96.44
624.192	93.44
624.399	82.44
624.606	91.44
624.812	88.44
625.019	88.44
625.226	78.44
625.433	89.44
625.639	92.44
625.846	106.44
626.053	82.44
626.259	88.44
626.466	84.44
626.673	85.44
626.879	75.44
627.086	79.44
627.293	69.44
627.499	86.44
627.706	93.44
627.912	81.44
628.119	91.44
628.325	93.44
628.532	94.44
628.738	83.44
628.945	99.44
629.151	104.44
629.357	93.44
629.564	85.44
629.77	92.44
629.976	96.44
630.183	100.44
630.389	99.44
630.595	96.44
630.802	90.44
631.008	89.44
631.214	91.44
631.42	91.44
631.627	81.44
631.833	81.44
632.039	91.44
632.245	93.44
632.451	98.44
632.657	88.44
632.863	72.44
633.069	91.44
633.275	85.44
633.481	88.44
633.688	85.44
633.893	89.44
634.099	102.44
634.305	81.44
634.511	100.44
634.717	87.44
634.923	80.44
635.129	84.44
635.335	84.44
635.541	77.44
635.747	80.44
635.952	95.44
636.158	100.44
636.364	96.44
636.57	74.44
636.775	89.44
636.981	93.44
637.187	81.44
637.392	93.44
637.598	89.44
637.804	95.44
638.009	88.44
638.215	91.44
638.421	92.44
638.626	72.44
638.832	85.44
639.037	91.44
639.243	78.44
639.448	89.44
639.654	91.44
639.859	74.44
640.065	85.44
640.27	99.44
640.475	84.44
640.681	80.44
640.886	91.44
641.091	93.44
641.297	91.44
641.502	86.44
641.707	96.44
641.913	85.44
642.118	96.44
642.323	73.44
642.528	93.44
642.733	84.44
642.939	79.44
643.144	91.44
643.349	95.44
643.554	95.44
643.759	75.44
643.964	82.44
644.169	83.44
644.374	94.44
644.579	88.44
644.784	82.44
644.989	72.44
645.194	90.44
645.399	90.44
645.604	92.44
645.809	82.44
646.014	83.44
646.219	99.44
646.423	75.44
646.628	82.44
646.833	77.44
647.038	86.44
647.243	101.44
647.447	74.44
647.652	80.44
647.857	78.44
648.062	86.44
648.266	87.44
648.471	84.44
648.676	91.44
648.88	95.44
649.085	89.44
649.289	75.44
649.494	85.44
649.698	86.44
649.903	83.44
650.107	75.44
650.312	90.44
650.516	89.44
650.721	82.44
650.925	84.44
651.13	79.44
651.334	85.44
651.539	100.44
651.743	87.44
651.947	80.44
652.152	88.44
652.356	79.44
652.56	72.44
652.764	82.44
652.969	95.44
653.173	92.44
653.377	88.44
653.581	84.44
653.785	73.44
653.99	89.44
654.194	91.44
654.398	74.44
654.602	86.44
654.806	83.44
655.01	91.44
655.214	81.44
655.418	83.44
655.622	97.44
655.826	89.44
656.03	90.44
656.234	83.44
656.438	83.44
656.642	88.44
656.846	73.44
657.049	82.44
657.253	78.44
657.457	95.44
657.661	82.44
657.865	84.44
658.068	77.44
658.272	76.44
658.476	90.44
658.68	93.44
658.883	80.44
659.087	93.44
659.291	71.44
659.494	77.44
659.698	69.44
659.901	81.44
660.105	82.44
660.309	82.44
660.512	75.44
660.716	83.44
660.919	90.44
661.123	77.44
661.326	82.44
661.53	89.44
661.733	91.44
661.936	80.44
662.14	85.44
662.343	85.44
662.546	77.44
662.75	83.44
662.953	78.44
663.156	84.44
663.36	82.44
663.563	78.44
663.766	81.44
663.969	68.44
664.173	89.44
664.376	83.44
664.579	64.44
664.782	92.44
664.985	84.44
665.188	76.44
665.391	87.44
665.594	88.44
665.797	71.44
666	70.44
666.203	80.44
666.406	80.44
666.609	86.44
666.812	78.44
667.015	84.44
667.218	93.44
667.421	85.44
667.624	85.44
667.827	78.44
668.03	88.44
668.232	80.44
668.435	79.44
668.638	76.44
668.841	72.44
669.043	73.44
669.246	75.44
669.449	77.44
669.651	71.44
669.854	73.44
670.057	66.44
670.259	86.44
670.462	87.44
670.665	93.44
670.867	91.44
671.07	78.44
671.272	81.44
671.475	69.44
671.677	102.44
671.88	97.44
672.082	89.44
672.284	80.44
672.487	92.44
672.689	78.44
672.892	84.44
