Data from Zn(NO3)2Standard.Agarose3%.GreenCap.LampEnergy10E.O_HRD10591_15-08-03-947.txt Node
Date: Mon Jul 22 15:08:03 EDT 2019
User: cochatt
Spectrometer: HR+D1059
Trigger mode: 1
Integration Time (sec): 1.000000E-1
Scans to average: 1
Electric dark correction enabled: true
Nonlinearity correction enabled: false
Boxcar width: 0
XAxis mode: Wavelengths
Number of Pixels in Spectrum: 2048
>>>>>Begin Spectral Data<<<<<
223.165	-13.5
223.4	-13.5
223.635	-13.5
223.869	-16.5
224.104	-19.5
224.338	-22.5
224.573	-12.5
224.808	-4.5
225.042	-2.5
225.277	-10.5
225.511	-3.5
225.746	-0.5
225.98	3.5
226.215	6.5
226.449	21.5
226.683	21.5
226.918	24.5
227.152	28.5
227.387	35.5
227.621	35.5
227.856	40.5
228.09	54.5
228.324	49.5
228.559	55.5
228.793	65.5
229.027	51.5
229.262	69.5
229.496	60.5
229.73	75.5
229.964	63.5
230.199	74.5
230.433	81.5
230.667	74.5
230.901	73.5
231.136	85.5
231.37	93.5
231.604	74.5
231.838	83.5
232.072	76.5
232.306	95.5
232.541	77.5
232.775	81.5
233.009	72.5
233.243	94.5
233.477	83.5
233.711	62.5
233.945	70.5
234.179	88.5
234.413	90.5
234.647	82.5
234.881	86.5
235.115	81.5
235.349	79.5
235.583	75.5
235.817	71.5
236.051	84.5
236.285	73.5
236.519	70.5
236.753	79.5
236.987	76.5
237.221	65.5
237.455	73.5
237.689	74.5
237.922	59.5
238.156	82.5
238.39	81.5
238.624	87.5
238.858	75.5
239.091	60.5
239.325	93.5
239.559	75.5
239.793	65.5
240.027	75.5
240.26	71.5
240.494	62.5
240.728	81.5
240.961	72.5
241.195	74.5
241.429	75.5
241.662	74.5
241.896	75.5
242.13	76.5
242.363	71.5
242.597	70.5
242.83	73.5
243.064	82.5
243.298	82.5
243.531	86.5
243.765	87.5
243.998	69.5
244.232	77.5
244.465	87.5
244.699	82.5
244.932	75.5
245.166	75.5
245.399	92.5
245.633	66.5
245.866	68.5
246.099	73.5
246.333	71.5
246.566	87.5
246.8	88.5
247.033	83.5
247.266	83.5
247.5	77.5
247.733	77.5
247.966	71.5
248.2	73.5
248.433	81.5
248.666	76.5
248.899	88.5
249.133	85.5
249.366	81.5
249.599	73.5
249.832	75.5
250.066	81.5
250.299	71.5
250.532	78.5
250.765	82.5
250.998	83.5
251.231	73.5
251.465	65.5
251.698	64.5
251.931	78.5
252.164	91.5
252.397	67.5
252.63	72.5
252.863	82.5
253.096	79.5
253.329	68.5
253.562	79.5
253.795	79.5
254.028	74.5
254.261	75.5
254.494	71.5
254.727	76.5
254.96	74.5
255.193	72.5
255.426	53.5
255.659	77.5
255.892	72.5
256.124	84.5
256.357	98.5
256.59	91.5
256.823	59.5
257.056	78.5
257.289	80.5
257.521	73.5
257.754	82.5
257.987	77.5
258.22	76.5
258.452	91.5
258.685	88.5
258.918	73.5
259.151	71.5
259.383	79.5
259.616	88.5
259.849	88.5
260.081	90.5
260.314	77.5
260.547	77.5
260.779	99.5
261.012	81.5
261.244	93.5
261.477	84.5
261.71	80.5
261.942	81.5
262.175	83.5
262.407	80.5
262.64	75.5
262.872	91.5
263.105	79.5
263.337	89.5
263.57	86.5
263.802	84.5
264.035	97.5
264.267	84.5
264.499	73.5
264.732	81.5
264.964	89.5
265.197	75.5
265.429	68.5
265.661	93.5
265.894	78.5
266.126	83.5
266.358	76.5
266.591	77.5
266.823	81.5
267.055	78.5
267.287	76.5
267.52	74.5
267.752	86.5
267.984	89.5
268.216	76.5
268.448	83.5
268.681	89.5
268.913	98.5
269.145	91.5
269.377	69.5
269.609	77.5
269.841	84.5
270.073	76.5
270.306	75.5
270.538	84.5
270.77	82.5
271.002	78.5
271.234	87.5
271.466	72.5
271.698	82.5
271.93	83.5
272.162	80.5
272.394	82.5
272.626	83.5
272.858	80.5
273.09	77.5
273.322	87.5
273.553	74.5
273.785	83.5
274.017	83.5
274.249	80.5
274.481	77.5
274.713	82.5
274.945	89.5
275.176	85.5
275.408	88.5
275.64	73.5
275.872	91.5
276.104	95.5
276.335	90.5
276.567	76.5
276.799	88.5
277.031	97.5
277.262	89.5
277.494	77.5
277.726	69.5
277.957	77.5
278.189	88.5
278.421	88.5
278.652	83.5
278.884	85.5
279.115	85.5
279.347	92.5
279.579	77.5
279.81	89.5
280.042	88.5
280.273	89.5
280.505	73.5
280.736	68.5
280.968	63.5
281.199	81.5
281.431	87.5
281.662	82.5
281.894	90.5
282.125	78.5
282.356	80.5
282.588	86.5
282.819	94.5
283.051	88.5
283.282	87.5
283.513	70.5
283.745	95.5
283.976	78.5
284.207	83.5
284.439	82.5
284.67	75.5
284.901	80.5
285.132	69.5
285.364	92.5
285.595	82.5
285.826	87.5
286.057	85.5
286.288	74.5
286.52	95.5
286.751	73.5
286.982	81.5
287.213	70.5
287.444	79.5
287.675	89.5
287.906	77.5
288.138	66.5
288.369	79.5
288.6	87.5
288.831	95.5
289.062	88.5
289.293	83.5
289.524	87.5
289.755	87.5
289.986	93.5
290.217	69.5
290.448	75.5
290.679	76.5
290.91	89.5
291.141	87.5
291.371	82.5
291.602	77.5
291.833	76.5
292.064	82.5
292.295	92.5
292.526	69.5
292.757	85.5
292.987	83.5
293.218	81.5
293.449	92.5
293.68	93.5
293.91	88.5
294.141	90.5
294.372	78.5
294.603	84.5
294.833	97.5
295.064	79.5
295.295	82.5
295.525	94.5
295.756	77.5
295.987	72.5
296.217	79.5
296.448	85.5
296.679	74.5
296.909	82.5
297.14	92.5
297.37	80.5
297.601	89.5
297.831	94.5
298.062	78.5
298.292	69.5
298.523	88.5
298.753	73.5
298.984	92.5
299.214	71.5
299.445	80.5
299.675	72.5
299.905	80.5
300.136	73.5
300.366	79.5
300.597	91.5
300.827	91.5
301.057	96.5
301.288	80.5
301.518	79.5
301.748	68.5
301.979	78.5
302.209	93.5
302.439	80.5
302.669	71.5
302.9	87.5
303.13	81.5
303.36	89.5
303.59	79.5
303.82	76.5
304.051	82.5
304.281	75.5
304.511	80.5
304.741	83.5
304.971	99.5
305.201	90.5
305.431	92.5
305.661	73.5
305.891	88.5
306.121	97.5
306.352	84.5
306.582	85.5
306.812	83.5
307.042	74.5
307.272	81.5
307.502	81.5
307.731	80.5
307.961	79.5
308.191	85.5
308.421	80.5
308.651	75.5
308.881	93.5
309.111	86.5
309.341	90.5
309.571	84.5
309.8	75.5
310.03	91.5
310.26	83.5
310.49	81.5
310.72	88.5
310.949	85.5
311.179	86.5
311.409	78.5
311.639	84.5
311.868	101.5
312.098	89.5
312.328	86.5
312.557	92.5
312.787	81.5
313.017	78.5
313.246	87.5
313.476	91.5
313.706	88.5
313.935	76.5
314.165	90.5
314.394	86.5
314.624	92.5
314.853	77.5
315.083	91.5
315.312	81.5
315.542	92.5
315.771	80.5
316.001	82.5
316.23	94.5
316.46	97.5
316.689	86.5
316.919	74.5
317.148	84.5
317.377	105.5
317.607	89.5
317.836	77.5
318.065	82.5
318.295	78.5
318.524	73.5
318.753	81.5
318.983	79.5
319.212	93.5
319.441	89.5
319.67	88.5
319.9	88.5
320.129	82.5
320.358	77.5
320.587	76.5
320.816	88.5
321.046	81.5
321.275	84.5
321.504	91.5
321.733	100.5
321.962	81.5
322.191	78.5
322.42	83.5
322.649	78.5
322.878	90.5
323.108	95.5
323.337	85.5
323.566	87.5
323.795	84.5
324.024	77.5
324.253	75.5
324.482	74.5
324.71	83.5
324.939	100.5
325.168	93.5
325.397	84.5
325.626	86.5
325.855	73.5
326.084	96.5
326.313	80.5
326.542	80.5
326.77	74.5
326.999	83.5
327.228	81.5
327.457	78.5
327.686	88.5
327.914	85.5
328.143	81.5
328.372	90.5
328.6	76.5
328.829	82.5
329.058	92.5
329.287	70.5
329.515	90.5
329.744	94.5
329.972	94.5
330.201	75.5
330.43	95.5
330.658	83.5
330.887	79.5
331.115	76.5
331.344	75.5
331.572	82.5
331.801	79.5
332.03	73.5
332.258	84.5
332.486	91.5
332.715	88.5
332.943	92.5
333.172	88.5
333.4	79.5
333.629	85.5
333.857	88.5
334.085	76.5
334.314	86.5
334.542	90.5
334.771	74.5
334.999	82.5
335.227	89.5
335.455	85.5
335.684	88.5
335.912	79.5
336.14	84.5
336.369	84.5
336.597	83.5
336.825	94.5
337.053	83.5
337.281	87.5
337.51	75.5
337.738	77.5
337.966	92.5
338.194	77.5
338.422	91.5
338.65	87.5
338.878	94.5
339.106	75.5
339.334	90.5
339.562	87.5
339.79	80.5
340.018	95.5
340.246	80.5
340.474	81.5
340.702	85.5
340.93	89.5
341.158	87.5
341.386	105.5
341.614	88.5
341.842	83.5
342.07	77.5
342.298	95.5
342.526	85.5
342.754	95.5
342.981	83.5
343.209	91.5
343.437	89.5
343.665	87.5
343.893	77.5
344.12	83.5
344.348	80.5
344.576	77.5
344.804	92.5
345.031	82.5
345.259	91.5
345.487	113.5
345.714	63.5
345.942	72.5
346.17	79.5
346.397	81.5
346.625	93.5
346.853	78.5
347.08	89.5
347.308	82.5
347.535	75.5
347.763	82.5
347.99	92.5
348.218	91.5
348.445	88.5
348.673	82.5
348.9	70.5
349.128	77.5
349.355	93.5
349.583	74.5
349.81	92.5
350.037	80.5
350.265	92.5
350.492	82.5
350.72	85.5
350.947	74.5
351.174	90.5
351.402	90.5
351.629	73.5
351.856	81.5
352.083	96.5
352.311	98.5
352.538	75.5
352.765	72.5
352.992	81.5
353.22	91.5
353.447	87.5
353.674	92.5
353.901	100.5
354.128	85.5
354.355	76.5
354.583	72.5
354.81	83.5
355.037	81.5
355.264	88.5
355.491	72.5
355.718	83.5
355.945	87.5
356.172	63.5
356.399	104.5
356.626	97.5
356.853	87.5
357.08	84.5
357.307	67.5
357.534	82.5
357.761	81.5
357.988	98.5
358.215	91.5
358.441	90.5
358.668	77.5
358.895	92.5
359.122	77.5
359.349	76.5
359.576	76.5
359.802	90.5
360.029	74.5
360.256	77.5
360.483	95.5
360.709	77.5
360.936	80.5
361.163	78.5
361.39	83.5
361.616	80.5
361.843	76.5
362.07	85.5
362.296	91.5
362.523	88.5
362.749	82.5
362.976	91.5
363.203	96.5
363.429	73.5
363.656	80.5
363.882	85.5
364.109	93.5
364.335	86.5
364.562	90.5
364.788	63.5
365.015	76.5
365.241	79.5
365.468	78.5
365.694	76.5
365.92	72.5
366.147	81.5
366.373	93.5
366.599	88.5
366.826	75.5
367.052	74.5
367.278	100.5
367.505	81.5
367.731	76.5
367.957	87.5
368.184	90.5
368.41	78.5
368.636	96.5
368.862	87.5
369.089	62.5
369.315	85.5
369.541	80.5
369.767	84.5
369.993	79.5
370.219	74.5
370.445	80.5
370.672	82.5
370.898	95.5
371.124	86.5
371.35	91.5
371.576	79.5
371.802	85.5
372.028	75.5
372.254	88.5
372.48	87.5
372.706	84.5
372.932	86.5
373.158	79.5
373.384	81.5
373.61	83.5
373.835	90.5
374.061	79.5
374.287	90.5
374.513	81.5
374.739	80.5
374.965	78.5
375.191	78.5
375.416	103.5
375.642	80.5
375.868	88.5
376.094	80.5
376.319	82.5
376.545	96.5
376.771	83.5
376.997	92.5
377.222	74.5
377.448	76.5
377.674	92.5
377.899	81.5
378.125	89.5
378.35	90.5
378.576	82.5
378.802	72.5
379.027	81.5
379.253	71.5
379.478	70.5
379.704	88.5
379.929	81.5
380.155	83.5
380.38	82.5
380.606	89.5
380.831	91.5
381.057	89.5
381.282	82.5
381.507	76.5
381.733	89.5
381.958	103.5
382.184	82.5
382.409	85.5
382.634	93.5
382.86	89.5
383.085	85.5
383.31	99.5
383.535	96.5
383.761	89.5
383.986	93.5
384.211	85.5
384.436	92.5
384.662	106.5
384.887	80.5
385.112	77.5
385.337	90.5
385.562	89.5
385.787	78.5
386.013	103.5
386.238	105.5
386.463	76.5
386.688	85.5
386.913	81.5
387.138	91.5
387.363	98.5
387.588	98.5
387.813	78.5
388.038	94.5
388.263	83.5
388.488	75.5
388.713	84.5
388.938	83.5
389.163	96.5
389.387	97.5
389.612	86.5
389.837	103.5
390.062	104.5
390.287	80.5
390.512	84.5
390.736	93.5
390.961	97.5
391.186	99.5
391.411	90.5
391.636	92.5
391.86	87.5
392.085	92.5
392.31	80.5
392.534	83.5
392.759	97.5
392.984	85.5
393.208	94.5
393.433	83.5
393.658	87.5
393.882	106.5
394.107	89.5
394.331	86.5
394.556	100.5
394.78	90.5
395.005	88.5
395.229	90.5
395.454	81.5
395.678	87.5
395.903	87.5
396.127	85.5
396.352	86.5
396.576	80.5
396.801	86.5
397.025	84.5
397.249	100.5
397.474	120.5
397.698	92.5
397.922	82.5
398.147	105.5
398.371	95.5
398.595	108.5
398.82	113.5
399.044	86.5
399.268	77.5
399.492	96.5
399.717	95.5
399.941	91.5
400.165	95.5
400.389	91.5
400.613	93.5
400.837	99.5
401.062	90.5
401.286	81.5
401.51	75.5
401.734	89.5
401.958	94.5
402.182	103.5
402.406	98.5
402.63	90.5
402.854	92.5
403.078	93.5
403.302	94.5
403.526	92.5
403.75	102.5
403.974	111.5
404.198	100.5
404.422	91.5
404.645	101.5
404.869	100.5
405.093	81.5
405.317	81.5
405.541	92.5
405.765	100.5
405.988	84.5
406.212	90.5
406.436	97.5
406.66	101.5
406.883	108.5
407.107	81.5
407.331	95.5
407.555	91.5
407.778	103.5
408.002	99.5
408.226	103.5
408.449	85.5
408.673	92.5
408.896	102.5
409.12	97.5
409.344	84.5
409.567	107.5
409.791	111.5
410.014	91.5
410.238	97.5
410.461	99.5
410.685	112.5
410.908	103.5
411.132	87.5
411.355	99.5
411.578	96.5
411.802	89.5
412.025	107.5
412.249	99.5
412.472	89.5
412.695	94.5
412.919	100.5
413.142	93.5
413.365	106.5
413.589	101.5
413.812	85.5
414.035	97.5
414.258	111.5
414.482	102.5
414.705	119.5
414.928	105.5
415.151	104.5
415.374	97.5
415.597	91.5
415.821	98.5
416.044	98.5
416.267	102.5
416.49	91.5
416.713	91.5
416.936	96.5
417.159	101.5
417.382	87.5
417.605	97.5
417.828	86.5
418.051	106.5
418.274	107.5
418.497	106.5
418.72	107.5
418.943	113.5
419.166	115.5
419.389	114.5
419.611	108.5
419.834	90.5
420.057	103.5
420.28	110.5
420.503	115.5
420.726	101.5
420.948	113.5
421.171	111.5
421.394	103.5
421.617	119.5
421.839	104.5
422.062	123.5
422.285	103.5
422.507	103.5
422.73	96.5
422.953	95.5
423.175	90.5
423.398	99.5
423.621	100.5
423.843	95.5
424.066	84.5
424.288	111.5
424.511	115.5
424.733	100.5
424.956	99.5
425.178	93.5
425.401	111.5
425.623	106.5
425.846	97.5
426.068	106.5
426.291	122.5
426.513	90.5
426.735	101.5
426.958	102.5
427.18	108.5
427.402	100.5
427.625	95.5
427.847	98.5
428.069	117.5
428.292	109.5
428.514	103.5
428.736	100.5
428.958	95.5
429.181	111.5
429.403	98.5
429.625	113.5
429.847	90.5
430.069	96.5
430.292	108.5
430.514	107.5
430.736	96.5
430.958	106.5
431.18	111.5
431.402	113.5
431.624	107.5
431.846	90.5
432.068	100.5
432.29	84.5
432.512	106.5
432.734	77.5
432.956	93.5
433.178	107.5
433.4	113.5
433.622	108.5
433.844	122.5
434.066	100.5
434.287	100.5
434.509	81.5
434.731	101.5
434.953	105.5
435.175	104.5
435.397	105.5
435.618	101.5
435.84	90.5
436.062	91.5
436.284	101.5
436.505	106.5
436.727	99.5
436.949	112.5
437.17	96.5
437.392	96.5
437.614	103.5
437.835	109.5
438.057	90.5
438.278	87.5
438.5	92.5
438.721	107.5
438.943	114.5
439.165	111.5
439.386	113.5
439.608	117.5
439.829	114.5
440.05	111.5
440.272	112.5
440.493	118.5
440.715	105.5
440.936	120.5
441.158	115.5
441.379	108.5
441.6	119.5
441.822	115.5
442.043	113.5
442.264	104.5
442.486	99.5
442.707	96.5
442.928	107.5
443.149	107.5
443.371	100.5
443.592	120.5
443.813	106.5
444.034	111.5
444.255	123.5
444.476	121.5
444.698	112.5
444.919	113.5
445.14	205.5
445.361	161.5
445.582	123.5
445.803	105.5
446.024	115.5
446.245	109.5
446.466	112.5
446.687	103.5
446.908	114.5
447.129	118.5
447.35	111.5
447.571	108.5
447.792	99.5
448.013	127.5
448.234	124.5
448.455	112.5
448.675	112.5
448.896	114.5
449.117	108.5
449.338	94.5
449.559	119.5
449.779	104.5
450	99.5
450.221	90.5
450.442	104.5
450.662	117.5
450.883	113.5
451.104	99.5
451.324	98.5
451.545	98.5
451.766	99.5
451.986	98.5
452.207	102.5
452.428	113.5
452.648	103.5
452.869	91.5
453.089	100.5
453.31	91.5
453.53	97.5
453.751	95.5
453.971	88.5
454.192	83.5
454.412	85.5
454.633	84.5
454.853	103.5
455.073	116.5
455.294	106.5
455.514	97.5
455.734	88.5
455.955	100.5
456.175	94.5
456.395	83.5
456.616	87.5
456.836	103.5
457.056	97.5
457.276	100.5
457.497	97.5
457.717	93.5
457.937	95.5
458.157	86.5
458.377	93.5
458.598	82.5
458.818	91.5
459.038	92.5
459.258	93.5
459.478	96.5
459.698	85.5
459.918	91.5
460.138	84.5
460.358	102.5
460.578	104.5
460.798	116.5
461.018	90.5
461.238	83.5
461.458	92.5
461.678	102.5
461.898	98.5
462.118	100.5
462.338	95.5
462.558	92.5
462.777	92.5
462.997	113.5
463.217	101.5
463.437	96.5
463.657	90.5
463.876	80.5
464.096	84.5
464.316	93.5
464.536	98.5
464.755	99.5
464.975	101.5
465.195	89.5
465.414	87.5
465.634	92.5
465.854	101.5
466.073	101.5
466.293	88.5
466.512	98.5
466.732	106.5
466.951	89.5
467.171	112.5
467.391	107.5
467.61	97.5
467.829	108.5
468.049	107.5
468.268	101.5
468.488	106.5
468.707	104.5
468.927	112.5
469.146	119.5
469.365	110.5
469.585	113.5
469.804	99.5
470.023	108.5
470.243	101.5
470.462	118.5
470.681	108.5
470.901	113.5
471.12	109.5
471.339	102.5
471.558	126.5
471.777	121.5
471.997	101.5
472.216	113.5
472.435	101.5
472.654	100.5
472.873	95.5
473.092	106.5
473.311	101.5
473.53	95.5
473.749	104.5
473.968	114.5
474.187	112.5
474.406	100.5
474.625	104.5
474.844	102.5
475.063	106.5
475.282	112.5
475.501	102.5
475.72	101.5
475.939	105.5
476.158	107.5
476.377	93.5
476.596	102.5
476.814	111.5
477.033	100.5
477.252	91.5
477.471	105.5
477.69	97.5
477.908	90.5
478.127	88.5
478.346	110.5
478.564	106.5
478.783	105.5
479.002	99.5
479.22	97.5
479.439	107.5
479.658	108.5
479.876	100.5
480.095	73.5
480.313	101.5
480.532	92.5
480.751	98.5
480.969	87.5
481.188	91.5
481.406	102.5
481.624	85.5
481.843	77.5
482.061	85.5
482.28	95.5
482.498	88.5
482.717	88.5
482.935	106.5
483.153	114.5
483.372	104.5
483.59	111.5
483.808	104.5
484.027	103.5
484.245	99.5
484.463	105.5
484.681	110.5
484.9	106.5
485.118	121.5
485.336	106.5
485.554	87.5
485.772	97.5
485.99	99.5
486.209	100.5
486.427	83.5
486.645	106.5
486.863	111.5
487.081	115.5
487.299	104.5
487.517	111.5
487.735	131.5
487.953	121.5
488.171	121.5
488.389	127.5
488.607	115.5
488.825	114.5
489.043	105.5
489.261	113.5
489.479	119.5
489.696	116.5
489.914	118.5
490.132	99.5
490.35	127.5
490.568	120.5
490.786	129.5
491.003	133.5
491.221	130.5
491.439	121.5
491.657	138.5
491.874	135.5
492.092	153.5
492.31	163.5
492.527	155.5
492.745	150.5
492.963	139.5
493.18	142.5
493.398	135.5
493.615	129.5
493.833	124.5
494.05	124.5
494.268	116.5
494.485	127.5
494.703	123.5
494.92	134.5
495.138	118.5
495.355	126.5
495.573	127.5
495.79	116.5
496.008	113.5
496.225	114.5
496.442	135.5
496.66	120.5
496.877	122.5
497.094	116.5
497.312	122.5
497.529	121.5
497.746	119.5
497.963	92.5
498.181	109.5
498.398	103.5
498.615	92.5
498.832	109.5
499.049	91.5
499.267	100.5
499.484	109.5
499.701	115.5
499.918	111.5
500.135	104.5
500.352	100.5
500.569	122.5
500.786	116.5
501.003	123.5
501.22	103.5
501.437	115.5
501.654	103.5
501.871	114.5
502.088	126.5
502.305	102.5
502.522	108.5
502.739	99.5
502.956	101.5
503.172	95.5
503.389	98.5
503.606	92.5
503.823	97.5
504.04	100.5
504.256	101.5
504.473	103.5
504.69	101.5
504.907	119.5
505.123	95.5
505.34	108.5
505.557	112.5
505.773	100.5
505.99	109.5
506.207	91.5
506.423	109.5
506.64	98.5
506.856	99.5
507.073	91.5
507.289	99.5
507.506	106.5
507.722	102.5
507.939	100.5
508.155	103.5
508.372	110.5
508.588	93.5
508.805	96.5
509.021	85.5
509.238	98.5
509.454	89.5
509.67	96.5
509.887	76.5
510.103	92.5
510.319	85.5
510.536	101.5
510.752	76.5
510.968	85.5
511.184	74.5
511.401	93.5
511.617	97.5
511.833	78.5
512.049	81.5
512.265	86.5
512.481	95.5
512.698	88.5
512.914	89.5
513.13	92.5
513.346	87.5
513.562	80.5
513.778	74.5
513.994	92.5
514.21	86.5
514.426	98.5
514.642	80.5
514.858	81.5
515.074	94.5
515.29	97.5
515.506	91.5
515.721	92.5
515.937	82.5
516.153	94.5
516.369	91.5
516.585	83.5
516.801	83.5
517.016	91.5
517.232	76.5
517.448	85.5
517.664	81.5
517.879	91.5
518.095	89.5
518.311	76.5
518.527	74.5
518.742	94.5
518.958	91.5
519.173	78.5
519.389	111.5
519.605	93.5
519.82	93.5
520.036	104.5
520.251	111.5
520.467	93.5
520.682	93.5
520.898	95.5
521.113	87.5
521.329	91.5
521.544	83.5
521.76	76.5
521.975	89.5
522.19	97.5
522.406	94.5
522.621	75.5
522.836	84.5
523.052	84.5
523.267	87.5
523.482	83.5
523.698	101.5
523.913	108.5
524.128	108.5
524.343	83.5
524.559	98.5
524.774	99.5
524.989	91.5
525.204	99.5
525.419	96.5
525.634	87.5
525.849	91.5
526.064	109.5
526.28	109.5
526.495	97.5
526.71	86.5
526.925	90.5
527.14	92.5
527.355	75.5
527.57	80.5
527.785	82.5
527.999	67.5
528.214	84.5
528.429	99.5
528.644	98.5
528.859	95.5
529.074	113.5
529.289	121.5
529.503	128.5
529.718	121.5
529.933	110.5
530.148	99.5
530.363	88.5
530.577	98.5
530.792	87.5
531.007	90.5
531.221	84.5
531.436	88.5
531.651	90.5
531.865	80.5
532.08	79.5
532.295	91.5
532.509	88.5
532.724	87.5
532.938	90.5
533.153	82.5
533.367	88.5
533.582	73.5
533.796	91.5
534.011	104.5
534.225	85.5
534.44	98.5
534.654	90.5
534.868	97.5
535.083	95.5
535.297	88.5
535.511	99.5
535.726	96.5
535.94	86.5
536.154	74.5
536.369	85.5
536.583	85.5
536.797	95.5
537.011	80.5
537.225	79.5
537.44	90.5
537.654	84.5
537.868	79.5
538.082	89.5
538.296	89.5
538.51	94.5
538.724	96.5
538.938	97.5
539.153	101.5
539.367	90.5
539.581	100.5
539.795	98.5
540.009	85.5
540.222	101.5
540.436	88.5
540.65	95.5
540.864	111.5
541.078	106.5
541.292	116.5
541.506	121.5
541.72	123.5
541.934	133.5
542.147	144.5
542.361	120.5
542.575	123.5
542.789	119.5
543.002	107.5
543.216	104.5
543.43	97.5
543.644	106.5
543.857	109.5
544.071	122.5
544.285	138.5
544.498	122.5
544.712	131.5
544.925	114.5
545.139	115.5
545.352	127.5
545.566	128.5
545.779	123.5
545.993	134.5
546.206	117.5
546.42	134.5
546.633	110.5
546.847	123.5
547.06	116.5
547.274	119.5
547.487	124.5
547.7	138.5
547.914	133.5
548.127	136.5
548.34	121.5
548.554	114.5
548.767	98.5
548.98	123.5
549.193	107.5
549.407	120.5
549.62	102.5
549.833	100.5
550.046	111.5
550.259	117.5
550.473	129.5
550.686	118.5
550.899	104.5
551.112	123.5
551.325	123.5
551.538	99.5
551.751	102.5
551.964	110.5
552.177	113.5
552.39	102.5
552.603	122.5
552.816	107.5
553.029	113.5
553.242	117.5
553.455	116.5
553.667	122.5
553.88	118.5
554.093	130.5
554.306	116.5
554.519	103.5
554.732	112.5
554.944	114.5
555.157	113.5
555.37	121.5
555.583	108.5
555.795	109.5
556.008	102.5
556.221	93.5
556.433	122.5
556.646	108.5
556.859	119.5
557.071	101.5
557.284	117.5
557.496	95.5
557.709	99.5
557.921	103.5
558.134	104.5
558.346	121.5
558.559	100.5
558.771	117.5
558.984	101.5
559.196	111.5
559.409	114.5
559.621	111.5
559.833	110.5
560.046	104.5
560.258	104.5
560.47	102.5
560.683	97.5
560.895	102.5
561.107	115.5
561.32	80.5
561.532	113.5
561.744	96.5
561.956	111.5
562.168	107.5
562.381	97.5
562.593	96.5
562.805	104.5
563.017	101.5
563.229	113.5
563.441	105.5
563.653	105.5
563.865	92.5
564.077	101.5
564.289	99.5
564.501	100.5
564.713	92.5
564.925	88.5
565.137	87.5
565.349	99.5
565.561	94.5
565.773	96.5
565.985	99.5
566.197	90.5
566.408	99.5
566.62	100.5
566.832	116.5
567.044	113.5
567.255	95.5
567.467	92.5
567.679	96.5
567.891	82.5
568.102	75.5
568.314	82.5
568.526	85.5
568.737	90.5
568.949	85.5
569.161	80.5
569.372	88.5
569.584	82.5
569.795	90.5
570.007	102.5
570.218	87.5
570.43	95.5
570.641	88.5
570.853	78.5
571.064	94.5
571.276	76.5
571.487	88.5
571.698	88.5
571.91	87.5
572.121	82.5
572.333	89.5
572.544	98.5
572.755	76.5
572.966	90.5
573.178	92.5
573.389	87.5
573.6	86.5
573.811	92.5
574.023	80.5
574.234	88.5
574.445	84.5
574.656	88.5
574.867	91.5
575.078	92.5
575.289	77.5
575.501	106.5
575.712	88.5
575.923	80.5
576.134	70.5
576.345	76.5
576.556	96.5
576.767	101.5
576.978	77.5
577.188	91.5
577.399	100.5
577.61	95.5
577.821	82.5
578.032	76.5
578.243	81.5
578.454	91.5
578.665	86.5
578.875	85.5
579.086	79.5
579.297	87.5
579.508	83.5
579.718	85.5
579.929	87.5
580.14	84.5
580.35	93.5
580.561	81.5
580.772	85.5
580.982	90.5
581.193	77.5
581.403	74.5
581.614	87.5
581.825	81.5
582.035	86.5
582.246	83.5
582.456	77.5
582.667	95.5
582.877	87.5
583.087	88.5
583.298	83.5
583.508	82.5
583.719	97.5
583.929	88.5
584.139	87.5
584.35	96.5
584.56	84.5
584.77	84.5
584.981	92.5
585.191	91.5
585.401	79.5
585.611	91.5
585.821	83.5
586.032	87.5
586.242	80.5
586.452	85.5
586.662	80.5
586.872	83.5
587.082	93.5
587.292	80.5
587.502	83.5
587.713	87.5
587.923	84.5
588.133	86.5
588.343	86.5
588.553	83.5
588.762	83.5
588.972	79.5
589.182	90.5
589.392	87.5
589.602	84.5
589.812	95.5
590.022	86.5
590.232	88.5
590.441	89.5
590.651	69.5
590.861	71.5
591.071	83.5
591.281	83.5
591.49	87.5
591.7	74.5
591.91	83.5
592.119	98.5
592.329	91.5
592.539	71.5
592.748	71.5
592.958	98.5
593.167	78.5
593.377	86.5
593.587	89.5
593.796	90.5
594.006	91.5
594.215	93.5
594.424	77.5
594.634	96.5
594.843	90.5
595.053	83.5
595.262	86.5
595.472	104.5
595.681	89.5
595.89	63.5
596.1	85.5
596.309	101.5
596.518	89.5
596.727	86.5
596.937	78.5
597.146	81.5
597.355	82.5
597.564	78.5
597.774	88.5
597.983	82.5
598.192	73.5
598.401	91.5
598.61	80.5
598.819	87.5
599.028	93.5
599.237	81.5
599.446	88.5
599.655	79.5
599.864	87.5
600.073	88.5
600.282	74.5
600.491	91.5
600.7	84.5
600.909	83.5
601.118	90.5
601.327	91.5
601.536	96.5
601.745	88.5
601.953	109.5
602.162	99.5
602.371	95.5
602.58	102.5
602.789	84.5
602.997	84.5
603.206	78.5
603.415	90.5
603.623	94.5
603.832	103.5
604.041	94.5
604.249	77.5
604.458	82.5
604.666	75.5
604.875	83.5
605.084	96.5
605.292	86.5
605.501	93.5
605.709	92.5
605.918	96.5
606.126	96.5
606.334	91.5
606.543	91.5
606.751	95.5
606.96	84.5
607.168	100.5
607.376	89.5
607.585	88.5
607.793	98.5
608.001	101.5
608.21	97.5
608.418	92.5
608.626	99.5
608.834	93.5
609.043	93.5
609.251	103.5
609.459	96.5
609.667	93.5
609.875	97.5
610.083	98.5
610.291	100.5
610.499	102.5
610.707	104.5
610.916	97.5
611.124	92.5
611.332	107.5
611.54	83.5
611.748	83.5
611.955	91.5
612.163	86.5
612.371	94.5
612.579	87.5
612.787	87.5
612.995	83.5
613.203	106.5
613.411	101.5
613.618	86.5
613.826	100.5
614.034	95.5
614.242	99.5
614.449	83.5
614.657	89.5
614.865	87.5
615.072	100.5
615.28	106.5
615.488	98.5
615.695	90.5
615.903	94.5
616.111	95.5
616.318	98.5
616.526	99.5
616.733	106.5
616.941	108.5
617.148	111.5
617.356	101.5
617.563	102.5
617.771	104.5
617.978	89.5
618.185	73.5
618.393	81.5
618.6	98.5
618.807	91.5
619.015	97.5
619.222	96.5
619.429	83.5
619.637	82.5
619.844	99.5
620.051	92.5
620.258	93.5
620.466	97.5
620.673	94.5
620.88	100.5
621.087	92.5
621.294	85.5
621.501	101.5
621.708	93.5
621.915	91.5
622.122	87.5
622.329	93.5
622.536	100.5
622.743	103.5
622.95	81.5
623.157	95.5
623.364	89.5
623.571	104.5
623.778	88.5
623.985	105.5
624.192	96.5
624.399	77.5
624.606	93.5
624.812	91.5
625.019	93.5
625.226	91.5
625.433	101.5
625.639	92.5
625.846	98.5
626.053	99.5
626.259	82.5
626.466	95.5
626.673	93.5
626.879	76.5
627.086	79.5
627.293	103.5
627.499	82.5
627.706	98.5
627.912	81.5
628.119	92.5
628.325	105.5
628.532	86.5
628.738	100.5
628.945	91.5
629.151	93.5
629.357	90.5
629.564	90.5
629.77	99.5
629.976	96.5
630.183	86.5
630.389	85.5
630.595	97.5
630.802	84.5
631.008	84.5
631.214	85.5
631.42	91.5
631.627	86.5
631.833	87.5
632.039	77.5
632.245	90.5
632.451	88.5
632.657	82.5
632.863	100.5
633.069	87.5
633.275	83.5
633.481	88.5
633.688	80.5
633.893	85.5
634.099	90.5
634.305	102.5
634.511	84.5
634.717	90.5
634.923	90.5
635.129	90.5
635.335	101.5
635.541	96.5
635.747	81.5
635.952	101.5
636.158	97.5
636.364	89.5
636.57	94.5
636.775	74.5
636.981	83.5
637.187	82.5
637.392	91.5
637.598	99.5
637.804	87.5
638.009	90.5
638.215	94.5
638.421	89.5
638.626	99.5
638.832	92.5
639.037	100.5
639.243	81.5
639.448	90.5
639.654	103.5
639.859	85.5
640.065	96.5
640.27	79.5
640.475	89.5
640.681	93.5
640.886	94.5
641.091	92.5
641.297	85.5
641.502	89.5
641.707	101.5
641.913	75.5
642.118	73.5
642.323	86.5
642.528	111.5
642.733	93.5
642.939	92.5
643.144	90.5
643.349	84.5
643.554	89.5
643.759	84.5
643.964	81.5
644.169	84.5
644.374	82.5
644.579	88.5
644.784	89.5
644.989	81.5
645.194	83.5
645.399	88.5
645.604	81.5
645.809	100.5
646.014	86.5
646.219	96.5
646.423	84.5
646.628	79.5
646.833	80.5
647.038	81.5
647.243	93.5
647.447	92.5
647.652	89.5
647.857	93.5
648.062	94.5
648.266	94.5
648.471	92.5
648.676	101.5
648.88	93.5
649.085	98.5
649.289	84.5
649.494	98.5
649.698	99.5
649.903	87.5
650.107	83.5
650.312	98.5
650.516	92.5
650.721	95.5
650.925	97.5
651.13	92.5
651.334	103.5
651.539	83.5
651.743	85.5
651.947	87.5
652.152	89.5
652.356	96.5
652.56	88.5
652.764	103.5
652.969	97.5
653.173	74.5
653.377	89.5
653.581	80.5
653.785	89.5
653.99	102.5
654.194	94.5
654.398	80.5
654.602	105.5
654.806	79.5
655.01	89.5
655.214	89.5
655.418	69.5
655.622	90.5
655.826	92.5
656.03	78.5
656.234	79.5
656.438	77.5
656.642	89.5
656.846	80.5
657.049	98.5
657.253	82.5
657.457	95.5
657.661	80.5
657.865	82.5
658.068	75.5
658.272	82.5
658.476	86.5
658.68	91.5
658.883	73.5
659.087	85.5
659.291	75.5
659.494	85.5
659.698	67.5
659.901	85.5
660.105	96.5
660.309	85.5
660.512	81.5
660.716	79.5
660.919	80.5
661.123	83.5
661.326	85.5
661.53	85.5
661.733	74.5
661.936	89.5
662.14	90.5
662.343	74.5
662.546	88.5
662.75	94.5
662.953	89.5
663.156	88.5
663.36	88.5
663.563	74.5
663.766	95.5
663.969	73.5
664.173	76.5
664.376	74.5
664.579	70.5
664.782	91.5
664.985	76.5
665.188	90.5
665.391	64.5
665.594	97.5
665.797	92.5
666	88.5
666.203	71.5
666.406	83.5
666.609	81.5
666.812	90.5
667.015	71.5
667.218	74.5
667.421	100.5
667.624	80.5
667.827	72.5
668.03	97.5
668.232	78.5
668.435	81.5
668.638	92.5
668.841	76.5
669.043	72.5
669.246	85.5
669.449	95.5
669.651	83.5
669.854	78.5
670.057	80.5
670.259	82.5
670.462	76.5
670.665	83.5
670.867	71.5
671.07	77.5
671.272	101.5
671.475	104.5
671.677	91.5
671.88	81.5
672.082	84.5
672.284	79.5
672.487	98.5
672.689	76.5
672.892	83.5
