Data from Zn(NO3)2Standard.Agarose3%.GreenCap.LampEnergy5.5.E.O_HRD10591_15-00-50-767.txt Node
Date: Mon Jul 22 15:00:50 EDT 2019
User: cochatt
Spectrometer: HR+D1059
Trigger mode: 1
Integration Time (sec): 1.000000E-1
Scans to average: 1
Electric dark correction enabled: true
Nonlinearity correction enabled: false
Boxcar width: 0
XAxis mode: Wavelengths
Number of Pixels in Spectrum: 2048
>>>>>Begin Spectral Data<<<<<
223.165	-13.56
223.4	-13.56
223.635	-13.56
223.869	-8.56
224.104	-16.56
224.338	-11.56
224.573	-13.56
224.808	-19.56
225.042	-7.56
225.277	-16.56
225.511	-16.56
225.746	7.44
225.98	22.44
226.215	12.44
226.449	9.44
226.683	14.44
226.918	27.44
227.152	30.44
227.387	36.44
227.621	37.44
227.856	42.44
228.09	54.44
228.324	66.44
228.559	60.44
228.793	65.44
229.027	75.44
229.262	67.44
229.496	67.44
229.73	76.44
229.964	75.44
230.199	75.44
230.433	69.44
230.667	84.44
230.901	78.44
231.136	86.44
231.37	79.44
231.604	84.44
231.838	88.44
232.072	76.44
232.306	75.44
232.541	72.44
232.775	86.44
233.009	86.44
233.243	92.44
233.477	83.44
233.711	80.44
233.945	85.44
234.179	86.44
234.413	79.44
234.647	75.44
234.881	61.44
235.115	92.44
235.349	83.44
235.583	90.44
235.817	90.44
236.051	71.44
236.285	80.44
236.519	74.44
236.753	76.44
236.987	84.44
237.221	73.44
237.455	75.44
237.689	78.44
237.922	84.44
238.156	76.44
238.39	82.44
238.624	79.44
238.858	86.44
239.091	80.44
239.325	77.44
239.559	81.44
239.793	75.44
240.027	71.44
240.26	82.44
240.494	80.44
240.728	78.44
240.961	100.44
241.195	88.44
241.429	79.44
241.662	80.44
241.896	75.44
242.13	84.44
242.363	66.44
242.597	78.44
242.83	79.44
243.064	89.44
243.298	64.44
243.531	67.44
243.765	86.44
243.998	91.44
244.232	72.44
244.465	79.44
244.699	77.44
244.932	75.44
245.166	78.44
245.399	87.44
245.633	80.44
245.866	80.44
246.099	80.44
246.333	95.44
246.566	92.44
246.8	86.44
247.033	76.44
247.266	72.44
247.5	79.44
247.733	92.44
247.966	89.44
248.2	83.44
248.433	74.44
248.666	90.44
248.899	91.44
249.133	72.44
249.366	86.44
249.599	85.44
249.832	87.44
250.066	76.44
250.299	94.44
250.532	80.44
250.765	87.44
250.998	72.44
251.231	73.44
251.465	66.44
251.698	76.44
251.931	77.44
252.164	78.44
252.397	96.44
252.63	80.44
252.863	81.44
253.096	87.44
253.329	74.44
253.562	88.44
253.795	91.44
254.028	92.44
254.261	87.44
254.494	89.44
254.727	80.44
254.96	82.44
255.193	73.44
255.426	84.44
255.659	92.44
255.892	86.44
256.124	81.44
256.357	94.44
256.59	86.44
256.823	85.44
257.056	89.44
257.289	72.44
257.521	71.44
257.754	76.44
257.987	75.44
258.22	77.44
258.452	86.44
258.685	83.44
258.918	84.44
259.151	94.44
259.383	91.44
259.616	89.44
259.849	101.44
260.081	79.44
260.314	92.44
260.547	74.44
260.779	87.44
261.012	84.44
261.244	77.44
261.477	82.44
261.71	82.44
261.942	92.44
262.175	95.44
262.407	92.44
262.64	83.44
262.872	87.44
263.105	72.44
263.337	84.44
263.57	95.44
263.802	93.44
264.035	84.44
264.267	74.44
264.499	66.44
264.732	90.44
264.964	72.44
265.197	78.44
265.429	92.44
265.661	99.44
265.894	89.44
266.126	88.44
266.358	72.44
266.591	75.44
266.823	79.44
267.055	85.44
267.287	85.44
267.52	76.44
267.752	75.44
267.984	77.44
268.216	100.44
268.448	73.44
268.681	79.44
268.913	92.44
269.145	85.44
269.377	90.44
269.609	75.44
269.841	96.44
270.073	91.44
270.306	84.44
270.538	88.44
270.77	75.44
271.002	87.44
271.234	82.44
271.466	82.44
271.698	71.44
271.93	87.44
272.162	85.44
272.394	93.44
272.626	87.44
272.858	87.44
273.09	84.44
273.322	99.44
273.553	82.44
273.785	77.44
274.017	102.44
274.249	91.44
274.481	85.44
274.713	87.44
274.945	92.44
275.176	95.44
275.408	80.44
275.64	81.44
275.872	92.44
276.104	92.44
276.335	101.44
276.567	82.44
276.799	95.44
277.031	90.44
277.262	85.44
277.494	93.44
277.726	76.44
277.957	80.44
278.189	94.44
278.421	82.44
278.652	84.44
278.884	82.44
279.115	84.44
279.347	84.44
279.579	95.44
279.81	82.44
280.042	99.44
280.273	94.44
280.505	95.44
280.736	89.44
280.968	78.44
281.199	66.44
281.431	97.44
281.662	79.44
281.894	93.44
282.125	91.44
282.356	85.44
282.588	91.44
282.819	74.44
283.051	85.44
283.282	86.44
283.513	92.44
283.745	85.44
283.976	83.44
284.207	85.44
284.439	79.44
284.67	87.44
284.901	79.44
285.132	66.44
285.364	88.44
285.595	89.44
285.826	79.44
286.057	78.44
286.288	85.44
286.52	84.44
286.751	93.44
286.982	75.44
287.213	83.44
287.444	85.44
287.675	78.44
287.906	83.44
288.138	96.44
288.369	74.44
288.6	100.44
288.831	79.44
289.062	85.44
289.293	76.44
289.524	86.44
289.755	82.44
289.986	95.44
290.217	105.44
290.448	98.44
290.679	83.44
290.91	91.44
291.141	81.44
291.371	89.44
291.602	91.44
291.833	84.44
292.064	100.44
292.295	87.44
292.526	81.44
292.757	86.44
292.987	82.44
293.218	92.44
293.449	84.44
293.68	90.44
293.91	81.44
294.141	108.44
294.372	103.44
294.603	84.44
294.833	92.44
295.064	77.44
295.295	81.44
295.525	76.44
295.756	90.44
295.987	78.44
296.217	93.44
296.448	82.44
296.679	83.44
296.909	83.44
297.14	92.44
297.37	87.44
297.601	83.44
297.831	95.44
298.062	93.44
298.292	86.44
298.523	88.44
298.753	83.44
298.984	78.44
299.214	91.44
299.445	75.44
299.675	84.44
299.905	74.44
300.136	79.44
300.366	90.44
300.597	80.44
300.827	86.44
301.057	88.44
301.288	90.44
301.518	82.44
301.748	79.44
301.979	79.44
302.209	93.44
302.439	96.44
302.669	87.44
302.9	80.44
303.13	80.44
303.36	91.44
303.59	89.44
303.82	85.44
304.051	91.44
304.281	79.44
304.511	90.44
304.741	94.44
304.971	83.44
305.201	95.44
305.431	79.44
305.661	85.44
305.891	103.44
306.121	86.44
306.352	86.44
306.582	86.44
306.812	91.44
307.042	83.44
307.272	84.44
307.502	77.44
307.731	97.44
307.961	87.44
308.191	99.44
308.421	103.44
308.651	95.44
308.881	93.44
309.111	85.44
309.341	79.44
309.571	90.44
309.8	72.44
310.03	93.44
310.26	96.44
310.49	93.44
310.72	68.44
310.949	90.44
311.179	82.44
311.409	89.44
311.639	86.44
311.868	90.44
312.098	80.44
312.328	94.44
312.557	101.44
312.787	77.44
313.017	89.44
313.246	85.44
313.476	80.44
313.706	89.44
313.935	86.44
314.165	91.44
314.394	84.44
314.624	81.44
314.853	90.44
315.083	94.44
315.312	97.44
315.542	70.44
315.771	73.44
316.001	82.44
316.23	79.44
316.46	100.44
316.689	80.44
316.919	79.44
317.148	89.44
317.377	84.44
317.607	92.44
317.836	88.44
318.065	70.44
318.295	99.44
318.524	91.44
318.753	90.44
318.983	80.44
319.212	84.44
319.441	96.44
319.67	93.44
319.9	97.44
320.129	99.44
320.358	79.44
320.587	94.44
320.816	87.44
321.046	85.44
321.275	79.44
321.504	88.44
321.733	82.44
321.962	82.44
322.191	86.44
322.42	80.44
322.649	86.44
322.878	86.44
323.108	84.44
323.337	82.44
323.566	94.44
323.795	85.44
324.024	87.44
324.253	99.44
324.482	68.44
324.71	107.44
324.939	90.44
325.168	92.44
325.397	88.44
325.626	83.44
325.855	81.44
326.084	89.44
326.313	82.44
326.542	91.44
326.77	80.44
326.999	82.44
327.228	99.44
327.457	84.44
327.686	86.44
327.914	90.44
328.143	98.44
328.372	100.44
328.6	90.44
328.829	77.44
329.058	90.44
329.287	86.44
329.515	98.44
329.744	89.44
329.972	74.44
330.201	88.44
330.43	83.44
330.658	79.44
330.887	81.44
331.115	83.44
331.344	84.44
331.572	100.44
331.801	91.44
332.03	86.44
332.258	92.44
332.486	76.44
332.715	82.44
332.943	83.44
333.172	82.44
333.4	94.44
333.629	79.44
333.857	86.44
334.085	76.44
334.314	96.44
334.542	85.44
334.771	77.44
334.999	94.44
335.227	75.44
335.455	84.44
335.684	80.44
335.912	86.44
336.14	85.44
336.369	96.44
336.597	88.44
336.825	83.44
337.053	95.44
337.281	69.44
337.51	93.44
337.738	80.44
337.966	77.44
338.194	88.44
338.422	96.44
338.65	92.44
338.878	79.44
339.106	95.44
339.334	87.44
339.562	94.44
339.79	89.44
340.018	96.44
340.246	86.44
340.474	85.44
340.702	79.44
340.93	91.44
341.158	81.44
341.386	99.44
341.614	85.44
341.842	91.44
342.07	80.44
342.298	84.44
342.526	91.44
342.754	89.44
342.981	79.44
343.209	81.44
343.437	86.44
343.665	88.44
343.893	86.44
344.12	94.44
344.348	90.44
344.576	84.44
344.804	102.44
345.031	85.44
345.259	104.44
345.487	98.44
345.714	75.44
345.942	82.44
346.17	91.44
346.397	78.44
346.625	84.44
346.853	91.44
347.08	90.44
347.308	90.44
347.535	97.44
347.763	91.44
347.99	94.44
348.218	90.44
348.445	84.44
348.673	87.44
348.9	88.44
349.128	84.44
349.355	100.44
349.583	82.44
349.81	67.44
350.037	72.44
350.265	77.44
350.492	95.44
350.72	91.44
350.947	82.44
351.174	88.44
351.402	88.44
351.629	94.44
351.856	87.44
352.083	85.44
352.311	64.44
352.538	81.44
352.765	90.44
352.992	88.44
353.22	79.44
353.447	88.44
353.674	92.44
353.901	87.44
354.128	87.44
354.355	88.44
354.583	83.44
354.81	100.44
355.037	87.44
355.264	84.44
355.491	88.44
355.718	81.44
355.945	86.44
356.172	103.44
356.399	94.44
356.626	93.44
356.853	89.44
357.08	95.44
357.307	95.44
357.534	87.44
357.761	71.44
357.988	85.44
358.215	83.44
358.441	88.44
358.668	95.44
358.895	96.44
359.122	94.44
359.349	86.44
359.576	92.44
359.802	93.44
360.029	97.44
360.256	86.44
360.483	77.44
360.709	73.44
360.936	89.44
361.163	96.44
361.39	84.44
361.616	92.44
361.843	101.44
362.07	93.44
362.296	77.44
362.523	79.44
362.749	90.44
362.976	82.44
363.203	91.44
363.429	84.44
363.656	92.44
363.882	77.44
364.109	85.44
364.335	77.44
364.562	95.44
364.788	64.44
365.015	86.44
365.241	82.44
365.468	91.44
365.694	90.44
365.92	88.44
366.147	88.44
366.373	90.44
366.599	88.44
366.826	80.44
367.052	87.44
367.278	74.44
367.505	95.44
367.731	83.44
367.957	84.44
368.184	95.44
368.41	80.44
368.636	73.44
368.862	76.44
369.089	87.44
369.315	77.44
369.541	83.44
369.767	72.44
369.993	80.44
370.219	80.44
370.445	73.44
370.672	74.44
370.898	91.44
371.124	70.44
371.35	90.44
371.576	92.44
371.802	93.44
372.028	101.44
372.254	78.44
372.48	81.44
372.706	87.44
372.932	74.44
373.158	82.44
373.384	113.44
373.61	83.44
373.835	80.44
374.061	98.44
374.287	79.44
374.513	87.44
374.739	77.44
374.965	93.44
375.191	100.44
375.416	97.44
375.642	84.44
375.868	84.44
376.094	85.44
376.319	86.44
376.545	85.44
376.771	67.44
376.997	84.44
377.222	83.44
377.448	95.44
377.674	90.44
377.899	79.44
378.125	94.44
378.35	81.44
378.576	81.44
378.802	80.44
379.027	97.44
379.253	91.44
379.478	91.44
379.704	98.44
379.929	83.44
380.155	75.44
380.38	75.44
380.606	87.44
380.831	103.44
381.057	116.44
381.282	90.44
381.507	87.44
381.733	97.44
381.958	90.44
382.184	84.44
382.409	95.44
382.634	93.44
382.86	81.44
383.085	82.44
383.31	85.44
383.535	91.44
383.761	79.44
383.986	87.44
384.211	88.44
384.436	85.44
384.662	75.44
384.887	79.44
385.112	83.44
385.337	86.44
385.562	75.44
385.787	81.44
386.013	90.44
386.238	85.44
386.463	74.44
386.688	81.44
386.913	93.44
387.138	83.44
387.363	71.44
387.588	90.44
387.813	96.44
388.038	92.44
388.263	84.44
388.488	75.44
388.713	86.44
388.938	80.44
389.163	85.44
389.387	80.44
389.612	75.44
389.837	93.44
390.062	78.44
390.287	78.44
390.512	85.44
390.736	82.44
390.961	89.44
391.186	91.44
391.411	95.44
391.636	86.44
391.86	74.44
392.085	91.44
392.31	95.44
392.534	92.44
392.759	72.44
392.984	92.44
393.208	92.44
393.433	94.44
393.658	99.44
393.882	84.44
394.107	88.44
394.331	85.44
394.556	86.44
394.78	77.44
395.005	92.44
395.229	89.44
395.454	83.44
395.678	88.44
395.903	83.44
396.127	80.44
396.352	90.44
396.576	99.44
396.801	90.44
397.025	78.44
397.249	84.44
397.474	91.44
397.698	76.44
397.922	82.44
398.147	83.44
398.371	92.44
398.595	100.44
398.82	90.44
399.044	91.44
399.268	79.44
399.492	83.44
399.717	80.44
399.941	83.44
400.165	96.44
400.389	80.44
400.613	97.44
400.837	86.44
401.062	95.44
401.286	97.44
401.51	99.44
401.734	87.44
401.958	88.44
402.182	80.44
402.406	87.44
402.63	96.44
402.854	83.44
403.078	93.44
403.302	93.44
403.526	95.44
403.75	79.44
403.974	87.44
404.198	74.44
404.422	94.44
404.645	99.44
404.869	89.44
405.093	82.44
405.317	81.44
405.541	82.44
405.765	75.44
405.988	84.44
406.212	76.44
406.436	85.44
406.66	94.44
406.883	81.44
407.107	96.44
407.331	78.44
407.555	84.44
407.778	94.44
408.002	86.44
408.226	83.44
408.449	92.44
408.673	92.44
408.896	81.44
409.12	80.44
409.344	74.44
409.567	86.44
409.791	81.44
410.014	93.44
410.238	81.44
410.461	76.44
410.685	80.44
410.908	86.44
411.132	84.44
411.355	83.44
411.578	84.44
411.802	103.44
412.025	98.44
412.249	79.44
412.472	83.44
412.695	80.44
412.919	87.44
413.142	92.44
413.365	91.44
413.589	92.44
413.812	92.44
414.035	88.44
414.258	86.44
414.482	99.44
414.705	85.44
414.928	100.44
415.151	96.44
415.374	95.44
415.597	78.44
415.821	86.44
416.044	83.44
416.267	79.44
416.49	91.44
416.713	100.44
416.936	96.44
417.159	97.44
417.382	85.44
417.605	85.44
417.828	85.44
418.051	95.44
418.274	68.44
418.497	90.44
418.72	87.44
418.943	95.44
419.166	93.44
419.389	87.44
419.611	76.44
419.834	77.44
420.057	79.44
420.28	89.44
420.503	98.44
420.726	93.44
420.948	95.44
421.171	98.44
421.394	84.44
421.617	76.44
421.839	101.44
422.062	87.44
422.285	85.44
422.507	103.44
422.73	83.44
422.953	93.44
423.175	98.44
423.398	92.44
423.621	88.44
423.843	91.44
424.066	87.44
424.288	92.44
424.511	85.44
424.733	97.44
424.956	90.44
425.178	111.44
425.401	98.44
425.623	86.44
425.846	83.44
426.068	90.44
426.291	100.44
426.513	96.44
426.735	79.44
426.958	101.44
427.18	104.44
427.402	99.44
427.625	95.44
427.847	94.44
428.069	83.44
428.292	81.44
428.514	79.44
428.736	92.44
428.958	102.44
429.181	79.44
429.403	96.44
429.625	97.44
429.847	100.44
430.069	100.44
430.292	91.44
430.514	91.44
430.736	80.44
430.958	87.44
431.18	89.44
431.402	82.44
431.624	84.44
431.846	93.44
432.068	83.44
432.29	80.44
432.512	97.44
432.734	80.44
432.956	107.44
433.178	101.44
433.4	85.44
433.622	103.44
433.844	81.44
434.066	100.44
434.287	80.44
434.509	83.44
434.731	80.44
434.953	98.44
435.175	85.44
435.397	94.44
435.618	77.44
435.84	95.44
436.062	96.44
436.284	87.44
436.505	94.44
436.727	89.44
436.949	95.44
437.17	101.44
437.392	89.44
437.614	76.44
437.835	86.44
438.057	82.44
438.278	83.44
438.5	89.44
438.721	89.44
438.943	88.44
439.165	87.44
439.386	95.44
439.608	94.44
439.829	93.44
440.05	102.44
440.272	87.44
440.493	89.44
440.715	98.44
440.936	92.44
441.158	103.44
441.379	85.44
441.6	87.44
441.822	79.44
442.043	106.44
442.264	86.44
442.486	102.44
442.707	93.44
442.928	99.44
443.149	96.44
443.371	111.44
443.592	89.44
443.813	93.44
444.034	84.44
444.255	90.44
444.476	80.44
444.698	104.44
444.919	92.44
445.14	194.44
445.361	134.44
445.582	91.44
445.803	100.44
446.024	87.44
446.245	94.44
446.466	99.44
446.687	99.44
446.908	93.44
447.129	90.44
447.35	92.44
447.571	91.44
447.792	94.44
448.013	84.44
448.234	87.44
448.455	107.44
448.675	84.44
448.896	98.44
449.117	90.44
449.338	93.44
449.559	97.44
449.779	84.44
450	75.44
450.221	96.44
450.442	98.44
450.662	100.44
450.883	78.44
451.104	108.44
451.324	96.44
451.545	89.44
451.766	78.44
451.986	95.44
452.207	93.44
452.428	99.44
452.648	90.44
452.869	87.44
453.089	83.44
453.31	93.44
453.53	92.44
453.751	86.44
453.971	89.44
454.192	88.44
454.412	98.44
454.633	78.44
454.853	71.44
455.073	93.44
455.294	91.44
455.514	86.44
455.734	100.44
455.955	90.44
456.175	92.44
456.395	91.44
456.616	89.44
456.836	81.44
457.056	83.44
457.276	96.44
457.497	67.44
457.717	95.44
457.937	87.44
458.157	68.44
458.377	92.44
458.598	79.44
458.818	85.44
459.038	90.44
459.258	72.44
459.478	73.44
459.698	72.44
459.918	109.44
460.138	85.44
460.358	89.44
460.578	88.44
460.798	79.44
461.018	96.44
461.238	98.44
461.458	94.44
461.678	82.44
461.898	74.44
462.118	96.44
462.338	102.44
462.558	91.44
462.777	88.44
462.997	80.44
463.217	89.44
463.437	75.44
463.657	95.44
463.876	103.44
464.096	87.44
464.316	92.44
464.536	86.44
464.755	99.44
464.975	76.44
465.195	99.44
465.414	91.44
465.634	80.44
465.854	80.44
466.073	86.44
466.293	90.44
466.512	104.44
466.732	87.44
466.951	91.44
467.171	87.44
467.391	100.44
467.61	88.44
467.829	93.44
468.049	80.44
468.268	86.44
468.488	87.44
468.707	98.44
468.927	90.44
469.146	91.44
469.365	102.44
469.585	81.44
469.804	82.44
470.023	98.44
470.243	92.44
470.462	98.44
470.681	85.44
470.901	79.44
471.12	93.44
471.339	98.44
471.558	84.44
471.777	105.44
471.997	91.44
472.216	101.44
472.435	91.44
472.654	89.44
472.873	91.44
473.092	93.44
473.311	83.44
473.53	90.44
473.749	73.44
473.968	96.44
474.187	90.44
474.406	96.44
474.625	88.44
474.844	76.44
475.063	83.44
475.282	82.44
475.501	107.44
475.72	92.44
475.939	84.44
476.158	95.44
476.377	93.44
476.596	93.44
476.814	83.44
477.033	91.44
477.252	85.44
477.471	91.44
477.69	95.44
477.908	86.44
478.127	91.44
478.346	96.44
478.564	81.44
478.783	93.44
479.002	100.44
479.22	90.44
479.439	95.44
479.658	91.44
479.876	93.44
480.095	91.44
480.313	95.44
480.532	80.44
480.751	75.44
480.969	97.44
481.188	88.44
481.406	85.44
481.624	76.44
481.843	95.44
482.061	97.44
482.28	97.44
482.498	78.44
482.717	68.44
482.935	72.44
483.153	105.44
483.372	101.44
483.59	90.44
483.808	83.44
484.027	85.44
484.245	93.44
484.463	78.44
484.681	105.44
484.9	105.44
485.118	98.44
485.336	96.44
485.554	105.44
485.772	96.44
485.99	81.44
486.209	86.44
486.427	83.44
486.645	74.44
486.863	91.44
487.081	76.44
487.299	90.44
487.517	94.44
487.735	96.44
487.953	106.44
488.171	83.44
488.389	104.44
488.607	106.44
488.825	74.44
489.043	91.44
489.261	96.44
489.479	90.44
489.696	102.44
489.914	95.44
490.132	99.44
490.35	101.44
490.568	79.44
490.786	108.44
491.003	99.44
491.221	115.44
491.439	119.44
491.657	101.44
491.874	108.44
492.092	112.44
492.31	108.44
492.527	104.44
492.745	109.44
492.963	89.44
493.18	107.44
493.398	93.44
493.615	100.44
493.833	100.44
494.05	95.44
494.268	109.44
494.485	97.44
494.703	104.44
494.92	96.44
495.138	116.44
495.355	112.44
495.573	101.44
495.79	101.44
496.008	93.44
496.225	95.44
496.442	95.44
496.66	101.44
496.877	88.44
497.094	101.44
497.312	96.44
497.529	84.44
497.746	98.44
497.963	87.44
498.181	85.44
498.398	86.44
498.615	86.44
498.832	80.44
499.049	93.44
499.267	94.44
499.484	92.44
499.701	93.44
499.918	95.44
500.135	85.44
500.352	104.44
500.569	110.44
500.786	95.44
501.003	94.44
501.22	96.44
501.437	73.44
501.654	117.44
501.871	85.44
502.088	101.44
502.305	99.44
502.522	91.44
502.739	96.44
502.956	95.44
503.172	86.44
503.389	91.44
503.606	73.44
503.823	71.44
504.04	90.44
504.256	96.44
504.473	92.44
504.69	87.44
504.907	94.44
505.123	80.44
505.34	88.44
505.557	101.44
505.773	102.44
505.99	83.44
506.207	94.44
506.423	91.44
506.64	87.44
506.856	89.44
507.073	87.44
507.289	106.44
507.506	91.44
507.722	84.44
507.939	89.44
508.155	88.44
508.372	85.44
508.588	96.44
508.805	81.44
509.021	95.44
509.238	90.44
509.454	79.44
509.67	85.44
509.887	80.44
510.103	95.44
510.319	93.44
510.536	87.44
510.752	77.44
510.968	79.44
511.184	74.44
511.401	74.44
511.617	64.44
511.833	87.44
512.049	87.44
512.265	84.44
512.481	80.44
512.698	80.44
512.914	92.44
513.13	93.44
513.346	79.44
513.562	101.44
513.778	84.44
513.994	89.44
514.21	74.44
514.426	87.44
514.642	93.44
514.858	85.44
515.074	94.44
515.29	68.44
515.506	80.44
515.721	85.44
515.937	82.44
516.153	81.44
516.369	87.44
516.585	88.44
516.801	84.44
517.016	78.44
517.232	79.44
517.448	79.44
517.664	77.44
517.879	74.44
518.095	87.44
518.311	77.44
518.527	88.44
518.742	97.44
518.958	76.44
519.173	96.44
519.389	92.44
519.605	91.44
519.82	87.44
520.036	86.44
520.251	86.44
520.467	85.44
520.682	93.44
520.898	97.44
521.113	87.44
521.329	86.44
521.544	86.44
521.76	81.44
521.975	90.44
522.19	84.44
522.406	84.44
522.621	85.44
522.836	99.44
523.052	77.44
523.267	90.44
523.482	91.44
523.698	94.44
523.913	103.44
524.128	101.44
524.343	101.44
524.559	94.44
524.774	95.44
524.989	94.44
525.204	83.44
525.419	91.44
525.634	80.44
525.849	78.44
526.064	97.44
526.28	84.44
526.495	94.44
526.71	94.44
526.925	98.44
527.14	87.44
527.355	81.44
527.57	83.44
527.785	93.44
527.999	97.44
528.214	101.44
528.429	83.44
528.644	95.44
528.859	102.44
529.074	89.44
529.289	91.44
529.503	104.44
529.718	87.44
529.933	91.44
530.148	96.44
530.363	88.44
530.577	80.44
530.792	92.44
531.007	74.44
531.221	79.44
531.436	78.44
531.651	77.44
531.865	89.44
532.08	90.44
532.295	79.44
532.509	88.44
532.724	76.44
532.938	82.44
533.153	87.44
533.367	85.44
533.582	80.44
533.796	90.44
534.011	93.44
534.225	88.44
534.44	82.44
534.654	84.44
534.868	91.44
535.083	92.44
535.297	92.44
535.511	93.44
535.726	105.44
535.94	89.44
536.154	80.44
536.369	85.44
536.583	76.44
536.797	98.44
537.011	80.44
537.225	86.44
537.44	86.44
537.654	88.44
537.868	87.44
538.082	96.44
538.296	92.44
538.51	83.44
538.724	87.44
538.938	108.44
539.153	86.44
539.367	90.44
539.581	79.44
539.795	109.44
540.009	89.44
540.222	104.44
540.436	87.44
540.65	100.44
540.864	92.44
541.078	95.44
541.292	91.44
541.506	107.44
541.72	105.44
541.934	87.44
542.147	102.44
542.361	103.44
542.575	104.44
542.789	88.44
543.002	84.44
543.216	97.44
543.43	79.44
543.644	105.44
543.857	92.44
544.071	98.44
544.285	113.44
544.498	102.44
544.712	101.44
544.925	107.44
545.139	96.44
545.352	94.44
545.566	107.44
545.779	92.44
545.993	97.44
546.206	98.44
546.42	95.44
546.633	104.44
546.847	102.44
547.06	106.44
547.274	104.44
547.487	96.44
547.7	115.44
547.914	108.44
548.127	101.44
548.34	104.44
548.554	104.44
548.767	89.44
548.98	85.44
549.193	94.44
549.407	106.44
549.62	93.44
549.833	78.44
550.046	99.44
550.259	129.44
550.473	106.44
550.686	109.44
550.899	104.44
551.112	108.44
551.325	90.44
551.538	92.44
551.751	89.44
551.964	90.44
552.177	88.44
552.39	88.44
552.603	96.44
552.816	99.44
553.029	105.44
553.242	107.44
553.455	101.44
553.667	96.44
553.88	107.44
554.093	91.44
554.306	115.44
554.519	107.44
554.732	104.44
554.944	101.44
555.157	105.44
555.37	95.44
555.583	102.44
555.795	95.44
556.008	105.44
556.221	104.44
556.433	94.44
556.646	105.44
556.859	87.44
557.071	94.44
557.284	99.44
557.496	86.44
557.709	93.44
557.921	94.44
558.134	92.44
558.346	101.44
558.559	101.44
558.771	91.44
558.984	95.44
559.196	96.44
559.409	79.44
559.621	96.44
559.833	91.44
560.046	78.44
560.258	92.44
560.47	98.44
560.683	81.44
560.895	86.44
561.107	92.44
561.32	93.44
561.532	96.44
561.744	93.44
561.956	85.44
562.168	92.44
562.381	99.44
562.593	75.44
562.805	90.44
563.017	95.44
563.229	87.44
563.441	101.44
563.653	82.44
563.865	84.44
564.077	104.44
564.289	103.44
564.501	93.44
564.713	83.44
564.925	88.44
565.137	80.44
565.349	99.44
565.561	99.44
565.773	93.44
565.985	82.44
566.197	99.44
566.408	89.44
566.62	90.44
566.832	101.44
567.044	96.44
567.255	85.44
567.467	83.44
567.679	89.44
567.891	82.44
568.102	78.44
568.314	89.44
568.526	81.44
568.737	85.44
568.949	102.44
569.161	74.44
569.372	83.44
569.584	99.44
569.795	83.44
570.007	109.44
570.218	76.44
570.43	86.44
570.641	84.44
570.853	82.44
571.064	97.44
571.276	87.44
571.487	87.44
571.698	90.44
571.91	86.44
572.121	89.44
572.333	87.44
572.544	109.44
572.755	87.44
572.966	85.44
573.178	94.44
573.389	99.44
573.6	95.44
573.811	88.44
574.023	90.44
574.234	100.44
574.445	87.44
574.656	98.44
574.867	82.44
575.078	71.44
575.289	76.44
575.501	98.44
575.712	92.44
575.923	92.44
576.134	87.44
576.345	78.44
576.556	76.44
576.767	84.44
576.978	98.44
577.188	84.44
577.399	92.44
577.61	77.44
577.821	88.44
578.032	92.44
578.243	81.44
578.454	93.44
578.665	98.44
578.875	92.44
579.086	85.44
579.297	91.44
579.508	92.44
579.718	84.44
579.929	89.44
580.14	86.44
580.35	102.44
580.561	93.44
580.772	91.44
580.982	86.44
581.193	88.44
581.403	90.44
581.614	86.44
581.825	90.44
582.035	82.44
582.246	98.44
582.456	88.44
582.667	94.44
582.877	90.44
583.087	102.44
583.298	87.44
583.508	87.44
583.719	85.44
583.929	85.44
584.139	88.44
584.35	105.44
584.56	101.44
584.77	94.44
584.981	86.44
585.191	86.44
585.401	79.44
585.611	77.44
585.821	80.44
586.032	92.44
586.242	88.44
586.452	85.44
586.662	86.44
586.872	84.44
587.082	73.44
587.292	83.44
587.502	82.44
587.713	91.44
587.923	98.44
588.133	78.44
588.343	81.44
588.553	84.44
588.762	88.44
588.972	93.44
589.182	100.44
589.392	79.44
589.602	90.44
589.812	99.44
590.022	77.44
590.232	78.44
590.441	78.44
590.651	91.44
590.861	80.44
591.071	87.44
591.281	95.44
591.49	101.44
591.7	87.44
591.91	82.44
592.119	101.44
592.329	114.44
592.539	94.44
592.748	92.44
592.958	83.44
593.167	78.44
593.377	92.44
593.587	95.44
593.796	84.44
594.006	91.44
594.215	99.44
594.424	102.44
594.634	102.44
594.843	85.44
595.053	83.44
595.262	93.44
595.472	91.44
595.681	97.44
595.89	90.44
596.1	101.44
596.309	91.44
596.518	82.44
596.727	87.44
596.937	76.44
597.146	99.44
597.355	95.44
597.564	80.44
597.774	84.44
597.983	81.44
598.192	94.44
598.401	87.44
598.61	93.44
598.819	79.44
599.028	92.44
599.237	84.44
599.446	78.44
599.655	93.44
599.864	79.44
600.073	93.44
600.282	89.44
600.491	107.44
600.7	88.44
600.909	80.44
601.118	95.44
601.327	94.44
601.536	85.44
601.745	94.44
601.953	101.44
602.162	96.44
602.371	98.44
602.58	101.44
602.789	80.44
602.997	93.44
603.206	85.44
603.415	92.44
603.623	94.44
603.832	87.44
604.041	90.44
604.249	81.44
604.458	86.44
604.666	87.44
604.875	92.44
605.084	85.44
605.292	74.44
605.501	95.44
605.709	88.44
605.918	78.44
606.126	92.44
606.334	77.44
606.543	87.44
606.751	92.44
606.96	94.44
607.168	92.44
607.376	100.44
607.585	82.44
607.793	98.44
608.001	95.44
608.21	101.44
608.418	80.44
608.626	93.44
608.834	86.44
609.043	83.44
609.251	98.44
609.459	77.44
609.667	92.44
609.875	106.44
610.083	93.44
610.291	86.44
610.499	92.44
610.707	88.44
610.916	95.44
611.124	97.44
611.332	93.44
611.54	88.44
611.748	108.44
611.955	106.44
612.163	103.44
612.371	101.44
612.579	93.44
612.787	91.44
612.995	103.44
613.203	92.44
613.411	93.44
613.618	79.44
613.826	98.44
614.034	82.44
614.242	86.44
614.449	95.44
614.657	95.44
614.865	92.44
615.072	93.44
615.28	65.44
615.488	83.44
615.695	101.44
615.903	89.44
616.111	103.44
616.318	95.44
616.526	106.44
616.733	95.44
616.941	95.44
617.148	101.44
617.356	103.44
617.563	86.44
617.771	91.44
617.978	91.44
618.185	91.44
618.393	101.44
618.6	95.44
618.807	82.44
619.015	82.44
619.222	96.44
619.429	96.44
619.637	94.44
619.844	84.44
620.051	90.44
620.258	91.44
620.466	97.44
620.673	89.44
620.88	85.44
621.087	78.44
621.294	101.44
621.501	96.44
621.708	92.44
621.915	99.44
622.122	89.44
622.329	101.44
622.536	90.44
622.743	92.44
622.95	82.44
623.157	100.44
623.364	89.44
623.571	88.44
623.778	89.44
623.985	85.44
624.192	95.44
624.399	95.44
624.606	85.44
624.812	78.44
625.019	82.44
625.226	89.44
625.433	94.44
625.639	88.44
625.846	79.44
626.053	85.44
626.259	97.44
626.466	90.44
626.673	86.44
626.879	82.44
627.086	92.44
627.293	80.44
627.499	79.44
627.706	96.44
627.912	83.44
628.119	84.44
628.325	102.44
628.532	94.44
628.738	81.44
628.945	104.44
629.151	79.44
629.357	92.44
629.564	94.44
629.77	100.44
629.976	103.44
630.183	78.44
630.389	96.44
630.595	97.44
630.802	89.44
631.008	89.44
631.214	94.44
631.42	84.44
631.627	84.44
631.833	95.44
632.039	90.44
632.245	86.44
632.451	96.44
632.657	82.44
632.863	79.44
633.069	93.44
633.275	88.44
633.481	81.44
633.688	92.44
633.893	84.44
634.099	93.44
634.305	92.44
634.511	98.44
634.717	101.44
634.923	100.44
635.129	91.44
635.335	74.44
635.541	90.44
635.747	75.44
635.952	93.44
636.158	87.44
636.364	95.44
636.57	85.44
636.775	91.44
636.981	81.44
637.187	88.44
637.392	84.44
637.598	75.44
637.804	87.44
638.009	82.44
638.215	89.44
638.421	93.44
638.626	77.44
638.832	93.44
639.037	90.44
639.243	81.44
639.448	91.44
639.654	92.44
639.859	86.44
640.065	75.44
640.27	95.44
640.475	80.44
640.681	83.44
640.886	93.44
641.091	88.44
641.297	81.44
641.502	74.44
641.707	75.44
641.913	99.44
642.118	99.44
642.323	91.44
642.528	93.44
642.733	78.44
642.939	86.44
643.144	84.44
643.349	84.44
643.554	91.44
643.759	96.44
643.964	103.44
644.169	88.44
644.374	86.44
644.579	69.44
644.784	93.44
644.989	108.44
645.194	75.44
645.399	83.44
645.604	84.44
645.809	94.44
646.014	89.44
646.219	83.44
646.423	80.44
646.628	84.44
646.833	92.44
647.038	89.44
647.243	101.44
647.447	92.44
647.652	75.44
647.857	96.44
648.062	80.44
648.266	96.44
648.471	91.44
648.676	99.44
648.88	83.44
649.085	83.44
649.289	88.44
649.494	85.44
649.698	79.44
649.903	89.44
650.107	90.44
650.312	84.44
650.516	84.44
650.721	98.44
650.925	98.44
651.13	94.44
651.334	83.44
651.539	86.44
651.743	74.44
651.947	72.44
652.152	76.44
652.356	89.44
652.56	79.44
652.764	91.44
652.969	84.44
653.173	82.44
653.377	83.44
653.581	87.44
653.785	93.44
653.99	88.44
654.194	101.44
654.398	92.44
654.602	87.44
654.806	76.44
655.01	88.44
655.214	86.44
655.418	83.44
655.622	86.44
655.826	74.44
656.03	79.44
656.234	97.44
656.438	100.44
656.642	87.44
656.846	72.44
657.049	83.44
657.253	87.44
657.457	98.44
657.661	98.44
657.865	81.44
658.068	96.44
658.272	95.44
658.476	94.44
658.68	91.44
658.883	99.44
659.087	90.44
659.291	74.44
659.494	78.44
659.698	88.44
659.901	79.44
660.105	82.44
660.309	77.44
660.512	78.44
660.716	83.44
660.919	78.44
661.123	90.44
661.326	85.44
661.53	87.44
661.733	82.44
661.936	80.44
662.14	84.44
662.343	80.44
662.546	75.44
662.75	78.44
662.953	92.44
663.156	80.44
663.36	79.44
663.563	79.44
663.766	87.44
663.969	90.44
664.173	102.44
664.376	70.44
664.579	97.44
664.782	80.44
664.985	88.44
665.188	87.44
665.391	81.44
665.594	75.44
665.797	82.44
666	81.44
666.203	85.44
666.406	73.44
666.609	70.44
666.812	72.44
667.015	81.44
667.218	89.44
667.421	86.44
667.624	78.44
667.827	96.44
668.03	64.44
668.232	101.44
668.435	86.44
668.638	85.44
668.841	106.44
669.043	93.44
669.246	96.44
669.449	95.44
669.651	75.44
669.854	80.44
670.057	81.44
670.259	98.44
670.462	94.44
670.665	76.44
670.867	94.44
671.07	71.44
671.272	88.44
671.475	90.44
671.677	88.44
671.88	91.44
672.082	83.44
672.284	88.44
672.487	89.44
672.689	86.44
672.892	89.44
