Data from Zn(NO3)2Standard.Agarose3%.GreenCap.LampEnergy10E.O_HRD10591_15-06-58-942.txt Node
Date: Mon Jul 22 15:06:58 EDT 2019
User: cochatt
Spectrometer: HR+D1059
Trigger mode: 1
Integration Time (sec): 1.000000E-1
Scans to average: 1
Electric dark correction enabled: true
Nonlinearity correction enabled: false
Boxcar width: 0
XAxis mode: Wavelengths
Number of Pixels in Spectrum: 2048
>>>>>Begin Spectral Data<<<<<
223.165	-11.06
223.4	-11.06
223.635	-11.06
223.869	-14.06
224.104	-17.06
224.338	-24.06
224.573	-6.06
224.808	-24.06
225.042	-15.06
225.277	-24.06
225.511	-0.06
225.746	8.94
225.98	8.94
226.215	19.94
226.449	18.94
226.683	17.94
226.918	29.94
227.152	30.94
227.387	25.94
227.621	27.94
227.856	36.94
228.09	47.94
228.324	61.94
228.559	42.94
228.793	63.94
229.027	63.94
229.262	68.94
229.496	56.94
229.73	73.94
229.964	67.94
230.199	75.94
230.433	82.94
230.667	81.94
230.901	77.94
231.136	90.94
231.37	71.94
231.604	78.94
231.838	80.94
232.072	84.94
232.306	85.94
232.541	73.94
232.775	71.94
233.009	74.94
233.243	70.94
233.477	78.94
233.711	89.94
233.945	74.94
234.179	92.94
234.413	88.94
234.647	77.94
234.881	75.94
235.115	87.94
235.349	68.94
235.583	85.94
235.817	86.94
236.051	74.94
236.285	77.94
236.519	87.94
236.753	78.94
236.987	84.94
237.221	82.94
237.455	90.94
237.689	78.94
237.922	77.94
238.156	68.94
238.39	80.94
238.624	64.94
238.858	67.94
239.091	66.94
239.325	67.94
239.559	72.94
239.793	82.94
240.027	64.94
240.26	79.94
240.494	76.94
240.728	54.94
240.961	81.94
241.195	90.94
241.429	88.94
241.662	92.94
241.896	81.94
242.13	85.94
242.363	68.94
242.597	77.94
242.83	85.94
243.064	76.94
243.298	82.94
243.531	70.94
243.765	76.94
243.998	77.94
244.232	74.94
244.465	62.94
244.699	86.94
244.932	87.94
245.166	66.94
245.399	84.94
245.633	83.94
245.866	61.94
246.099	89.94
246.333	88.94
246.566	77.94
246.8	71.94
247.033	76.94
247.266	91.94
247.5	80.94
247.733	94.94
247.966	87.94
248.2	85.94
248.433	76.94
248.666	71.94
248.899	76.94
249.133	73.94
249.366	79.94
249.599	71.94
249.832	87.94
250.066	90.94
250.299	71.94
250.532	88.94
250.765	69.94
250.998	79.94
251.231	79.94
251.465	85.94
251.698	72.94
251.931	90.94
252.164	84.94
252.397	67.94
252.63	65.94
252.863	76.94
253.096	76.94
253.329	73.94
253.562	80.94
253.795	86.94
254.028	75.94
254.261	81.94
254.494	75.94
254.727	84.94
254.96	79.94
255.193	77.94
255.426	84.94
255.659	88.94
255.892	91.94
256.124	78.94
256.357	84.94
256.59	85.94
256.823	87.94
257.056	66.94
257.289	83.94
257.521	94.94
257.754	76.94
257.987	89.94
258.22	89.94
258.452	75.94
258.685	86.94
258.918	94.94
259.151	80.94
259.383	96.94
259.616	90.94
259.849	89.94
260.081	91.94
260.314	91.94
260.547	91.94
260.779	86.94
261.012	72.94
261.244	70.94
261.477	89.94
261.71	98.94
261.942	78.94
262.175	86.94
262.407	95.94
262.64	86.94
262.872	90.94
263.105	74.94
263.337	78.94
263.57	92.94
263.802	86.94
264.035	90.94
264.267	94.94
264.499	85.94
264.732	74.94
264.964	74.94
265.197	85.94
265.429	79.94
265.661	86.94
265.894	89.94
266.126	93.94
266.358	88.94
266.591	90.94
266.823	82.94
267.055	78.94
267.287	87.94
267.52	90.94
267.752	88.94
267.984	80.94
268.216	87.94
268.448	86.94
268.681	88.94
268.913	79.94
269.145	79.94
269.377	79.94
269.609	69.94
269.841	81.94
270.073	83.94
270.306	91.94
270.538	94.94
270.77	91.94
271.002	88.94
271.234	82.94
271.466	91.94
271.698	79.94
271.93	95.94
272.162	91.94
272.394	95.94
272.626	83.94
272.858	98.94
273.09	85.94
273.322	79.94
273.553	87.94
273.785	97.94
274.017	93.94
274.249	93.94
274.481	84.94
274.713	86.94
274.945	85.94
275.176	84.94
275.408	74.94
275.64	84.94
275.872	87.94
276.104	91.94
276.335	90.94
276.567	73.94
276.799	84.94
277.031	79.94
277.262	91.94
277.494	92.94
277.726	72.94
277.957	97.94
278.189	82.94
278.421	90.94
278.652	77.94
278.884	77.94
279.115	82.94
279.347	85.94
279.579	79.94
279.81	92.94
280.042	94.94
280.273	78.94
280.505	78.94
280.736	96.94
280.968	84.94
281.199	91.94
281.431	86.94
281.662	86.94
281.894	94.94
282.125	81.94
282.356	88.94
282.588	86.94
282.819	97.94
283.051	87.94
283.282	85.94
283.513	82.94
283.745	107.94
283.976	86.94
284.207	86.94
284.439	102.94
284.67	88.94
284.901	92.94
285.132	92.94
285.364	83.94
285.595	85.94
285.826	88.94
286.057	90.94
286.288	87.94
286.52	100.94
286.751	84.94
286.982	87.94
287.213	81.94
287.444	86.94
287.675	95.94
287.906	74.94
288.138	85.94
288.369	99.94
288.6	97.94
288.831	83.94
289.062	98.94
289.293	77.94
289.524	82.94
289.755	93.94
289.986	84.94
290.217	68.94
290.448	78.94
290.679	94.94
290.91	78.94
291.141	80.94
291.371	94.94
291.602	81.94
291.833	93.94
292.064	78.94
292.295	86.94
292.526	95.94
292.757	105.94
292.987	96.94
293.218	86.94
293.449	84.94
293.68	87.94
293.91	94.94
294.141	78.94
294.372	82.94
294.603	79.94
294.833	88.94
295.064	85.94
295.295	91.94
295.525	83.94
295.756	85.94
295.987	81.94
296.217	76.94
296.448	76.94
296.679	84.94
296.909	98.94
297.14	68.94
297.37	85.94
297.601	85.94
297.831	91.94
298.062	86.94
298.292	92.94
298.523	93.94
298.753	80.94
298.984	82.94
299.214	78.94
299.445	88.94
299.675	83.94
299.905	90.94
300.136	78.94
300.366	80.94
300.597	82.94
300.827	79.94
301.057	88.94
301.288	66.94
301.518	90.94
301.748	78.94
301.979	92.94
302.209	87.94
302.439	74.94
302.669	97.94
302.9	88.94
303.13	97.94
303.36	94.94
303.59	83.94
303.82	81.94
304.051	93.94
304.281	93.94
304.511	80.94
304.741	90.94
304.971	90.94
305.201	76.94
305.431	93.94
305.661	94.94
305.891	86.94
306.121	76.94
306.352	90.94
306.582	84.94
306.812	84.94
307.042	95.94
307.272	102.94
307.502	106.94
307.731	86.94
307.961	93.94
308.191	105.94
308.421	98.94
308.651	85.94
308.881	76.94
309.111	89.94
309.341	80.94
309.571	94.94
309.8	84.94
310.03	90.94
310.26	78.94
310.49	98.94
310.72	75.94
310.949	90.94
311.179	91.94
311.409	87.94
311.639	98.94
311.868	84.94
312.098	94.94
312.328	85.94
312.557	83.94
312.787	88.94
313.017	87.94
313.246	75.94
313.476	82.94
313.706	73.94
313.935	89.94
314.165	81.94
314.394	82.94
314.624	89.94
314.853	81.94
315.083	68.94
315.312	96.94
315.542	79.94
315.771	78.94
316.001	91.94
316.23	86.94
316.46	90.94
316.689	78.94
316.919	95.94
317.148	85.94
317.377	94.94
317.607	87.94
317.836	91.94
318.065	96.94
318.295	88.94
318.524	82.94
318.753	93.94
318.983	80.94
319.212	94.94
319.441	90.94
319.67	82.94
319.9	94.94
320.129	91.94
320.358	82.94
320.587	72.94
320.816	76.94
321.046	86.94
321.275	87.94
321.504	86.94
321.733	92.94
321.962	94.94
322.191	91.94
322.42	82.94
322.649	97.94
322.878	86.94
323.108	89.94
323.337	90.94
323.566	84.94
323.795	81.94
324.024	85.94
324.253	74.94
324.482	96.94
324.71	68.94
324.939	79.94
325.168	93.94
325.397	80.94
325.626	78.94
325.855	85.94
326.084	72.94
326.313	70.94
326.542	76.94
326.77	91.94
326.999	85.94
327.228	90.94
327.457	85.94
327.686	79.94
327.914	96.94
328.143	79.94
328.372	74.94
328.6	79.94
328.829	96.94
329.058	94.94
329.287	79.94
329.515	69.94
329.744	92.94
329.972	80.94
330.201	101.94
330.43	78.94
330.658	86.94
330.887	87.94
331.115	86.94
331.344	84.94
331.572	88.94
331.801	80.94
332.03	91.94
332.258	77.94
332.486	79.94
332.715	78.94
332.943	78.94
333.172	76.94
333.4	87.94
333.629	84.94
333.857	77.94
334.085	76.94
334.314	87.94
334.542	82.94
334.771	93.94
334.999	88.94
335.227	75.94
335.455	86.94
335.684	95.94
335.912	90.94
336.14	92.94
336.369	80.94
336.597	80.94
336.825	80.94
337.053	83.94
337.281	89.94
337.51	79.94
337.738	86.94
337.966	86.94
338.194	78.94
338.422	100.94
338.65	79.94
338.878	81.94
339.106	90.94
339.334	92.94
339.562	85.94
339.79	85.94
340.018	94.94
340.246	93.94
340.474	79.94
340.702	93.94
340.93	82.94
341.158	71.94
341.386	85.94
341.614	74.94
341.842	93.94
342.07	89.94
342.298	98.94
342.526	97.94
342.754	80.94
342.981	78.94
343.209	85.94
343.437	96.94
343.665	101.94
343.893	76.94
344.12	82.94
344.348	87.94
344.576	102.94
344.804	82.94
345.031	95.94
345.259	82.94
345.487	81.94
345.714	75.94
345.942	95.94
346.17	82.94
346.397	88.94
346.625	82.94
346.853	92.94
347.08	72.94
347.308	87.94
347.535	89.94
347.763	86.94
347.99	88.94
348.218	88.94
348.445	83.94
348.673	80.94
348.9	84.94
349.128	86.94
349.355	75.94
349.583	98.94
349.81	100.94
350.037	94.94
350.265	98.94
350.492	76.94
350.72	83.94
350.947	84.94
351.174	90.94
351.402	89.94
351.629	94.94
351.856	86.94
352.083	86.94
352.311	85.94
352.538	83.94
352.765	84.94
352.992	85.94
353.22	74.94
353.447	76.94
353.674	71.94
353.901	111.94
354.128	97.94
354.355	79.94
354.583	85.94
354.81	90.94
355.037	77.94
355.264	78.94
355.491	77.94
355.718	91.94
355.945	90.94
356.172	84.94
356.399	86.94
356.626	79.94
356.853	85.94
357.08	77.94
357.307	86.94
357.534	80.94
357.761	75.94
357.988	98.94
358.215	95.94
358.441	100.94
358.668	86.94
358.895	84.94
359.122	75.94
359.349	82.94
359.576	85.94
359.802	88.94
360.029	78.94
360.256	91.94
360.483	86.94
360.709	84.94
360.936	85.94
361.163	86.94
361.39	79.94
361.616	94.94
361.843	92.94
362.07	80.94
362.296	93.94
362.523	78.94
362.749	91.94
362.976	83.94
363.203	89.94
363.429	80.94
363.656	93.94
363.882	75.94
364.109	85.94
364.335	101.94
364.562	87.94
364.788	79.94
365.015	67.94
365.241	73.94
365.468	74.94
365.694	89.94
365.92	94.94
366.147	85.94
366.373	100.94
366.599	85.94
366.826	96.94
367.052	78.94
367.278	80.94
367.505	83.94
367.731	89.94
367.957	87.94
368.184	88.94
368.41	95.94
368.636	100.94
368.862	95.94
369.089	63.94
369.315	86.94
369.541	101.94
369.767	82.94
369.993	78.94
370.219	71.94
370.445	85.94
370.672	92.94
370.898	82.94
371.124	88.94
371.35	80.94
371.576	86.94
371.802	82.94
372.028	100.94
372.254	98.94
372.48	99.94
372.706	90.94
372.932	84.94
373.158	71.94
373.384	91.94
373.61	89.94
373.835	85.94
374.061	90.94
374.287	83.94
374.513	99.94
374.739	94.94
374.965	79.94
375.191	93.94
375.416	90.94
375.642	72.94
375.868	79.94
376.094	93.94
376.319	90.94
376.545	99.94
376.771	80.94
376.997	91.94
377.222	87.94
377.448	93.94
377.674	98.94
377.899	98.94
378.125	96.94
378.35	92.94
378.576	87.94
378.802	95.94
379.027	96.94
379.253	101.94
379.478	84.94
379.704	106.94
379.929	88.94
380.155	101.94
380.38	97.94
380.606	96.94
380.831	98.94
381.057	77.94
381.282	91.94
381.507	90.94
381.733	102.94
381.958	95.94
382.184	93.94
382.409	84.94
382.634	96.94
382.86	90.94
383.085	89.94
383.31	91.94
383.535	91.94
383.761	106.94
383.986	94.94
384.211	78.94
384.436	87.94
384.662	104.94
384.887	98.94
385.112	92.94
385.337	98.94
385.562	88.94
385.787	101.94
386.013	105.94
386.238	86.94
386.463	90.94
386.688	111.94
386.913	88.94
387.138	81.94
387.363	84.94
387.588	98.94
387.813	92.94
388.038	94.94
388.263	96.94
388.488	90.94
388.713	86.94
388.938	102.94
389.163	86.94
389.387	87.94
389.612	88.94
389.837	96.94
390.062	94.94
390.287	90.94
390.512	104.94
390.736	83.94
390.961	87.94
391.186	102.94
391.411	91.94
391.636	101.94
391.86	90.94
392.085	87.94
392.31	92.94
392.534	108.94
392.759	96.94
392.984	105.94
393.208	88.94
393.433	108.94
393.658	89.94
393.882	83.94
394.107	108.94
394.331	106.94
394.556	87.94
394.78	88.94
395.005	94.94
395.229	96.94
395.454	97.94
395.678	89.94
395.903	88.94
396.127	103.94
396.352	95.94
396.576	103.94
396.801	99.94
397.025	96.94
397.249	83.94
397.474	97.94
397.698	101.94
397.922	108.94
398.147	112.94
398.371	108.94
398.595	102.94
398.82	104.94
399.044	92.94
399.268	88.94
399.492	104.94
399.717	98.94
399.941	89.94
400.165	109.94
400.389	99.94
400.613	105.94
400.837	95.94
401.062	92.94
401.286	94.94
401.51	103.94
401.734	106.94
401.958	101.94
402.182	71.94
402.406	88.94
402.63	103.94
402.854	100.94
403.078	100.94
403.302	84.94
403.526	94.94
403.75	88.94
403.974	96.94
404.198	91.94
404.422	102.94
404.645	101.94
404.869	106.94
405.093	115.94
405.317	101.94
405.541	102.94
405.765	110.94
405.988	100.94
406.212	108.94
406.436	88.94
406.66	90.94
406.883	93.94
407.107	93.94
407.331	100.94
407.555	90.94
407.778	98.94
408.002	97.94
408.226	96.94
408.449	95.94
408.673	120.94
408.896	96.94
409.12	107.94
409.344	111.94
409.567	99.94
409.791	100.94
410.014	102.94
410.238	107.94
410.461	104.94
410.685	96.94
410.908	103.94
411.132	117.94
411.355	105.94
411.578	93.94
411.802	95.94
412.025	91.94
412.249	106.94
412.472	108.94
412.695	104.94
412.919	103.94
413.142	108.94
413.365	109.94
413.589	101.94
413.812	94.94
414.035	101.94
414.258	104.94
414.482	105.94
414.705	92.94
414.928	96.94
415.151	118.94
415.374	116.94
415.597	110.94
415.821	81.94
416.044	102.94
416.267	94.94
416.49	96.94
416.713	110.94
416.936	99.94
417.159	112.94
417.382	98.94
417.605	114.94
417.828	100.94
418.051	102.94
418.274	111.94
418.497	107.94
418.72	109.94
418.943	103.94
419.166	121.94
419.389	114.94
419.611	120.94
419.834	117.94
420.057	104.94
420.28	100.94
420.503	114.94
420.726	111.94
420.948	107.94
421.171	98.94
421.394	113.94
421.617	118.94
421.839	123.94
422.062	109.94
422.285	108.94
422.507	114.94
422.73	110.94
422.953	107.94
423.175	100.94
423.398	102.94
423.621	116.94
423.843	110.94
424.066	114.94
424.288	111.94
424.511	117.94
424.733	100.94
424.956	96.94
425.178	106.94
425.401	94.94
425.623	98.94
425.846	105.94
426.068	93.94
426.291	103.94
426.513	112.94
426.735	105.94
426.958	90.94
427.18	93.94
427.402	117.94
427.625	96.94
427.847	114.94
428.069	114.94
428.292	119.94
428.514	98.94
428.736	116.94
428.958	100.94
429.181	105.94
429.403	119.94
429.625	105.94
429.847	103.94
430.069	92.94
430.292	111.94
430.514	85.94
430.736	114.94
430.958	97.94
431.18	99.94
431.402	106.94
431.624	99.94
431.846	111.94
432.068	87.94
432.29	79.94
432.512	110.94
432.734	89.94
432.956	107.94
433.178	99.94
433.4	126.94
433.622	121.94
433.844	122.94
434.066	99.94
434.287	98.94
434.509	84.94
434.731	96.94
434.953	92.94
435.175	89.94
435.397	101.94
435.618	98.94
435.84	91.94
436.062	87.94
436.284	98.94
436.505	117.94
436.727	107.94
436.949	108.94
437.17	103.94
437.392	96.94
437.614	100.94
437.835	100.94
438.057	107.94
438.278	102.94
438.5	107.94
438.721	124.94
438.943	109.94
439.165	110.94
439.386	121.94
439.608	98.94
439.829	107.94
440.05	124.94
440.272	122.94
440.493	100.94
440.715	107.94
440.936	118.94
441.158	114.94
441.379	111.94
441.6	131.94
441.822	120.94
442.043	118.94
442.264	110.94
442.486	110.94
442.707	111.94
442.928	117.94
443.149	108.94
443.371	106.94
443.592	117.94
443.813	118.94
444.034	108.94
444.255	118.94
444.476	92.94
444.698	108.94
444.919	109.94
445.14	257.94
445.361	166.94
445.582	117.94
445.803	116.94
446.024	122.94
446.245	114.94
446.466	130.94
446.687	114.94
446.908	131.94
447.129	116.94
447.35	114.94
447.571	119.94
447.792	120.94
448.013	118.94
448.234	112.94
448.455	116.94
448.675	102.94
448.896	105.94
449.117	107.94
449.338	108.94
449.559	109.94
449.779	108.94
450	98.94
450.221	105.94
450.442	112.94
450.662	118.94
450.883	106.94
451.104	114.94
451.324	120.94
451.545	112.94
451.766	124.94
451.986	96.94
452.207	99.94
452.428	113.94
452.648	102.94
452.869	107.94
453.089	98.94
453.31	101.94
453.53	98.94
453.751	88.94
453.971	83.94
454.192	84.94
454.412	100.94
454.633	92.94
454.853	99.94
455.073	103.94
455.294	105.94
455.514	94.94
455.734	105.94
455.955	109.94
456.175	97.94
456.395	109.94
456.616	95.94
456.836	116.94
457.056	100.94
457.276	102.94
457.497	95.94
457.717	90.94
457.937	115.94
458.157	100.94
458.377	93.94
458.598	84.94
458.818	89.94
459.038	89.94
459.258	70.94
459.478	93.94
459.698	88.94
459.918	87.94
460.138	90.94
460.358	105.94
460.578	89.94
460.798	97.94
461.018	84.94
461.238	88.94
461.458	104.94
461.678	95.94
461.898	100.94
462.118	98.94
462.338	97.94
462.558	102.94
462.777	96.94
462.997	96.94
463.217	105.94
463.437	108.94
463.657	106.94
463.876	102.94
464.096	103.94
464.316	82.94
464.536	106.94
464.755	110.94
464.975	104.94
465.195	94.94
465.414	108.94
465.634	95.94
465.854	89.94
466.073	94.94
466.293	93.94
466.512	98.94
466.732	100.94
466.951	96.94
467.171	121.94
467.391	99.94
467.61	106.94
467.829	115.94
468.049	104.94
468.268	114.94
468.488	103.94
468.707	116.94
468.927	116.94
469.146	107.94
469.365	113.94
469.585	116.94
469.804	110.94
470.023	100.94
470.243	103.94
470.462	101.94
470.681	124.94
470.901	109.94
471.12	110.94
471.339	110.94
471.558	120.94
471.777	106.94
471.997	107.94
472.216	94.94
472.435	101.94
472.654	96.94
472.873	103.94
473.092	117.94
473.311	103.94
473.53	116.94
473.749	103.94
473.968	97.94
474.187	131.94
474.406	122.94
474.625	96.94
474.844	104.94
475.063	101.94
475.282	109.94
475.501	104.94
475.72	96.94
475.939	104.94
476.158	109.94
476.377	120.94
476.596	116.94
476.814	108.94
477.033	117.94
477.252	106.94
477.471	100.94
477.69	98.94
477.908	110.94
478.127	103.94
478.346	110.94
478.564	101.94
478.783	108.94
479.002	103.94
479.22	106.94
479.439	116.94
479.658	98.94
479.876	93.94
480.095	91.94
480.313	101.94
480.532	105.94
480.751	101.94
480.969	94.94
481.188	73.94
481.406	84.94
481.624	93.94
481.843	94.94
482.061	104.94
482.28	104.94
482.498	115.94
482.717	80.94
482.935	93.94
483.153	113.94
483.372	111.94
483.59	125.94
483.808	100.94
484.027	106.94
484.245	107.94
484.463	114.94
484.681	98.94
484.9	100.94
485.118	112.94
485.336	112.94
485.554	91.94
485.772	98.94
485.99	89.94
486.209	99.94
486.427	124.94
486.645	98.94
486.863	117.94
487.081	114.94
487.299	97.94
487.517	102.94
487.735	122.94
487.953	135.94
488.171	125.94
488.389	132.94
488.607	126.94
488.825	111.94
489.043	119.94
489.261	120.94
489.479	105.94
489.696	114.94
489.914	123.94
490.132	105.94
490.35	127.94
490.568	107.94
490.786	123.94
491.003	137.94
491.221	141.94
491.439	138.94
491.657	137.94
491.874	135.94
492.092	148.94
492.31	164.94
492.527	144.94
492.745	135.94
492.963	153.94
493.18	137.94
493.398	131.94
493.615	131.94
493.833	133.94
494.05	138.94
494.268	133.94
494.485	133.94
494.703	129.94
494.92	120.94
495.138	132.94
495.355	124.94
495.573	135.94
495.79	127.94
496.008	119.94
496.225	132.94
496.442	117.94
496.66	139.94
496.877	127.94
497.094	123.94
497.312	123.94
497.529	118.94
497.746	125.94
497.963	124.94
498.181	100.94
498.398	97.94
498.615	96.94
498.832	112.94
499.049	91.94
499.267	98.94
499.484	116.94
499.701	115.94
499.918	114.94
500.135	120.94
500.352	124.94
500.569	106.94
500.786	105.94
501.003	103.94
501.22	123.94
501.437	114.94
501.654	109.94
501.871	112.94
502.088	110.94
502.305	122.94
502.522	117.94
502.739	116.94
502.956	118.94
503.172	104.94
503.389	102.94
503.606	104.94
503.823	100.94
504.04	114.94
504.256	111.94
504.473	102.94
504.69	112.94
504.907	104.94
505.123	91.94
505.34	85.94
505.557	107.94
505.773	96.94
505.99	112.94
506.207	117.94
506.423	109.94
506.64	93.94
506.856	118.94
507.073	99.94
507.289	103.94
507.506	101.94
507.722	107.94
507.939	103.94
508.155	94.94
508.372	93.94
508.588	92.94
508.805	109.94
509.021	94.94
509.238	100.94
509.454	91.94
509.67	97.94
509.887	90.94
510.103	100.94
510.319	90.94
510.536	99.94
510.752	88.94
510.968	84.94
511.184	79.94
511.401	87.94
511.617	104.94
511.833	85.94
512.049	98.94
512.265	87.94
512.481	94.94
512.698	91.94
512.914	82.94
513.13	104.94
513.346	85.94
513.562	89.94
513.778	100.94
513.994	91.94
514.21	99.94
514.426	92.94
514.642	80.94
514.858	84.94
515.074	81.94
515.29	79.94
515.506	99.94
515.721	87.94
515.937	86.94
516.153	99.94
516.369	80.94
516.585	81.94
516.801	79.94
517.016	93.94
517.232	95.94
517.448	101.94
517.664	100.94
517.879	110.94
518.095	66.94
518.311	86.94
518.527	93.94
518.742	92.94
518.958	98.94
519.173	88.94
519.389	91.94
519.605	93.94
519.82	102.94
520.036	98.94
520.251	92.94
520.467	102.94
520.682	99.94
520.898	109.94
521.113	80.94
521.329	81.94
521.544	98.94
521.76	99.94
521.975	75.94
522.19	86.94
522.406	93.94
522.621	91.94
522.836	110.94
523.052	84.94
523.267	96.94
523.482	95.94
523.698	105.94
523.913	105.94
524.128	103.94
524.343	96.94
524.559	104.94
524.774	104.94
524.989	105.94
525.204	119.94
525.419	111.94
525.634	103.94
525.849	99.94
526.064	102.94
526.28	97.94
526.495	84.94
526.71	98.94
526.925	85.94
527.14	73.94
527.355	84.94
527.57	92.94
527.785	92.94
527.999	85.94
528.214	93.94
528.429	102.94
528.644	104.94
528.859	114.94
529.074	125.94
529.289	133.94
529.503	108.94
529.718	102.94
529.933	97.94
530.148	115.94
530.363	93.94
530.577	91.94
530.792	102.94
531.007	84.94
531.221	76.94
531.436	99.94
531.651	86.94
531.865	84.94
532.08	80.94
532.295	95.94
532.509	85.94
532.724	85.94
532.938	76.94
533.153	98.94
533.367	101.94
533.582	105.94
533.796	89.94
534.011	96.94
534.225	82.94
534.44	73.94
534.654	79.94
534.868	91.94
535.083	98.94
535.297	102.94
535.511	99.94
535.726	107.94
535.94	105.94
536.154	88.94
536.369	85.94
536.583	94.94
536.797	86.94
537.011	83.94
537.225	95.94
537.44	91.94
537.654	90.94
537.868	101.94
538.082	89.94
538.296	92.94
538.51	89.94
538.724	100.94
538.938	107.94
539.153	109.94
539.367	101.94
539.581	107.94
539.795	98.94
540.009	108.94
540.222	93.94
540.436	100.94
540.65	96.94
540.864	98.94
541.078	104.94
541.292	118.94
541.506	106.94
541.72	121.94
541.934	147.94
542.147	140.94
542.361	127.94
542.575	127.94
542.789	112.94
543.002	109.94
543.216	117.94
543.43	110.94
543.644	121.94
543.857	112.94
544.071	118.94
544.285	120.94
544.498	120.94
544.712	127.94
544.925	126.94
545.139	130.94
545.352	117.94
545.566	126.94
545.779	121.94
545.993	138.94
546.206	125.94
546.42	114.94
546.633	135.94
546.847	130.94
547.06	128.94
547.274	139.94
547.487	122.94
547.7	129.94
547.914	132.94
548.127	127.94
548.34	133.94
548.554	117.94
548.767	109.94
548.98	114.94
549.193	116.94
549.407	117.94
549.62	118.94
549.833	105.94
550.046	108.94
550.259	132.94
550.473	127.94
550.686	134.94
550.899	121.94
551.112	124.94
551.325	110.94
551.538	101.94
551.751	94.94
551.964	88.94
552.177	109.94
552.39	134.94
552.603	108.94
552.816	122.94
553.029	122.94
553.242	132.94
553.455	129.94
553.667	124.94
553.88	126.94
554.093	111.94
554.306	119.94
554.519	110.94
554.732	111.94
554.944	112.94
555.157	116.94
555.37	124.94
555.583	103.94
555.795	116.94
556.008	120.94
556.221	98.94
556.433	110.94
556.646	119.94
556.859	88.94
557.071	121.94
557.284	125.94
557.496	108.94
557.709	121.94
557.921	120.94
558.134	102.94
558.346	116.94
558.559	101.94
558.771	110.94
558.984	107.94
559.196	105.94
559.409	100.94
559.621	108.94
559.833	107.94
560.046	112.94
560.258	114.94
560.47	113.94
560.683	106.94
560.895	109.94
561.107	98.94
561.32	103.94
561.532	105.94
561.744	109.94
561.956	120.94
562.168	120.94
562.381	112.94
562.593	100.94
562.805	115.94
563.017	114.94
563.229	100.94
563.441	103.94
563.653	113.94
563.865	99.94
564.077	91.94
564.289	108.94
564.501	106.94
564.713	112.94
564.925	108.94
565.137	109.94
565.349	118.94
565.561	111.94
565.773	101.94
565.985	111.94
566.197	95.94
566.408	106.94
566.62	91.94
566.832	109.94
567.044	115.94
567.255	98.94
567.467	99.94
567.679	101.94
567.891	99.94
568.102	100.94
568.314	77.94
568.526	94.94
568.737	95.94
568.949	96.94
569.161	95.94
569.372	75.94
569.584	80.94
569.795	77.94
570.007	83.94
570.218	102.94
570.43	82.94
570.641	96.94
570.853	109.94
571.064	105.94
571.276	96.94
571.487	99.94
571.698	88.94
571.91	93.94
572.121	108.94
572.333	96.94
572.544	104.94
572.755	88.94
572.966	95.94
573.178	86.94
573.389	78.94
573.6	77.94
573.811	88.94
574.023	90.94
574.234	84.94
574.445	89.94
574.656	99.94
574.867	93.94
575.078	89.94
575.289	95.94
575.501	89.94
575.712	92.94
575.923	84.94
576.134	76.94
576.345	92.94
576.556	97.94
576.767	107.94
576.978	93.94
577.188	93.94
577.399	73.94
577.61	101.94
577.821	88.94
578.032	92.94
578.243	119.94
578.454	96.94
578.665	82.94
578.875	74.94
579.086	79.94
579.297	88.94
579.508	90.94
579.718	100.94
579.929	97.94
580.14	90.94
580.35	81.94
580.561	69.94
580.772	87.94
580.982	89.94
581.193	85.94
581.403	81.94
581.614	94.94
581.825	98.94
582.035	98.94
582.246	86.94
582.456	99.94
582.667	86.94
582.877	84.94
583.087	77.94
583.298	82.94
583.508	102.94
583.719	97.94
583.929	91.94
584.139	92.94
584.35	91.94
584.56	82.94
584.77	78.94
584.981	95.94
585.191	98.94
585.401	80.94
585.611	90.94
585.821	99.94
586.032	94.94
586.242	85.94
586.452	101.94
586.662	89.94
586.872	75.94
587.082	87.94
587.292	87.94
587.502	83.94
587.713	100.94
587.923	100.94
588.133	74.94
588.343	94.94
588.553	86.94
588.762	100.94
588.972	88.94
589.182	87.94
589.392	88.94
589.602	74.94
589.812	86.94
590.022	96.94
590.232	95.94
590.441	80.94
590.651	82.94
590.861	87.94
591.071	86.94
591.281	80.94
591.49	88.94
591.7	85.94
591.91	92.94
592.119	90.94
592.329	75.94
592.539	83.94
592.748	74.94
592.958	71.94
593.167	80.94
593.377	92.94
593.587	87.94
593.796	94.94
594.006	75.94
594.215	86.94
594.424	90.94
594.634	92.94
594.843	93.94
595.053	93.94
595.262	93.94
595.472	104.94
595.681	100.94
595.89	92.94
596.1	91.94
596.309	84.94
596.518	83.94
596.727	91.94
596.937	95.94
597.146	101.94
597.355	94.94
597.564	83.94
597.774	90.94
597.983	83.94
598.192	76.94
598.401	94.94
598.61	95.94
598.819	94.94
599.028	85.94
599.237	89.94
599.446	96.94
599.655	91.94
599.864	88.94
600.073	86.94
600.282	105.94
600.491	82.94
600.7	88.94
600.909	92.94
601.118	95.94
601.327	89.94
601.536	86.94
601.745	94.94
601.953	91.94
602.162	94.94
602.371	104.94
602.58	94.94
602.789	93.94
602.997	103.94
603.206	88.94
603.415	98.94
603.623	118.94
603.832	103.94
604.041	101.94
604.249	107.94
604.458	91.94
604.666	92.94
604.875	106.94
605.084	99.94
605.292	107.94
605.501	99.94
605.709	95.94
605.918	106.94
606.126	96.94
606.334	91.94
606.543	106.94
606.751	102.94
606.96	102.94
607.168	97.94
607.376	105.94
607.585	112.94
607.793	111.94
608.001	99.94
608.21	110.94
608.418	105.94
608.626	110.94
608.834	100.94
609.043	90.94
609.251	95.94
609.459	98.94
609.667	122.94
609.875	103.94
610.083	116.94
610.291	94.94
610.499	95.94
610.707	102.94
610.916	90.94
611.124	108.94
611.332	94.94
611.54	103.94
611.748	91.94
611.955	93.94
612.163	104.94
612.371	96.94
612.579	102.94
612.787	85.94
612.995	101.94
613.203	103.94
613.411	104.94
613.618	93.94
613.826	114.94
614.034	87.94
614.242	104.94
614.449	86.94
614.657	91.94
614.865	87.94
615.072	90.94
615.28	81.94
615.488	88.94
615.695	103.94
615.903	100.94
616.111	110.94
616.318	110.94
616.526	88.94
616.733	100.94
616.941	101.94
617.148	91.94
617.356	109.94
617.563	103.94
617.771	105.94
617.978	84.94
618.185	104.94
618.393	108.94
618.6	106.94
618.807	101.94
619.015	99.94
619.222	103.94
619.429	99.94
619.637	104.94
619.844	96.94
620.051	108.94
620.258	95.94
620.466	103.94
620.673	95.94
620.88	89.94
621.087	112.94
621.294	92.94
621.501	100.94
621.708	93.94
621.915	114.94
622.122	98.94
622.329	91.94
622.536	96.94
622.743	99.94
622.95	94.94
623.157	93.94
623.364	89.94
623.571	93.94
623.778	90.94
623.985	95.94
624.192	114.94
624.399	99.94
624.606	98.94
624.812	109.94
625.019	100.94
625.226	94.94
625.433	86.94
625.639	111.94
625.846	86.94
626.053	99.94
626.259	92.94
626.466	74.94
626.673	89.94
626.879	85.94
627.086	85.94
627.293	98.94
627.499	100.94
627.706	84.94
627.912	91.94
628.119	94.94
628.325	103.94
628.532	100.94
628.738	94.94
628.945	93.94
629.151	98.94
629.357	93.94
629.564	92.94
629.77	104.94
629.976	94.94
630.183	93.94
630.389	88.94
630.595	103.94
630.802	101.94
631.008	76.94
631.214	92.94
631.42	103.94
631.627	95.94
631.833	106.94
632.039	106.94
632.245	109.94
632.451	94.94
632.657	90.94
632.863	96.94
633.069	82.94
633.275	103.94
633.481	103.94
633.688	110.94
633.893	100.94
634.099	86.94
634.305	95.94
634.511	92.94
634.717	87.94
634.923	95.94
635.129	102.94
635.335	97.94
635.541	97.94
635.747	97.94
635.952	97.94
636.158	93.94
636.364	82.94
636.57	90.94
636.775	88.94
636.981	100.94
637.187	93.94
637.392	106.94
637.598	97.94
637.804	110.94
638.009	95.94
638.215	88.94
638.421	101.94
638.626	102.94
638.832	73.94
639.037	91.94
639.243	90.94
639.448	99.94
639.654	91.94
639.859	93.94
640.065	98.94
640.27	86.94
640.475	83.94
640.681	94.94
640.886	96.94
641.091	75.94
641.297	107.94
641.502	101.94
641.707	96.94
641.913	98.94
642.118	101.94
642.323	99.94
642.528	100.94
642.733	94.94
642.939	79.94
643.144	84.94
643.349	77.94
643.554	85.94
643.759	92.94
643.964	83.94
644.169	92.94
644.374	104.94
644.579	94.94
644.784	92.94
644.989	98.94
645.194	103.94
645.399	102.94
645.604	91.94
645.809	87.94
646.014	97.94
646.219	104.94
646.423	103.94
646.628	92.94
646.833	90.94
647.038	101.94
647.243	94.94
647.447	97.94
647.652	89.94
647.857	86.94
648.062	102.94
648.266	103.94
648.471	108.94
648.676	100.94
648.88	88.94
649.085	84.94
649.289	94.94
649.494	88.94
649.698	110.94
649.903	76.94
650.107	90.94
650.312	89.94
650.516	88.94
650.721	88.94
650.925	93.94
651.13	95.94
651.334	79.94
651.539	95.94
651.743	103.94
651.947	96.94
652.152	96.94
652.356	79.94
652.56	91.94
652.764	86.94
652.969	89.94
653.173	107.94
653.377	100.94
653.581	98.94
653.785	85.94
653.99	82.94
654.194	95.94
654.398	88.94
654.602	98.94
654.806	91.94
655.01	92.94
655.214	86.94
655.418	73.94
655.622	92.94
655.826	78.94
656.03	89.94
656.234	80.94
656.438	95.94
656.642	87.94
656.846	73.94
657.049	81.94
657.253	91.94
657.457	102.94
657.661	73.94
657.865	86.94
658.068	81.94
658.272	98.94
658.476	101.94
658.68	74.94
658.883	86.94
659.087	90.94
659.291	79.94
659.494	95.94
659.698	108.94
659.901	76.94
660.105	99.94
660.309	79.94
660.512	79.94
660.716	87.94
660.919	93.94
661.123	90.94
661.326	75.94
661.53	87.94
661.733	94.94
661.936	81.94
662.14	82.94
662.343	86.94
662.546	89.94
662.75	89.94
662.953	96.94
663.156	84.94
663.36	97.94
663.563	82.94
663.766	88.94
663.969	77.94
664.173	79.94
664.376	80.94
664.579	88.94
664.782	97.94
664.985	92.94
665.188	75.94
665.391	86.94
665.594	80.94
665.797	80.94
666	69.94
666.203	92.94
666.406	95.94
666.609	80.94
666.812	86.94
667.015	90.94
667.218	87.94
667.421	80.94
667.624	81.94
667.827	84.94
668.03	100.94
668.232	79.94
668.435	88.94
668.638	80.94
668.841	90.94
669.043	86.94
669.246	92.94
669.449	75.94
669.651	71.94
669.854	79.94
670.057	74.94
670.259	82.94
670.462	82.94
670.665	88.94
670.867	79.94
671.07	80.94
671.272	79.94
671.475	77.94
671.677	98.94
671.88	79.94
672.082	77.94
672.284	75.94
672.487	97.94
672.689	68.94
672.892	63.94
