Data from 1970.Penny.LincolnSideUp.Lamp.En5.5200Scan.07242019.P1_HRD10591_15-02-40-044.txt Node
Date: Wed Jul 24 15:02:40 EDT 2019
User: cochatt
Spectrometer: HR+D1059
Trigger mode: 1
Integration Time (sec): 1.000000E-1
Scans to average: 1
Electric dark correction enabled: true
Nonlinearity correction enabled: false
Boxcar width: 0
XAxis mode: Wavelengths
Number of Pixels in Spectrum: 2048
>>>>>Begin Spectral Data<<<<<
223.165	-29.44
223.4	-29.44
223.635	-29.44
223.869	-22.44
224.104	-11.44
224.338	-5.44
224.573	-14.44
224.808	-17.44
225.042	-10.44
225.277	5.56
225.511	-2.44
225.746	7.56
225.98	8.56
226.215	12.56
226.449	4.56
226.683	17.56
226.918	15.56
227.152	41.56
227.387	34.56
227.621	37.56
227.856	35.56
228.09	43.56
228.324	62.56
228.559	41.56
228.793	125.56
229.027	261.56
229.262	306.56
229.496	351.56
229.73	453.56
229.964	561.56
230.199	397.56
230.433	312.56
230.667	313.56
230.901	312.56
231.136	294.56
231.37	296.56
231.604	311.56
231.838	285.56
232.072	307.56
232.306	303.56
232.541	302.56
232.775	309.56
233.009	300.56
233.243	297.56
233.477	316.56
233.711	325.56
233.945	340.56
234.179	333.56
234.413	338.56
234.647	333.56
234.881	331.56
235.115	334.56
235.349	352.56
235.583	362.56
235.817	362.56
236.051	393.56
236.285	397.56
236.519	366.56
236.753	409.56
236.987	467.56
237.221	708.56
237.455	1024.56
237.689	695.56
237.922	477.56
238.156	457.56
238.39	440.56
238.624	412.56
238.858	370.56
239.091	403.56
239.325	410.56
239.559	401.56
239.793	400.56
240.027	450.56
240.26	532.56
240.494	604.56
240.728	570.56
240.961	566.56
241.195	489.56
241.429	479.56
241.662	468.56
241.896	463.56
242.13	460.56
242.363	470.56
242.597	484.56
242.83	481.56
243.064	471.56
243.298	494.56
243.531	508.56
243.765	482.56
243.998	489.56
244.232	509.56
244.465	502.56
244.699	528.56
244.932	535.56
245.166	551.56
245.399	546.56
245.633	541.56
245.866	547.56
246.099	545.56
246.333	526.56
246.566	544.56
246.8	552.56
247.033	571.56
247.266	583.56
247.5	627.56
247.733	657.56
247.966	671.56
248.2	657.56
248.433	665.56
248.666	672.56
248.899	739.56
249.133	822.56
249.366	813.56
249.599	767.56
249.832	735.56
250.066	673.56
250.299	693.56
250.532	762.56
250.765	802.56
250.998	932.56
251.231	962.56
251.465	848.56
251.698	797.56
251.931	807.56
252.164	778.56
252.397	811.56
252.63	801.56
252.863	839.56
253.096	929.56
253.329	967.56
253.562	921.56
253.795	881.56
254.028	869.56
254.261	858.56
254.494	899.56
254.727	1061.56
254.96	1229.56
255.193	1115.56
255.426	983.56
255.659	926.56
255.892	890.56
256.124	950.56
256.357	935.56
256.59	877.56
256.823	851.56
257.056	822.56
257.289	834.56
257.521	841.56
257.754	813.56
257.987	833.56
258.22	806.56
258.452	821.56
258.685	803.56
258.918	851.56
259.151	860.56
259.383	879.56
259.616	877.56
259.849	906.56
260.081	968.56
260.314	1051.56
260.547	1087.56
260.779	980.56
261.012	910.56
261.244	899.56
261.477	898.56
261.71	915.56
261.942	856.56
262.175	885.56
262.407	875.56
262.64	843.56
262.872	837.56
263.105	867.56
263.337	837.56
263.57	868.56
263.802	852.56
264.035	848.56
264.267	851.56
264.499	838.56
264.732	846.56
264.964	854.56
265.197	879.56
265.429	866.56
265.661	869.56
265.894	878.56
266.126	868.56
266.358	866.56
266.591	885.56
266.823	899.56
267.055	936.56
267.287	931.56
267.52	907.56
267.752	891.56
267.984	921.56
268.216	930.56
268.448	966.56
268.681	953.56
268.913	1017.56
269.145	1094.56
269.377	1165.56
269.609	1097.56
269.841	1083.56
270.073	1114.56
270.306	1220.56
270.538	1350.56
270.77	1338.56
271.002	1247.56
271.234	1143.56
271.466	1216.56
271.698	1273.56
271.93	1299.56
272.162	1307.56
272.394	1295.56
272.626	1235.56
272.858	1139.56
273.09	1088.56
273.322	1095.56
273.553	1089.56
273.785	1075.56
274.017	1062.56
274.249	1077.56
274.481	1102.56
274.713	1070.56
274.945	1112.56
275.176	1113.56
275.408	1078.56
275.64	1054.56
275.872	1074.56
276.104	1079.56
276.335	1047.56
276.567	1121.56
276.799	1157.56
277.031	1255.56
277.262	1308.56
277.494	1349.56
277.726	1231.56
277.957	1170.56
278.189	1136.56
278.421	1125.56
278.652	1098.56
278.884	1115.56
279.115	1142.56
279.347	1115.56
279.579	1097.56
279.81	1112.56
280.042	1110.56
280.273	1121.56
280.505	1132.56
280.736	1112.56
280.968	1105.56
281.199	1095.56
281.431	1142.56
281.662	1127.56
281.894	1126.56
282.125	1143.56
282.356	1170.56
282.588	1231.56
282.819	1221.56
283.051	1163.56
283.282	1135.56
283.513	1145.56
283.745	1137.56
283.976	1199.56
284.207	1211.56
284.439	1210.56
284.67	1197.56
284.901	1172.56
285.132	1169.56
285.364	1137.56
285.595	1182.56
285.826	1165.56
286.057	1185.56
286.288	1222.56
286.52	1193.56
286.751	1185.56
286.982	1168.56
287.213	1178.56
287.444	1184.56
287.675	1243.56
287.906	1235.56
288.138	1278.56
288.369	1259.56
288.6	1275.56
288.831	1237.56
289.062	1234.56
289.293	1248.56
289.524	1223.56
289.755	1247.56
289.986	1190.56
290.217	1203.56
290.448	1186.56
290.679	1212.56
290.91	1206.56
291.141	1236.56
291.371	1221.56
291.602	1238.56
291.833	1193.56
292.064	1209.56
292.295	1196.56
292.526	1234.56
292.757	1235.56
292.987	1220.56
293.218	1203.56
293.449	1225.56
293.68	1208.56
293.91	1205.56
294.141	1194.56
294.372	1181.56
294.603	1239.56
294.833	1232.56
295.064	1224.56
295.295	1226.56
295.525	1212.56
295.756	1231.56
295.987	1240.56
296.217	1265.56
296.448	1350.56
296.679	1252.56
296.909	1254.56
297.14	1256.56
297.37	1289.56
297.601	1244.56
297.831	1246.56
298.062	1272.56
298.292	1296.56
298.523	1322.56
298.753	1300.56
298.984	1291.56
299.214	1279.56
299.445	1282.56
299.675	1305.56
299.905	1279.56
300.136	1317.56
300.366	1340.56
300.597	1305.56
300.827	1359.56
301.057	1394.56
301.288	1395.56
301.518	1387.56
301.748	1374.56
301.979	1383.56
302.209	1400.56
302.439	1357.56
302.669	1417.56
302.9	1402.56
303.13	1362.56
303.36	1370.56
303.59	1384.56
303.82	1373.56
304.051	1418.56
304.281	1413.56
304.511	1369.56
304.741	1391.56
304.971	1345.56
305.201	1360.56
305.431	1386.56
305.661	1382.56
305.891	1337.56
306.121	1330.56
306.352	1367.56
306.582	1384.56
306.812	1345.56
307.042	1350.56
307.272	1391.56
307.502	1353.56
307.731	1378.56
307.961	1384.56
308.191	1397.56
308.421	1394.56
308.651	1375.56
308.881	1362.56
309.111	1401.56
309.341	1401.56
309.571	1401.56
309.8	1432.56
310.03	1434.56
310.26	1463.56
310.49	1445.56
310.72	1523.56
310.949	1490.56
311.179	1582.56
311.409	1513.56
311.639	1462.56
311.868	1463.56
312.098	1480.56
312.328	1495.56
312.557	1543.56
312.787	1590.56
313.017	1595.56
313.246	1528.56
313.476	1513.56
313.706	1503.56
313.935	1518.56
314.165	1571.56
314.394	1603.56
314.624	1597.56
314.853	1573.56
315.083	1551.56
315.312	1541.56
315.542	1521.56
315.771	1493.56
316.001	1482.56
316.23	1476.56
316.46	1520.56
316.689	1542.56
316.919	1531.56
317.148	1568.56
317.377	1572.56
317.607	1539.56
317.836	1543.56
318.065	1515.56
318.295	1480.56
318.524	1529.56
318.753	1492.56
318.983	1516.56
319.212	1533.56
319.441	1516.56
319.67	1506.56
319.9	1526.56
320.129	1518.56
320.358	1540.56
320.587	1541.56
320.816	1548.56
321.046	1590.56
321.275	1547.56
321.504	1562.56
321.733	1591.56
321.962	1604.56
322.191	1610.56
322.42	1649.56
322.649	1681.56
322.878	1664.56
323.108	1680.56
323.337	1767.56
323.566	1831.56
323.795	1887.56
324.024	1946.56
324.253	2236.56
324.482	3264.56
324.71	5454.56
324.939	9165.56
325.168	7457.56
325.397	3037.56
325.626	2099.56
325.855	1881.56
326.084	1821.56
326.313	1798.56
326.542	1802.56
326.77	1979.56
326.999	2249.56
327.228	3117.56
327.457	5218.56
327.686	6862.56
327.914	3699.56
328.143	2384.56
328.372	2141.56
328.6	2080.56
328.829	1956.56
329.058	2027.56
329.287	2098.56
329.515	2001.56
329.744	1885.56
329.972	1894.56
330.201	1943.56
330.43	2085.56
330.658	2144.56
330.887	2265.56
331.115	2224.56
331.344	1982.56
331.572	1917.56
331.801	1901.56
332.03	1933.56
332.258	1893.56
332.486	1913.56
332.715	1909.56
332.943	1938.56
333.172	1940.56
333.4	1979.56
333.629	2017.56
333.857	2064.56
334.085	2087.56
334.314	2096.56
334.542	2197.56
334.771	2265.56
334.999	2109.56
335.227	2037.56
335.455	2005.56
335.684	1962.56
335.912	1935.56
336.14	1885.56
336.369	1895.56
336.597	1907.56
336.825	1917.56
337.053	1913.56
337.281	1867.56
337.51	1880.56
337.738	1866.56
337.966	1828.56
338.194	1854.56
338.422	1845.56
338.65	1796.56
338.878	1815.56
339.106	1775.56
339.334	1784.56
339.562	1756.56
339.79	1762.56
340.018	1766.56
340.246	1723.56
340.474	1784.56
340.702	1737.56
340.93	1727.56
341.158	1723.56
341.386	1761.56
341.614	1780.56
341.842	1761.56
342.07	1752.56
342.298	1729.56
342.526	1738.56
342.754	1681.56
342.981	1714.56
343.209	1751.56
343.437	1772.56
343.665	1807.56
343.893	1879.56
344.12	1943.56
344.348	1949.56
344.576	1889.56
344.804	1859.56
345.031	1821.56
345.259	1824.56
345.487	1793.56
345.714	1751.56
345.942	1713.56
346.17	1679.56
346.397	1693.56
346.625	1673.56
346.853	1665.56
347.08	1683.56
347.308	1662.56
347.535	1693.56
347.763	1730.56
347.99	1675.56
348.218	1670.56
348.445	1707.56
348.673	1746.56
348.9	1687.56
349.128	1627.56
349.355	1642.56
349.583	1644.56
349.81	1654.56
350.037	1600.56
350.265	1563.56
350.492	1617.56
350.72	1577.56
350.947	1604.56
351.174	1634.56
351.402	1666.56
351.629	1671.56
351.856	1653.56
352.083	1668.56
352.311	1666.56
352.538	1669.56
352.765	1681.56
352.992	1647.56
353.22	1674.56
353.447	1645.56
353.674	1642.56
353.901	1611.56
354.128	1547.56
354.355	1589.56
354.583	1618.56
354.81	1589.56
355.037	1595.56
355.264	1605.56
355.491	1600.56
355.718	1576.56
355.945	1592.56
356.172	1573.56
356.399	1586.56
356.626	1579.56
356.853	1594.56
357.08	1576.56
357.307	1573.56
357.534	1585.56
357.761	1589.56
357.988	1605.56
358.215	1598.56
358.441	1586.56
358.668	1620.56
358.895	1599.56
359.122	1627.56
359.349	1674.56
359.576	1657.56
359.802	1753.56
360.029	1776.56
360.256	1821.56
360.483	1785.56
360.709	1699.56
360.936	1665.56
361.163	1680.56
361.39	1657.56
361.616	1691.56
361.843	1670.56
362.07	1677.56
362.296	1701.56
362.523	1689.56
362.749	1651.56
362.976	1650.56
363.203	1651.56
363.429	1618.56
363.656	1664.56
363.882	1627.56
364.109	1629.56
364.335	1601.56
364.562	1615.56
364.788	1625.56
365.015	1637.56
365.241	1648.56
365.468	1653.56
365.694	1674.56
365.92	1654.56
366.147	1630.56
366.373	1637.56
366.599	1644.56
366.826	1595.56
367.052	1599.56
367.278	1628.56
367.505	1660.56
367.731	1653.56
367.957	1661.56
368.184	1645.56
368.41	1681.56
368.636	1709.56
368.862	1713.56
369.089	1680.56
369.315	1670.56
369.541	1656.56
369.767	1657.56
369.993	1686.56
370.219	1700.56
370.445	1651.56
370.672	1712.56
370.898	1687.56
371.124	1733.56
371.35	1733.56
371.576	1750.56
371.802	1703.56
372.028	1780.56
372.254	1734.56
372.48	1750.56
372.706	1756.56
372.932	1773.56
373.158	1751.56
373.384	1821.56
373.61	1753.56
373.835	1765.56
374.061	1753.56
374.287	1770.56
374.513	1774.56
374.739	1815.56
374.965	1806.56
375.191	1805.56
375.416	1823.56
375.642	1791.56
375.868	1771.56
376.094	1807.56
376.319	1794.56
376.545	1806.56
376.771	1734.56
376.997	1746.56
377.222	1711.56
377.448	1747.56
377.674	1773.56
377.899	1719.56
378.125	1725.56
378.35	1721.56
378.576	1736.56
378.802	1721.56
379.027	1770.56
379.253	1754.56
379.478	1722.56
379.704	1798.56
379.929	1757.56
380.155	1781.56
380.38	1781.56
380.606	1826.56
380.831	1725.56
381.057	1783.56
381.282	1782.56
381.507	1768.56
381.733	1825.56
381.958	1825.56
382.184	1850.56
382.409	1835.56
382.634	1847.56
382.86	1867.56
383.085	1880.56
383.31	1845.56
383.535	1911.56
383.761	1905.56
383.986	1974.56
384.211	1961.56
384.436	2017.56
384.662	2008.56
384.887	2025.56
385.112	1995.56
385.337	2085.56
385.562	2045.56
385.787	2028.56
386.013	2118.56
386.238	2110.56
386.463	2138.56
386.688	2067.56
386.913	2071.56
387.138	2098.56
387.363	2093.56
387.588	2018.56
387.813	2037.56
388.038	2049.56
388.263	2059.56
388.488	2111.56
388.713	2105.56
388.938	2061.56
389.163	2089.56
389.387	2087.56
389.612	2010.56
389.837	2049.56
390.062	2029.56
390.287	2036.56
390.512	2067.56
390.736	2041.56
390.961	2090.56
391.186	2101.56
391.411	2112.56
391.636	2190.56
391.86	2258.56
392.085	2249.56
392.31	2258.56
392.534	2209.56
392.759	2169.56
392.984	2165.56
393.208	2143.56
393.433	2194.56
393.658	2160.56
393.882	2156.56
394.107	2174.56
394.331	2133.56
394.556	2160.56
394.78	2156.56
395.005	2178.56
395.229	2175.56
395.454	2215.56
395.678	2259.56
395.903	2275.56
396.127	2359.56
396.352	2333.56
396.576	2245.56
396.801	2258.56
397.025	2246.56
397.249	2298.56
397.474	2309.56
397.698	2296.56
397.922	2377.56
398.147	2423.56
398.371	2439.56
398.595	2442.56
398.82	2491.56
399.044	2622.56
399.268	2749.56
399.492	3050.56
399.717	3320.56
399.941	3401.56
400.165	3401.56
400.389	3311.56
400.613	2953.56
400.837	2699.56
401.062	2629.56
401.286	2551.56
401.51	2513.56
401.734	2513.56
401.958	2558.56
402.182	2549.56
402.406	2573.56
402.63	2566.56
402.854	2616.56
403.078	2674.56
403.302	2693.56
403.526	2695.56
403.75	2709.56
403.974	2737.56
404.198	2688.56
404.422	2786.56
404.645	2746.56
404.869	2744.56
405.093	2979.56
405.317	3112.56
405.541	3289.56
405.765	2941.56
405.988	2776.56
406.212	2821.56
406.436	2881.56
406.66	2967.56
406.883	2894.56
407.107	3133.56
407.331	3331.56
407.555	3726.56
407.778	3712.56
408.002	3280.56
408.226	2991.56
408.449	2961.56
408.673	2934.56
408.896	3150.56
409.12	3348.56
409.344	3135.56
409.567	2821.56
409.791	2733.56
410.014	2691.56
410.238	2680.56
410.461	2707.56
410.685	2729.56
410.908	2772.56
411.132	2912.56
411.355	3142.56
411.578	2909.56
411.802	2673.56
412.025	2677.56
412.249	2746.56
412.472	2849.56
412.695	3001.56
412.919	2894.56
413.142	2666.56
413.365	2646.56
413.589	2641.56
413.812	2570.56
414.035	2524.56
414.258	2502.56
414.482	2519.56
414.705	2557.56
414.928	2482.56
415.151	2545.56
415.374	2536.56
415.597	2539.56
415.821	2528.56
416.044	2532.56
416.267	2541.56
416.49	2530.56
416.713	2494.56
416.936	2526.56
417.159	2537.56
417.382	2531.56
417.605	2524.56
417.828	2584.56
418.051	2669.56
418.274	2593.56
418.497	2512.56
418.72	2574.56
418.943	2516.56
419.166	2642.56
419.389	2860.56
419.611	2841.56
419.834	2770.56
420.057	2750.56
420.28	2731.56
420.503	2636.56
420.726	2592.56
420.948	2663.56
421.171	2906.56
421.394	3033.56
421.617	2751.56
421.839	2624.56
422.062	2638.56
422.285	2707.56
422.507	2981.56
422.73	3477.56
422.953	3265.56
423.175	2849.56
423.398	2768.56
423.621	2747.56
423.843	2887.56
424.066	2937.56
424.288	2845.56
424.511	2978.56
424.733	3181.56
424.956	3707.56
425.178	3406.56
425.401	3473.56
425.623	3605.56
425.846	2933.56
426.068	2731.56
426.291	2675.56
426.513	2685.56
426.735	2671.56
426.958	2973.56
427.18	3440.56
427.402	4397.56
427.625	4715.56
427.847	3719.56
428.069	3198.56
428.292	2871.56
428.514	2579.56
428.736	2535.56
428.958	2515.56
429.181	2415.56
429.403	2478.56
429.625	2504.56
429.847	2711.56
430.069	3124.56
430.292	3043.56
430.514	2565.56
430.736	2509.56
430.958	2419.56
431.18	2397.56
431.402	2362.56
431.624	2299.56
431.846	2294.56
432.068	2258.56
432.29	2342.56
432.512	2277.56
432.734	2399.56
432.956	2437.56
433.178	2459.56
433.4	2483.56
433.622	2427.56
433.844	2377.56
434.066	2349.56
434.287	2318.56
434.509	2331.56
434.731	2439.56
434.953	2489.56
435.175	2678.56
435.397	2779.56
435.618	2769.56
435.84	2948.56
436.062	3583.56
436.284	4122.56
436.505	3142.56
436.727	2749.56
436.949	2634.56
437.17	2510.56
437.392	2498.56
437.614	2523.56
437.835	2611.56
438.057	3160.56
438.278	3949.56
438.5	3921.56
438.721	4676.56
438.943	4301.56
439.165	3101.56
439.386	2802.56
439.608	2827.56
439.829	2835.56
440.05	3003.56
440.272	3350.56
440.493	2971.56
440.715	2723.56
440.936	2685.56
441.158	2614.56
441.379	2611.56
441.6	2719.56
441.822	2817.56
442.043	3114.56
442.264	3763.56
442.486	3973.56
442.707	3161.56
442.928	2940.56
443.149	2991.56
443.371	3115.56
443.592	3367.56
443.813	4181.56
444.034	4608.56
444.255	3425.56
444.476	3046.56
444.698	3037.56
444.919	3005.56
445.14	3090.56
445.361	3045.56
445.582	3164.56
445.803	3611.56
446.024	4349.56
446.245	4371.56
446.466	3828.56
446.687	3090.56
446.908	2859.56
447.129	2664.56
447.35	2586.56
447.571	2535.56
447.792	2475.56
448.013	2525.56
448.234	2607.56
448.455	3010.56
448.675	3866.56
448.896	4827.56
449.117	3557.56
449.338	3312.56
449.559	4327.56
449.779	5209.56
450	3511.56
450.221	2812.56
450.442	2535.56
450.662	2418.56
450.883	2443.56
451.104	2427.56
451.324	2316.56
451.545	2293.56
451.766	2233.56
451.986	2216.56
452.207	2158.56
452.428	2138.56
452.648	2146.56
452.869	2122.56
453.089	2177.56
453.31	2205.56
453.53	2137.56
453.751	2046.56
453.971	2065.56
454.192	2130.56
454.412	2082.56
454.633	2065.56
454.853	2066.56
455.073	2043.56
455.294	2281.56
455.514	2768.56
455.734	2627.56
455.955	2158.56
456.175	2054.56
456.395	1975.56
456.616	1911.56
456.836	1910.56
457.056	1952.56
457.276	1870.56
457.497	1957.56
457.717	1962.56
457.937	2005.56
458.157	1986.56
458.377	2057.56
458.598	2131.56
458.818	2290.56
459.038	2799.56
459.258	3037.56
459.478	2391.56
459.698	2242.56
459.918	2266.56
460.138	2251.56
460.358	2388.56
460.578	2367.56
460.798	2420.56
461.018	2457.56
461.238	2393.56
461.458	2394.56
461.678	2381.56
461.898	2417.56
462.118	2432.56
462.338	2507.56
462.558	2545.56
462.777	2630.56
462.997	2725.56
463.217	2845.56
463.437	2892.56
463.657	2726.56
463.876	2648.56
464.096	2642.56
464.316	2615.56
464.536	2617.56
464.755	2588.56
464.975	2598.56
465.195	2618.56
465.414	2772.56
465.634	2501.56
465.854	2331.56
466.073	2274.56
466.293	2221.56
466.512	2209.56
466.732	2215.56
466.951	2204.56
467.171	2168.56
467.391	2197.56
467.61	2226.56
467.829	2250.56
468.049	2200.56
468.268	2201.56
468.488	2161.56
468.707	2093.56
468.927	2139.56
469.146	2140.56
469.365	2131.56
469.585	2174.56
469.804	2179.56
470.023	2257.56
470.243	2281.56
470.462	2302.56
470.681	2341.56
470.901	2277.56
471.12	2303.56
471.339	2259.56
471.558	2282.56
471.777	2261.56
471.997	2160.56
472.216	2171.56
472.435	2192.56
472.654	2106.56
472.873	2045.56
473.092	2085.56
473.311	2110.56
473.53	2119.56
473.749	2186.56
473.968	2366.56
474.187	3119.56
474.406	3190.56
474.625	2403.56
474.844	2218.56
475.063	2162.56
475.282	2126.56
475.501	2144.56
475.72	2159.56
475.939	2155.56
476.158	2211.56
476.377	2176.56
476.596	2159.56
476.814	2218.56
477.033	2197.56
477.252	2194.56
477.471	2293.56
477.69	2344.56
477.908	2374.56
478.127	2427.56
478.346	2413.56
478.564	2475.56
478.783	2471.56
479.002	2554.56
479.22	2555.56
479.439	2578.56
479.658	2555.56
479.876	2554.56
480.095	2605.56
480.313	2864.56
480.532	2814.56
480.751	2631.56
480.969	2666.56
481.188	2767.56
481.406	2792.56
481.624	2584.56
481.843	2481.56
482.061	2431.56
482.28	2442.56
482.498	2430.56
482.717	2447.56
482.935	2478.56
483.153	2537.56
483.372	2588.56
483.59	2521.56
483.808	2504.56
484.027	2451.56
484.245	2453.56
484.463	2483.56
484.681	2630.56
484.9	2513.56
485.118	2563.56
485.336	2581.56
485.554	2542.56
485.772	2491.56
485.99	2528.56
486.209	2493.56
486.427	2507.56
486.645	2573.56
486.863	2691.56
487.081	2714.56
487.299	2609.56
487.517	2649.56
487.735	2742.56
487.953	2828.56
488.171	2816.56
488.389	2762.56
488.607	2754.56
488.825	2653.56
489.043	2643.56
489.261	2662.56
489.479	2696.56
489.696	2714.56
489.914	2738.56
490.132	2802.56
490.35	2809.56
490.568	2921.56
490.786	2974.56
491.003	3062.56
491.221	3167.56
491.439	3226.56
491.657	3315.56
491.874	3345.56
492.092	3439.56
492.31	3570.56
492.527	3443.56
492.745	3416.56
492.963	3399.56
493.18	3334.56
493.398	3351.56
493.615	3388.56
493.833	3368.56
494.05	3366.56
494.268	3340.56
494.485	3345.56
494.703	3330.56
494.92	3347.56
495.138	3330.56
495.355	3357.56
495.573	3359.56
495.79	3384.56
496.008	3417.56
496.225	3338.56
496.442	3270.56
496.66	3311.56
496.877	3305.56
497.094	3341.56
497.312	3374.56
497.529	3419.56
497.746	3474.56
497.963	3439.56
498.181	3615.56
498.398	3550.56
498.615	3637.56
498.832	3756.56
499.049	3931.56
499.267	4133.56
499.484	4344.56
499.701	4541.56
499.918	4939.56
500.135	5218.56
500.352	5660.56
500.569	5845.56
500.786	5883.56
501.003	5608.56
501.22	5286.56
501.437	5083.56
501.654	4761.56
501.871	4494.56
502.088	4265.56
502.305	4010.56
502.522	3825.56
502.739	3744.56
502.956	3546.56
503.172	3479.56
503.389	3355.56
503.606	3313.56
503.823	3239.56
504.04	3216.56
504.256	3165.56
504.473	3197.56
504.69	3209.56
504.907	3161.56
505.123	3098.56
505.34	3066.56
505.557	3035.56
505.773	2940.56
505.99	2914.56
506.207	2914.56
506.423	2886.56
506.64	2805.56
506.856	2796.56
507.073	2825.56
507.289	2731.56
507.506	2713.56
507.722	2689.56
507.939	2779.56
508.155	2700.56
508.372	2556.56
508.588	2570.56
508.805	2558.56
509.021	2588.56
509.238	2682.56
509.454	2736.56
509.67	2570.56
509.887	2534.56
510.103	2558.56
510.319	2472.56
510.536	2618.56
510.752	3617.56
510.968	3133.56
511.184	2412.56
511.401	2348.56
511.617	2349.56
511.833	2422.56
512.049	2346.56
512.265	2335.56
512.481	2309.56
512.698	2303.56
512.914	2356.56
513.13	2310.56
513.346	2258.56
513.562	2265.56
513.778	2280.56
513.994	2305.56
514.21	2329.56
514.426	2366.56
514.642	2477.56
514.858	2549.56
515.074	2640.56
515.29	2887.56
515.506	3755.56
515.721	3269.56
515.937	2640.56
516.153	2528.56
516.369	2493.56
516.585	2487.56
516.801	2461.56
517.016	2550.56
517.232	2571.56
517.448	2623.56
517.664	2687.56
517.879	2667.56
518.095	2615.56
518.311	2637.56
518.527	2600.56
518.742	2544.56
518.958	2505.56
519.173	2437.56
519.389	2491.56
519.605	2467.56
519.82	2384.56
520.036	2415.56
520.251	2477.56
520.467	2510.56
520.682	2383.56
520.898	2418.56
521.113	2403.56
521.329	2494.56
521.544	2641.56
521.76	3102.56
521.975	4539.56
522.19	4554.56
522.406	2835.56
522.621	2379.56
522.836	2266.56
523.052	2176.56
523.267	2142.56
523.482	2093.56
523.698	2053.56
523.913	2115.56
524.128	2113.56
524.343	2119.56
524.559	2077.56
524.774	2057.56
524.989	2054.56
525.204	2030.56
525.419	2061.56
525.634	1985.56
525.849	1966.56
526.064	1977.56
526.28	1886.56
526.495	1867.56
526.71	1872.56
526.925	1833.56
527.14	1845.56
527.355	1840.56
527.57	1855.56
527.785	1862.56
527.999	1851.56
528.214	1880.56
528.429	1901.56
528.644	1944.56
528.859	2011.56
529.074	2030.56
529.289	2088.56
529.503	2332.56
529.718	2215.56
529.933	2041.56
530.148	1932.56
530.363	1878.56
530.577	1845.56
530.792	1786.56
531.007	1814.56
531.221	1807.56
531.436	1794.56
531.651	1801.56
531.865	1805.56
532.08	1746.56
532.295	1784.56
532.509	1818.56
532.724	1765.56
532.938	1821.56
533.153	1849.56
533.367	1859.56
533.582	1877.56
533.796	1893.56
534.011	1842.56
534.225	1819.56
534.44	1760.56
534.654	1786.56
534.868	1760.56
535.083	1786.56
535.297	1803.56
535.511	1783.56
535.726	1815.56
535.94	1778.56
536.154	1785.56
536.369	1705.56
536.583	1689.56
536.797	1708.56
537.011	1716.56
537.225	1673.56
537.44	1653.56
537.654	1696.56
537.868	1676.56
538.082	1734.56
538.296	1702.56
538.51	1750.56
538.724	1735.56
538.938	1802.56
539.153	1775.56
539.367	1806.56
539.581	1745.56
539.795	1729.56
540.009	1687.56
540.222	1663.56
540.436	1723.56
540.65	1770.56
540.864	1805.56
541.078	1906.56
541.292	1975.56
541.506	1973.56
541.72	2023.56
541.934	2082.56
542.147	2135.56
542.361	2005.56
542.575	1931.56
542.789	1881.56
543.002	1823.56
543.216	1776.56
543.43	1832.56
543.644	1814.56
543.857	1906.56
544.071	1965.56
544.285	2005.56
544.498	2005.56
544.712	1951.56
544.925	1948.56
545.139	2024.56
545.352	1935.56
545.566	1957.56
545.779	2006.56
545.993	2009.56
546.206	2010.56
546.42	1993.56
546.633	2030.56
546.847	2008.56
547.06	2009.56
547.274	2080.56
547.487	2047.56
547.7	2060.56
547.914	2032.56
548.127	1968.56
548.34	2031.56
548.554	1973.56
548.767	1978.56
548.98	2000.56
549.193	1999.56
549.407	1977.56
549.62	1967.56
549.833	1981.56
550.046	1959.56
550.259	1973.56
550.473	1948.56
550.686	1928.56
550.899	1921.56
551.112	1888.56
551.325	1889.56
551.538	1803.56
551.751	1749.56
551.964	1716.56
552.177	1788.56
552.39	1852.56
552.603	1927.56
552.816	1962.56
553.029	1974.56
553.242	2040.56
553.455	2092.56
553.667	2116.56
553.88	2105.56
554.093	2034.56
554.306	2027.56
554.519	1939.56
554.732	1896.56
554.944	1875.56
555.157	1846.56
555.37	1831.56
555.583	1770.56
555.795	1753.56
556.008	1712.56
556.221	1723.56
556.433	1633.56
556.646	1671.56
556.859	1671.56
557.071	1640.56
557.284	1633.56
557.496	1671.56
557.709	1691.56
557.921	1659.56
558.134	1654.56
558.346	1653.56
558.559	1612.56
558.771	1580.56
558.984	1570.56
559.196	1611.56
559.409	1553.56
559.621	1552.56
559.833	1543.56
560.046	1517.56
560.258	1552.56
560.47	1537.56
560.683	1528.56
560.895	1537.56
561.107	1531.56
561.32	1549.56
561.532	1530.56
561.744	1535.56
561.956	1583.56
562.168	1542.56
562.381	1548.56
562.593	1511.56
562.805	1553.56
563.017	1517.56
563.229	1558.56
563.441	1504.56
563.653	1527.56
563.865	1535.56
564.077	1496.56
564.289	1532.56
564.501	1565.56
564.713	1593.56
564.925	1576.56
565.137	1618.56
565.349	1629.56
565.561	1627.56
565.773	1678.56
565.985	1715.56
566.197	1790.56
566.408	1869.56
566.62	1940.56
566.832	2031.56
567.044	2098.56
567.255	2067.56
567.467	2033.56
567.679	2109.56
567.891	2163.56
568.102	2154.56
568.314	2045.56
568.526	1897.56
568.737	1767.56
568.949	1681.56
569.161	1567.56
569.372	1477.56
569.584	1415.56
569.795	1368.56
570.007	1355.56
570.218	1387.56
570.43	1399.56
570.641	1346.56
570.853	1337.56
571.064	1376.56
571.276	1362.56
571.487	1337.56
571.698	1289.56
571.91	1248.56
572.121	1260.56
572.333	1254.56
572.544	1207.56
572.755	1168.56
572.966	1144.56
573.178	1119.56
573.389	1105.56
573.6	1100.56
573.811	1062.56
574.023	1063.56
574.234	1036.56
574.445	1072.56
574.656	1069.56
574.867	1088.56
575.078	1119.56
575.289	1079.56
575.501	1081.56
575.712	1084.56
575.923	1068.56
576.134	1047.56
576.345	1074.56
576.556	1079.56
576.767	1069.56
576.978	1066.56
577.188	1033.56
577.399	1026.56
577.61	983.56
577.821	1016.56
578.032	985.56
578.243	1052.56
578.454	1344.56
578.665	1136.56
578.875	957.56
579.086	949.56
579.297	937.56
579.508	927.56
579.718	932.56
579.929	940.56
580.14	896.56
580.35	907.56
580.561	893.56
580.772	904.56
580.982	927.56
581.193	914.56
581.403	937.56
581.614	919.56
581.825	894.56
582.035	944.56
582.246	879.56
582.456	909.56
582.667	912.56
582.877	894.56
583.087	909.56
583.298	901.56
583.508	858.56
583.719	895.56
583.929	858.56
584.139	866.56
584.35	834.56
584.56	850.56
584.77	861.56
584.981	875.56
585.191	878.56
585.401	855.56
585.611	865.56
585.821	850.56
586.032	860.56
586.242	874.56
586.452	838.56
586.662	837.56
586.872	850.56
587.082	835.56
587.292	870.56
587.502	854.56
587.713	844.56
587.923	848.56
588.133	849.56
588.343	825.56
588.553	834.56
588.762	886.56
588.972	822.56
589.182	891.56
589.392	878.56
589.602	835.56
589.812	860.56
590.022	827.56
590.232	833.56
590.441	845.56
590.651	836.56
590.861	830.56
591.071	847.56
591.281	866.56
591.49	865.56
591.7	863.56
591.91	905.56
592.119	885.56
592.329	914.56
592.539	905.56
592.748	920.56
592.958	946.56
593.167	960.56
593.377	986.56
593.587	1003.56
593.796	977.56
594.006	958.56
594.215	1016.56
594.424	1011.56
594.634	1020.56
594.843	981.56
595.053	973.56
595.262	906.56
595.472	917.56
595.681	880.56
595.89	860.56
596.1	837.56
596.309	826.56
596.518	866.56
596.727	862.56
596.937	854.56
597.146	846.56
597.355	824.56
597.564	799.56
597.774	784.56
597.983	778.56
598.192	786.56
598.401	771.56
598.61	734.56
598.819	752.56
599.028	763.56
599.237	762.56
599.446	748.56
599.655	748.56
599.864	742.56
600.073	718.56
600.282	754.56
600.491	748.56
600.7	715.56
600.909	760.56
601.118	761.56
601.327	808.56
601.536	817.56
601.745	813.56
601.953	833.56
602.162	839.56
602.371	825.56
602.58	800.56
602.789	835.56
602.997	810.56
603.206	835.56
603.415	852.56
603.623	799.56
603.832	782.56
604.041	792.56
604.249	766.56
604.458	736.56
604.666	723.56
604.875	740.56
605.084	753.56
605.292	798.56
605.501	829.56
605.709	827.56
605.918	854.56
606.126	844.56
606.334	836.56
606.543	793.56
606.751	811.56
606.96	834.56
607.168	839.56
607.376	802.56
607.585	841.56
607.793	823.56
608.001	841.56
608.21	841.56
608.418	854.56
608.626	827.56
608.834	830.56
609.043	841.56
609.251	830.56
609.459	867.56
609.667	841.56
609.875	876.56
610.083	858.56
610.291	856.56
610.499	817.56
610.707	833.56
610.916	818.56
611.124	858.56
611.332	844.56
611.54	850.56
611.748	828.56
611.955	853.56
612.163	830.56
612.371	846.56
612.579	842.56
612.787	840.56
612.995	823.56
613.203	826.56
613.411	834.56
613.618	811.56
613.826	791.56
614.034	842.56
614.242	850.56
614.449	832.56
614.657	814.56
614.865	836.56
615.072	817.56
615.28	842.56
615.488	840.56
615.695	817.56
615.903	817.56
616.111	830.56
616.318	835.56
616.526	846.56
616.733	838.56
616.941	859.56
617.148	823.56
617.356	796.56
617.563	799.56
617.771	792.56
617.978	759.56
618.185	810.56
618.393	806.56
618.6	792.56
618.807	795.56
619.015	805.56
619.222	795.56
619.429	777.56
619.637	746.56
619.844	690.56
620.051	751.56
620.258	741.56
620.466	730.56
620.673	724.56
620.88	736.56
621.087	724.56
621.294	686.56
621.501	684.56
621.708	693.56
621.915	722.56
622.122	730.56
622.329	730.56
622.536	754.56
622.743	753.56
622.95	725.56
623.157	714.56
623.364	721.56
623.571	713.56
623.778	744.56
623.985	761.56
624.192	717.56
624.399	747.56
624.606	724.56
624.812	697.56
625.019	711.56
625.226	663.56
625.433	667.56
625.639	619.56
625.846	606.56
626.053	578.56
626.259	571.56
626.466	573.56
626.673	559.56
626.879	547.56
627.086	566.56
627.293	627.56
627.499	658.56
627.706	637.56
627.912	670.56
628.119	706.56
628.325	689.56
628.532	677.56
628.738	675.56
628.945	647.56
629.151	626.56
629.357	641.56
629.564	623.56
629.77	636.56
629.976	641.56
630.183	599.56
630.389	577.56
630.595	637.56
630.802	638.56
631.008	635.56
631.214	624.56
631.42	607.56
631.627	566.56
631.833	563.56
632.039	592.56
632.245	583.56
632.451	589.56
632.657	592.56
632.863	587.56
633.069	586.56
633.275	569.56
633.481	576.56
633.688	584.56
633.893	557.56
634.099	581.56
634.305	541.56
634.511	538.56
634.717	529.56
634.923	513.56
635.129	511.56
635.335	524.56
635.541	506.56
635.747	550.56
635.952	539.56
636.158	538.56
636.364	570.56
636.57	590.56
636.775	570.56
636.981	574.56
637.187	571.56
637.392	563.56
637.598	579.56
637.804	546.56
638.009	551.56
638.215	565.56
638.421	524.56
638.626	554.56
638.832	537.56
639.037	518.56
639.243	545.56
639.448	543.56
639.654	531.56
639.859	507.56
640.065	510.56
640.27	531.56
640.475	519.56
640.681	531.56
640.886	533.56
641.091	527.56
641.297	543.56
641.502	531.56
641.707	522.56
641.913	505.56
642.118	515.56
642.323	538.56
642.528	518.56
642.733	514.56
642.939	496.56
643.144	501.56
643.349	495.56
643.554	486.56
643.759	498.56
643.964	487.56
644.169	504.56
644.374	481.56
644.579	483.56
644.784	487.56
644.989	509.56
645.194	503.56
645.399	494.56
645.604	488.56
645.809	533.56
646.014	505.56
646.219	508.56
646.423	495.56
646.628	493.56
646.833	499.56
647.038	489.56
647.243	468.56
647.447	479.56
647.652	512.56
647.857	498.56
648.062	519.56
648.266	474.56
648.471	516.56
648.676	519.56
648.88	531.56
649.085	522.56
649.289	509.56
649.494	527.56
649.698	602.56
649.903	565.56
650.107	508.56
650.312	477.56
650.516	471.56
650.721	475.56
650.925	477.56
651.13	457.56
651.334	435.56
651.539	439.56
651.743	436.56
651.947	442.56
652.152	419.56
652.356	405.56
652.56	409.56
652.764	394.56
652.969	386.56
653.173	381.56
653.377	383.56
653.581	371.56
653.785	383.56
653.99	390.56
654.194	344.56
654.398	349.56
654.602	334.56
654.806	339.56
655.01	364.56
655.214	364.56
655.418	349.56
655.622	338.56
655.826	339.56
656.03	344.56
656.234	344.56
656.438	354.56
656.642	327.56
656.846	342.56
657.049	302.56
657.253	295.56
657.457	266.56
657.661	279.56
657.865	238.56
658.068	223.56
658.272	219.56
658.476	218.56
658.68	205.56
658.883	197.56
659.087	195.56
659.291	183.56
659.494	164.56
659.698	170.56
659.901	174.56
660.105	169.56
660.309	156.56
660.512	148.56
660.716	137.56
660.919	151.56
661.123	140.56
661.326	117.56
661.53	100.56
661.733	107.56
661.936	117.56
662.14	102.56
662.343	111.56
662.546	107.56
662.75	102.56
662.953	103.56
663.156	92.56
663.36	105.56
663.563	87.56
663.766	91.56
663.969	91.56
664.173	89.56
664.376	86.56
664.579	88.56
664.782	91.56
664.985	91.56
665.188	93.56
665.391	88.56
665.594	79.56
665.797	85.56
666	89.56
666.203	67.56
666.406	74.56
666.609	84.56
666.812	72.56
667.015	90.56
667.218	80.56
667.421	78.56
667.624	84.56
667.827	75.56
668.03	82.56
668.232	75.56
668.435	95.56
668.638	83.56
668.841	84.56
669.043	91.56
669.246	83.56
669.449	87.56
669.651	77.56
669.854	87.56
670.057	83.56
670.259	91.56
670.462	81.56
670.665	73.56
670.867	88.56
671.07	84.56
671.272	98.56
671.475	83.56
671.677	71.56
671.88	81.56
672.082	78.56
672.284	82.56
672.487	78.56
672.689	66.56
672.892	77.56
