Data from Location3.07152019.Energy5.Lamp.07192019.3%Agarose_HRD10591_15-19-46-269.txt Node
Date: Fri Jul 19 15:19:46 EDT 2019
User: cochatt
Spectrometer: HR+D1059
Trigger mode: 1
Integration Time (sec): 1.000000E-1
Scans to average: 1
Electric dark correction enabled: true
Nonlinearity correction enabled: false
Boxcar width: 0
XAxis mode: Wavelengths
Number of Pixels in Spectrum: 2048
>>>>>Begin Spectral Data<<<<<
223.165	-21.12
223.4	-21.12
223.635	-21.12
223.869	-8.12
224.104	-21.12
224.338	-8.12
224.573	-11.12
224.808	-12.12
225.042	-3.12
225.277	-10.12
225.511	0.88
225.746	-11.12
225.98	8.88
226.215	19.88
226.449	16.88
226.683	24.88
226.918	16.88
227.152	17.88
227.387	30.88
227.621	44.88
227.856	35.88
228.09	40.88
228.324	46.88
228.559	47.88
228.793	51.88
229.027	49.88
229.262	73.88
229.496	56.88
229.73	41.88
229.964	68.88
230.199	72.88
230.433	77.88
230.667	75.88
230.901	71.88
231.136	78.88
231.37	77.88
231.604	91.88
231.838	96.88
232.072	82.88
232.306	82.88
232.541	100.88
232.775	78.88
233.009	70.88
233.243	80.88
233.477	80.88
233.711	79.88
233.945	83.88
234.179	83.88
234.413	80.88
234.647	85.88
234.881	82.88
235.115	78.88
235.349	86.88
235.583	92.88
235.817	88.88
236.051	67.88
236.285	89.88
236.519	77.88
236.753	88.88
236.987	81.88
237.221	89.88
237.455	83.88
237.689	72.88
237.922	52.88
238.156	86.88
238.39	76.88
238.624	74.88
238.858	78.88
239.091	84.88
239.325	80.88
239.559	74.88
239.793	80.88
240.027	70.88
240.26	78.88
240.494	88.88
240.728	82.88
240.961	84.88
241.195	93.88
241.429	86.88
241.662	76.88
241.896	93.88
242.13	76.88
242.363	79.88
242.597	77.88
242.83	67.88
243.064	68.88
243.298	72.88
243.531	79.88
243.765	74.88
243.998	94.88
244.232	96.88
244.465	65.88
244.699	80.88
244.932	69.88
245.166	80.88
245.399	88.88
245.633	67.88
245.866	82.88
246.099	86.88
246.333	76.88
246.566	76.88
246.8	82.88
247.033	69.88
247.266	69.88
247.5	92.88
247.733	87.88
247.966	79.88
248.2	89.88
248.433	82.88
248.666	91.88
248.899	73.88
249.133	71.88
249.366	90.88
249.599	75.88
249.832	76.88
250.066	77.88
250.299	85.88
250.532	82.88
250.765	88.88
250.998	59.88
251.231	78.88
251.465	79.88
251.698	81.88
251.931	81.88
252.164	84.88
252.397	65.88
252.63	73.88
252.863	60.88
253.096	75.88
253.329	85.88
253.562	87.88
253.795	74.88
254.028	91.88
254.261	78.88
254.494	78.88
254.727	84.88
254.96	82.88
255.193	75.88
255.426	77.88
255.659	92.88
255.892	78.88
256.124	87.88
256.357	76.88
256.59	87.88
256.823	92.88
257.056	85.88
257.289	69.88
257.521	90.88
257.754	84.88
257.987	92.88
258.22	84.88
258.452	84.88
258.685	85.88
258.918	80.88
259.151	75.88
259.383	75.88
259.616	88.88
259.849	68.88
260.081	84.88
260.314	71.88
260.547	92.88
260.779	92.88
261.012	76.88
261.244	87.88
261.477	90.88
261.71	71.88
261.942	77.88
262.175	93.88
262.407	84.88
262.64	84.88
262.872	90.88
263.105	86.88
263.337	82.88
263.57	71.88
263.802	84.88
264.035	76.88
264.267	83.88
264.499	82.88
264.732	94.88
264.964	84.88
265.197	80.88
265.429	91.88
265.661	84.88
265.894	87.88
266.126	94.88
266.358	75.88
266.591	71.88
266.823	82.88
267.055	90.88
267.287	84.88
267.52	76.88
267.752	88.88
267.984	90.88
268.216	91.88
268.448	85.88
268.681	68.88
268.913	85.88
269.145	82.88
269.377	82.88
269.609	86.88
269.841	89.88
270.073	81.88
270.306	81.88
270.538	99.88
270.77	85.88
271.002	85.88
271.234	99.88
271.466	85.88
271.698	89.88
271.93	79.88
272.162	79.88
272.394	78.88
272.626	73.88
272.858	80.88
273.09	87.88
273.322	78.88
273.553	92.88
273.785	79.88
274.017	68.88
274.249	75.88
274.481	83.88
274.713	94.88
274.945	83.88
275.176	87.88
275.408	75.88
275.64	83.88
275.872	78.88
276.104	87.88
276.335	75.88
276.567	83.88
276.799	89.88
277.031	92.88
277.262	96.88
277.494	92.88
277.726	87.88
277.957	73.88
278.189	91.88
278.421	78.88
278.652	95.88
278.884	100.88
279.115	69.88
279.347	96.88
279.579	81.88
279.81	73.88
280.042	71.88
280.273	83.88
280.505	82.88
280.736	84.88
280.968	81.88
281.199	78.88
281.431	96.88
281.662	86.88
281.894	93.88
282.125	86.88
282.356	99.88
282.588	80.88
282.819	88.88
283.051	74.88
283.282	74.88
283.513	83.88
283.745	81.88
283.976	73.88
284.207	84.88
284.439	76.88
284.67	90.88
284.901	78.88
285.132	79.88
285.364	79.88
285.595	74.88
285.826	90.88
286.057	79.88
286.288	74.88
286.52	93.88
286.751	77.88
286.982	66.88
287.213	64.88
287.444	85.88
287.675	88.88
287.906	92.88
288.138	80.88
288.369	77.88
288.6	79.88
288.831	91.88
289.062	65.88
289.293	84.88
289.524	88.88
289.755	75.88
289.986	85.88
290.217	91.88
290.448	87.88
290.679	69.88
290.91	85.88
291.141	90.88
291.371	85.88
291.602	87.88
291.833	88.88
292.064	89.88
292.295	81.88
292.526	87.88
292.757	94.88
292.987	88.88
293.218	104.88
293.449	93.88
293.68	80.88
293.91	76.88
294.141	103.88
294.372	81.88
294.603	82.88
294.833	78.88
295.064	77.88
295.295	83.88
295.525	81.88
295.756	85.88
295.987	91.88
296.217	97.88
296.448	75.88
296.679	90.88
296.909	73.88
297.14	81.88
297.37	77.88
297.601	68.88
297.831	91.88
298.062	92.88
298.292	90.88
298.523	81.88
298.753	83.88
298.984	91.88
299.214	98.88
299.445	86.88
299.675	84.88
299.905	87.88
300.136	91.88
300.366	82.88
300.597	90.88
300.827	86.88
301.057	72.88
301.288	76.88
301.518	89.88
301.748	75.88
301.979	99.88
302.209	83.88
302.439	84.88
302.669	91.88
302.9	85.88
303.13	82.88
303.36	95.88
303.59	77.88
303.82	82.88
304.051	93.88
304.281	78.88
304.511	96.88
304.741	85.88
304.971	100.88
305.201	97.88
305.431	82.88
305.661	92.88
305.891	92.88
306.121	87.88
306.352	86.88
306.582	102.88
306.812	100.88
307.042	85.88
307.272	90.88
307.502	88.88
307.731	88.88
307.961	86.88
308.191	84.88
308.421	85.88
308.651	88.88
308.881	85.88
309.111	86.88
309.341	88.88
309.571	89.88
309.8	82.88
310.03	77.88
310.26	89.88
310.49	70.88
310.72	91.88
310.949	68.88
311.179	88.88
311.409	89.88
311.639	85.88
311.868	98.88
312.098	84.88
312.328	92.88
312.557	92.88
312.787	79.88
313.017	94.88
313.246	94.88
313.476	101.88
313.706	82.88
313.935	89.88
314.165	79.88
314.394	100.88
314.624	98.88
314.853	89.88
315.083	92.88
315.312	86.88
315.542	89.88
315.771	96.88
316.001	92.88
316.23	85.88
316.46	85.88
316.689	90.88
316.919	94.88
317.148	92.88
317.377	90.88
317.607	77.88
317.836	85.88
318.065	78.88
318.295	94.88
318.524	89.88
318.753	97.88
318.983	74.88
319.212	86.88
319.441	78.88
319.67	84.88
319.9	78.88
320.129	71.88
320.358	87.88
320.587	101.88
320.816	98.88
321.046	77.88
321.275	97.88
321.504	89.88
321.733	77.88
321.962	81.88
322.191	91.88
322.42	78.88
322.649	86.88
322.878	90.88
323.108	92.88
323.337	93.88
323.566	84.88
323.795	92.88
324.024	82.88
324.253	91.88
324.482	98.88
324.71	90.88
324.939	100.88
325.168	92.88
325.397	103.88
325.626	83.88
325.855	97.88
326.084	82.88
326.313	84.88
326.542	88.88
326.77	91.88
326.999	88.88
327.228	93.88
327.457	85.88
327.686	86.88
327.914	90.88
328.143	80.88
328.372	92.88
328.6	90.88
328.829	96.88
329.058	91.88
329.287	79.88
329.515	103.88
329.744	98.88
329.972	97.88
330.201	78.88
330.43	90.88
330.658	84.88
330.887	89.88
331.115	88.88
331.344	91.88
331.572	88.88
331.801	85.88
332.03	77.88
332.258	93.88
332.486	84.88
332.715	90.88
332.943	87.88
333.172	96.88
333.4	97.88
333.629	91.88
333.857	82.88
334.085	69.88
334.314	97.88
334.542	96.88
334.771	81.88
334.999	91.88
335.227	88.88
335.455	63.88
335.684	86.88
335.912	79.88
336.14	82.88
336.369	88.88
336.597	74.88
336.825	100.88
337.053	98.88
337.281	74.88
337.51	83.88
337.738	80.88
337.966	88.88
338.194	97.88
338.422	92.88
338.65	90.88
338.878	74.88
339.106	105.88
339.334	95.88
339.562	106.88
339.79	91.88
340.018	80.88
340.246	98.88
340.474	86.88
340.702	86.88
340.93	79.88
341.158	77.88
341.386	89.88
341.614	92.88
341.842	92.88
342.07	65.88
342.298	72.88
342.526	78.88
342.754	84.88
342.981	73.88
343.209	90.88
343.437	99.88
343.665	108.88
343.893	95.88
344.12	84.88
344.348	98.88
344.576	83.88
344.804	80.88
345.031	81.88
345.259	86.88
345.487	67.88
345.714	93.88
345.942	87.88
346.17	87.88
346.397	68.88
346.625	71.88
346.853	98.88
347.08	84.88
347.308	95.88
347.535	89.88
347.763	79.88
347.99	89.88
348.218	97.88
348.445	79.88
348.673	105.88
348.9	85.88
349.128	92.88
349.355	89.88
349.583	73.88
349.81	96.88
350.037	89.88
350.265	100.88
350.492	78.88
350.72	96.88
350.947	93.88
351.174	88.88
351.402	73.88
351.629	96.88
351.856	93.88
352.083	96.88
352.311	97.88
352.538	86.88
352.765	79.88
352.992	73.88
353.22	85.88
353.447	91.88
353.674	83.88
353.901	84.88
354.128	81.88
354.355	87.88
354.583	83.88
354.81	81.88
355.037	78.88
355.264	85.88
355.491	93.88
355.718	82.88
355.945	90.88
356.172	82.88
356.399	88.88
356.626	88.88
356.853	82.88
357.08	90.88
357.307	103.88
357.534	79.88
357.761	93.88
357.988	92.88
358.215	93.88
358.441	84.88
358.668	88.88
358.895	76.88
359.122	89.88
359.349	87.88
359.576	82.88
359.802	77.88
360.029	78.88
360.256	87.88
360.483	75.88
360.709	79.88
360.936	90.88
361.163	86.88
361.39	82.88
361.616	91.88
361.843	84.88
362.07	87.88
362.296	78.88
362.523	84.88
362.749	72.88
362.976	85.88
363.203	89.88
363.429	86.88
363.656	91.88
363.882	88.88
364.109	82.88
364.335	85.88
364.562	82.88
364.788	70.88
365.015	73.88
365.241	93.88
365.468	84.88
365.694	94.88
365.92	78.88
366.147	91.88
366.373	82.88
366.599	100.88
366.826	83.88
367.052	77.88
367.278	81.88
367.505	82.88
367.731	96.88
367.957	83.88
368.184	82.88
368.41	85.88
368.636	83.88
368.862	82.88
369.089	74.88
369.315	82.88
369.541	85.88
369.767	77.88
369.993	85.88
370.219	82.88
370.445	103.88
370.672	90.88
370.898	81.88
371.124	80.88
371.35	69.88
371.576	92.88
371.802	74.88
372.028	89.88
372.254	73.88
372.48	96.88
372.706	100.88
372.932	90.88
373.158	83.88
373.384	87.88
373.61	82.88
373.835	85.88
374.061	81.88
374.287	90.88
374.513	74.88
374.739	75.88
374.965	93.88
375.191	74.88
375.416	92.88
375.642	88.88
375.868	86.88
376.094	98.88
376.319	85.88
376.545	83.88
376.771	84.88
376.997	85.88
377.222	89.88
377.448	101.88
377.674	82.88
377.899	84.88
378.125	79.88
378.35	81.88
378.576	88.88
378.802	79.88
379.027	78.88
379.253	76.88
379.478	74.88
379.704	93.88
379.929	72.88
380.155	75.88
380.38	88.88
380.606	90.88
380.831	88.88
381.057	79.88
381.282	90.88
381.507	83.88
381.733	90.88
381.958	89.88
382.184	89.88
382.409	93.88
382.634	94.88
382.86	83.88
383.085	88.88
383.31	87.88
383.535	79.88
383.761	82.88
383.986	89.88
384.211	81.88
384.436	96.88
384.662	87.88
384.887	92.88
385.112	81.88
385.337	88.88
385.562	75.88
385.787	85.88
386.013	89.88
386.238	77.88
386.463	85.88
386.688	82.88
386.913	89.88
387.138	73.88
387.363	72.88
387.588	85.88
387.813	74.88
388.038	93.88
388.263	85.88
388.488	85.88
388.713	90.88
388.938	92.88
389.163	95.88
389.387	74.88
389.612	84.88
389.837	82.88
390.062	90.88
390.287	85.88
390.512	89.88
390.736	92.88
390.961	71.88
391.186	92.88
391.411	96.88
391.636	71.88
391.86	87.88
392.085	103.88
392.31	83.88
392.534	72.88
392.759	87.88
392.984	79.88
393.208	76.88
393.433	92.88
393.658	91.88
393.882	96.88
394.107	88.88
394.331	84.88
394.556	92.88
394.78	91.88
395.005	105.88
395.229	81.88
395.454	105.88
395.678	77.88
395.903	83.88
396.127	79.88
396.352	100.88
396.576	82.88
396.801	92.88
397.025	85.88
397.249	112.88
397.474	90.88
397.698	92.88
397.922	84.88
398.147	89.88
398.371	87.88
398.595	86.88
398.82	84.88
399.044	92.88
399.268	93.88
399.492	79.88
399.717	90.88
399.941	93.88
400.165	84.88
400.389	80.88
400.613	76.88
400.837	79.88
401.062	84.88
401.286	89.88
401.51	101.88
401.734	83.88
401.958	74.88
402.182	92.88
402.406	90.88
402.63	89.88
402.854	83.88
403.078	88.88
403.302	91.88
403.526	93.88
403.75	104.88
403.974	94.88
404.198	76.88
404.422	97.88
404.645	73.88
404.869	85.88
405.093	85.88
405.317	89.88
405.541	94.88
405.765	89.88
405.988	90.88
406.212	83.88
406.436	92.88
406.66	90.88
406.883	94.88
407.107	94.88
407.331	82.88
407.555	93.88
407.778	83.88
408.002	83.88
408.226	85.88
408.449	101.88
408.673	85.88
408.896	98.88
409.12	88.88
409.344	89.88
409.567	82.88
409.791	88.88
410.014	78.88
410.238	99.88
410.461	91.88
410.685	98.88
410.908	88.88
411.132	98.88
411.355	97.88
411.578	94.88
411.802	87.88
412.025	85.88
412.249	97.88
412.472	85.88
412.695	109.88
412.919	91.88
413.142	98.88
413.365	84.88
413.589	98.88
413.812	88.88
414.035	84.88
414.258	87.88
414.482	95.88
414.705	99.88
414.928	96.88
415.151	85.88
415.374	95.88
415.597	81.88
415.821	89.88
416.044	95.88
416.267	87.88
416.49	91.88
416.713	91.88
416.936	103.88
417.159	97.88
417.382	97.88
417.605	93.88
417.828	86.88
418.051	93.88
418.274	100.88
418.497	99.88
418.72	83.88
418.943	98.88
419.166	93.88
419.389	101.88
419.611	83.88
419.834	91.88
420.057	84.88
420.28	95.88
420.503	91.88
420.726	80.88
420.948	91.88
421.171	97.88
421.394	86.88
421.617	94.88
421.839	77.88
422.062	80.88
422.285	89.88
422.507	102.88
422.73	85.88
422.953	93.88
423.175	97.88
423.398	101.88
423.621	96.88
423.843	92.88
424.066	102.88
424.288	100.88
424.511	102.88
424.733	77.88
424.956	99.88
425.178	93.88
425.401	102.88
425.623	92.88
425.846	104.88
426.068	88.88
426.291	90.88
426.513	98.88
426.735	92.88
426.958	97.88
427.18	94.88
427.402	85.88
427.625	82.88
427.847	92.88
428.069	95.88
428.292	85.88
428.514	92.88
428.736	101.88
428.958	89.88
429.181	84.88
429.403	102.88
429.625	89.88
429.847	98.88
430.069	104.88
430.292	92.88
430.514	100.88
430.736	96.88
430.958	101.88
431.18	91.88
431.402	94.88
431.624	100.88
431.846	100.88
432.068	91.88
432.29	92.88
432.512	104.88
432.734	93.88
432.956	85.88
433.178	94.88
433.4	102.88
433.622	97.88
433.844	106.88
434.066	100.88
434.287	86.88
434.509	92.88
434.731	90.88
434.953	94.88
435.175	99.88
435.397	90.88
435.618	100.88
435.84	96.88
436.062	90.88
436.284	88.88
436.505	91.88
436.727	88.88
436.949	101.88
437.17	96.88
437.392	100.88
437.614	92.88
437.835	85.88
438.057	88.88
438.278	82.88
438.5	98.88
438.721	86.88
438.943	92.88
439.165	99.88
439.386	108.88
439.608	92.88
439.829	102.88
440.05	113.88
440.272	99.88
440.493	93.88
440.715	102.88
440.936	85.88
441.158	108.88
441.379	100.88
441.6	82.88
441.822	90.88
442.043	105.88
442.264	94.88
442.486	82.88
442.707	90.88
442.928	101.88
443.149	86.88
443.371	91.88
443.592	92.88
443.813	93.88
444.034	106.88
444.255	88.88
444.476	104.88
444.698	92.88
444.919	103.88
445.14	225.88
445.361	154.88
445.582	88.88
445.803	116.88
446.024	90.88
446.245	112.88
446.466	105.88
446.687	123.88
446.908	107.88
447.129	105.88
447.35	105.88
447.571	102.88
447.792	90.88
448.013	109.88
448.234	88.88
448.455	97.88
448.675	94.88
448.896	83.88
449.117	117.88
449.338	83.88
449.559	97.88
449.779	91.88
450	107.88
450.221	103.88
450.442	100.88
450.662	93.88
450.883	101.88
451.104	97.88
451.324	87.88
451.545	106.88
451.766	101.88
451.986	91.88
452.207	79.88
452.428	93.88
452.648	102.88
452.869	91.88
453.089	100.88
453.31	93.88
453.53	99.88
453.751	87.88
453.971	87.88
454.192	88.88
454.412	75.88
454.633	78.88
454.853	92.88
455.073	103.88
455.294	101.88
455.514	82.88
455.734	104.88
455.955	101.88
456.175	96.88
456.395	93.88
456.616	88.88
456.836	93.88
457.056	81.88
457.276	99.88
457.497	80.88
457.717	84.88
457.937	82.88
458.157	72.88
458.377	83.88
458.598	85.88
458.818	95.88
459.038	99.88
459.258	77.88
459.478	93.88
459.698	72.88
459.918	82.88
460.138	87.88
460.358	98.88
460.578	109.88
460.798	86.88
461.018	84.88
461.238	91.88
461.458	94.88
461.678	90.88
461.898	85.88
462.118	86.88
462.338	81.88
462.558	80.88
462.777	85.88
462.997	81.88
463.217	69.88
463.437	85.88
463.657	100.88
463.876	83.88
464.096	85.88
464.316	104.88
464.536	70.88
464.755	104.88
464.975	90.88
465.195	98.88
465.414	78.88
465.634	105.88
465.854	89.88
466.073	89.88
466.293	108.88
466.512	100.88
466.732	105.88
466.951	113.88
467.171	99.88
467.391	101.88
467.61	109.88
467.829	92.88
468.049	95.88
468.268	93.88
468.488	100.88
468.707	99.88
468.927	89.88
469.146	104.88
469.365	100.88
469.585	94.88
469.804	101.88
470.023	112.88
470.243	109.88
470.462	112.88
470.681	104.88
470.901	94.88
471.12	95.88
471.339	104.88
471.558	110.88
471.777	88.88
471.997	102.88
472.216	97.88
472.435	94.88
472.654	86.88
472.873	80.88
473.092	88.88
473.311	89.88
473.53	100.88
473.749	95.88
473.968	107.88
474.187	91.88
474.406	92.88
474.625	100.88
474.844	112.88
475.063	100.88
475.282	90.88
475.501	95.88
475.72	109.88
475.939	108.88
476.158	105.88
476.377	89.88
476.596	80.88
476.814	113.88
477.033	90.88
477.252	93.88
477.471	100.88
477.69	93.88
477.908	106.88
478.127	105.88
478.346	97.88
478.564	89.88
478.783	92.88
479.002	94.88
479.22	89.88
479.439	91.88
479.658	99.88
479.876	97.88
480.095	108.88
480.313	92.88
480.532	93.88
480.751	99.88
480.969	85.88
481.188	93.88
481.406	85.88
481.624	91.88
481.843	95.88
482.061	98.88
482.28	93.88
482.498	100.88
482.717	100.88
482.935	98.88
483.153	96.88
483.372	99.88
483.59	105.88
483.808	103.88
484.027	88.88
484.245	88.88
484.463	101.88
484.681	76.88
484.9	112.88
485.118	99.88
485.336	108.88
485.554	98.88
485.772	90.88
485.99	80.88
486.209	86.88
486.427	91.88
486.645	96.88
486.863	93.88
487.081	89.88
487.299	96.88
487.517	114.88
487.735	112.88
487.953	99.88
488.171	99.88
488.389	97.88
488.607	106.88
488.825	102.88
489.043	95.88
489.261	108.88
489.479	98.88
489.696	91.88
489.914	104.88
490.132	98.88
490.35	106.88
490.568	119.88
490.786	113.88
491.003	106.88
491.221	119.88
491.439	108.88
491.657	114.88
491.874	113.88
492.092	122.88
492.31	122.88
492.527	106.88
492.745	104.88
492.963	129.88
493.18	123.88
493.398	117.88
493.615	117.88
493.833	122.88
494.05	106.88
494.268	107.88
494.485	100.88
494.703	107.88
494.92	105.88
495.138	106.88
495.355	114.88
495.573	106.88
495.79	104.88
496.008	102.88
496.225	101.88
496.442	105.88
496.66	115.88
496.877	110.88
497.094	109.88
497.312	93.88
497.529	103.88
497.746	114.88
497.963	96.88
498.181	102.88
498.398	93.88
498.615	92.88
498.832	101.88
499.049	85.88
499.267	112.88
499.484	87.88
499.701	117.88
499.918	96.88
500.135	104.88
500.352	116.88
500.569	91.88
500.786	96.88
501.003	100.88
501.22	110.88
501.437	107.88
501.654	96.88
501.871	98.88
502.088	97.88
502.305	104.88
502.522	109.88
502.739	105.88
502.956	98.88
503.172	94.88
503.389	92.88
503.606	99.88
503.823	96.88
504.04	103.88
504.256	89.88
504.473	81.88
504.69	93.88
504.907	97.88
505.123	108.88
505.34	92.88
505.557	93.88
505.773	91.88
505.99	101.88
506.207	101.88
506.423	95.88
506.64	89.88
506.856	91.88
507.073	96.88
507.289	109.88
507.506	93.88
507.722	87.88
507.939	97.88
508.155	88.88
508.372	86.88
508.588	101.88
508.805	83.88
509.021	76.88
509.238	82.88
509.454	86.88
509.67	97.88
509.887	95.88
510.103	89.88
510.319	89.88
510.536	88.88
510.752	85.88
510.968	75.88
511.184	95.88
511.401	84.88
511.617	83.88
511.833	77.88
512.049	77.88
512.265	93.88
512.481	77.88
512.698	78.88
512.914	95.88
513.13	100.88
513.346	81.88
513.562	72.88
513.778	74.88
513.994	79.88
514.21	94.88
514.426	77.88
514.642	75.88
514.858	87.88
515.074	92.88
515.29	84.88
515.506	93.88
515.721	83.88
515.937	77.88
516.153	93.88
516.369	97.88
516.585	86.88
516.801	90.88
517.016	85.88
517.232	91.88
517.448	89.88
517.664	85.88
517.879	83.88
518.095	76.88
518.311	84.88
518.527	77.88
518.742	91.88
518.958	96.88
519.173	82.88
519.389	98.88
519.605	85.88
519.82	72.88
520.036	99.88
520.251	79.88
520.467	93.88
520.682	85.88
520.898	88.88
521.113	70.88
521.329	92.88
521.544	79.88
521.76	86.88
521.975	80.88
522.19	81.88
522.406	90.88
522.621	94.88
522.836	95.88
523.052	93.88
523.267	95.88
523.482	97.88
523.698	93.88
523.913	86.88
524.128	101.88
524.343	85.88
524.559	90.88
524.774	104.88
524.989	79.88
525.204	95.88
525.419	101.88
525.634	76.88
525.849	82.88
526.064	102.88
526.28	81.88
526.495	104.88
526.71	103.88
526.925	81.88
527.14	69.88
527.355	95.88
527.57	74.88
527.785	79.88
527.999	88.88
528.214	85.88
528.429	96.88
528.644	86.88
528.859	113.88
529.074	100.88
529.289	110.88
529.503	118.88
529.718	107.88
529.933	93.88
530.148	91.88
530.363	101.88
530.577	72.88
530.792	84.88
531.007	93.88
531.221	78.88
531.436	92.88
531.651	90.88
531.865	87.88
532.08	97.88
532.295	94.88
532.509	91.88
532.724	93.88
532.938	84.88
533.153	86.88
533.367	103.88
533.582	86.88
533.796	87.88
534.011	106.88
534.225	75.88
534.44	88.88
534.654	96.88
534.868	82.88
535.083	97.88
535.297	75.88
535.511	81.88
535.726	93.88
535.94	93.88
536.154	92.88
536.369	83.88
536.583	82.88
536.797	91.88
537.011	96.88
537.225	88.88
537.44	76.88
537.654	82.88
537.868	93.88
538.082	77.88
538.296	87.88
538.51	95.88
538.724	93.88
538.938	97.88
539.153	103.88
539.367	81.88
539.581	102.88
539.795	96.88
540.009	90.88
540.222	82.88
540.436	90.88
540.65	96.88
540.864	93.88
541.078	101.88
541.292	117.88
541.506	112.88
541.72	99.88
541.934	120.88
542.147	119.88
542.361	133.88
542.575	112.88
542.789	103.88
543.002	96.88
543.216	93.88
543.43	93.88
543.644	100.88
543.857	97.88
544.071	88.88
544.285	113.88
544.498	101.88
544.712	103.88
544.925	117.88
545.139	110.88
545.352	122.88
545.566	113.88
545.779	109.88
545.993	106.88
546.206	110.88
546.42	107.88
546.633	126.88
546.847	117.88
547.06	107.88
547.274	113.88
547.487	112.88
547.7	122.88
547.914	114.88
548.127	88.88
548.34	105.88
548.554	122.88
548.767	119.88
548.98	122.88
549.193	116.88
549.407	121.88
549.62	95.88
549.833	104.88
550.046	108.88
550.259	89.88
550.473	106.88
550.686	105.88
550.899	102.88
551.112	106.88
551.325	99.88
551.538	100.88
551.751	104.88
551.964	94.88
552.177	102.88
552.39	101.88
552.603	107.88
552.816	109.88
553.029	98.88
553.242	118.88
553.455	102.88
553.667	104.88
553.88	104.88
554.093	113.88
554.306	112.88
554.519	117.88
554.732	104.88
554.944	98.88
555.157	108.88
555.37	116.88
555.583	100.88
555.795	105.88
556.008	120.88
556.221	104.88
556.433	93.88
556.646	91.88
556.859	92.88
557.071	93.88
557.284	97.88
557.496	96.88
557.709	91.88
557.921	99.88
558.134	105.88
558.346	125.88
558.559	107.88
558.771	98.88
558.984	99.88
559.196	105.88
559.409	101.88
559.621	97.88
559.833	94.88
560.046	88.88
560.258	108.88
560.47	101.88
560.683	95.88
560.895	107.88
561.107	113.88
561.32	105.88
561.532	98.88
561.744	99.88
561.956	113.88
562.168	109.88
562.381	98.88
562.593	92.88
562.805	92.88
563.017	117.88
563.229	110.88
563.441	103.88
563.653	86.88
563.865	96.88
564.077	100.88
564.289	103.88
564.501	97.88
564.713	99.88
564.925	109.88
565.137	101.88
565.349	101.88
565.561	102.88
565.773	92.88
565.985	89.88
566.197	83.88
566.408	102.88
566.62	103.88
566.832	101.88
567.044	102.88
567.255	108.88
567.467	99.88
567.679	92.88
567.891	92.88
568.102	95.88
568.314	89.88
568.526	72.88
568.737	91.88
568.949	104.88
569.161	78.88
569.372	95.88
569.584	103.88
569.795	89.88
570.007	90.88
570.218	88.88
570.43	75.88
570.641	90.88
570.853	83.88
571.064	88.88
571.276	96.88
571.487	100.88
571.698	93.88
571.91	101.88
572.121	102.88
572.333	92.88
572.544	93.88
572.755	83.88
572.966	102.88
573.178	91.88
573.389	70.88
573.6	86.88
573.811	83.88
574.023	99.88
574.234	96.88
574.445	90.88
574.656	77.88
574.867	90.88
575.078	93.88
575.289	89.88
575.501	88.88
575.712	77.88
575.923	93.88
576.134	97.88
576.345	94.88
576.556	98.88
576.767	100.88
576.978	81.88
577.188	90.88
577.399	94.88
577.61	94.88
577.821	93.88
578.032	94.88
578.243	82.88
578.454	91.88
578.665	92.88
578.875	63.88
579.086	94.88
579.297	77.88
579.508	69.88
579.718	95.88
579.929	76.88
580.14	93.88
580.35	89.88
580.561	100.88
580.772	75.88
580.982	78.88
581.193	86.88
581.403	93.88
581.614	92.88
581.825	82.88
582.035	88.88
582.246	100.88
582.456	90.88
582.667	87.88
582.877	91.88
583.087	93.88
583.298	84.88
583.508	105.88
583.719	89.88
583.929	89.88
584.139	72.88
584.35	78.88
584.56	94.88
584.77	94.88
584.981	98.88
585.191	85.88
585.401	90.88
585.611	74.88
585.821	84.88
586.032	88.88
586.242	89.88
586.452	92.88
586.662	78.88
586.872	78.88
587.082	89.88
587.292	97.88
587.502	85.88
587.713	87.88
587.923	82.88
588.133	92.88
588.343	84.88
588.553	85.88
588.762	91.88
588.972	86.88
589.182	83.88
589.392	81.88
589.602	87.88
589.812	89.88
590.022	107.88
590.232	85.88
590.441	93.88
590.651	84.88
590.861	89.88
591.071	81.88
591.281	94.88
591.49	84.88
591.7	87.88
591.91	83.88
592.119	85.88
592.329	89.88
592.539	76.88
592.748	85.88
592.958	94.88
593.167	85.88
593.377	92.88
593.587	95.88
593.796	84.88
594.006	86.88
594.215	87.88
594.424	72.88
594.634	85.88
594.843	82.88
595.053	90.88
595.262	87.88
595.472	95.88
595.681	80.88
595.89	90.88
596.1	82.88
596.309	95.88
596.518	88.88
596.727	74.88
596.937	87.88
597.146	83.88
597.355	84.88
597.564	100.88
597.774	84.88
597.983	93.88
598.192	90.88
598.401	91.88
598.61	86.88
598.819	96.88
599.028	89.88
599.237	89.88
599.446	75.88
599.655	84.88
599.864	90.88
600.073	89.88
600.282	91.88
600.491	82.88
600.7	99.88
600.909	100.88
601.118	98.88
601.327	104.88
601.536	90.88
601.745	73.88
601.953	94.88
602.162	84.88
602.371	90.88
602.58	97.88
602.789	91.88
602.997	98.88
603.206	96.88
603.415	95.88
603.623	87.88
603.832	104.88
604.041	97.88
604.249	89.88
604.458	98.88
604.666	84.88
604.875	78.88
605.084	84.88
605.292	97.88
605.501	89.88
605.709	73.88
605.918	70.88
606.126	91.88
606.334	90.88
606.543	81.88
606.751	97.88
606.96	106.88
607.168	85.88
607.376	99.88
607.585	88.88
607.793	86.88
608.001	105.88
608.21	107.88
608.418	96.88
608.626	98.88
608.834	93.88
609.043	81.88
609.251	91.88
609.459	98.88
609.667	90.88
609.875	106.88
610.083	94.88
610.291	97.88
610.499	92.88
610.707	103.88
610.916	93.88
611.124	106.88
611.332	107.88
611.54	90.88
611.748	98.88
611.955	93.88
612.163	106.88
612.371	96.88
612.579	98.88
612.787	97.88
612.995	86.88
613.203	85.88
613.411	100.88
613.618	92.88
613.826	108.88
614.034	103.88
614.242	97.88
614.449	104.88
614.657	101.88
614.865	87.88
615.072	105.88
615.28	99.88
615.488	103.88
615.695	97.88
615.903	102.88
616.111	100.88
616.318	90.88
616.526	85.88
616.733	91.88
616.941	98.88
617.148	86.88
617.356	94.88
617.563	90.88
617.771	91.88
617.978	86.88
618.185	99.88
618.393	86.88
618.6	90.88
618.807	81.88
619.015	89.88
619.222	94.88
619.429	84.88
619.637	94.88
619.844	91.88
620.051	96.88
620.258	86.88
620.466	105.88
620.673	92.88
620.88	86.88
621.087	91.88
621.294	92.88
621.501	97.88
621.708	85.88
621.915	82.88
622.122	81.88
622.329	102.88
622.536	87.88
622.743	107.88
622.95	86.88
623.157	94.88
623.364	100.88
623.571	98.88
623.778	97.88
623.985	87.88
624.192	89.88
624.399	94.88
624.606	101.88
624.812	81.88
625.019	84.88
625.226	86.88
625.433	94.88
625.639	96.88
625.846	90.88
626.053	83.88
626.259	91.88
626.466	108.88
626.673	88.88
626.879	90.88
627.086	82.88
627.293	86.88
627.499	82.88
627.706	103.88
627.912	86.88
628.119	103.88
628.325	86.88
628.532	96.88
628.738	104.88
628.945	85.88
629.151	96.88
629.357	99.88
629.564	84.88
629.77	77.88
629.976	93.88
630.183	92.88
630.389	99.88
630.595	78.88
630.802	100.88
631.008	82.88
631.214	102.88
631.42	87.88
631.627	88.88
631.833	77.88
632.039	91.88
632.245	92.88
632.451	104.88
632.657	103.88
632.863	84.88
633.069	89.88
633.275	80.88
633.481	89.88
633.688	81.88
633.893	100.88
634.099	88.88
634.305	100.88
634.511	87.88
634.717	92.88
634.923	75.88
635.129	90.88
635.335	75.88
635.541	79.88
635.747	93.88
635.952	103.88
636.158	93.88
636.364	96.88
636.57	86.88
636.775	98.88
636.981	92.88
637.187	101.88
637.392	82.88
637.598	98.88
637.804	89.88
638.009	87.88
638.215	86.88
638.421	84.88
638.626	83.88
638.832	106.88
639.037	82.88
639.243	91.88
639.448	74.88
639.654	99.88
639.859	113.88
640.065	67.88
640.27	96.88
640.475	98.88
640.681	88.88
640.886	87.88
641.091	92.88
641.297	103.88
641.502	78.88
641.707	95.88
641.913	78.88
642.118	80.88
642.323	85.88
642.528	97.88
642.733	90.88
642.939	77.88
643.144	81.88
643.349	87.88
643.554	97.88
643.759	102.88
643.964	82.88
644.169	91.88
644.374	89.88
644.579	83.88
644.784	79.88
644.989	99.88
645.194	88.88
645.399	79.88
645.604	91.88
645.809	97.88
646.014	84.88
646.219	79.88
646.423	82.88
646.628	88.88
646.833	89.88
647.038	101.88
647.243	92.88
647.447	86.88
647.652	108.88
647.857	92.88
648.062	92.88
648.266	97.88
648.471	96.88
648.676	78.88
648.88	72.88
649.085	89.88
649.289	81.88
649.494	82.88
649.698	86.88
649.903	91.88
650.107	94.88
650.312	105.88
650.516	78.88
650.721	89.88
650.925	69.88
651.13	91.88
651.334	84.88
651.539	76.88
651.743	78.88
651.947	104.88
652.152	104.88
652.356	96.88
652.56	79.88
652.764	97.88
652.969	85.88
653.173	74.88
653.377	78.88
653.581	76.88
653.785	89.88
653.99	87.88
654.194	73.88
654.398	66.88
654.602	81.88
654.806	89.88
655.01	93.88
655.214	91.88
655.418	88.88
655.622	84.88
655.826	81.88
656.03	89.88
656.234	94.88
656.438	90.88
656.642	91.88
656.846	98.88
657.049	84.88
657.253	91.88
657.457	78.88
657.661	94.88
657.865	92.88
658.068	85.88
658.272	77.88
658.476	76.88
658.68	76.88
658.883	86.88
659.087	91.88
659.291	89.88
659.494	80.88
659.698	68.88
659.901	93.88
660.105	80.88
660.309	80.88
660.512	96.88
660.716	93.88
660.919	77.88
661.123	96.88
661.326	85.88
661.53	82.88
661.733	93.88
661.936	83.88
662.14	82.88
662.343	74.88
662.546	78.88
662.75	93.88
662.953	72.88
663.156	86.88
663.36	80.88
663.563	81.88
663.766	83.88
663.969	78.88
664.173	82.88
664.376	93.88
664.579	88.88
664.782	86.88
664.985	81.88
665.188	87.88
665.391	71.88
665.594	87.88
665.797	79.88
666	79.88
666.203	89.88
666.406	85.88
666.609	79.88
666.812	82.88
667.015	94.88
667.218	89.88
667.421	73.88
667.624	82.88
667.827	92.88
668.03	85.88
668.232	94.88
668.435	90.88
668.638	77.88
668.841	77.88
669.043	81.88
669.246	89.88
669.449	87.88
669.651	78.88
669.854	76.88
670.057	73.88
670.259	75.88
670.462	90.88
670.665	88.88
670.867	78.88
671.07	76.88
671.272	94.88
671.475	87.88
671.677	76.88
671.88	90.88
672.082	74.88
672.284	89.88
672.487	92.88
672.689	76.88
672.892	72.88
