Data from Location3.07152019.Energy5.Lamp.07192019.3%Agarose_HRD10591_15-18-19-270.txt Node
Date: Fri Jul 19 15:18:19 EDT 2019
User: cochatt
Spectrometer: HR+D1059
Trigger mode: 1
Integration Time (sec): 1.000000E-1
Scans to average: 1
Electric dark correction enabled: true
Nonlinearity correction enabled: false
Boxcar width: 0
XAxis mode: Wavelengths
Number of Pixels in Spectrum: 2048
>>>>>Begin Spectral Data<<<<<
223.165	-21.75
223.4	-21.75
223.635	-21.75
223.869	-14.75
224.104	-14.75
224.338	-9.75
224.573	-13.75
224.808	-23.75
225.042	-7.75
225.277	9.25
225.511	7.25
225.746	0.25
225.98	-0.75
226.215	25.25
226.449	2.25
226.683	21.25
226.918	17.25
227.152	24.25
227.387	35.25
227.621	52.25
227.856	45.25
228.09	39.25
228.324	51.25
228.559	65.25
228.793	58.25
229.027	50.25
229.262	70.25
229.496	64.25
229.73	65.25
229.964	56.25
230.199	68.25
230.433	74.25
230.667	79.25
230.901	81.25
231.136	70.25
231.37	72.25
231.604	72.25
231.838	81.25
232.072	77.25
232.306	86.25
232.541	91.25
232.775	77.25
233.009	86.25
233.243	89.25
233.477	74.25
233.711	85.25
233.945	85.25
234.179	86.25
234.413	84.25
234.647	84.25
234.881	84.25
235.115	82.25
235.349	79.25
235.583	73.25
235.817	83.25
236.051	81.25
236.285	74.25
236.519	75.25
236.753	83.25
236.987	85.25
237.221	69.25
237.455	80.25
237.689	78.25
237.922	66.25
238.156	62.25
238.39	77.25
238.624	71.25
238.858	73.25
239.091	72.25
239.325	76.25
239.559	70.25
239.793	69.25
240.027	80.25
240.26	77.25
240.494	65.25
240.728	72.25
240.961	81.25
241.195	82.25
241.429	80.25
241.662	70.25
241.896	71.25
242.13	76.25
242.363	64.25
242.597	69.25
242.83	92.25
243.064	83.25
243.298	75.25
243.531	69.25
243.765	73.25
243.998	90.25
244.232	74.25
244.465	82.25
244.699	70.25
244.932	77.25
245.166	69.25
245.399	84.25
245.633	79.25
245.866	65.25
246.099	75.25
246.333	71.25
246.566	69.25
246.8	75.25
247.033	80.25
247.266	79.25
247.5	74.25
247.733	68.25
247.966	80.25
248.2	82.25
248.433	75.25
248.666	66.25
248.899	85.25
249.133	81.25
249.366	87.25
249.599	79.25
249.832	81.25
250.066	80.25
250.299	73.25
250.532	60.25
250.765	76.25
250.998	89.25
251.231	74.25
251.465	82.25
251.698	71.25
251.931	61.25
252.164	81.25
252.397	86.25
252.63	78.25
252.863	83.25
253.096	72.25
253.329	93.25
253.562	88.25
253.795	80.25
254.028	81.25
254.261	87.25
254.494	82.25
254.727	82.25
254.96	90.25
255.193	80.25
255.426	86.25
255.659	90.25
255.892	74.25
256.124	73.25
256.357	91.25
256.59	91.25
256.823	79.25
257.056	77.25
257.289	69.25
257.521	94.25
257.754	77.25
257.987	82.25
258.22	93.25
258.452	77.25
258.685	82.25
258.918	81.25
259.151	74.25
259.383	79.25
259.616	78.25
259.849	79.25
260.081	77.25
260.314	82.25
260.547	78.25
260.779	81.25
261.012	87.25
261.244	73.25
261.477	78.25
261.71	84.25
261.942	84.25
262.175	87.25
262.407	85.25
262.64	69.25
262.872	79.25
263.105	84.25
263.337	73.25
263.57	87.25
263.802	93.25
264.035	72.25
264.267	81.25
264.499	91.25
264.732	81.25
264.964	85.25
265.197	82.25
265.429	82.25
265.661	73.25
265.894	75.25
266.126	90.25
266.358	85.25
266.591	84.25
266.823	79.25
267.055	92.25
267.287	71.25
267.52	66.25
267.752	75.25
267.984	72.25
268.216	69.25
268.448	75.25
268.681	83.25
268.913	73.25
269.145	73.25
269.377	85.25
269.609	80.25
269.841	90.25
270.073	88.25
270.306	85.25
270.538	79.25
270.77	94.25
271.002	80.25
271.234	77.25
271.466	94.25
271.698	87.25
271.93	77.25
272.162	94.25
272.394	91.25
272.626	83.25
272.858	79.25
273.09	94.25
273.322	88.25
273.553	101.25
273.785	90.25
274.017	72.25
274.249	91.25
274.481	81.25
274.713	67.25
274.945	74.25
275.176	79.25
275.408	93.25
275.64	76.25
275.872	77.25
276.104	101.25
276.335	84.25
276.567	73.25
276.799	93.25
277.031	90.25
277.262	73.25
277.494	87.25
277.726	82.25
277.957	89.25
278.189	85.25
278.421	74.25
278.652	73.25
278.884	88.25
279.115	79.25
279.347	81.25
279.579	85.25
279.81	78.25
280.042	86.25
280.273	74.25
280.505	82.25
280.736	74.25
280.968	85.25
281.199	82.25
281.431	86.25
281.662	89.25
281.894	85.25
282.125	90.25
282.356	86.25
282.588	83.25
282.819	75.25
283.051	79.25
283.282	80.25
283.513	80.25
283.745	66.25
283.976	81.25
284.207	83.25
284.439	66.25
284.67	94.25
284.901	86.25
285.132	85.25
285.364	86.25
285.595	86.25
285.826	88.25
286.057	82.25
286.288	89.25
286.52	89.25
286.751	65.25
286.982	91.25
287.213	92.25
287.444	98.25
287.675	83.25
287.906	69.25
288.138	83.25
288.369	86.25
288.6	102.25
288.831	80.25
289.062	77.25
289.293	96.25
289.524	82.25
289.755	92.25
289.986	85.25
290.217	91.25
290.448	79.25
290.679	76.25
290.91	79.25
291.141	87.25
291.371	85.25
291.602	98.25
291.833	86.25
292.064	86.25
292.295	91.25
292.526	75.25
292.757	88.25
292.987	79.25
293.218	100.25
293.449	84.25
293.68	73.25
293.91	77.25
294.141	83.25
294.372	70.25
294.603	86.25
294.833	97.25
295.064	71.25
295.295	68.25
295.525	93.25
295.756	76.25
295.987	85.25
296.217	86.25
296.448	75.25
296.679	83.25
296.909	84.25
297.14	83.25
297.37	86.25
297.601	82.25
297.831	79.25
298.062	80.25
298.292	82.25
298.523	85.25
298.753	90.25
298.984	79.25
299.214	91.25
299.445	87.25
299.675	86.25
299.905	75.25
300.136	78.25
300.366	91.25
300.597	96.25
300.827	96.25
301.057	91.25
301.288	87.25
301.518	92.25
301.748	82.25
301.979	85.25
302.209	93.25
302.439	76.25
302.669	95.25
302.9	86.25
303.13	96.25
303.36	85.25
303.59	102.25
303.82	82.25
304.051	89.25
304.281	87.25
304.511	87.25
304.741	89.25
304.971	81.25
305.201	91.25
305.431	85.25
305.661	78.25
305.891	96.25
306.121	83.25
306.352	95.25
306.582	83.25
306.812	89.25
307.042	95.25
307.272	73.25
307.502	78.25
307.731	88.25
307.961	79.25
308.191	82.25
308.421	83.25
308.651	85.25
308.881	93.25
309.111	89.25
309.341	75.25
309.571	69.25
309.8	73.25
310.03	87.25
310.26	94.25
310.49	97.25
310.72	99.25
310.949	88.25
311.179	80.25
311.409	93.25
311.639	86.25
311.868	82.25
312.098	87.25
312.328	81.25
312.557	82.25
312.787	78.25
313.017	79.25
313.246	83.25
313.476	91.25
313.706	93.25
313.935	76.25
314.165	76.25
314.394	70.25
314.624	78.25
314.853	74.25
315.083	81.25
315.312	81.25
315.542	78.25
315.771	82.25
316.001	82.25
316.23	89.25
316.46	87.25
316.689	73.25
316.919	90.25
317.148	93.25
317.377	86.25
317.607	85.25
317.836	89.25
318.065	93.25
318.295	78.25
318.524	78.25
318.753	78.25
318.983	84.25
319.212	90.25
319.441	84.25
319.67	83.25
319.9	100.25
320.129	88.25
320.358	78.25
320.587	83.25
320.816	68.25
321.046	100.25
321.275	88.25
321.504	81.25
321.733	93.25
321.962	93.25
322.191	91.25
322.42	80.25
322.649	92.25
322.878	86.25
323.108	93.25
323.337	90.25
323.566	75.25
323.795	94.25
324.024	98.25
324.253	86.25
324.482	85.25
324.71	90.25
324.939	86.25
325.168	89.25
325.397	88.25
325.626	89.25
325.855	93.25
326.084	76.25
326.313	74.25
326.542	88.25
326.77	82.25
326.999	77.25
327.228	79.25
327.457	79.25
327.686	91.25
327.914	81.25
328.143	95.25
328.372	89.25
328.6	85.25
328.829	75.25
329.058	76.25
329.287	87.25
329.515	97.25
329.744	76.25
329.972	84.25
330.201	73.25
330.43	83.25
330.658	79.25
330.887	94.25
331.115	93.25
331.344	90.25
331.572	89.25
331.801	89.25
332.03	80.25
332.258	75.25
332.486	77.25
332.715	86.25
332.943	80.25
333.172	85.25
333.4	96.25
333.629	90.25
333.857	72.25
334.085	85.25
334.314	81.25
334.542	86.25
334.771	103.25
334.999	82.25
335.227	84.25
335.455	88.25
335.684	100.25
335.912	93.25
336.14	98.25
336.369	75.25
336.597	93.25
336.825	98.25
337.053	93.25
337.281	87.25
337.51	86.25
337.738	88.25
337.966	99.25
338.194	81.25
338.422	65.25
338.65	74.25
338.878	89.25
339.106	70.25
339.334	91.25
339.562	83.25
339.79	88.25
340.018	80.25
340.246	81.25
340.474	100.25
340.702	77.25
340.93	94.25
341.158	85.25
341.386	74.25
341.614	74.25
341.842	69.25
342.07	81.25
342.298	81.25
342.526	96.25
342.754	84.25
342.981	81.25
343.209	88.25
343.437	95.25
343.665	75.25
343.893	87.25
344.12	89.25
344.348	90.25
344.576	92.25
344.804	83.25
345.031	81.25
345.259	80.25
345.487	76.25
345.714	94.25
345.942	86.25
346.17	78.25
346.397	86.25
346.625	85.25
346.853	93.25
347.08	70.25
347.308	87.25
347.535	89.25
347.763	69.25
347.99	91.25
348.218	70.25
348.445	82.25
348.673	77.25
348.9	92.25
349.128	88.25
349.355	85.25
349.583	90.25
349.81	77.25
350.037	84.25
350.265	64.25
350.492	86.25
350.72	79.25
350.947	70.25
351.174	82.25
351.402	83.25
351.629	82.25
351.856	89.25
352.083	85.25
352.311	75.25
352.538	60.25
352.765	67.25
352.992	79.25
353.22	81.25
353.447	71.25
353.674	81.25
353.901	86.25
354.128	89.25
354.355	91.25
354.583	79.25
354.81	74.25
355.037	85.25
355.264	81.25
355.491	84.25
355.718	87.25
355.945	77.25
356.172	78.25
356.399	89.25
356.626	85.25
356.853	77.25
357.08	86.25
357.307	79.25
357.534	85.25
357.761	91.25
357.988	92.25
358.215	90.25
358.441	79.25
358.668	89.25
358.895	83.25
359.122	80.25
359.349	79.25
359.576	79.25
359.802	88.25
360.029	80.25
360.256	76.25
360.483	83.25
360.709	90.25
360.936	97.25
361.163	71.25
361.39	69.25
361.616	82.25
361.843	76.25
362.07	80.25
362.296	61.25
362.523	79.25
362.749	85.25
362.976	82.25
363.203	81.25
363.429	76.25
363.656	93.25
363.882	89.25
364.109	87.25
364.335	81.25
364.562	85.25
364.788	71.25
365.015	94.25
365.241	83.25
365.468	94.25
365.694	71.25
365.92	85.25
366.147	83.25
366.373	84.25
366.599	80.25
366.826	58.25
367.052	80.25
367.278	70.25
367.505	79.25
367.731	93.25
367.957	73.25
368.184	75.25
368.41	80.25
368.636	82.25
368.862	81.25
369.089	68.25
369.315	72.25
369.541	81.25
369.767	83.25
369.993	77.25
370.219	82.25
370.445	79.25
370.672	81.25
370.898	75.25
371.124	89.25
371.35	84.25
371.576	82.25
371.802	62.25
372.028	77.25
372.254	80.25
372.48	85.25
372.706	103.25
372.932	86.25
373.158	87.25
373.384	90.25
373.61	78.25
373.835	80.25
374.061	96.25
374.287	87.25
374.513	98.25
374.739	92.25
374.965	65.25
375.191	90.25
375.416	90.25
375.642	89.25
375.868	80.25
376.094	93.25
376.319	83.25
376.545	78.25
376.771	74.25
376.997	79.25
377.222	82.25
377.448	87.25
377.674	87.25
377.899	86.25
378.125	83.25
378.35	89.25
378.576	90.25
378.802	78.25
379.027	74.25
379.253	85.25
379.478	86.25
379.704	84.25
379.929	78.25
380.155	78.25
380.38	80.25
380.606	84.25
380.831	78.25
381.057	79.25
381.282	86.25
381.507	71.25
381.733	94.25
381.958	81.25
382.184	63.25
382.409	75.25
382.634	81.25
382.86	88.25
383.085	104.25
383.31	82.25
383.535	90.25
383.761	88.25
383.986	95.25
384.211	89.25
384.436	86.25
384.662	67.25
384.887	89.25
385.112	79.25
385.337	74.25
385.562	80.25
385.787	79.25
386.013	90.25
386.238	81.25
386.463	87.25
386.688	84.25
386.913	79.25
387.138	83.25
387.363	75.25
387.588	88.25
387.813	87.25
388.038	88.25
388.263	89.25
388.488	100.25
388.713	85.25
388.938	70.25
389.163	69.25
389.387	82.25
389.612	90.25
389.837	74.25
390.062	82.25
390.287	80.25
390.512	88.25
390.736	70.25
390.961	97.25
391.186	88.25
391.411	85.25
391.636	73.25
391.86	75.25
392.085	86.25
392.31	82.25
392.534	84.25
392.759	78.25
392.984	83.25
393.208	80.25
393.433	74.25
393.658	66.25
393.882	78.25
394.107	79.25
394.331	72.25
394.556	93.25
394.78	87.25
395.005	82.25
395.229	84.25
395.454	89.25
395.678	73.25
395.903	88.25
396.127	90.25
396.352	75.25
396.576	79.25
396.801	75.25
397.025	83.25
397.249	86.25
397.474	90.25
397.698	79.25
397.922	90.25
398.147	83.25
398.371	103.25
398.595	89.25
398.82	77.25
399.044	98.25
399.268	81.25
399.492	86.25
399.717	88.25
399.941	73.25
400.165	81.25
400.389	82.25
400.613	91.25
400.837	96.25
401.062	94.25
401.286	95.25
401.51	91.25
401.734	105.25
401.958	74.25
402.182	78.25
402.406	81.25
402.63	95.25
402.854	100.25
403.078	94.25
403.302	84.25
403.526	100.25
403.75	81.25
403.974	69.25
404.198	84.25
404.422	75.25
404.645	82.25
404.869	93.25
405.093	85.25
405.317	80.25
405.541	82.25
405.765	91.25
405.988	91.25
406.212	92.25
406.436	92.25
406.66	81.25
406.883	107.25
407.107	86.25
407.331	83.25
407.555	94.25
407.778	91.25
408.002	83.25
408.226	87.25
408.449	83.25
408.673	94.25
408.896	79.25
409.12	87.25
409.344	68.25
409.567	89.25
409.791	85.25
410.014	85.25
410.238	88.25
410.461	90.25
410.685	96.25
410.908	85.25
411.132	101.25
411.355	95.25
411.578	90.25
411.802	89.25
412.025	77.25
412.249	87.25
412.472	106.25
412.695	92.25
412.919	77.25
413.142	87.25
413.365	90.25
413.589	100.25
413.812	91.25
414.035	85.25
414.258	92.25
414.482	94.25
414.705	91.25
414.928	90.25
415.151	97.25
415.374	87.25
415.597	97.25
415.821	86.25
416.044	90.25
416.267	93.25
416.49	86.25
416.713	96.25
416.936	93.25
417.159	96.25
417.382	94.25
417.605	102.25
417.828	87.25
418.051	109.25
418.274	101.25
418.497	90.25
418.72	73.25
418.943	81.25
419.166	89.25
419.389	82.25
419.611	98.25
419.834	89.25
420.057	105.25
420.28	88.25
420.503	90.25
420.726	76.25
420.948	100.25
421.171	89.25
421.394	93.25
421.617	97.25
421.839	92.25
422.062	96.25
422.285	97.25
422.507	106.25
422.73	89.25
422.953	90.25
423.175	90.25
423.398	87.25
423.621	87.25
423.843	90.25
424.066	94.25
424.288	103.25
424.511	92.25
424.733	90.25
424.956	97.25
425.178	107.25
425.401	88.25
425.623	103.25
425.846	94.25
426.068	94.25
426.291	97.25
426.513	83.25
426.735	105.25
426.958	90.25
427.18	90.25
427.402	91.25
427.625	96.25
427.847	87.25
428.069	95.25
428.292	88.25
428.514	94.25
428.736	86.25
428.958	86.25
429.181	87.25
429.403	94.25
429.625	81.25
429.847	90.25
430.069	93.25
430.292	95.25
430.514	93.25
430.736	89.25
430.958	93.25
431.18	101.25
431.402	92.25
431.624	88.25
431.846	85.25
432.068	96.25
432.29	90.25
432.512	86.25
432.734	94.25
432.956	96.25
433.178	104.25
433.4	97.25
433.622	88.25
433.844	98.25
434.066	93.25
434.287	92.25
434.509	97.25
434.731	69.25
434.953	81.25
435.175	85.25
435.397	79.25
435.618	105.25
435.84	101.25
436.062	88.25
436.284	95.25
436.505	94.25
436.727	85.25
436.949	81.25
437.17	102.25
437.392	84.25
437.614	101.25
437.835	89.25
438.057	86.25
438.278	97.25
438.5	98.25
438.721	112.25
438.943	89.25
439.165	84.25
439.386	91.25
439.608	114.25
439.829	98.25
440.05	100.25
440.272	90.25
440.493	95.25
440.715	98.25
440.936	94.25
441.158	100.25
441.379	91.25
441.6	110.25
441.822	105.25
442.043	97.25
442.264	93.25
442.486	87.25
442.707	103.25
442.928	94.25
443.149	106.25
443.371	108.25
443.592	96.25
443.813	94.25
444.034	104.25
444.255	95.25
444.476	91.25
444.698	99.25
444.919	93.25
445.14	215.25
445.361	153.25
445.582	86.25
445.803	109.25
446.024	102.25
446.245	109.25
446.466	109.25
446.687	100.25
446.908	94.25
447.129	93.25
447.35	82.25
447.571	109.25
447.792	95.25
448.013	94.25
448.234	88.25
448.455	79.25
448.675	91.25
448.896	101.25
449.117	87.25
449.338	92.25
449.559	99.25
449.779	93.25
450	79.25
450.221	94.25
450.442	95.25
450.662	106.25
450.883	104.25
451.104	111.25
451.324	93.25
451.545	89.25
451.766	92.25
451.986	85.25
452.207	98.25
452.428	82.25
452.648	98.25
452.869	105.25
453.089	91.25
453.31	80.25
453.53	98.25
453.751	85.25
453.971	79.25
454.192	88.25
454.412	85.25
454.633	87.25
454.853	91.25
455.073	86.25
455.294	82.25
455.514	84.25
455.734	89.25
455.955	83.25
456.175	88.25
456.395	81.25
456.616	92.25
456.836	75.25
457.056	76.25
457.276	98.25
457.497	85.25
457.717	79.25
457.937	74.25
458.157	74.25
458.377	84.25
458.598	80.25
458.818	92.25
459.038	65.25
459.258	74.25
459.478	85.25
459.698	78.25
459.918	93.25
460.138	76.25
460.358	85.25
460.578	89.25
460.798	101.25
461.018	91.25
461.238	88.25
461.458	85.25
461.678	103.25
461.898	93.25
462.118	100.25
462.338	82.25
462.558	95.25
462.777	81.25
462.997	79.25
463.217	82.25
463.437	94.25
463.657	90.25
463.876	89.25
464.096	88.25
464.316	84.25
464.536	88.25
464.755	89.25
464.975	96.25
465.195	77.25
465.414	83.25
465.634	89.25
465.854	94.25
466.073	98.25
466.293	88.25
466.512	86.25
466.732	79.25
466.951	88.25
467.171	102.25
467.391	102.25
467.61	88.25
467.829	99.25
468.049	95.25
468.268	94.25
468.488	91.25
468.707	91.25
468.927	97.25
469.146	89.25
469.365	91.25
469.585	89.25
469.804	102.25
470.023	102.25
470.243	97.25
470.462	102.25
470.681	99.25
470.901	92.25
471.12	101.25
471.339	107.25
471.558	104.25
471.777	101.25
471.997	98.25
472.216	106.25
472.435	94.25
472.654	78.25
472.873	93.25
473.092	87.25
473.311	100.25
473.53	98.25
473.749	82.25
473.968	75.25
474.187	83.25
474.406	85.25
474.625	90.25
474.844	94.25
475.063	95.25
475.282	88.25
475.501	86.25
475.72	88.25
475.939	95.25
476.158	99.25
476.377	82.25
476.596	97.25
476.814	91.25
477.033	94.25
477.252	93.25
477.471	84.25
477.69	103.25
477.908	111.25
478.127	87.25
478.346	89.25
478.564	100.25
478.783	114.25
479.002	91.25
479.22	102.25
479.439	87.25
479.658	90.25
479.876	99.25
480.095	92.25
480.313	73.25
480.532	110.25
480.751	85.25
480.969	82.25
481.188	83.25
481.406	81.25
481.624	75.25
481.843	87.25
482.061	86.25
482.28	83.25
482.498	73.25
482.717	81.25
482.935	107.25
483.153	78.25
483.372	97.25
483.59	99.25
483.808	90.25
484.027	105.25
484.245	89.25
484.463	98.25
484.681	121.25
484.9	101.25
485.118	96.25
485.336	106.25
485.554	97.25
485.772	88.25
485.99	95.25
486.209	87.25
486.427	86.25
486.645	85.25
486.863	100.25
487.081	99.25
487.299	94.25
487.517	105.25
487.735	106.25
487.953	111.25
488.171	119.25
488.389	102.25
488.607	106.25
488.825	101.25
489.043	67.25
489.261	89.25
489.479	94.25
489.696	102.25
489.914	90.25
490.132	104.25
490.35	106.25
490.568	123.25
490.786	114.25
491.003	89.25
491.221	105.25
491.439	116.25
491.657	87.25
491.874	122.25
492.092	129.25
492.31	139.25
492.527	129.25
492.745	114.25
492.963	109.25
493.18	106.25
493.398	115.25
493.615	118.25
493.833	96.25
494.05	104.25
494.268	112.25
494.485	120.25
494.703	126.25
494.92	99.25
495.138	109.25
495.355	109.25
495.573	113.25
495.79	106.25
496.008	109.25
496.225	90.25
496.442	111.25
496.66	107.25
496.877	102.25
497.094	105.25
497.312	100.25
497.529	87.25
497.746	110.25
497.963	99.25
498.181	94.25
498.398	88.25
498.615	115.25
498.832	94.25
499.049	89.25
499.267	99.25
499.484	94.25
499.701	99.25
499.918	103.25
500.135	80.25
500.352	104.25
500.569	104.25
500.786	97.25
501.003	100.25
501.22	85.25
501.437	85.25
501.654	111.25
501.871	94.25
502.088	88.25
502.305	81.25
502.522	103.25
502.739	102.25
502.956	85.25
503.172	88.25
503.389	92.25
503.606	90.25
503.823	89.25
504.04	91.25
504.256	96.25
504.473	93.25
504.69	93.25
504.907	101.25
505.123	97.25
505.34	88.25
505.557	94.25
505.773	85.25
505.99	91.25
506.207	92.25
506.423	91.25
506.64	84.25
506.856	96.25
507.073	86.25
507.289	99.25
507.506	92.25
507.722	92.25
507.939	93.25
508.155	95.25
508.372	99.25
508.588	96.25
508.805	80.25
509.021	86.25
509.238	96.25
509.454	102.25
509.67	87.25
509.887	89.25
510.103	86.25
510.319	73.25
510.536	76.25
510.752	83.25
510.968	86.25
511.184	85.25
511.401	73.25
511.617	84.25
511.833	81.25
512.049	96.25
512.265	79.25
512.481	78.25
512.698	80.25
512.914	88.25
513.13	89.25
513.346	83.25
513.562	84.25
513.778	88.25
513.994	72.25
514.21	91.25
514.426	84.25
514.642	91.25
514.858	90.25
515.074	89.25
515.29	86.25
515.506	87.25
515.721	93.25
515.937	86.25
516.153	85.25
516.369	82.25
516.585	73.25
516.801	80.25
517.016	83.25
517.232	90.25
517.448	90.25
517.664	90.25
517.879	81.25
518.095	96.25
518.311	91.25
518.527	83.25
518.742	93.25
518.958	90.25
519.173	80.25
519.389	99.25
519.605	90.25
519.82	98.25
520.036	92.25
520.251	95.25
520.467	100.25
520.682	96.25
520.898	75.25
521.113	85.25
521.329	76.25
521.544	87.25
521.76	93.25
521.975	97.25
522.19	80.25
522.406	93.25
522.621	88.25
522.836	87.25
523.052	93.25
523.267	89.25
523.482	71.25
523.698	94.25
523.913	94.25
524.128	107.25
524.343	107.25
524.559	84.25
524.774	86.25
524.989	98.25
525.204	91.25
525.419	101.25
525.634	75.25
525.849	95.25
526.064	94.25
526.28	87.25
526.495	77.25
526.71	84.25
526.925	76.25
527.14	80.25
527.355	88.25
527.57	75.25
527.785	84.25
527.999	93.25
528.214	97.25
528.429	87.25
528.644	94.25
528.859	83.25
529.074	109.25
529.289	95.25
529.503	96.25
529.718	96.25
529.933	99.25
530.148	82.25
530.363	82.25
530.577	90.25
530.792	99.25
531.007	87.25
531.221	80.25
531.436	78.25
531.651	91.25
531.865	77.25
532.08	85.25
532.295	89.25
532.509	88.25
532.724	84.25
532.938	76.25
533.153	83.25
533.367	91.25
533.582	100.25
533.796	93.25
534.011	88.25
534.225	97.25
534.44	89.25
534.654	86.25
534.868	105.25
535.083	93.25
535.297	87.25
535.511	85.25
535.726	84.25
535.94	88.25
536.154	69.25
536.369	80.25
536.583	86.25
536.797	89.25
537.011	88.25
537.225	98.25
537.44	103.25
537.654	81.25
537.868	70.25
538.082	86.25
538.296	71.25
538.51	81.25
538.724	97.25
538.938	87.25
539.153	104.25
539.367	92.25
539.581	88.25
539.795	90.25
540.009	88.25
540.222	98.25
540.436	77.25
540.65	88.25
540.864	94.25
541.078	99.25
541.292	98.25
541.506	102.25
541.72	98.25
541.934	114.25
542.147	124.25
542.361	100.25
542.575	102.25
542.789	101.25
543.002	107.25
543.216	92.25
543.43	88.25
543.644	101.25
543.857	104.25
544.071	111.25
544.285	106.25
544.498	95.25
544.712	95.25
544.925	109.25
545.139	91.25
545.352	115.25
545.566	105.25
545.779	107.25
545.993	114.25
546.206	115.25
546.42	104.25
546.633	95.25
546.847	104.25
547.06	109.25
547.274	97.25
547.487	117.25
547.7	122.25
547.914	100.25
548.127	124.25
548.34	101.25
548.554	115.25
548.767	120.25
548.98	105.25
549.193	118.25
549.407	119.25
549.62	93.25
549.833	89.25
550.046	99.25
550.259	107.25
550.473	106.25
550.686	106.25
550.899	76.25
551.112	104.25
551.325	98.25
551.538	94.25
551.751	104.25
551.964	87.25
552.177	98.25
552.39	92.25
552.603	100.25
552.816	99.25
553.029	108.25
553.242	88.25
553.455	118.25
553.667	115.25
553.88	120.25
554.093	110.25
554.306	105.25
554.519	114.25
554.732	103.25
554.944	105.25
555.157	97.25
555.37	101.25
555.583	115.25
555.795	81.25
556.008	91.25
556.221	103.25
556.433	113.25
556.646	117.25
556.859	94.25
557.071	91.25
557.284	101.25
557.496	99.25
557.709	77.25
557.921	97.25
558.134	101.25
558.346	88.25
558.559	114.25
558.771	104.25
558.984	95.25
559.196	107.25
559.409	98.25
559.621	93.25
559.833	105.25
560.046	92.25
560.258	89.25
560.47	118.25
560.683	100.25
560.895	91.25
561.107	98.25
561.32	94.25
561.532	114.25
561.744	109.25
561.956	96.25
562.168	94.25
562.381	106.25
562.593	115.25
562.805	118.25
563.017	93.25
563.229	109.25
563.441	103.25
563.653	99.25
563.865	85.25
564.077	100.25
564.289	96.25
564.501	114.25
564.713	96.25
564.925	97.25
565.137	99.25
565.349	101.25
565.561	81.25
565.773	85.25
565.985	91.25
566.197	96.25
566.408	87.25
566.62	93.25
566.832	91.25
567.044	93.25
567.255	83.25
567.467	97.25
567.679	83.25
567.891	94.25
568.102	85.25
568.314	84.25
568.526	71.25
568.737	94.25
568.949	86.25
569.161	90.25
569.372	82.25
569.584	86.25
569.795	84.25
570.007	69.25
570.218	93.25
570.43	89.25
570.641	94.25
570.853	83.25
571.064	85.25
571.276	91.25
571.487	91.25
571.698	78.25
571.91	88.25
572.121	80.25
572.333	93.25
572.544	85.25
572.755	78.25
572.966	98.25
573.178	75.25
573.389	82.25
573.6	87.25
573.811	73.25
574.023	72.25
574.234	85.25
574.445	81.25
574.656	81.25
574.867	93.25
575.078	91.25
575.289	100.25
575.501	88.25
575.712	77.25
575.923	84.25
576.134	86.25
576.345	91.25
576.556	89.25
576.767	91.25
576.978	86.25
577.188	99.25
577.399	88.25
577.61	94.25
577.821	88.25
578.032	91.25
578.243	82.25
578.454	86.25
578.665	87.25
578.875	69.25
579.086	86.25
579.297	102.25
579.508	85.25
579.718	94.25
579.929	80.25
580.14	76.25
580.35	84.25
580.561	71.25
580.772	98.25
580.982	91.25
581.193	83.25
581.403	86.25
581.614	74.25
581.825	85.25
582.035	79.25
582.246	93.25
582.456	88.25
582.667	68.25
582.877	65.25
583.087	84.25
583.298	104.25
583.508	82.25
583.719	73.25
583.929	83.25
584.139	94.25
584.35	90.25
584.56	84.25
584.77	85.25
584.981	88.25
585.191	83.25
585.401	99.25
585.611	78.25
585.821	86.25
586.032	82.25
586.242	90.25
586.452	85.25
586.662	77.25
586.872	95.25
587.082	94.25
587.292	77.25
587.502	87.25
587.713	92.25
587.923	94.25
588.133	80.25
588.343	91.25
588.553	86.25
588.762	91.25
588.972	86.25
589.182	90.25
589.392	76.25
589.602	80.25
589.812	81.25
590.022	74.25
590.232	90.25
590.441	80.25
590.651	102.25
590.861	71.25
591.071	84.25
591.281	80.25
591.49	81.25
591.7	90.25
591.91	89.25
592.119	70.25
592.329	80.25
592.539	88.25
592.748	85.25
592.958	73.25
593.167	81.25
593.377	79.25
593.587	83.25
593.796	87.25
594.006	86.25
594.215	83.25
594.424	78.25
594.634	78.25
594.843	96.25
595.053	93.25
595.262	82.25
595.472	74.25
595.681	80.25
595.89	84.25
596.1	98.25
596.309	66.25
596.518	83.25
596.727	80.25
596.937	85.25
597.146	79.25
597.355	87.25
597.564	100.25
597.774	103.25
597.983	84.25
598.192	93.25
598.401	97.25
598.61	94.25
598.819	79.25
599.028	83.25
599.237	89.25
599.446	89.25
599.655	99.25
599.864	111.25
600.073	78.25
600.282	92.25
600.491	76.25
600.7	106.25
600.909	97.25
601.118	90.25
601.327	74.25
601.536	81.25
601.745	83.25
601.953	95.25
602.162	90.25
602.371	87.25
602.58	102.25
602.789	88.25
602.997	78.25
603.206	93.25
603.415	88.25
603.623	97.25
603.832	82.25
604.041	94.25
604.249	103.25
604.458	101.25
604.666	90.25
604.875	87.25
605.084	102.25
605.292	92.25
605.501	97.25
605.709	89.25
605.918	96.25
606.126	97.25
606.334	107.25
606.543	84.25
606.751	100.25
606.96	103.25
607.168	92.25
607.376	89.25
607.585	90.25
607.793	81.25
608.001	95.25
608.21	90.25
608.418	103.25
608.626	93.25
608.834	96.25
609.043	79.25
609.251	98.25
609.459	94.25
609.667	97.25
609.875	104.25
610.083	93.25
610.291	91.25
610.499	77.25
610.707	85.25
610.916	94.25
611.124	85.25
611.332	66.25
611.54	80.25
611.748	103.25
611.955	103.25
612.163	94.25
612.371	92.25
612.579	94.25
612.787	91.25
612.995	94.25
613.203	89.25
613.411	100.25
613.618	93.25
613.826	101.25
614.034	102.25
614.242	97.25
614.449	87.25
614.657	100.25
614.865	107.25
615.072	87.25
615.28	93.25
615.488	83.25
615.695	106.25
615.903	87.25
616.111	80.25
616.318	102.25
616.526	97.25
616.733	91.25
616.941	89.25
617.148	91.25
617.356	86.25
617.563	89.25
617.771	82.25
617.978	91.25
618.185	104.25
618.393	97.25
618.6	90.25
618.807	85.25
619.015	81.25
619.222	82.25
619.429	98.25
619.637	81.25
619.844	79.25
620.051	82.25
620.258	87.25
620.466	98.25
620.673	89.25
620.88	77.25
621.087	90.25
621.294	90.25
621.501	86.25
621.708	86.25
621.915	88.25
622.122	84.25
622.329	101.25
622.536	95.25
622.743	83.25
622.95	95.25
623.157	83.25
623.364	86.25
623.571	95.25
623.778	86.25
623.985	98.25
624.192	99.25
624.399	97.25
624.606	86.25
624.812	83.25
625.019	95.25
625.226	89.25
625.433	96.25
625.639	88.25
625.846	84.25
626.053	96.25
626.259	99.25
626.466	82.25
626.673	90.25
626.879	67.25
627.086	98.25
627.293	90.25
627.499	91.25
627.706	89.25
627.912	94.25
628.119	82.25
628.325	96.25
628.532	81.25
628.738	98.25
628.945	99.25
629.151	100.25
629.357	100.25
629.564	97.25
629.77	81.25
629.976	83.25
630.183	89.25
630.389	77.25
630.595	85.25
630.802	97.25
631.008	93.25
631.214	97.25
631.42	79.25
631.627	80.25
631.833	86.25
632.039	71.25
632.245	91.25
632.451	90.25
632.657	99.25
632.863	82.25
633.069	90.25
633.275	92.25
633.481	94.25
633.688	96.25
633.893	86.25
634.099	70.25
634.305	107.25
634.511	100.25
634.717	85.25
634.923	79.25
635.129	82.25
635.335	84.25
635.541	90.25
635.747	85.25
635.952	85.25
636.158	79.25
636.364	91.25
636.57	78.25
636.775	72.25
636.981	88.25
637.187	88.25
637.392	87.25
637.598	88.25
637.804	87.25
638.009	90.25
638.215	86.25
638.421	93.25
638.626	93.25
638.832	84.25
639.037	90.25
639.243	81.25
639.448	91.25
639.654	90.25
639.859	93.25
640.065	89.25
640.27	98.25
640.475	92.25
640.681	81.25
640.886	93.25
641.091	83.25
641.297	85.25
641.502	89.25
641.707	87.25
641.913	79.25
642.118	86.25
642.323	86.25
642.528	101.25
642.733	87.25
642.939	96.25
643.144	94.25
643.349	81.25
643.554	95.25
643.759	84.25
643.964	81.25
644.169	85.25
644.374	79.25
644.579	91.25
644.784	101.25
644.989	99.25
645.194	99.25
645.399	92.25
645.604	95.25
645.809	81.25
646.014	101.25
646.219	105.25
646.423	83.25
646.628	93.25
646.833	93.25
647.038	89.25
647.243	81.25
647.447	77.25
647.652	89.25
647.857	65.25
648.062	75.25
648.266	77.25
648.471	94.25
648.676	97.25
648.88	88.25
649.085	76.25
649.289	72.25
649.494	95.25
649.698	79.25
649.903	93.25
650.107	99.25
650.312	92.25
650.516	100.25
650.721	94.25
650.925	87.25
651.13	80.25
651.334	96.25
651.539	83.25
651.743	79.25
651.947	81.25
652.152	71.25
652.356	85.25
652.56	95.25
652.764	75.25
652.969	83.25
653.173	76.25
653.377	71.25
653.581	78.25
653.785	92.25
653.99	78.25
654.194	89.25
654.398	82.25
654.602	77.25
654.806	96.25
655.01	76.25
655.214	86.25
655.418	91.25
655.622	89.25
655.826	62.25
656.03	72.25
656.234	91.25
656.438	88.25
656.642	69.25
656.846	90.25
657.049	65.25
657.253	101.25
657.457	92.25
657.661	89.25
657.865	91.25
658.068	83.25
658.272	82.25
658.476	63.25
658.68	78.25
658.883	91.25
659.087	91.25
659.291	84.25
659.494	83.25
659.698	84.25
659.901	68.25
660.105	83.25
660.309	75.25
660.512	79.25
660.716	84.25
660.919	92.25
661.123	70.25
661.326	67.25
661.53	94.25
661.733	85.25
661.936	88.25
662.14	61.25
662.343	87.25
662.546	79.25
662.75	84.25
662.953	77.25
663.156	77.25
663.36	81.25
663.563	88.25
663.766	79.25
663.969	79.25
664.173	76.25
664.376	87.25
664.579	85.25
664.782	77.25
664.985	94.25
665.188	86.25
665.391	86.25
665.594	79.25
665.797	76.25
666	79.25
666.203	83.25
666.406	81.25
666.609	73.25
666.812	72.25
667.015	96.25
667.218	76.25
667.421	65.25
667.624	91.25
667.827	85.25
668.03	75.25
668.232	86.25
668.435	75.25
668.638	76.25
668.841	93.25
669.043	84.25
669.246	80.25
669.449	85.25
669.651	74.25
669.854	71.25
670.057	70.25
670.259	70.25
670.462	94.25
670.665	74.25
670.867	87.25
671.07	86.25
671.272	69.25
671.475	80.25
671.677	86.25
671.88	67.25
672.082	77.25
672.284	74.25
672.487	96.25
672.689	86.25
672.892	79.25
