Data from Location3.07152019.Energy5.Lamp.07192019.3%Agarose_HRD10591_15-18-57-270.txt Node
Date: Fri Jul 19 15:18:57 EDT 2019
User: cochatt
Spectrometer: HR+D1059
Trigger mode: 1
Integration Time (sec): 1.000000E-1
Scans to average: 1
Electric dark correction enabled: true
Nonlinearity correction enabled: false
Boxcar width: 0
XAxis mode: Wavelengths
Number of Pixels in Spectrum: 2048
>>>>>Begin Spectral Data<<<<<
223.165	-4.75
223.4	-4.75
223.635	-4.75
223.869	-14.75
224.104	-33.75
224.338	-6.75
224.573	-11.75
224.808	-16.75
225.042	-0.75
225.277	4.25
225.511	-11.75
225.746	-7.75
225.98	6.25
226.215	4.25
226.449	14.25
226.683	19.25
226.918	38.25
227.152	22.25
227.387	48.25
227.621	39.25
227.856	31.25
228.09	48.25
228.324	59.25
228.559	52.25
228.793	57.25
229.027	58.25
229.262	60.25
229.496	63.25
229.73	66.25
229.964	70.25
230.199	76.25
230.433	70.25
230.667	81.25
230.901	75.25
231.136	89.25
231.37	76.25
231.604	76.25
231.838	82.25
232.072	76.25
232.306	76.25
232.541	81.25
232.775	85.25
233.009	82.25
233.243	85.25
233.477	79.25
233.711	90.25
233.945	71.25
234.179	73.25
234.413	71.25
234.647	75.25
234.881	74.25
235.115	79.25
235.349	84.25
235.583	78.25
235.817	88.25
236.051	85.25
236.285	67.25
236.519	75.25
236.753	75.25
236.987	76.25
237.221	69.25
237.455	80.25
237.689	88.25
237.922	84.25
238.156	89.25
238.39	82.25
238.624	75.25
238.858	75.25
239.091	89.25
239.325	67.25
239.559	86.25
239.793	85.25
240.027	82.25
240.26	75.25
240.494	73.25
240.728	68.25
240.961	69.25
241.195	69.25
241.429	75.25
241.662	77.25
241.896	70.25
242.13	83.25
242.363	87.25
242.597	73.25
242.83	81.25
243.064	76.25
243.298	68.25
243.531	85.25
243.765	76.25
243.998	64.25
244.232	84.25
244.465	80.25
244.699	85.25
244.932	81.25
245.166	58.25
245.399	71.25
245.633	69.25
245.866	65.25
246.099	71.25
246.333	75.25
246.566	74.25
246.8	68.25
247.033	78.25
247.266	82.25
247.5	76.25
247.733	65.25
247.966	79.25
248.2	86.25
248.433	87.25
248.666	91.25
248.899	87.25
249.133	91.25
249.366	88.25
249.599	83.25
249.832	70.25
250.066	78.25
250.299	76.25
250.532	76.25
250.765	76.25
250.998	83.25
251.231	70.25
251.465	71.25
251.698	74.25
251.931	78.25
252.164	93.25
252.397	82.25
252.63	83.25
252.863	84.25
253.096	81.25
253.329	82.25
253.562	88.25
253.795	84.25
254.028	87.25
254.261	66.25
254.494	75.25
254.727	89.25
254.96	73.25
255.193	84.25
255.426	80.25
255.659	79.25
255.892	86.25
256.124	79.25
256.357	74.25
256.59	84.25
256.823	89.25
257.056	67.25
257.289	84.25
257.521	87.25
257.754	86.25
257.987	79.25
258.22	82.25
258.452	102.25
258.685	81.25
258.918	76.25
259.151	76.25
259.383	80.25
259.616	74.25
259.849	72.25
260.081	83.25
260.314	63.25
260.547	82.25
260.779	66.25
261.012	83.25
261.244	73.25
261.477	79.25
261.71	89.25
261.942	84.25
262.175	67.25
262.407	83.25
262.64	76.25
262.872	77.25
263.105	82.25
263.337	91.25
263.57	91.25
263.802	91.25
264.035	78.25
264.267	92.25
264.499	73.25
264.732	87.25
264.964	89.25
265.197	88.25
265.429	76.25
265.661	80.25
265.894	78.25
266.126	72.25
266.358	82.25
266.591	73.25
266.823	81.25
267.055	70.25
267.287	87.25
267.52	89.25
267.752	74.25
267.984	71.25
268.216	83.25
268.448	80.25
268.681	82.25
268.913	88.25
269.145	81.25
269.377	70.25
269.609	64.25
269.841	78.25
270.073	84.25
270.306	76.25
270.538	88.25
270.77	83.25
271.002	86.25
271.234	91.25
271.466	93.25
271.698	92.25
271.93	91.25
272.162	91.25
272.394	79.25
272.626	92.25
272.858	71.25
273.09	87.25
273.322	75.25
273.553	84.25
273.785	88.25
274.017	89.25
274.249	87.25
274.481	67.25
274.713	91.25
274.945	100.25
275.176	86.25
275.408	81.25
275.64	110.25
275.872	95.25
276.104	90.25
276.335	84.25
276.567	76.25
276.799	88.25
277.031	83.25
277.262	74.25
277.494	89.25
277.726	81.25
277.957	95.25
278.189	82.25
278.421	68.25
278.652	79.25
278.884	83.25
279.115	81.25
279.347	89.25
279.579	82.25
279.81	75.25
280.042	82.25
280.273	79.25
280.505	82.25
280.736	83.25
280.968	75.25
281.199	67.25
281.431	81.25
281.662	96.25
281.894	82.25
282.125	84.25
282.356	74.25
282.588	89.25
282.819	79.25
283.051	83.25
283.282	83.25
283.513	78.25
283.745	74.25
283.976	79.25
284.207	100.25
284.439	73.25
284.67	92.25
284.901	100.25
285.132	82.25
285.364	91.25
285.595	94.25
285.826	90.25
286.057	91.25
286.288	103.25
286.52	81.25
286.751	73.25
286.982	77.25
287.213	82.25
287.444	79.25
287.675	82.25
287.906	92.25
288.138	70.25
288.369	90.25
288.6	88.25
288.831	84.25
289.062	85.25
289.293	78.25
289.524	77.25
289.755	88.25
289.986	75.25
290.217	92.25
290.448	86.25
290.679	95.25
290.91	76.25
291.141	82.25
291.371	78.25
291.602	84.25
291.833	73.25
292.064	89.25
292.295	76.25
292.526	96.25
292.757	86.25
292.987	87.25
293.218	76.25
293.449	97.25
293.68	84.25
293.91	76.25
294.141	83.25
294.372	69.25
294.603	84.25
294.833	77.25
295.064	80.25
295.295	79.25
295.525	77.25
295.756	88.25
295.987	86.25
296.217	95.25
296.448	92.25
296.679	85.25
296.909	83.25
297.14	76.25
297.37	94.25
297.601	89.25
297.831	81.25
298.062	91.25
298.292	87.25
298.523	90.25
298.753	83.25
298.984	84.25
299.214	81.25
299.445	94.25
299.675	92.25
299.905	88.25
300.136	82.25
300.366	84.25
300.597	78.25
300.827	80.25
301.057	78.25
301.288	80.25
301.518	95.25
301.748	95.25
301.979	79.25
302.209	86.25
302.439	70.25
302.669	94.25
302.9	98.25
303.13	91.25
303.36	76.25
303.59	81.25
303.82	84.25
304.051	86.25
304.281	84.25
304.511	74.25
304.741	89.25
304.971	76.25
305.201	84.25
305.431	81.25
305.661	90.25
305.891	70.25
306.121	74.25
306.352	100.25
306.582	86.25
306.812	77.25
307.042	97.25
307.272	87.25
307.502	80.25
307.731	92.25
307.961	95.25
308.191	86.25
308.421	95.25
308.651	102.25
308.881	89.25
309.111	84.25
309.341	96.25
309.571	89.25
309.8	82.25
310.03	89.25
310.26	91.25
310.49	85.25
310.72	85.25
310.949	74.25
311.179	93.25
311.409	91.25
311.639	78.25
311.868	89.25
312.098	88.25
312.328	86.25
312.557	97.25
312.787	87.25
313.017	97.25
313.246	78.25
313.476	85.25
313.706	90.25
313.935	88.25
314.165	78.25
314.394	87.25
314.624	96.25
314.853	81.25
315.083	101.25
315.312	91.25
315.542	81.25
315.771	91.25
316.001	86.25
316.23	95.25
316.46	86.25
316.689	79.25
316.919	82.25
317.148	82.25
317.377	94.25
317.607	88.25
317.836	94.25
318.065	97.25
318.295	87.25
318.524	80.25
318.753	95.25
318.983	88.25
319.212	91.25
319.441	87.25
319.67	77.25
319.9	87.25
320.129	82.25
320.358	86.25
320.587	91.25
320.816	92.25
321.046	83.25
321.275	85.25
321.504	74.25
321.733	95.25
321.962	92.25
322.191	103.25
322.42	96.25
322.649	100.25
322.878	68.25
323.108	89.25
323.337	88.25
323.566	75.25
323.795	86.25
324.024	85.25
324.253	91.25
324.482	86.25
324.71	75.25
324.939	85.25
325.168	80.25
325.397	87.25
325.626	91.25
325.855	77.25
326.084	92.25
326.313	66.25
326.542	85.25
326.77	92.25
326.999	84.25
327.228	79.25
327.457	74.25
327.686	84.25
327.914	75.25
328.143	85.25
328.372	94.25
328.6	74.25
328.829	88.25
329.058	87.25
329.287	86.25
329.515	80.25
329.744	87.25
329.972	77.25
330.201	73.25
330.43	82.25
330.658	90.25
330.887	67.25
331.115	87.25
331.344	85.25
331.572	94.25
331.801	90.25
332.03	81.25
332.258	85.25
332.486	83.25
332.715	90.25
332.943	86.25
333.172	65.25
333.4	93.25
333.629	80.25
333.857	81.25
334.085	87.25
334.314	89.25
334.542	93.25
334.771	90.25
334.999	86.25
335.227	75.25
335.455	70.25
335.684	87.25
335.912	88.25
336.14	84.25
336.369	77.25
336.597	81.25
336.825	84.25
337.053	84.25
337.281	87.25
337.51	77.25
337.738	88.25
337.966	85.25
338.194	83.25
338.422	94.25
338.65	92.25
338.878	98.25
339.106	76.25
339.334	82.25
339.562	90.25
339.79	86.25
340.018	95.25
340.246	99.25
340.474	79.25
340.702	91.25
340.93	86.25
341.158	92.25
341.386	88.25
341.614	92.25
341.842	84.25
342.07	90.25
342.298	88.25
342.526	70.25
342.754	77.25
342.981	90.25
343.209	83.25
343.437	86.25
343.665	77.25
343.893	78.25
344.12	77.25
344.348	70.25
344.576	90.25
344.804	70.25
345.031	88.25
345.259	96.25
345.487	74.25
345.714	85.25
345.942	91.25
346.17	82.25
346.397	81.25
346.625	90.25
346.853	85.25
347.08	67.25
347.308	82.25
347.535	78.25
347.763	75.25
347.99	107.25
348.218	92.25
348.445	84.25
348.673	88.25
348.9	79.25
349.128	81.25
349.355	92.25
349.583	71.25
349.81	86.25
350.037	96.25
350.265	89.25
350.492	92.25
350.72	81.25
350.947	86.25
351.174	91.25
351.402	92.25
351.629	89.25
351.856	88.25
352.083	89.25
352.311	74.25
352.538	82.25
352.765	71.25
352.992	77.25
353.22	89.25
353.447	79.25
353.674	91.25
353.901	95.25
354.128	87.25
354.355	82.25
354.583	82.25
354.81	75.25
355.037	88.25
355.264	90.25
355.491	74.25
355.718	80.25
355.945	82.25
356.172	84.25
356.399	89.25
356.626	84.25
356.853	76.25
357.08	83.25
357.307	80.25
357.534	84.25
357.761	84.25
357.988	92.25
358.215	91.25
358.441	80.25
358.668	82.25
358.895	87.25
359.122	82.25
359.349	99.25
359.576	87.25
359.802	85.25
360.029	87.25
360.256	78.25
360.483	80.25
360.709	90.25
360.936	84.25
361.163	82.25
361.39	75.25
361.616	100.25
361.843	71.25
362.07	71.25
362.296	83.25
362.523	91.25
362.749	79.25
362.976	83.25
363.203	74.25
363.429	73.25
363.656	78.25
363.882	91.25
364.109	68.25
364.335	89.25
364.562	80.25
364.788	80.25
365.015	73.25
365.241	71.25
365.468	82.25
365.694	69.25
365.92	88.25
366.147	82.25
366.373	91.25
366.599	85.25
366.826	82.25
367.052	79.25
367.278	77.25
367.505	76.25
367.731	83.25
367.957	77.25
368.184	95.25
368.41	88.25
368.636	88.25
368.862	95.25
369.089	90.25
369.315	84.25
369.541	71.25
369.767	88.25
369.993	82.25
370.219	85.25
370.445	84.25
370.672	87.25
370.898	108.25
371.124	76.25
371.35	78.25
371.576	82.25
371.802	76.25
372.028	101.25
372.254	89.25
372.48	79.25
372.706	69.25
372.932	88.25
373.158	81.25
373.384	79.25
373.61	72.25
373.835	86.25
374.061	81.25
374.287	81.25
374.513	82.25
374.739	79.25
374.965	71.25
375.191	83.25
375.416	87.25
375.642	92.25
375.868	87.25
376.094	87.25
376.319	75.25
376.545	84.25
376.771	94.25
376.997	101.25
377.222	76.25
377.448	86.25
377.674	75.25
377.899	83.25
378.125	84.25
378.35	81.25
378.576	80.25
378.802	86.25
379.027	95.25
379.253	91.25
379.478	86.25
379.704	87.25
379.929	86.25
380.155	89.25
380.38	87.25
380.606	81.25
380.831	80.25
381.057	87.25
381.282	88.25
381.507	87.25
381.733	74.25
381.958	72.25
382.184	74.25
382.409	96.25
382.634	72.25
382.86	74.25
383.085	87.25
383.31	88.25
383.535	83.25
383.761	80.25
383.986	91.25
384.211	84.25
384.436	86.25
384.662	84.25
384.887	87.25
385.112	75.25
385.337	77.25
385.562	90.25
385.787	88.25
386.013	87.25
386.238	95.25
386.463	91.25
386.688	85.25
386.913	93.25
387.138	83.25
387.363	74.25
387.588	78.25
387.813	91.25
388.038	85.25
388.263	84.25
388.488	77.25
388.713	96.25
388.938	91.25
389.163	96.25
389.387	78.25
389.612	73.25
389.837	76.25
390.062	79.25
390.287	101.25
390.512	86.25
390.736	84.25
390.961	82.25
391.186	83.25
391.411	71.25
391.636	85.25
391.86	80.25
392.085	76.25
392.31	89.25
392.534	81.25
392.759	95.25
392.984	89.25
393.208	83.25
393.433	88.25
393.658	89.25
393.882	85.25
394.107	91.25
394.331	83.25
394.556	86.25
394.78	94.25
395.005	87.25
395.229	72.25
395.454	90.25
395.678	90.25
395.903	85.25
396.127	69.25
396.352	91.25
396.576	97.25
396.801	87.25
397.025	83.25
397.249	83.25
397.474	83.25
397.698	88.25
397.922	79.25
398.147	80.25
398.371	85.25
398.595	98.25
398.82	97.25
399.044	85.25
399.268	94.25
399.492	77.25
399.717	104.25
399.941	106.25
400.165	88.25
400.389	82.25
400.613	86.25
400.837	96.25
401.062	83.25
401.286	103.25
401.51	88.25
401.734	97.25
401.958	79.25
402.182	91.25
402.406	99.25
402.63	88.25
402.854	90.25
403.078	92.25
403.302	91.25
403.526	90.25
403.75	95.25
403.974	95.25
404.198	90.25
404.422	94.25
404.645	85.25
404.869	83.25
405.093	84.25
405.317	87.25
405.541	96.25
405.765	100.25
405.988	102.25
406.212	92.25
406.436	86.25
406.66	89.25
406.883	94.25
407.107	87.25
407.331	79.25
407.555	83.25
407.778	91.25
408.002	90.25
408.226	86.25
408.449	85.25
408.673	102.25
408.896	90.25
409.12	96.25
409.344	83.25
409.567	84.25
409.791	101.25
410.014	95.25
410.238	85.25
410.461	98.25
410.685	83.25
410.908	91.25
411.132	82.25
411.355	88.25
411.578	76.25
411.802	95.25
412.025	97.25
412.249	88.25
412.472	95.25
412.695	84.25
412.919	89.25
413.142	90.25
413.365	88.25
413.589	93.25
413.812	92.25
414.035	108.25
414.258	96.25
414.482	76.25
414.705	87.25
414.928	98.25
415.151	105.25
415.374	83.25
415.597	84.25
415.821	85.25
416.044	94.25
416.267	86.25
416.49	90.25
416.713	92.25
416.936	97.25
417.159	88.25
417.382	91.25
417.605	91.25
417.828	81.25
418.051	89.25
418.274	100.25
418.497	107.25
418.72	86.25
418.943	126.25
419.166	91.25
419.389	96.25
419.611	94.25
419.834	100.25
420.057	105.25
420.28	87.25
420.503	106.25
420.726	107.25
420.948	102.25
421.171	101.25
421.394	93.25
421.617	90.25
421.839	100.25
422.062	99.25
422.285	108.25
422.507	91.25
422.73	81.25
422.953	92.25
423.175	87.25
423.398	86.25
423.621	92.25
423.843	91.25
424.066	91.25
424.288	90.25
424.511	81.25
424.733	84.25
424.956	97.25
425.178	87.25
425.401	84.25
425.623	94.25
425.846	103.25
426.068	99.25
426.291	90.25
426.513	99.25
426.735	96.25
426.958	90.25
427.18	90.25
427.402	106.25
427.625	114.25
427.847	102.25
428.069	91.25
428.292	87.25
428.514	107.25
428.736	96.25
428.958	88.25
429.181	82.25
429.403	93.25
429.625	105.25
429.847	105.25
430.069	84.25
430.292	98.25
430.514	88.25
430.736	90.25
430.958	86.25
431.18	98.25
431.402	88.25
431.624	84.25
431.846	78.25
432.068	95.25
432.29	92.25
432.512	100.25
432.734	103.25
432.956	94.25
433.178	92.25
433.4	73.25
433.622	95.25
433.844	102.25
434.066	96.25
434.287	94.25
434.509	86.25
434.731	87.25
434.953	100.25
435.175	95.25
435.397	101.25
435.618	93.25
435.84	85.25
436.062	85.25
436.284	104.25
436.505	111.25
436.727	104.25
436.949	89.25
437.17	102.25
437.392	92.25
437.614	98.25
437.835	83.25
438.057	91.25
438.278	77.25
438.5	81.25
438.721	100.25
438.943	84.25
439.165	93.25
439.386	97.25
439.608	98.25
439.829	87.25
440.05	87.25
440.272	99.25
440.493	99.25
440.715	103.25
440.936	91.25
441.158	99.25
441.379	87.25
441.6	107.25
441.822	90.25
442.043	96.25
442.264	86.25
442.486	100.25
442.707	94.25
442.928	107.25
443.149	96.25
443.371	99.25
443.592	107.25
443.813	102.25
444.034	81.25
444.255	103.25
444.476	104.25
444.698	110.25
444.919	96.25
445.14	208.25
445.361	142.25
445.582	113.25
445.803	97.25
446.024	94.25
446.245	88.25
446.466	110.25
446.687	106.25
446.908	103.25
447.129	108.25
447.35	98.25
447.571	101.25
447.792	105.25
448.013	91.25
448.234	92.25
448.455	115.25
448.675	97.25
448.896	86.25
449.117	113.25
449.338	99.25
449.559	103.25
449.779	102.25
450	87.25
450.221	77.25
450.442	95.25
450.662	88.25
450.883	86.25
451.104	92.25
451.324	94.25
451.545	99.25
451.766	107.25
451.986	98.25
452.207	90.25
452.428	118.25
452.648	98.25
452.869	84.25
453.089	107.25
453.31	86.25
453.53	76.25
453.751	86.25
453.971	101.25
454.192	88.25
454.412	86.25
454.633	95.25
454.853	89.25
455.073	80.25
455.294	92.25
455.514	103.25
455.734	105.25
455.955	104.25
456.175	99.25
456.395	91.25
456.616	87.25
456.836	80.25
457.056	66.25
457.276	87.25
457.497	83.25
457.717	80.25
457.937	86.25
458.157	83.25
458.377	76.25
458.598	84.25
458.818	83.25
459.038	95.25
459.258	88.25
459.478	86.25
459.698	84.25
459.918	71.25
460.138	79.25
460.358	82.25
460.578	96.25
460.798	114.25
461.018	85.25
461.238	88.25
461.458	87.25
461.678	89.25
461.898	102.25
462.118	95.25
462.338	85.25
462.558	95.25
462.777	94.25
462.997	99.25
463.217	85.25
463.437	99.25
463.657	100.25
463.876	90.25
464.096	98.25
464.316	79.25
464.536	91.25
464.755	105.25
464.975	88.25
465.195	84.25
465.414	91.25
465.634	90.25
465.854	87.25
466.073	86.25
466.293	79.25
466.512	94.25
466.732	107.25
466.951	94.25
467.171	87.25
467.391	103.25
467.61	86.25
467.829	93.25
468.049	87.25
468.268	78.25
468.488	97.25
468.707	92.25
468.927	83.25
469.146	99.25
469.365	102.25
469.585	101.25
469.804	103.25
470.023	99.25
470.243	88.25
470.462	87.25
470.681	97.25
470.901	106.25
471.12	99.25
471.339	104.25
471.558	101.25
471.777	98.25
471.997	92.25
472.216	89.25
472.435	86.25
472.654	87.25
472.873	97.25
473.092	89.25
473.311	83.25
473.53	102.25
473.749	91.25
473.968	91.25
474.187	106.25
474.406	92.25
474.625	97.25
474.844	97.25
475.063	86.25
475.282	98.25
475.501	90.25
475.72	98.25
475.939	100.25
476.158	100.25
476.377	98.25
476.596	88.25
476.814	92.25
477.033	92.25
477.252	103.25
477.471	78.25
477.69	77.25
477.908	121.25
478.127	105.25
478.346	101.25
478.564	103.25
478.783	104.25
479.002	89.25
479.22	110.25
479.439	100.25
479.658	96.25
479.876	83.25
480.095	92.25
480.313	91.25
480.532	79.25
480.751	93.25
480.969	85.25
481.188	81.25
481.406	99.25
481.624	88.25
481.843	73.25
482.061	78.25
482.28	80.25
482.498	73.25
482.717	84.25
482.935	87.25
483.153	106.25
483.372	98.25
483.59	91.25
483.808	107.25
484.027	92.25
484.245	89.25
484.463	94.25
484.681	100.25
484.9	90.25
485.118	98.25
485.336	90.25
485.554	90.25
485.772	80.25
485.99	83.25
486.209	84.25
486.427	95.25
486.645	77.25
486.863	102.25
487.081	110.25
487.299	91.25
487.517	90.25
487.735	93.25
487.953	124.25
488.171	99.25
488.389	105.25
488.607	98.25
488.825	116.25
489.043	94.25
489.261	91.25
489.479	101.25
489.696	100.25
489.914	94.25
490.132	91.25
490.35	105.25
490.568	105.25
490.786	101.25
491.003	100.25
491.221	115.25
491.439	120.25
491.657	100.25
491.874	122.25
492.092	122.25
492.31	129.25
492.527	126.25
492.745	100.25
492.963	120.25
493.18	112.25
493.398	116.25
493.615	105.25
493.833	107.25
494.05	91.25
494.268	110.25
494.485	94.25
494.703	118.25
494.92	112.25
495.138	124.25
495.355	105.25
495.573	112.25
495.79	106.25
496.008	116.25
496.225	99.25
496.442	103.25
496.66	111.25
496.877	114.25
497.094	123.25
497.312	114.25
497.529	105.25
497.746	102.25
497.963	103.25
498.181	88.25
498.398	93.25
498.615	97.25
498.832	102.25
499.049	85.25
499.267	92.25
499.484	94.25
499.701	92.25
499.918	103.25
500.135	105.25
500.352	108.25
500.569	103.25
500.786	104.25
501.003	114.25
501.22	100.25
501.437	91.25
501.654	109.25
501.871	94.25
502.088	99.25
502.305	99.25
502.522	92.25
502.739	100.25
502.956	99.25
503.172	104.25
503.389	91.25
503.606	96.25
503.823	81.25
504.04	81.25
504.256	104.25
504.473	100.25
504.69	107.25
504.907	96.25
505.123	95.25
505.34	95.25
505.557	93.25
505.773	99.25
505.99	112.25
506.207	93.25
506.423	98.25
506.64	95.25
506.856	91.25
507.073	87.25
507.289	103.25
507.506	91.25
507.722	93.25
507.939	94.25
508.155	90.25
508.372	92.25
508.588	104.25
508.805	88.25
509.021	87.25
509.238	83.25
509.454	86.25
509.67	101.25
509.887	80.25
510.103	75.25
510.319	78.25
510.536	83.25
510.752	77.25
510.968	84.25
511.184	87.25
511.401	81.25
511.617	73.25
511.833	87.25
512.049	90.25
512.265	79.25
512.481	98.25
512.698	84.25
512.914	78.25
513.13	91.25
513.346	76.25
513.562	81.25
513.778	93.25
513.994	79.25
514.21	86.25
514.426	97.25
514.642	92.25
514.858	92.25
515.074	79.25
515.29	86.25
515.506	75.25
515.721	75.25
515.937	79.25
516.153	86.25
516.369	100.25
516.585	76.25
516.801	79.25
517.016	92.25
517.232	92.25
517.448	87.25
517.664	80.25
517.879	93.25
518.095	84.25
518.311	90.25
518.527	86.25
518.742	79.25
518.958	85.25
519.173	99.25
519.389	105.25
519.605	97.25
519.82	90.25
520.036	86.25
520.251	94.25
520.467	79.25
520.682	90.25
520.898	93.25
521.113	86.25
521.329	84.25
521.544	72.25
521.76	91.25
521.975	87.25
522.19	79.25
522.406	86.25
522.621	91.25
522.836	91.25
523.052	94.25
523.267	84.25
523.482	111.25
523.698	101.25
523.913	70.25
524.128	88.25
524.343	97.25
524.559	91.25
524.774	95.25
524.989	97.25
525.204	82.25
525.419	91.25
525.634	86.25
525.849	99.25
526.064	93.25
526.28	81.25
526.495	102.25
526.71	82.25
526.925	76.25
527.14	91.25
527.355	93.25
527.57	85.25
527.785	90.25
527.999	87.25
528.214	86.25
528.429	84.25
528.644	103.25
528.859	95.25
529.074	93.25
529.289	102.25
529.503	111.25
529.718	92.25
529.933	96.25
530.148	94.25
530.363	81.25
530.577	94.25
530.792	85.25
531.007	83.25
531.221	80.25
531.436	91.25
531.651	80.25
531.865	91.25
532.08	83.25
532.295	86.25
532.509	87.25
532.724	80.25
532.938	87.25
533.153	87.25
533.367	92.25
533.582	101.25
533.796	100.25
534.011	92.25
534.225	96.25
534.44	84.25
534.654	89.25
534.868	77.25
535.083	92.25
535.297	87.25
535.511	82.25
535.726	86.25
535.94	89.25
536.154	92.25
536.369	86.25
536.583	81.25
536.797	90.25
537.011	84.25
537.225	75.25
537.44	82.25
537.654	83.25
537.868	99.25
538.082	84.25
538.296	94.25
538.51	93.25
538.724	107.25
538.938	85.25
539.153	97.25
539.367	97.25
539.581	95.25
539.795	89.25
540.009	97.25
540.222	101.25
540.436	81.25
540.65	91.25
540.864	94.25
541.078	92.25
541.292	95.25
541.506	97.25
541.72	109.25
541.934	115.25
542.147	124.25
542.361	112.25
542.575	107.25
542.789	96.25
543.002	97.25
543.216	106.25
543.43	103.25
543.644	91.25
543.857	108.25
544.071	104.25
544.285	108.25
544.498	118.25
544.712	114.25
544.925	110.25
545.139	119.25
545.352	106.25
545.566	106.25
545.779	103.25
545.993	108.25
546.206	114.25
546.42	119.25
546.633	111.25
546.847	103.25
547.06	112.25
547.274	99.25
547.487	118.25
547.7	115.25
547.914	104.25
548.127	108.25
548.34	107.25
548.554	101.25
548.767	115.25
548.98	106.25
549.193	98.25
549.407	116.25
549.62	107.25
549.833	109.25
550.046	98.25
550.259	111.25
550.473	110.25
550.686	106.25
550.899	98.25
551.112	94.25
551.325	102.25
551.538	106.25
551.751	87.25
551.964	94.25
552.177	102.25
552.39	91.25
552.603	105.25
552.816	110.25
553.029	110.25
553.242	115.25
553.455	104.25
553.667	110.25
553.88	98.25
554.093	103.25
554.306	98.25
554.519	96.25
554.732	93.25
554.944	96.25
555.157	92.25
555.37	97.25
555.583	108.25
555.795	99.25
556.008	98.25
556.221	96.25
556.433	89.25
556.646	118.25
556.859	86.25
557.071	97.25
557.284	96.25
557.496	112.25
557.709	99.25
557.921	106.25
558.134	91.25
558.346	99.25
558.559	113.25
558.771	102.25
558.984	98.25
559.196	111.25
559.409	103.25
559.621	94.25
559.833	103.25
560.046	97.25
560.258	101.25
560.47	90.25
560.683	102.25
560.895	93.25
561.107	90.25
561.32	102.25
561.532	100.25
561.744	101.25
561.956	122.25
562.168	99.25
562.381	94.25
562.593	82.25
562.805	95.25
563.017	77.25
563.229	82.25
563.441	99.25
563.653	103.25
563.865	107.25
564.077	98.25
564.289	96.25
564.501	87.25
564.713	100.25
564.925	105.25
565.137	94.25
565.349	82.25
565.561	102.25
565.773	106.25
565.985	97.25
566.197	75.25
566.408	99.25
566.62	93.25
566.832	94.25
567.044	81.25
567.255	103.25
567.467	98.25
567.679	104.25
567.891	86.25
568.102	91.25
568.314	94.25
568.526	87.25
568.737	94.25
568.949	90.25
569.161	72.25
569.372	87.25
569.584	88.25
569.795	87.25
570.007	89.25
570.218	94.25
570.43	80.25
570.641	92.25
570.853	86.25
571.064	76.25
571.276	80.25
571.487	88.25
571.698	99.25
571.91	97.25
572.121	85.25
572.333	88.25
572.544	82.25
572.755	77.25
572.966	94.25
573.178	85.25
573.389	89.25
573.6	94.25
573.811	80.25
574.023	94.25
574.234	92.25
574.445	89.25
574.656	84.25
574.867	85.25
575.078	82.25
575.289	82.25
575.501	81.25
575.712	89.25
575.923	79.25
576.134	82.25
576.345	97.25
576.556	92.25
576.767	83.25
576.978	90.25
577.188	95.25
577.399	89.25
577.61	86.25
577.821	94.25
578.032	85.25
578.243	82.25
578.454	89.25
578.665	107.25
578.875	90.25
579.086	92.25
579.297	83.25
579.508	85.25
579.718	82.25
579.929	75.25
580.14	90.25
580.35	87.25
580.561	73.25
580.772	99.25
580.982	84.25
581.193	72.25
581.403	88.25
581.614	92.25
581.825	82.25
582.035	86.25
582.246	78.25
582.456	82.25
582.667	97.25
582.877	83.25
583.087	75.25
583.298	86.25
583.508	78.25
583.719	82.25
583.929	90.25
584.139	87.25
584.35	99.25
584.56	86.25
584.77	92.25
584.981	93.25
585.191	90.25
585.401	80.25
585.611	92.25
585.821	83.25
586.032	76.25
586.242	62.25
586.452	91.25
586.662	89.25
586.872	86.25
587.082	87.25
587.292	76.25
587.502	88.25
587.713	84.25
587.923	101.25
588.133	83.25
588.343	90.25
588.553	87.25
588.762	94.25
588.972	82.25
589.182	89.25
589.392	88.25
589.602	84.25
589.812	96.25
590.022	80.25
590.232	82.25
590.441	78.25
590.651	90.25
590.861	89.25
591.071	90.25
591.281	85.25
591.49	95.25
591.7	87.25
591.91	97.25
592.119	100.25
592.329	97.25
592.539	94.25
592.748	94.25
592.958	80.25
593.167	86.25
593.377	87.25
593.587	87.25
593.796	81.25
594.006	82.25
594.215	85.25
594.424	82.25
594.634	74.25
594.843	91.25
595.053	90.25
595.262	94.25
595.472	87.25
595.681	92.25
595.89	80.25
596.1	76.25
596.309	94.25
596.518	82.25
596.727	86.25
596.937	86.25
597.146	90.25
597.355	87.25
597.564	91.25
597.774	84.25
597.983	87.25
598.192	91.25
598.401	79.25
598.61	98.25
598.819	86.25
599.028	89.25
599.237	80.25
599.446	98.25
599.655	93.25
599.864	80.25
600.073	83.25
600.282	81.25
600.491	79.25
600.7	93.25
600.909	81.25
601.118	98.25
601.327	93.25
601.536	95.25
601.745	89.25
601.953	102.25
602.162	87.25
602.371	101.25
602.58	84.25
602.789	105.25
602.997	87.25
603.206	89.25
603.415	99.25
603.623	111.25
603.832	99.25
604.041	91.25
604.249	102.25
604.458	100.25
604.666	94.25
604.875	80.25
605.084	87.25
605.292	97.25
605.501	96.25
605.709	100.25
605.918	96.25
606.126	94.25
606.334	99.25
606.543	86.25
606.751	98.25
606.96	107.25
607.168	95.25
607.376	88.25
607.585	101.25
607.793	97.25
608.001	90.25
608.21	90.25
608.418	94.25
608.626	110.25
608.834	90.25
609.043	99.25
609.251	94.25
609.459	85.25
609.667	88.25
609.875	95.25
610.083	103.25
610.291	103.25
610.499	98.25
610.707	99.25
610.916	94.25
611.124	91.25
611.332	96.25
611.54	90.25
611.748	83.25
611.955	86.25
612.163	86.25
612.371	90.25
612.579	87.25
612.787	84.25
612.995	90.25
613.203	85.25
613.411	105.25
613.618	94.25
613.826	92.25
614.034	91.25
614.242	83.25
614.449	96.25
614.657	92.25
614.865	99.25
615.072	105.25
615.28	93.25
615.488	80.25
615.695	88.25
615.903	87.25
616.111	99.25
616.318	93.25
616.526	79.25
616.733	98.25
616.941	104.25
617.148	91.25
617.356	81.25
617.563	88.25
617.771	81.25
617.978	104.25
618.185	79.25
618.393	96.25
618.6	87.25
618.807	99.25
619.015	97.25
619.222	90.25
619.429	97.25
619.637	87.25
619.844	88.25
620.051	85.25
620.258	91.25
620.466	102.25
620.673	93.25
620.88	93.25
621.087	88.25
621.294	88.25
621.501	88.25
621.708	102.25
621.915	98.25
622.122	98.25
622.329	94.25
622.536	102.25
622.743	101.25
622.95	98.25
623.157	99.25
623.364	103.25
623.571	99.25
623.778	100.25
623.985	108.25
624.192	90.25
624.399	98.25
624.606	105.25
624.812	97.25
625.019	101.25
625.226	84.25
625.433	84.25
625.639	74.25
625.846	81.25
626.053	70.25
626.259	90.25
626.466	82.25
626.673	81.25
626.879	87.25
627.086	82.25
627.293	101.25
627.499	96.25
627.706	98.25
627.912	86.25
628.119	88.25
628.325	99.25
628.532	87.25
628.738	98.25
628.945	91.25
629.151	96.25
629.357	91.25
629.564	81.25
629.77	81.25
629.976	93.25
630.183	92.25
630.389	89.25
630.595	99.25
630.802	100.25
631.008	83.25
631.214	102.25
631.42	82.25
631.627	87.25
631.833	85.25
632.039	94.25
632.245	82.25
632.451	103.25
632.657	87.25
632.863	82.25
633.069	81.25
633.275	95.25
633.481	92.25
633.688	82.25
633.893	83.25
634.099	82.25
634.305	85.25
634.511	85.25
634.717	81.25
634.923	80.25
635.129	79.25
635.335	87.25
635.541	87.25
635.747	90.25
635.952	91.25
636.158	89.25
636.364	96.25
636.57	80.25
636.775	78.25
636.981	94.25
637.187	94.25
637.392	88.25
637.598	103.25
637.804	84.25
638.009	95.25
638.215	100.25
638.421	88.25
638.626	88.25
638.832	81.25
639.037	92.25
639.243	89.25
639.448	90.25
639.654	88.25
639.859	87.25
640.065	74.25
640.27	102.25
640.475	94.25
640.681	88.25
640.886	76.25
641.091	86.25
641.297	78.25
641.502	82.25
641.707	90.25
641.913	89.25
642.118	83.25
642.323	86.25
642.528	88.25
642.733	101.25
642.939	72.25
643.144	80.25
643.349	87.25
643.554	111.25
643.759	107.25
643.964	102.25
644.169	88.25
644.374	89.25
644.579	89.25
644.784	95.25
644.989	89.25
645.194	97.25
645.399	79.25
645.604	83.25
645.809	79.25
646.014	90.25
646.219	79.25
646.423	89.25
646.628	84.25
646.833	79.25
647.038	76.25
647.243	98.25
647.447	103.25
647.652	106.25
647.857	94.25
648.062	90.25
648.266	98.25
648.471	89.25
648.676	72.25
648.88	87.25
649.085	79.25
649.289	71.25
649.494	94.25
649.698	83.25
649.903	86.25
650.107	89.25
650.312	94.25
650.516	89.25
650.721	83.25
650.925	80.25
651.13	90.25
651.334	87.25
651.539	88.25
651.743	85.25
651.947	91.25
652.152	94.25
652.356	86.25
652.56	73.25
652.764	92.25
652.969	84.25
653.173	76.25
653.377	90.25
653.581	101.25
653.785	91.25
653.99	80.25
654.194	89.25
654.398	77.25
654.602	100.25
654.806	84.25
655.01	64.25
655.214	75.25
655.418	87.25
655.622	86.25
655.826	89.25
656.03	80.25
656.234	75.25
656.438	87.25
656.642	96.25
656.846	85.25
657.049	89.25
657.253	87.25
657.457	79.25
657.661	95.25
657.865	83.25
658.068	88.25
658.272	77.25
658.476	76.25
658.68	98.25
658.883	78.25
659.087	74.25
659.291	90.25
659.494	75.25
659.698	82.25
659.901	87.25
660.105	69.25
660.309	73.25
660.512	86.25
660.716	88.25
660.919	80.25
661.123	86.25
661.326	100.25
661.53	91.25
661.733	77.25
661.936	89.25
662.14	73.25
662.343	94.25
662.546	103.25
662.75	84.25
662.953	90.25
663.156	75.25
663.36	82.25
663.563	75.25
663.766	77.25
663.969	82.25
664.173	83.25
664.376	82.25
664.579	77.25
664.782	73.25
664.985	76.25
665.188	82.25
665.391	88.25
665.594	79.25
665.797	86.25
666	70.25
666.203	85.25
666.406	75.25
666.609	87.25
666.812	83.25
667.015	85.25
667.218	90.25
667.421	80.25
667.624	88.25
667.827	81.25
668.03	81.25
668.232	75.25
668.435	88.25
668.638	107.25
668.841	97.25
669.043	80.25
669.246	88.25
669.449	85.25
669.651	80.25
669.854	84.25
670.057	74.25
670.259	86.25
670.462	83.25
670.665	86.25
670.867	83.25
671.07	73.25
671.272	99.25
671.475	90.25
671.677	79.25
671.88	76.25
672.082	79.25
672.284	86.25
672.487	84.25
672.689	95.25
672.892	77.25
