Data from Location4.07152019.Energy5.Lamp.07192019.3%Agarose_HRD10591_16-20-18-926.txt Node
Date: Fri Jul 19 16:20:18 EDT 2019
User: cochatt
Spectrometer: HR+D1059
Trigger mode: 1
Integration Time (sec): 1.000000E-1
Scans to average: 1
Electric dark correction enabled: true
Nonlinearity correction enabled: false
Boxcar width: 0
XAxis mode: Wavelengths
Number of Pixels in Spectrum: 2048
>>>>>Begin Spectral Data<<<<<
223.165	-17.5
223.4	-17.5
223.635	-17.5
223.869	-20.5
224.104	-1.5
224.338	3.5
224.573	2.5
224.808	-15.5
225.042	-7.5
225.277	-21.5
225.511	-9.5
225.746	-11.5
225.98	7.5
226.215	14.5
226.449	-4.5
226.683	25.5
226.918	23.5
227.152	32.5
227.387	30.5
227.621	40.5
227.856	35.5
228.09	36.5
228.324	42.5
228.559	46.5
228.793	50.5
229.027	53.5
229.262	58.5
229.496	53.5
229.73	76.5
229.964	70.5
230.199	58.5
230.433	64.5
230.667	75.5
230.901	76.5
231.136	83.5
231.37	90.5
231.604	67.5
231.838	76.5
232.072	74.5
232.306	74.5
232.541	71.5
232.775	83.5
233.009	99.5
233.243	86.5
233.477	70.5
233.711	87.5
233.945	80.5
234.179	76.5
234.413	74.5
234.647	81.5
234.881	79.5
235.115	82.5
235.349	77.5
235.583	78.5
235.817	55.5
236.051	67.5
236.285	73.5
236.519	58.5
236.753	85.5
236.987	63.5
237.221	57.5
237.455	64.5
237.689	91.5
237.922	85.5
238.156	65.5
238.39	83.5
238.624	77.5
238.858	73.5
239.091	71.5
239.325	73.5
239.559	80.5
239.793	76.5
240.027	82.5
240.26	59.5
240.494	62.5
240.728	66.5
240.961	74.5
241.195	72.5
241.429	87.5
241.662	86.5
241.896	81.5
242.13	85.5
242.363	60.5
242.597	71.5
242.83	69.5
243.064	66.5
243.298	63.5
243.531	83.5
243.765	82.5
243.998	77.5
244.232	72.5
244.465	75.5
244.699	71.5
244.932	92.5
245.166	74.5
245.399	63.5
245.633	84.5
245.866	80.5
246.099	74.5
246.333	70.5
246.566	89.5
246.8	74.5
247.033	81.5
247.266	91.5
247.5	70.5
247.733	80.5
247.966	64.5
248.2	75.5
248.433	73.5
248.666	73.5
248.899	89.5
249.133	62.5
249.366	76.5
249.599	68.5
249.832	82.5
250.066	79.5
250.299	72.5
250.532	82.5
250.765	73.5
250.998	78.5
251.231	83.5
251.465	78.5
251.698	88.5
251.931	79.5
252.164	74.5
252.397	82.5
252.63	82.5
252.863	81.5
253.096	85.5
253.329	78.5
253.562	90.5
253.795	66.5
254.028	84.5
254.261	83.5
254.494	86.5
254.727	83.5
254.96	72.5
255.193	74.5
255.426	76.5
255.659	76.5
255.892	71.5
256.124	84.5
256.357	78.5
256.59	71.5
256.823	78.5
257.056	76.5
257.289	87.5
257.521	86.5
257.754	83.5
257.987	86.5
258.22	90.5
258.452	82.5
258.685	79.5
258.918	86.5
259.151	80.5
259.383	79.5
259.616	76.5
259.849	74.5
260.081	80.5
260.314	81.5
260.547	78.5
260.779	80.5
261.012	84.5
261.244	92.5
261.477	69.5
261.71	80.5
261.942	86.5
262.175	79.5
262.407	82.5
262.64	77.5
262.872	68.5
263.105	88.5
263.337	82.5
263.57	78.5
263.802	78.5
264.035	74.5
264.267	98.5
264.499	74.5
264.732	95.5
264.964	74.5
265.197	84.5
265.429	78.5
265.661	95.5
265.894	89.5
266.126	89.5
266.358	85.5
266.591	82.5
266.823	76.5
267.055	77.5
267.287	75.5
267.52	82.5
267.752	58.5
267.984	95.5
268.216	76.5
268.448	90.5
268.681	80.5
268.913	86.5
269.145	85.5
269.377	93.5
269.609	87.5
269.841	79.5
270.073	91.5
270.306	88.5
270.538	96.5
270.77	70.5
271.002	66.5
271.234	83.5
271.466	87.5
271.698	62.5
271.93	86.5
272.162	78.5
272.394	88.5
272.626	80.5
272.858	91.5
273.09	84.5
273.322	78.5
273.553	75.5
273.785	80.5
274.017	75.5
274.249	74.5
274.481	77.5
274.713	81.5
274.945	84.5
275.176	92.5
275.408	79.5
275.64	82.5
275.872	73.5
276.104	69.5
276.335	70.5
276.567	76.5
276.799	75.5
277.031	71.5
277.262	74.5
277.494	75.5
277.726	97.5
277.957	95.5
278.189	85.5
278.421	80.5
278.652	72.5
278.884	71.5
279.115	91.5
279.347	82.5
279.579	66.5
279.81	91.5
280.042	83.5
280.273	95.5
280.505	74.5
280.736	84.5
280.968	85.5
281.199	80.5
281.431	72.5
281.662	84.5
281.894	94.5
282.125	87.5
282.356	85.5
282.588	79.5
282.819	62.5
283.051	83.5
283.282	73.5
283.513	65.5
283.745	86.5
283.976	86.5
284.207	62.5
284.439	76.5
284.67	72.5
284.901	79.5
285.132	78.5
285.364	75.5
285.595	80.5
285.826	76.5
286.057	90.5
286.288	89.5
286.52	76.5
286.751	93.5
286.982	90.5
287.213	82.5
287.444	85.5
287.675	82.5
287.906	78.5
288.138	69.5
288.369	69.5
288.6	78.5
288.831	62.5
289.062	71.5
289.293	87.5
289.524	87.5
289.755	83.5
289.986	77.5
290.217	74.5
290.448	90.5
290.679	80.5
290.91	87.5
291.141	74.5
291.371	74.5
291.602	105.5
291.833	90.5
292.064	73.5
292.295	83.5
292.526	90.5
292.757	92.5
292.987	79.5
293.218	81.5
293.449	76.5
293.68	89.5
293.91	66.5
294.141	93.5
294.372	83.5
294.603	84.5
294.833	84.5
295.064	94.5
295.295	88.5
295.525	76.5
295.756	82.5
295.987	77.5
296.217	79.5
296.448	69.5
296.679	66.5
296.909	80.5
297.14	66.5
297.37	84.5
297.601	78.5
297.831	80.5
298.062	82.5
298.292	86.5
298.523	84.5
298.753	86.5
298.984	77.5
299.214	80.5
299.445	79.5
299.675	85.5
299.905	86.5
300.136	80.5
300.366	86.5
300.597	71.5
300.827	81.5
301.057	85.5
301.288	83.5
301.518	85.5
301.748	81.5
301.979	77.5
302.209	77.5
302.439	91.5
302.669	79.5
302.9	83.5
303.13	83.5
303.36	88.5
303.59	67.5
303.82	89.5
304.051	73.5
304.281	83.5
304.511	79.5
304.741	96.5
304.971	97.5
305.201	86.5
305.431	75.5
305.661	96.5
305.891	88.5
306.121	82.5
306.352	91.5
306.582	84.5
306.812	71.5
307.042	76.5
307.272	66.5
307.502	77.5
307.731	82.5
307.961	70.5
308.191	75.5
308.421	90.5
308.651	80.5
308.881	73.5
309.111	80.5
309.341	62.5
309.571	80.5
309.8	88.5
310.03	88.5
310.26	83.5
310.49	93.5
310.72	74.5
310.949	78.5
311.179	80.5
311.409	74.5
311.639	79.5
311.868	83.5
312.098	76.5
312.328	84.5
312.557	76.5
312.787	75.5
313.017	98.5
313.246	79.5
313.476	85.5
313.706	87.5
313.935	78.5
314.165	68.5
314.394	87.5
314.624	70.5
314.853	84.5
315.083	92.5
315.312	81.5
315.542	87.5
315.771	98.5
316.001	87.5
316.23	78.5
316.46	89.5
316.689	79.5
316.919	91.5
317.148	87.5
317.377	90.5
317.607	100.5
317.836	80.5
318.065	77.5
318.295	75.5
318.524	77.5
318.753	91.5
318.983	88.5
319.212	72.5
319.441	88.5
319.67	82.5
319.9	75.5
320.129	84.5
320.358	91.5
320.587	90.5
320.816	70.5
321.046	89.5
321.275	82.5
321.504	90.5
321.733	96.5
321.962	83.5
322.191	80.5
322.42	95.5
322.649	82.5
322.878	80.5
323.108	87.5
323.337	76.5
323.566	67.5
323.795	71.5
324.024	90.5
324.253	84.5
324.482	89.5
324.71	97.5
324.939	95.5
325.168	80.5
325.397	88.5
325.626	85.5
325.855	90.5
326.084	87.5
326.313	84.5
326.542	86.5
326.77	91.5
326.999	90.5
327.228	85.5
327.457	76.5
327.686	73.5
327.914	80.5
328.143	76.5
328.372	71.5
328.6	82.5
328.829	79.5
329.058	91.5
329.287	88.5
329.515	82.5
329.744	79.5
329.972	85.5
330.201	71.5
330.43	97.5
330.658	82.5
330.887	87.5
331.115	88.5
331.344	83.5
331.572	85.5
331.801	93.5
332.03	75.5
332.258	75.5
332.486	84.5
332.715	74.5
332.943	75.5
333.172	89.5
333.4	79.5
333.629	100.5
333.857	88.5
334.085	84.5
334.314	65.5
334.542	64.5
334.771	82.5
334.999	82.5
335.227	67.5
335.455	83.5
335.684	92.5
335.912	96.5
336.14	73.5
336.369	80.5
336.597	71.5
336.825	80.5
337.053	77.5
337.281	81.5
337.51	78.5
337.738	99.5
337.966	78.5
338.194	90.5
338.422	79.5
338.65	90.5
338.878	89.5
339.106	94.5
339.334	88.5
339.562	88.5
339.79	92.5
340.018	81.5
340.246	86.5
340.474	79.5
340.702	82.5
340.93	72.5
341.158	79.5
341.386	83.5
341.614	71.5
341.842	79.5
342.07	96.5
342.298	82.5
342.526	86.5
342.754	86.5
342.981	86.5
343.209	82.5
343.437	75.5
343.665	75.5
343.893	69.5
344.12	89.5
344.348	86.5
344.576	83.5
344.804	69.5
345.031	80.5
345.259	84.5
345.487	86.5
345.714	90.5
345.942	78.5
346.17	78.5
346.397	63.5
346.625	73.5
346.853	87.5
347.08	87.5
347.308	78.5
347.535	86.5
347.763	83.5
347.99	103.5
348.218	80.5
348.445	86.5
348.673	82.5
348.9	83.5
349.128	96.5
349.355	88.5
349.583	86.5
349.81	65.5
350.037	87.5
350.265	95.5
350.492	87.5
350.72	72.5
350.947	76.5
351.174	74.5
351.402	84.5
351.629	81.5
351.856	77.5
352.083	83.5
352.311	87.5
352.538	87.5
352.765	93.5
352.992	85.5
353.22	92.5
353.447	98.5
353.674	99.5
353.901	97.5
354.128	77.5
354.355	83.5
354.583	79.5
354.81	79.5
355.037	87.5
355.264	98.5
355.491	81.5
355.718	86.5
355.945	80.5
356.172	81.5
356.399	87.5
356.626	78.5
356.853	95.5
357.08	70.5
357.307	76.5
357.534	77.5
357.761	84.5
357.988	81.5
358.215	88.5
358.441	86.5
358.668	88.5
358.895	87.5
359.122	71.5
359.349	81.5
359.576	89.5
359.802	84.5
360.029	87.5
360.256	89.5
360.483	73.5
360.709	77.5
360.936	87.5
361.163	89.5
361.39	89.5
361.616	90.5
361.843	86.5
362.07	69.5
362.296	87.5
362.523	78.5
362.749	75.5
362.976	83.5
363.203	91.5
363.429	89.5
363.656	82.5
363.882	94.5
364.109	85.5
364.335	86.5
364.562	95.5
364.788	67.5
365.015	103.5
365.241	90.5
365.468	71.5
365.694	74.5
365.92	77.5
366.147	91.5
366.373	94.5
366.599	94.5
366.826	71.5
367.052	86.5
367.278	91.5
367.505	78.5
367.731	83.5
367.957	80.5
368.184	79.5
368.41	76.5
368.636	61.5
368.862	90.5
369.089	86.5
369.315	91.5
369.541	86.5
369.767	91.5
369.993	89.5
370.219	91.5
370.445	87.5
370.672	88.5
370.898	97.5
371.124	82.5
371.35	80.5
371.576	79.5
371.802	89.5
372.028	81.5
372.254	88.5
372.48	83.5
372.706	80.5
372.932	91.5
373.158	87.5
373.384	76.5
373.61	82.5
373.835	98.5
374.061	86.5
374.287	79.5
374.513	97.5
374.739	83.5
374.965	86.5
375.191	75.5
375.416	91.5
375.642	88.5
375.868	90.5
376.094	83.5
376.319	100.5
376.545	100.5
376.771	89.5
376.997	103.5
377.222	91.5
377.448	97.5
377.674	92.5
377.899	89.5
378.125	89.5
378.35	100.5
378.576	86.5
378.802	82.5
379.027	84.5
379.253	103.5
379.478	86.5
379.704	96.5
379.929	93.5
380.155	104.5
380.38	88.5
380.606	94.5
380.831	92.5
381.057	89.5
381.282	91.5
381.507	91.5
381.733	80.5
381.958	92.5
382.184	92.5
382.409	90.5
382.634	105.5
382.86	94.5
383.085	105.5
383.31	84.5
383.535	94.5
383.761	86.5
383.986	87.5
384.211	96.5
384.436	102.5
384.662	96.5
384.887	102.5
385.112	84.5
385.337	97.5
385.562	89.5
385.787	99.5
386.013	96.5
386.238	91.5
386.463	89.5
386.688	102.5
386.913	96.5
387.138	98.5
387.363	99.5
387.588	83.5
387.813	88.5
388.038	103.5
388.263	103.5
388.488	92.5
388.713	97.5
388.938	92.5
389.163	79.5
389.387	88.5
389.612	95.5
389.837	100.5
390.062	106.5
390.287	105.5
390.512	104.5
390.736	98.5
390.961	102.5
391.186	89.5
391.411	96.5
391.636	102.5
391.86	110.5
392.085	90.5
392.31	104.5
392.534	105.5
392.759	107.5
392.984	110.5
393.208	90.5
393.433	113.5
393.658	103.5
393.882	98.5
394.107	111.5
394.331	99.5
394.556	104.5
394.78	92.5
395.005	100.5
395.229	109.5
395.454	106.5
395.678	112.5
395.903	107.5
396.127	108.5
396.352	115.5
396.576	94.5
396.801	100.5
397.025	99.5
397.249	92.5
397.474	102.5
397.698	105.5
397.922	98.5
398.147	103.5
398.371	104.5
398.595	114.5
398.82	117.5
399.044	93.5
399.268	98.5
399.492	99.5
399.717	107.5
399.941	89.5
400.165	119.5
400.389	90.5
400.613	105.5
400.837	113.5
401.062	114.5
401.286	101.5
401.51	108.5
401.734	110.5
401.958	118.5
402.182	99.5
402.406	114.5
402.63	103.5
402.854	90.5
403.078	119.5
403.302	107.5
403.526	107.5
403.75	130.5
403.974	106.5
404.198	104.5
404.422	104.5
404.645	108.5
404.869	102.5
405.093	126.5
405.317	121.5
405.541	103.5
405.765	99.5
405.988	97.5
406.212	112.5
406.436	119.5
406.66	129.5
406.883	119.5
407.107	114.5
407.331	105.5
407.555	130.5
407.778	119.5
408.002	114.5
408.226	120.5
408.449	108.5
408.673	120.5
408.896	128.5
409.12	135.5
409.344	120.5
409.567	106.5
409.791	110.5
410.014	119.5
410.238	121.5
410.461	124.5
410.685	103.5
410.908	103.5
411.132	122.5
411.355	120.5
411.578	120.5
411.802	116.5
412.025	114.5
412.249	107.5
412.472	122.5
412.695	115.5
412.919	110.5
413.142	116.5
413.365	117.5
413.589	112.5
413.812	122.5
414.035	125.5
414.258	119.5
414.482	117.5
414.705	118.5
414.928	106.5
415.151	117.5
415.374	112.5
415.597	121.5
415.821	132.5
416.044	119.5
416.267	115.5
416.49	122.5
416.713	132.5
416.936	132.5
417.159	113.5
417.382	104.5
417.605	118.5
417.828	123.5
418.051	136.5
418.274	138.5
418.497	124.5
418.72	132.5
418.943	142.5
419.166	121.5
419.389	121.5
419.611	137.5
419.834	135.5
420.057	124.5
420.28	122.5
420.503	123.5
420.726	122.5
420.948	124.5
421.171	128.5
421.394	124.5
421.617	134.5
421.839	130.5
422.062	144.5
422.285	123.5
422.507	127.5
422.73	123.5
422.953	118.5
423.175	126.5
423.398	132.5
423.621	123.5
423.843	121.5
424.066	124.5
424.288	138.5
424.511	128.5
424.733	143.5
424.956	126.5
425.178	146.5
425.401	135.5
425.623	124.5
425.846	131.5
426.068	135.5
426.291	130.5
426.513	137.5
426.735	126.5
426.958	124.5
427.18	131.5
427.402	124.5
427.625	129.5
427.847	128.5
428.069	135.5
428.292	110.5
428.514	135.5
428.736	115.5
428.958	124.5
429.181	127.5
429.403	130.5
429.625	123.5
429.847	119.5
430.069	119.5
430.292	123.5
430.514	121.5
430.736	124.5
430.958	137.5
431.18	122.5
431.402	122.5
431.624	116.5
431.846	117.5
432.068	90.5
432.29	102.5
432.512	108.5
432.734	115.5
432.956	114.5
433.178	122.5
433.4	120.5
433.622	126.5
433.844	123.5
434.066	116.5
434.287	111.5
434.509	98.5
434.731	95.5
434.953	100.5
435.175	124.5
435.397	132.5
435.618	114.5
435.84	110.5
436.062	114.5
436.284	125.5
436.505	110.5
436.727	136.5
436.949	126.5
437.17	118.5
437.392	122.5
437.614	119.5
437.835	114.5
438.057	119.5
438.278	95.5
438.5	120.5
438.721	135.5
438.943	134.5
439.165	131.5
439.386	146.5
439.608	131.5
439.829	140.5
440.05	132.5
440.272	144.5
440.493	128.5
440.715	146.5
440.936	147.5
441.158	128.5
441.379	146.5
441.6	130.5
441.822	140.5
442.043	144.5
442.264	135.5
442.486	146.5
442.707	136.5
442.928	138.5
443.149	138.5
443.371	129.5
443.592	138.5
443.813	137.5
444.034	138.5
444.255	147.5
444.476	136.5
444.698	134.5
444.919	130.5
445.14	278.5
445.361	216.5
445.582	143.5
445.803	140.5
446.024	147.5
446.245	154.5
446.466	146.5
446.687	132.5
446.908	139.5
447.129	150.5
447.35	146.5
447.571	146.5
447.792	138.5
448.013	149.5
448.234	143.5
448.455	138.5
448.675	142.5
448.896	133.5
449.117	124.5
449.338	124.5
449.559	129.5
449.779	128.5
450	119.5
450.221	137.5
450.442	133.5
450.662	133.5
450.883	132.5
451.104	143.5
451.324	134.5
451.545	128.5
451.766	132.5
451.986	122.5
452.207	113.5
452.428	116.5
452.648	115.5
452.869	124.5
453.089	126.5
453.31	116.5
453.53	97.5
453.751	99.5
453.971	100.5
454.192	101.5
454.412	110.5
454.633	107.5
454.853	118.5
455.073	112.5
455.294	116.5
455.514	123.5
455.734	116.5
455.955	112.5
456.175	99.5
456.395	126.5
456.616	120.5
456.836	119.5
457.056	103.5
457.276	118.5
457.497	95.5
457.717	99.5
457.937	111.5
458.157	115.5
458.377	110.5
458.598	95.5
458.818	84.5
459.038	82.5
459.258	93.5
459.478	90.5
459.698	86.5
459.918	102.5
460.138	115.5
460.358	114.5
460.578	108.5
460.798	112.5
461.018	103.5
461.238	109.5
461.458	105.5
461.678	106.5
461.898	103.5
462.118	104.5
462.338	106.5
462.558	101.5
462.777	110.5
462.997	83.5
463.217	103.5
463.437	97.5
463.657	97.5
463.876	114.5
464.096	114.5
464.316	104.5
464.536	110.5
464.755	124.5
464.975	110.5
465.195	115.5
465.414	119.5
465.634	115.5
465.854	126.5
466.073	108.5
466.293	120.5
466.512	128.5
466.732	131.5
466.951	106.5
467.171	126.5
467.391	125.5
467.61	124.5
467.829	142.5
468.049	124.5
468.268	137.5
468.488	136.5
468.707	132.5
468.927	143.5
469.146	132.5
469.365	130.5
469.585	128.5
469.804	131.5
470.023	141.5
470.243	141.5
470.462	136.5
470.681	139.5
470.901	141.5
471.12	140.5
471.339	142.5
471.558	141.5
471.777	117.5
471.997	136.5
472.216	122.5
472.435	127.5
472.654	115.5
472.873	120.5
473.092	112.5
473.311	127.5
473.53	137.5
473.749	130.5
473.968	127.5
474.187	120.5
474.406	121.5
474.625	123.5
474.844	122.5
475.063	126.5
475.282	136.5
475.501	125.5
475.72	123.5
475.939	120.5
476.158	119.5
476.377	125.5
476.596	110.5
476.814	113.5
477.033	112.5
477.252	124.5
477.471	111.5
477.69	124.5
477.908	130.5
478.127	130.5
478.346	134.5
478.564	143.5
478.783	128.5
479.002	137.5
479.22	141.5
479.439	128.5
479.658	128.5
479.876	115.5
480.095	107.5
480.313	124.5
480.532	134.5
480.751	119.5
480.969	82.5
481.188	74.5
481.406	91.5
481.624	83.5
481.843	89.5
482.061	103.5
482.28	111.5
482.498	98.5
482.717	128.5
482.935	131.5
483.153	144.5
483.372	148.5
483.59	153.5
483.808	132.5
484.027	128.5
484.245	130.5
484.463	138.5
484.681	168.5
484.9	135.5
485.118	144.5
485.336	138.5
485.554	112.5
485.772	99.5
485.99	104.5
486.209	102.5
486.427	118.5
486.645	117.5
486.863	123.5
487.081	157.5
487.299	140.5
487.517	136.5
487.735	175.5
487.953	192.5
488.171	177.5
488.389	174.5
488.607	163.5
488.825	149.5
489.043	144.5
489.261	131.5
489.479	127.5
489.696	147.5
489.914	127.5
490.132	134.5
490.35	142.5
490.568	158.5
490.786	163.5
491.003	162.5
491.221	172.5
491.439	169.5
491.657	169.5
491.874	171.5
492.092	214.5
492.31	226.5
492.527	223.5
492.745	198.5
492.963	180.5
493.18	181.5
493.398	194.5
493.615	167.5
493.833	158.5
494.05	158.5
494.268	183.5
494.485	177.5
494.703	166.5
494.92	171.5
495.138	162.5
495.355	172.5
495.573	153.5
495.79	170.5
496.008	159.5
496.225	145.5
496.442	177.5
496.66	165.5
496.877	158.5
497.094	150.5
497.312	159.5
497.529	158.5
497.746	151.5
497.963	143.5
498.181	124.5
498.398	124.5
498.615	120.5
498.832	117.5
499.049	117.5
499.267	118.5
499.484	122.5
499.701	139.5
499.918	138.5
500.135	130.5
500.352	135.5
500.569	152.5
500.786	133.5
501.003	134.5
501.22	136.5
501.437	131.5
501.654	133.5
501.871	127.5
502.088	137.5
502.305	130.5
502.522	134.5
502.739	122.5
502.956	112.5
503.172	117.5
503.389	128.5
503.606	119.5
503.823	117.5
504.04	130.5
504.256	118.5
504.473	116.5
504.69	118.5
504.907	122.5
505.123	110.5
505.34	124.5
505.557	105.5
505.773	114.5
505.99	116.5
506.207	124.5
506.423	132.5
506.64	121.5
506.856	107.5
507.073	123.5
507.289	112.5
507.506	113.5
507.722	120.5
507.939	131.5
508.155	108.5
508.372	108.5
508.588	114.5
508.805	112.5
509.021	107.5
509.238	98.5
509.454	110.5
509.67	106.5
509.887	100.5
510.103	97.5
510.319	99.5
510.536	74.5
510.752	101.5
510.968	95.5
511.184	81.5
511.401	89.5
511.617	91.5
511.833	83.5
512.049	92.5
512.265	97.5
512.481	103.5
512.698	93.5
512.914	107.5
513.13	91.5
513.346	83.5
513.562	93.5
513.778	87.5
513.994	97.5
514.21	80.5
514.426	86.5
514.642	92.5
514.858	93.5
515.074	99.5
515.29	96.5
515.506	82.5
515.721	83.5
515.937	87.5
516.153	88.5
516.369	88.5
516.585	84.5
516.801	96.5
517.016	100.5
517.232	77.5
517.448	97.5
517.664	77.5
517.879	93.5
518.095	99.5
518.311	102.5
518.527	101.5
518.742	97.5
518.958	95.5
519.173	121.5
519.389	118.5
519.605	92.5
519.82	104.5
520.036	85.5
520.251	101.5
520.467	101.5
520.682	106.5
520.898	101.5
521.113	90.5
521.329	93.5
521.544	103.5
521.76	80.5
521.975	86.5
522.19	92.5
522.406	103.5
522.621	104.5
522.836	105.5
523.052	109.5
523.267	94.5
523.482	116.5
523.698	100.5
523.913	113.5
524.128	114.5
524.343	105.5
524.559	130.5
524.774	118.5
524.989	121.5
525.204	123.5
525.419	116.5
525.634	111.5
525.849	90.5
526.064	88.5
526.28	105.5
526.495	98.5
526.71	90.5
526.925	87.5
527.14	86.5
527.355	75.5
527.57	81.5
527.785	85.5
527.999	106.5
528.214	114.5
528.429	114.5
528.644	129.5
528.859	134.5
529.074	145.5
529.289	154.5
529.503	147.5
529.718	121.5
529.933	108.5
530.148	101.5
530.363	91.5
530.577	95.5
530.792	94.5
531.007	85.5
531.221	97.5
531.436	86.5
531.651	73.5
531.865	98.5
532.08	93.5
532.295	89.5
532.509	85.5
532.724	92.5
532.938	91.5
533.153	90.5
533.367	115.5
533.582	100.5
533.796	143.5
534.011	132.5
534.225	93.5
534.44	92.5
534.654	97.5
534.868	100.5
535.083	106.5
535.297	94.5
535.511	111.5
535.726	102.5
535.94	103.5
536.154	102.5
536.369	91.5
536.583	76.5
536.797	74.5
537.011	85.5
537.225	106.5
537.44	89.5
537.654	84.5
537.868	93.5
538.082	88.5
538.296	93.5
538.51	86.5
538.724	118.5
538.938	122.5
539.153	123.5
539.367	119.5
539.581	97.5
539.795	95.5
540.009	96.5
540.222	86.5
540.436	94.5
540.65	118.5
540.864	126.5
541.078	135.5
541.292	140.5
541.506	153.5
541.72	158.5
541.934	187.5
542.147	203.5
542.361	167.5
542.575	163.5
542.789	154.5
543.002	121.5
543.216	119.5
543.43	120.5
543.644	130.5
543.857	126.5
544.071	171.5
544.285	171.5
544.498	151.5
544.712	159.5
544.925	156.5
545.139	158.5
545.352	149.5
545.566	159.5
545.779	163.5
545.993	169.5
546.206	161.5
546.42	138.5
546.633	170.5
546.847	166.5
547.06	159.5
547.274	154.5
547.487	168.5
547.7	169.5
547.914	164.5
548.127	158.5
548.34	170.5
548.554	148.5
548.767	145.5
548.98	154.5
549.193	149.5
549.407	151.5
549.62	145.5
549.833	140.5
550.046	152.5
550.259	146.5
550.473	139.5
550.686	136.5
550.899	160.5
551.112	139.5
551.325	144.5
551.538	144.5
551.751	125.5
551.964	123.5
552.177	128.5
552.39	133.5
552.603	134.5
552.816	138.5
553.029	148.5
553.242	157.5
553.455	153.5
553.667	151.5
553.88	149.5
554.093	154.5
554.306	139.5
554.519	135.5
554.732	136.5
554.944	146.5
555.157	144.5
555.37	150.5
555.583	133.5
555.795	131.5
556.008	124.5
556.221	135.5
556.433	126.5
556.646	137.5
556.859	133.5
557.071	133.5
557.284	148.5
557.496	140.5
557.709	149.5
557.921	139.5
558.134	141.5
558.346	132.5
558.559	122.5
558.771	128.5
558.984	131.5
559.196	125.5
559.409	121.5
559.621	130.5
559.833	134.5
560.046	127.5
560.258	140.5
560.47	129.5
560.683	112.5
560.895	118.5
561.107	114.5
561.32	127.5
561.532	124.5
561.744	142.5
561.956	136.5
562.168	128.5
562.381	123.5
562.593	128.5
562.805	130.5
563.017	132.5
563.229	115.5
563.441	110.5
563.653	118.5
563.865	123.5
564.077	122.5
564.289	132.5
564.501	110.5
564.713	128.5
564.925	123.5
565.137	132.5
565.349	111.5
565.561	111.5
565.773	113.5
565.985	111.5
566.197	97.5
566.408	117.5
566.62	120.5
566.832	132.5
567.044	132.5
567.255	110.5
567.467	123.5
567.679	111.5
567.891	107.5
568.102	97.5
568.314	84.5
568.526	103.5
568.737	88.5
568.949	73.5
569.161	78.5
569.372	83.5
569.584	83.5
569.795	80.5
570.007	95.5
570.218	112.5
570.43	101.5
570.641	103.5
570.853	87.5
571.064	106.5
571.276	100.5
571.487	95.5
571.698	111.5
571.91	107.5
572.121	101.5
572.333	104.5
572.544	110.5
572.755	102.5
572.966	83.5
573.178	67.5
573.389	81.5
573.6	74.5
573.811	97.5
574.023	91.5
574.234	87.5
574.445	107.5
574.656	86.5
574.867	83.5
575.078	85.5
575.289	71.5
575.501	99.5
575.712	76.5
575.923	97.5
576.134	89.5
576.345	99.5
576.556	97.5
576.767	97.5
576.978	100.5
577.188	87.5
577.399	82.5
577.61	90.5
577.821	99.5
578.032	93.5
578.243	97.5
578.454	87.5
578.665	101.5
578.875	94.5
579.086	85.5
579.297	71.5
579.508	75.5
579.718	70.5
579.929	90.5
580.14	77.5
580.35	84.5
580.561	89.5
580.772	86.5
580.982	76.5
581.193	93.5
581.403	98.5
581.614	96.5
581.825	88.5
582.035	94.5
582.246	84.5
582.456	91.5
582.667	95.5
582.877	98.5
583.087	70.5
583.298	81.5
583.508	64.5
583.719	85.5
583.929	76.5
584.139	90.5
584.35	88.5
584.56	77.5
584.77	93.5
584.981	96.5
585.191	85.5
585.401	83.5
585.611	102.5
585.821	89.5
586.032	79.5
586.242	87.5
586.452	70.5
586.662	71.5
586.872	87.5
587.082	87.5
587.292	68.5
587.502	83.5
587.713	76.5
587.923	77.5
588.133	95.5
588.343	75.5
588.553	78.5
588.762	84.5
588.972	98.5
589.182	74.5
589.392	75.5
589.602	92.5
589.812	84.5
590.022	91.5
590.232	70.5
590.441	87.5
590.651	75.5
590.861	85.5
591.071	91.5
591.281	87.5
591.49	79.5
591.7	82.5
591.91	101.5
592.119	69.5
592.329	84.5
592.539	66.5
592.748	88.5
592.958	86.5
593.167	83.5
593.377	95.5
593.587	91.5
593.796	72.5
594.006	95.5
594.215	90.5
594.424	84.5
594.634	103.5
594.843	83.5
595.053	95.5
595.262	90.5
595.472	78.5
595.681	83.5
595.89	87.5
596.1	88.5
596.309	83.5
596.518	90.5
596.727	94.5
596.937	111.5
597.146	89.5
597.355	89.5
597.564	87.5
597.774	92.5
597.983	96.5
598.192	79.5
598.401	74.5
598.61	75.5
598.819	90.5
599.028	88.5
599.237	83.5
599.446	98.5
599.655	89.5
599.864	96.5
600.073	94.5
600.282	83.5
600.491	82.5
600.7	82.5
600.909	98.5
601.118	93.5
601.327	110.5
601.536	112.5
601.745	105.5
601.953	106.5
602.162	107.5
602.371	96.5
602.58	102.5
602.789	97.5
602.997	111.5
603.206	112.5
603.415	106.5
603.623	110.5
603.832	114.5
604.041	107.5
604.249	102.5
604.458	97.5
604.666	91.5
604.875	103.5
605.084	113.5
605.292	110.5
605.501	95.5
605.709	108.5
605.918	94.5
606.126	116.5
606.334	119.5
606.543	122.5
606.751	107.5
606.96	100.5
607.168	111.5
607.376	122.5
607.585	107.5
607.793	113.5
608.001	118.5
608.21	101.5
608.418	102.5
608.626	106.5
608.834	114.5
609.043	124.5
609.251	105.5
609.459	114.5
609.667	106.5
609.875	116.5
610.083	110.5
610.291	131.5
610.499	116.5
610.707	116.5
610.916	126.5
611.124	114.5
611.332	106.5
611.54	108.5
611.748	107.5
611.955	110.5
612.163	121.5
612.371	105.5
612.579	114.5
612.787	105.5
612.995	110.5
613.203	106.5
613.411	113.5
613.618	107.5
613.826	97.5
614.034	115.5
614.242	118.5
614.449	126.5
614.657	115.5
614.865	107.5
615.072	94.5
615.28	107.5
615.488	108.5
615.695	118.5
615.903	106.5
616.111	109.5
616.318	102.5
616.526	103.5
616.733	126.5
616.941	118.5
617.148	105.5
617.356	114.5
617.563	106.5
617.771	102.5
617.978	112.5
618.185	114.5
618.393	113.5
618.6	137.5
618.807	119.5
619.015	98.5
619.222	110.5
619.429	110.5
619.637	102.5
619.844	89.5
620.051	113.5
620.258	98.5
620.466	102.5
620.673	111.5
620.88	95.5
621.087	96.5
621.294	110.5
621.501	114.5
621.708	100.5
621.915	100.5
622.122	106.5
622.329	99.5
622.536	113.5
622.743	113.5
622.95	104.5
623.157	115.5
623.364	99.5
623.571	108.5
623.778	117.5
623.985	107.5
624.192	112.5
624.399	112.5
624.606	113.5
624.812	106.5
625.019	106.5
625.226	96.5
625.433	121.5
625.639	112.5
625.846	94.5
626.053	91.5
626.259	86.5
626.466	91.5
626.673	89.5
626.879	82.5
627.086	103.5
627.293	103.5
627.499	96.5
627.706	97.5
627.912	85.5
628.119	95.5
628.325	110.5
628.532	108.5
628.738	94.5
628.945	95.5
629.151	94.5
629.357	118.5
629.564	105.5
629.77	91.5
629.976	107.5
630.183	98.5
630.389	87.5
630.595	96.5
630.802	87.5
631.008	99.5
631.214	105.5
631.42	102.5
631.627	120.5
631.833	102.5
632.039	101.5
632.245	88.5
632.451	107.5
632.657	94.5
632.863	100.5
633.069	89.5
633.275	97.5
633.481	105.5
633.688	100.5
633.893	104.5
634.099	92.5
634.305	104.5
634.511	86.5
634.717	102.5
634.923	99.5
635.129	82.5
635.335	82.5
635.541	100.5
635.747	91.5
635.952	93.5
636.158	92.5
636.364	106.5
636.57	99.5
636.775	101.5
636.981	106.5
637.187	110.5
637.392	87.5
637.598	105.5
637.804	105.5
638.009	100.5
638.215	93.5
638.421	103.5
638.626	104.5
638.832	111.5
639.037	96.5
639.243	99.5
639.448	107.5
639.654	97.5
639.859	104.5
640.065	118.5
640.27	104.5
640.475	83.5
640.681	101.5
640.886	91.5
641.091	101.5
641.297	104.5
641.502	97.5
641.707	97.5
641.913	100.5
642.118	99.5
642.323	110.5
642.528	98.5
642.733	100.5
642.939	83.5
643.144	90.5
643.349	98.5
643.554	88.5
643.759	102.5
643.964	96.5
644.169	88.5
644.374	93.5
644.579	97.5
644.784	86.5
644.989	83.5
645.194	102.5
645.399	100.5
645.604	96.5
645.809	96.5
646.014	90.5
646.219	103.5
646.423	116.5
646.628	86.5
646.833	106.5
647.038	99.5
647.243	103.5
647.447	92.5
647.652	92.5
647.857	108.5
648.062	92.5
648.266	95.5
648.471	79.5
648.676	90.5
648.88	95.5
649.085	110.5
649.289	90.5
649.494	89.5
649.698	87.5
649.903	86.5
650.107	84.5
650.312	111.5
650.516	107.5
650.721	92.5
650.925	93.5
651.13	105.5
651.334	87.5
651.539	87.5
651.743	93.5
651.947	90.5
652.152	82.5
652.356	75.5
652.56	102.5
652.764	106.5
652.969	99.5
653.173	87.5
653.377	96.5
653.581	79.5
653.785	91.5
653.99	87.5
654.194	92.5
654.398	101.5
654.602	92.5
654.806	89.5
655.01	76.5
655.214	88.5
655.418	91.5
655.622	88.5
655.826	81.5
656.03	86.5
656.234	92.5
656.438	86.5
656.642	83.5
656.846	89.5
657.049	86.5
657.253	94.5
657.457	88.5
657.661	96.5
657.865	76.5
658.068	87.5
658.272	93.5
658.476	88.5
658.68	82.5
658.883	76.5
659.087	82.5
659.291	82.5
659.494	80.5
659.698	78.5
659.901	88.5
660.105	88.5
660.309	79.5
660.512	94.5
660.716	82.5
660.919	86.5
661.123	94.5
661.326	88.5
661.53	84.5
661.733	75.5
661.936	85.5
662.14	76.5
662.343	79.5
662.546	75.5
662.75	80.5
662.953	78.5
663.156	75.5
663.36	101.5
663.563	83.5
663.766	81.5
663.969	77.5
664.173	74.5
664.376	94.5
664.579	79.5
664.782	74.5
664.985	87.5
665.188	85.5
665.391	70.5
665.594	87.5
665.797	84.5
666	84.5
666.203	86.5
666.406	64.5
666.609	78.5
666.812	79.5
667.015	76.5
667.218	69.5
667.421	89.5
667.624	85.5
667.827	58.5
668.03	82.5
668.232	88.5
668.435	80.5
668.638	74.5
668.841	60.5
669.043	91.5
669.246	83.5
669.449	69.5
669.651	82.5
669.854	76.5
670.057	78.5
670.259	88.5
670.462	86.5
670.665	84.5
670.867	80.5
671.07	89.5
671.272	77.5
671.475	78.5
671.677	89.5
671.88	75.5
672.082	76.5
672.284	76.5
672.487	82.5
672.689	89.5
672.892	84.5
