Data from Location4.07152019.Energy5.Lamp.07192019.3%Agarose_HRD10591_16-20-56-926.txt Node
Date: Fri Jul 19 16:20:56 EDT 2019
User: cochatt
Spectrometer: HR+D1059
Trigger mode: 1
Integration Time (sec): 1.000000E-1
Scans to average: 1
Electric dark correction enabled: true
Nonlinearity correction enabled: false
Boxcar width: 0
XAxis mode: Wavelengths
Number of Pixels in Spectrum: 2048
>>>>>Begin Spectral Data<<<<<
223.165	-17.81
223.4	-17.81
223.635	-17.81
223.869	-18.81
224.104	-9.81
224.338	-15.81
224.573	-22.81
224.808	-4.81
225.042	-13.81
225.277	-15.81
225.511	4.19
225.746	9.19
225.98	5.19
226.215	15.19
226.449	5.19
226.683	23.19
226.918	23.19
227.152	34.19
227.387	22.19
227.621	23.19
227.856	33.19
228.09	44.19
228.324	43.19
228.559	33.19
228.793	55.19
229.027	44.19
229.262	38.19
229.496	62.19
229.73	51.19
229.964	79.19
230.199	82.19
230.433	71.19
230.667	67.19
230.901	73.19
231.136	71.19
231.37	88.19
231.604	76.19
231.838	83.19
232.072	98.19
232.306	88.19
232.541	77.19
232.775	87.19
233.009	77.19
233.243	72.19
233.477	65.19
233.711	69.19
233.945	90.19
234.179	86.19
234.413	78.19
234.647	77.19
234.881	84.19
235.115	83.19
235.349	77.19
235.583	79.19
235.817	63.19
236.051	72.19
236.285	71.19
236.519	82.19
236.753	77.19
236.987	71.19
237.221	61.19
237.455	73.19
237.689	71.19
237.922	80.19
238.156	73.19
238.39	88.19
238.624	63.19
238.858	67.19
239.091	79.19
239.325	83.19
239.559	80.19
239.793	67.19
240.027	85.19
240.26	50.19
240.494	81.19
240.728	78.19
240.961	85.19
241.195	80.19
241.429	74.19
241.662	68.19
241.896	76.19
242.13	70.19
242.363	74.19
242.597	78.19
242.83	73.19
243.064	71.19
243.298	65.19
243.531	88.19
243.765	66.19
243.998	75.19
244.232	65.19
244.465	73.19
244.699	76.19
244.932	59.19
245.166	72.19
245.399	73.19
245.633	86.19
245.866	70.19
246.099	79.19
246.333	84.19
246.566	86.19
246.8	73.19
247.033	73.19
247.266	75.19
247.5	90.19
247.733	80.19
247.966	79.19
248.2	84.19
248.433	76.19
248.666	64.19
248.899	96.19
249.133	71.19
249.366	67.19
249.599	75.19
249.832	67.19
250.066	81.19
250.299	69.19
250.532	85.19
250.765	74.19
250.998	92.19
251.231	87.19
251.465	87.19
251.698	64.19
251.931	80.19
252.164	76.19
252.397	68.19
252.63	70.19
252.863	87.19
253.096	79.19
253.329	70.19
253.562	66.19
253.795	68.19
254.028	75.19
254.261	62.19
254.494	79.19
254.727	70.19
254.96	79.19
255.193	71.19
255.426	66.19
255.659	86.19
255.892	74.19
256.124	83.19
256.357	78.19
256.59	83.19
256.823	79.19
257.056	70.19
257.289	72.19
257.521	70.19
257.754	63.19
257.987	87.19
258.22	92.19
258.452	61.19
258.685	72.19
258.918	70.19
259.151	76.19
259.383	72.19
259.616	78.19
259.849	76.19
260.081	76.19
260.314	68.19
260.547	77.19
260.779	79.19
261.012	83.19
261.244	81.19
261.477	86.19
261.71	88.19
261.942	84.19
262.175	76.19
262.407	76.19
262.64	69.19
262.872	75.19
263.105	96.19
263.337	83.19
263.57	79.19
263.802	68.19
264.035	84.19
264.267	69.19
264.499	79.19
264.732	86.19
264.964	72.19
265.197	86.19
265.429	94.19
265.661	89.19
265.894	84.19
266.126	85.19
266.358	101.19
266.591	84.19
266.823	73.19
267.055	71.19
267.287	83.19
267.52	83.19
267.752	83.19
267.984	90.19
268.216	62.19
268.448	71.19
268.681	78.19
268.913	83.19
269.145	82.19
269.377	68.19
269.609	63.19
269.841	77.19
270.073	63.19
270.306	78.19
270.538	83.19
270.77	71.19
271.002	66.19
271.234	72.19
271.466	87.19
271.698	86.19
271.93	72.19
272.162	70.19
272.394	75.19
272.626	76.19
272.858	64.19
273.09	59.19
273.322	82.19
273.553	88.19
273.785	91.19
274.017	102.19
274.249	69.19
274.481	73.19
274.713	75.19
274.945	78.19
275.176	82.19
275.408	63.19
275.64	69.19
275.872	83.19
276.104	88.19
276.335	82.19
276.567	80.19
276.799	86.19
277.031	84.19
277.262	86.19
277.494	81.19
277.726	73.19
277.957	86.19
278.189	78.19
278.421	80.19
278.652	60.19
278.884	72.19
279.115	69.19
279.347	77.19
279.579	79.19
279.81	76.19
280.042	84.19
280.273	81.19
280.505	76.19
280.736	94.19
280.968	75.19
281.199	80.19
281.431	77.19
281.662	83.19
281.894	79.19
282.125	84.19
282.356	75.19
282.588	90.19
282.819	73.19
283.051	94.19
283.282	79.19
283.513	77.19
283.745	71.19
283.976	82.19
284.207	77.19
284.439	84.19
284.67	81.19
284.901	76.19
285.132	68.19
285.364	61.19
285.595	75.19
285.826	78.19
286.057	93.19
286.288	72.19
286.52	94.19
286.751	87.19
286.982	78.19
287.213	73.19
287.444	84.19
287.675	78.19
287.906	71.19
288.138	88.19
288.369	80.19
288.6	86.19
288.831	69.19
289.062	83.19
289.293	80.19
289.524	86.19
289.755	80.19
289.986	81.19
290.217	73.19
290.448	67.19
290.679	72.19
290.91	86.19
291.141	98.19
291.371	83.19
291.602	72.19
291.833	76.19
292.064	79.19
292.295	72.19
292.526	88.19
292.757	74.19
292.987	89.19
293.218	79.19
293.449	81.19
293.68	83.19
293.91	88.19
294.141	91.19
294.372	90.19
294.603	72.19
294.833	63.19
295.064	66.19
295.295	77.19
295.525	84.19
295.756	93.19
295.987	56.19
296.217	77.19
296.448	90.19
296.679	72.19
296.909	89.19
297.14	92.19
297.37	83.19
297.601	78.19
297.831	80.19
298.062	83.19
298.292	71.19
298.523	76.19
298.753	86.19
298.984	72.19
299.214	99.19
299.445	85.19
299.675	76.19
299.905	75.19
300.136	76.19
300.366	93.19
300.597	80.19
300.827	85.19
301.057	92.19
301.288	75.19
301.518	85.19
301.748	69.19
301.979	84.19
302.209	71.19
302.439	67.19
302.669	68.19
302.9	82.19
303.13	83.19
303.36	78.19
303.59	90.19
303.82	86.19
304.051	66.19
304.281	87.19
304.511	84.19
304.741	71.19
304.971	87.19
305.201	80.19
305.431	82.19
305.661	90.19
305.891	79.19
306.121	77.19
306.352	76.19
306.582	86.19
306.812	80.19
307.042	85.19
307.272	71.19
307.502	78.19
307.731	86.19
307.961	77.19
308.191	89.19
308.421	96.19
308.651	76.19
308.881	78.19
309.111	77.19
309.341	81.19
309.571	82.19
309.8	82.19
310.03	83.19
310.26	72.19
310.49	60.19
310.72	76.19
310.949	78.19
311.179	94.19
311.409	84.19
311.639	73.19
311.868	67.19
312.098	67.19
312.328	79.19
312.557	80.19
312.787	77.19
313.017	83.19
313.246	93.19
313.476	84.19
313.706	73.19
313.935	91.19
314.165	94.19
314.394	79.19
314.624	73.19
314.853	93.19
315.083	88.19
315.312	75.19
315.542	81.19
315.771	89.19
316.001	61.19
316.23	80.19
316.46	77.19
316.689	73.19
316.919	104.19
317.148	90.19
317.377	88.19
317.607	75.19
317.836	84.19
318.065	89.19
318.295	88.19
318.524	97.19
318.753	89.19
318.983	83.19
319.212	79.19
319.441	96.19
319.67	86.19
319.9	88.19
320.129	69.19
320.358	78.19
320.587	83.19
320.816	80.19
321.046	72.19
321.275	73.19
321.504	84.19
321.733	94.19
321.962	69.19
322.191	90.19
322.42	68.19
322.649	78.19
322.878	90.19
323.108	64.19
323.337	88.19
323.566	80.19
323.795	74.19
324.024	81.19
324.253	82.19
324.482	81.19
324.71	89.19
324.939	84.19
325.168	85.19
325.397	87.19
325.626	72.19
325.855	78.19
326.084	76.19
326.313	77.19
326.542	74.19
326.77	73.19
326.999	83.19
327.228	93.19
327.457	77.19
327.686	68.19
327.914	89.19
328.143	80.19
328.372	85.19
328.6	92.19
328.829	75.19
329.058	72.19
329.287	79.19
329.515	87.19
329.744	71.19
329.972	83.19
330.201	84.19
330.43	82.19
330.658	64.19
330.887	84.19
331.115	84.19
331.344	90.19
331.572	76.19
331.801	84.19
332.03	87.19
332.258	79.19
332.486	93.19
332.715	75.19
332.943	80.19
333.172	88.19
333.4	80.19
333.629	80.19
333.857	71.19
334.085	73.19
334.314	80.19
334.542	76.19
334.771	84.19
334.999	62.19
335.227	77.19
335.455	81.19
335.684	78.19
335.912	70.19
336.14	82.19
336.369	80.19
336.597	76.19
336.825	87.19
337.053	75.19
337.281	72.19
337.51	81.19
337.738	85.19
337.966	92.19
338.194	79.19
338.422	87.19
338.65	80.19
338.878	75.19
339.106	78.19
339.334	81.19
339.562	77.19
339.79	88.19
340.018	93.19
340.246	83.19
340.474	93.19
340.702	80.19
340.93	85.19
341.158	78.19
341.386	89.19
341.614	87.19
341.842	83.19
342.07	97.19
342.298	79.19
342.526	67.19
342.754	87.19
342.981	80.19
343.209	66.19
343.437	71.19
343.665	69.19
343.893	72.19
344.12	87.19
344.348	92.19
344.576	81.19
344.804	57.19
345.031	79.19
345.259	67.19
345.487	71.19
345.714	84.19
345.942	71.19
346.17	80.19
346.397	72.19
346.625	91.19
346.853	84.19
347.08	81.19
347.308	95.19
347.535	87.19
347.763	77.19
347.99	89.19
348.218	85.19
348.445	85.19
348.673	82.19
348.9	72.19
349.128	87.19
349.355	71.19
349.583	104.19
349.81	99.19
350.037	91.19
350.265	87.19
350.492	87.19
350.72	92.19
350.947	77.19
351.174	91.19
351.402	68.19
351.629	89.19
351.856	80.19
352.083	68.19
352.311	61.19
352.538	72.19
352.765	66.19
352.992	88.19
353.22	84.19
353.447	75.19
353.674	80.19
353.901	79.19
354.128	73.19
354.355	83.19
354.583	83.19
354.81	83.19
355.037	75.19
355.264	78.19
355.491	72.19
355.718	71.19
355.945	91.19
356.172	94.19
356.399	83.19
356.626	75.19
356.853	75.19
357.08	69.19
357.307	85.19
357.534	68.19
357.761	74.19
357.988	86.19
358.215	89.19
358.441	90.19
358.668	92.19
358.895	80.19
359.122	58.19
359.349	68.19
359.576	64.19
359.802	85.19
360.029	76.19
360.256	83.19
360.483	87.19
360.709	73.19
360.936	96.19
361.163	75.19
361.39	88.19
361.616	76.19
361.843	84.19
362.07	82.19
362.296	87.19
362.523	87.19
362.749	90.19
362.976	75.19
363.203	99.19
363.429	79.19
363.656	79.19
363.882	94.19
364.109	84.19
364.335	88.19
364.562	86.19
364.788	76.19
365.015	76.19
365.241	100.19
365.468	91.19
365.694	71.19
365.92	74.19
366.147	85.19
366.373	85.19
366.599	77.19
366.826	73.19
367.052	84.19
367.278	81.19
367.505	73.19
367.731	88.19
367.957	104.19
368.184	81.19
368.41	84.19
368.636	82.19
368.862	83.19
369.089	80.19
369.315	80.19
369.541	81.19
369.767	89.19
369.993	92.19
370.219	82.19
370.445	82.19
370.672	70.19
370.898	80.19
371.124	82.19
371.35	90.19
371.576	85.19
371.802	82.19
372.028	89.19
372.254	94.19
372.48	103.19
372.706	95.19
372.932	89.19
373.158	98.19
373.384	83.19
373.61	88.19
373.835	83.19
374.061	94.19
374.287	84.19
374.513	85.19
374.739	89.19
374.965	90.19
375.191	86.19
375.416	90.19
375.642	95.19
375.868	86.19
376.094	86.19
376.319	82.19
376.545	84.19
376.771	83.19
376.997	84.19
377.222	86.19
377.448	86.19
377.674	98.19
377.899	93.19
378.125	100.19
378.35	73.19
378.576	93.19
378.802	93.19
379.027	101.19
379.253	88.19
379.478	100.19
379.704	85.19
379.929	85.19
380.155	96.19
380.38	104.19
380.606	95.19
380.831	90.19
381.057	94.19
381.282	93.19
381.507	83.19
381.733	87.19
381.958	87.19
382.184	98.19
382.409	91.19
382.634	92.19
382.86	94.19
383.085	87.19
383.31	85.19
383.535	86.19
383.761	85.19
383.986	94.19
384.211	92.19
384.436	92.19
384.662	97.19
384.887	92.19
385.112	86.19
385.337	91.19
385.562	88.19
385.787	95.19
386.013	108.19
386.238	95.19
386.463	94.19
386.688	99.19
386.913	100.19
387.138	110.19
387.363	98.19
387.588	89.19
387.813	119.19
388.038	99.19
388.263	88.19
388.488	99.19
388.713	92.19
388.938	96.19
389.163	111.19
389.387	102.19
389.612	96.19
389.837	101.19
390.062	96.19
390.287	89.19
390.512	101.19
390.736	99.19
390.961	96.19
391.186	97.19
391.411	96.19
391.636	85.19
391.86	100.19
392.085	108.19
392.31	86.19
392.534	91.19
392.759	99.19
392.984	98.19
393.208	94.19
393.433	96.19
393.658	110.19
393.882	99.19
394.107	85.19
394.331	91.19
394.556	96.19
394.78	106.19
395.005	100.19
395.229	83.19
395.454	109.19
395.678	102.19
395.903	121.19
396.127	108.19
396.352	99.19
396.576	89.19
396.801	113.19
397.025	105.19
397.249	96.19
397.474	101.19
397.698	97.19
397.922	96.19
398.147	112.19
398.371	105.19
398.595	110.19
398.82	96.19
399.044	110.19
399.268	92.19
399.492	99.19
399.717	115.19
399.941	111.19
400.165	104.19
400.389	103.19
400.613	99.19
400.837	96.19
401.062	104.19
401.286	102.19
401.51	115.19
401.734	117.19
401.958	127.19
402.182	92.19
402.406	121.19
402.63	103.19
402.854	109.19
403.078	103.19
403.302	112.19
403.526	107.19
403.75	116.19
403.974	109.19
404.198	104.19
404.422	101.19
404.645	105.19
404.869	120.19
405.093	108.19
405.317	115.19
405.541	111.19
405.765	105.19
405.988	104.19
406.212	94.19
406.436	104.19
406.66	105.19
406.883	102.19
407.107	104.19
407.331	92.19
407.555	114.19
407.778	109.19
408.002	122.19
408.226	94.19
408.449	110.19
408.673	111.19
408.896	113.19
409.12	99.19
409.344	104.19
409.567	107.19
409.791	115.19
410.014	120.19
410.238	125.19
410.461	110.19
410.685	122.19
410.908	119.19
411.132	121.19
411.355	91.19
411.578	115.19
411.802	117.19
412.025	103.19
412.249	117.19
412.472	113.19
412.695	113.19
412.919	108.19
413.142	116.19
413.365	110.19
413.589	99.19
413.812	111.19
414.035	118.19
414.258	129.19
414.482	115.19
414.705	101.19
414.928	123.19
415.151	107.19
415.374	124.19
415.597	118.19
415.821	119.19
416.044	117.19
416.267	126.19
416.49	114.19
416.713	124.19
416.936	136.19
417.159	113.19
417.382	115.19
417.605	116.19
417.828	119.19
418.051	124.19
418.274	129.19
418.497	110.19
418.72	117.19
418.943	126.19
419.166	137.19
419.389	127.19
419.611	135.19
419.834	132.19
420.057	125.19
420.28	127.19
420.503	136.19
420.726	125.19
420.948	133.19
421.171	120.19
421.394	123.19
421.617	131.19
421.839	140.19
422.062	134.19
422.285	117.19
422.507	117.19
422.73	110.19
422.953	110.19
423.175	112.19
423.398	112.19
423.621	122.19
423.843	121.19
424.066	115.19
424.288	117.19
424.511	141.19
424.733	133.19
424.956	138.19
425.178	131.19
425.401	138.19
425.623	134.19
425.846	126.19
426.068	123.19
426.291	122.19
426.513	130.19
426.735	120.19
426.958	125.19
427.18	132.19
427.402	133.19
427.625	114.19
427.847	119.19
428.069	120.19
428.292	122.19
428.514	137.19
428.736	116.19
428.958	135.19
429.181	125.19
429.403	129.19
429.625	121.19
429.847	120.19
430.069	116.19
430.292	128.19
430.514	113.19
430.736	122.19
430.958	123.19
431.18	123.19
431.402	114.19
431.624	108.19
431.846	109.19
432.068	85.19
432.29	106.19
432.512	109.19
432.734	102.19
432.956	125.19
433.178	136.19
433.4	133.19
433.622	149.19
433.844	142.19
434.066	115.19
434.287	93.19
434.509	98.19
434.731	87.19
434.953	99.19
435.175	117.19
435.397	137.19
435.618	123.19
435.84	112.19
436.062	101.19
436.284	111.19
436.505	112.19
436.727	118.19
436.949	102.19
437.17	124.19
437.392	118.19
437.614	115.19
437.835	94.19
438.057	105.19
438.278	111.19
438.5	107.19
438.721	117.19
438.943	118.19
439.165	131.19
439.386	116.19
439.608	120.19
439.829	120.19
440.05	135.19
440.272	129.19
440.493	133.19
440.715	129.19
440.936	151.19
441.158	140.19
441.379	143.19
441.6	136.19
441.822	140.19
442.043	123.19
442.264	142.19
442.486	139.19
442.707	129.19
442.928	147.19
443.149	145.19
443.371	134.19
443.592	149.19
443.813	127.19
444.034	138.19
444.255	129.19
444.476	131.19
444.698	137.19
444.919	136.19
445.14	262.19
445.361	189.19
445.582	143.19
445.803	134.19
446.024	132.19
446.245	150.19
446.466	141.19
446.687	147.19
446.908	148.19
447.129	159.19
447.35	145.19
447.571	138.19
447.792	143.19
448.013	128.19
448.234	123.19
448.455	139.19
448.675	123.19
448.896	140.19
449.117	134.19
449.338	130.19
449.559	136.19
449.779	127.19
450	131.19
450.221	113.19
450.442	126.19
450.662	132.19
450.883	139.19
451.104	127.19
451.324	135.19
451.545	129.19
451.766	127.19
451.986	112.19
452.207	105.19
452.428	110.19
452.648	115.19
452.869	104.19
453.089	113.19
453.31	104.19
453.53	95.19
453.751	111.19
453.971	104.19
454.192	84.19
454.412	113.19
454.633	126.19
454.853	107.19
455.073	115.19
455.294	116.19
455.514	101.19
455.734	121.19
455.955	111.19
456.175	112.19
456.395	109.19
456.616	110.19
456.836	105.19
457.056	101.19
457.276	108.19
457.497	101.19
457.717	101.19
457.937	116.19
458.157	109.19
458.377	82.19
458.598	87.19
458.818	89.19
459.038	83.19
459.258	86.19
459.478	89.19
459.698	84.19
459.918	82.19
460.138	100.19
460.358	117.19
460.578	103.19
460.798	110.19
461.018	109.19
461.238	116.19
461.458	114.19
461.678	116.19
461.898	113.19
462.118	110.19
462.338	111.19
462.558	107.19
462.777	110.19
462.997	112.19
463.217	89.19
463.437	109.19
463.657	102.19
463.876	100.19
464.096	119.19
464.316	91.19
464.536	115.19
464.755	127.19
464.975	119.19
465.195	111.19
465.414	111.19
465.634	116.19
465.854	121.19
466.073	119.19
466.293	118.19
466.512	123.19
466.732	115.19
466.951	112.19
467.171	125.19
467.391	127.19
467.61	122.19
467.829	132.19
468.049	125.19
468.268	140.19
468.488	124.19
468.707	120.19
468.927	128.19
469.146	123.19
469.365	123.19
469.585	135.19
469.804	141.19
470.023	131.19
470.243	127.19
470.462	152.19
470.681	139.19
470.901	145.19
471.12	135.19
471.339	133.19
471.558	123.19
471.777	137.19
471.997	119.19
472.216	126.19
472.435	124.19
472.654	111.19
472.873	118.19
473.092	111.19
473.311	120.19
473.53	119.19
473.749	116.19
473.968	124.19
474.187	101.19
474.406	115.19
474.625	124.19
474.844	124.19
475.063	128.19
475.282	121.19
475.501	114.19
475.72	115.19
475.939	118.19
476.158	127.19
476.377	110.19
476.596	114.19
476.814	97.19
477.033	101.19
477.252	111.19
477.471	113.19
477.69	122.19
477.908	115.19
478.127	126.19
478.346	120.19
478.564	118.19
478.783	115.19
479.002	141.19
479.22	127.19
479.439	131.19
479.658	124.19
479.876	104.19
480.095	115.19
480.313	109.19
480.532	116.19
480.751	95.19
480.969	85.19
481.188	85.19
481.406	91.19
481.624	84.19
481.843	85.19
482.061	92.19
482.28	95.19
482.498	97.19
482.717	116.19
482.935	119.19
483.153	121.19
483.372	152.19
483.59	138.19
483.808	135.19
484.027	141.19
484.245	131.19
484.463	137.19
484.681	157.19
484.9	132.19
485.118	147.19
485.336	127.19
485.554	115.19
485.772	97.19
485.99	96.19
486.209	105.19
486.427	106.19
486.645	125.19
486.863	122.19
487.081	140.19
487.299	123.19
487.517	141.19
487.735	156.19
487.953	193.19
488.171	160.19
488.389	177.19
488.607	151.19
488.825	137.19
489.043	120.19
489.261	128.19
489.479	132.19
489.696	143.19
489.914	136.19
490.132	143.19
490.35	142.19
490.568	138.19
490.786	145.19
491.003	166.19
491.221	174.19
491.439	192.19
491.657	187.19
491.874	214.19
492.092	207.19
492.31	230.19
492.527	221.19
492.745	182.19
492.963	185.19
493.18	161.19
493.398	181.19
493.615	171.19
493.833	146.19
494.05	168.19
494.268	164.19
494.485	168.19
494.703	168.19
494.92	177.19
495.138	145.19
495.355	167.19
495.573	156.19
495.79	158.19
496.008	150.19
496.225	166.19
496.442	163.19
496.66	169.19
496.877	135.19
497.094	148.19
497.312	145.19
497.529	154.19
497.746	145.19
497.963	152.19
498.181	118.19
498.398	107.19
498.615	117.19
498.832	109.19
499.049	108.19
499.267	117.19
499.484	112.19
499.701	137.19
499.918	128.19
500.135	130.19
500.352	131.19
500.569	134.19
500.786	133.19
501.003	138.19
501.22	131.19
501.437	130.19
501.654	121.19
501.871	121.19
502.088	123.19
502.305	107.19
502.522	115.19
502.739	117.19
502.956	110.19
503.172	111.19
503.389	117.19
503.606	116.19
503.823	97.19
504.04	121.19
504.256	121.19
504.473	109.19
504.69	129.19
504.907	119.19
505.123	116.19
505.34	119.19
505.557	121.19
505.773	121.19
505.99	113.19
506.207	120.19
506.423	112.19
506.64	115.19
506.856	104.19
507.073	104.19
507.289	109.19
507.506	112.19
507.722	106.19
507.939	127.19
508.155	109.19
508.372	100.19
508.588	112.19
508.805	100.19
509.021	105.19
509.238	107.19
509.454	88.19
509.67	91.19
509.887	108.19
510.103	84.19
510.319	104.19
510.536	87.19
510.752	79.19
510.968	65.19
511.184	87.19
511.401	81.19
511.617	73.19
511.833	91.19
512.049	90.19
512.265	95.19
512.481	95.19
512.698	100.19
512.914	98.19
513.13	96.19
513.346	84.19
513.562	85.19
513.778	82.19
513.994	96.19
514.21	88.19
514.426	90.19
514.642	95.19
514.858	94.19
515.074	83.19
515.29	64.19
515.506	72.19
515.721	80.19
515.937	78.19
516.153	88.19
516.369	74.19
516.585	89.19
516.801	86.19
517.016	88.19
517.232	83.19
517.448	95.19
517.664	99.19
517.879	100.19
518.095	82.19
518.311	87.19
518.527	89.19
518.742	96.19
518.958	96.19
519.173	102.19
519.389	108.19
519.605	106.19
519.82	117.19
520.036	108.19
520.251	111.19
520.467	100.19
520.682	87.19
520.898	78.19
521.113	94.19
521.329	83.19
521.544	89.19
521.76	84.19
521.975	85.19
522.19	87.19
522.406	95.19
522.621	104.19
522.836	87.19
523.052	91.19
523.267	103.19
523.482	94.19
523.698	105.19
523.913	117.19
524.128	99.19
524.343	113.19
524.559	132.19
524.774	112.19
524.989	118.19
525.204	104.19
525.419	98.19
525.634	102.19
525.849	103.19
526.064	110.19
526.28	102.19
526.495	83.19
526.71	90.19
526.925	85.19
527.14	86.19
527.355	71.19
527.57	81.19
527.785	92.19
527.999	101.19
528.214	108.19
528.429	111.19
528.644	132.19
528.859	132.19
529.074	141.19
529.289	171.19
529.503	138.19
529.718	112.19
529.933	116.19
530.148	88.19
530.363	96.19
530.577	80.19
530.792	71.19
531.007	83.19
531.221	72.19
531.436	68.19
531.651	70.19
531.865	87.19
532.08	81.19
532.295	98.19
532.509	86.19
532.724	88.19
532.938	90.19
533.153	91.19
533.367	104.19
533.582	127.19
533.796	114.19
534.011	114.19
534.225	85.19
534.44	88.19
534.654	101.19
534.868	87.19
535.083	98.19
535.297	116.19
535.511	107.19
535.726	87.19
535.94	110.19
536.154	111.19
536.369	94.19
536.583	85.19
536.797	96.19
537.011	88.19
537.225	80.19
537.44	84.19
537.654	80.19
537.868	82.19
538.082	80.19
538.296	82.19
538.51	102.19
538.724	108.19
538.938	108.19
539.153	108.19
539.367	116.19
539.581	104.19
539.795	105.19
540.009	115.19
540.222	95.19
540.436	85.19
540.65	115.19
540.864	142.19
541.078	132.19
541.292	145.19
541.506	145.19
541.72	163.19
541.934	179.19
542.147	187.19
542.361	165.19
542.575	157.19
542.789	148.19
543.002	144.19
543.216	122.19
543.43	120.19
543.644	137.19
543.857	136.19
544.071	151.19
544.285	158.19
544.498	141.19
544.712	156.19
544.925	144.19
545.139	142.19
545.352	151.19
545.566	155.19
545.779	138.19
545.993	163.19
546.206	153.19
546.42	155.19
546.633	152.19
546.847	150.19
547.06	151.19
547.274	153.19
547.487	154.19
547.7	170.19
547.914	159.19
548.127	145.19
548.34	123.19
548.554	143.19
548.767	146.19
548.98	145.19
549.193	148.19
549.407	143.19
549.62	158.19
549.833	136.19
550.046	139.19
550.259	143.19
550.473	142.19
550.686	152.19
550.899	141.19
551.112	149.19
551.325	139.19
551.538	116.19
551.751	129.19
551.964	109.19
552.177	140.19
552.39	135.19
552.603	141.19
552.816	134.19
553.029	137.19
553.242	151.19
553.455	151.19
553.667	150.19
553.88	145.19
554.093	148.19
554.306	140.19
554.519	129.19
554.732	122.19
554.944	129.19
555.157	137.19
555.37	133.19
555.583	127.19
555.795	134.19
556.008	150.19
556.221	126.19
556.433	115.19
556.646	137.19
556.859	120.19
557.071	124.19
557.284	132.19
557.496	119.19
557.709	155.19
557.921	139.19
558.134	124.19
558.346	139.19
558.559	148.19
558.771	134.19
558.984	125.19
559.196	130.19
559.409	141.19
559.621	121.19
559.833	113.19
560.046	123.19
560.258	111.19
560.47	128.19
560.683	133.19
560.895	129.19
561.107	109.19
561.32	127.19
561.532	123.19
561.744	137.19
561.956	142.19
562.168	131.19
562.381	123.19
562.593	109.19
562.805	114.19
563.017	119.19
563.229	128.19
563.441	115.19
563.653	136.19
563.865	120.19
564.077	112.19
564.289	114.19
564.501	120.19
564.713	98.19
564.925	113.19
565.137	104.19
565.349	109.19
565.561	117.19
565.773	129.19
565.985	108.19
566.197	127.19
566.408	117.19
566.62	103.19
566.832	109.19
567.044	107.19
567.255	115.19
567.467	115.19
567.679	111.19
567.891	89.19
568.102	104.19
568.314	81.19
568.526	83.19
568.737	94.19
568.949	88.19
569.161	79.19
569.372	81.19
569.584	65.19
569.795	75.19
570.007	87.19
570.218	78.19
570.43	93.19
570.641	87.19
570.853	92.19
571.064	112.19
571.276	109.19
571.487	101.19
571.698	95.19
571.91	109.19
572.121	105.19
572.333	92.19
572.544	85.19
572.755	91.19
572.966	84.19
573.178	74.19
573.389	73.19
573.6	84.19
573.811	77.19
574.023	75.19
574.234	92.19
574.445	103.19
574.656	94.19
574.867	100.19
575.078	84.19
575.289	93.19
575.501	97.19
575.712	75.19
575.923	90.19
576.134	99.19
576.345	89.19
576.556	102.19
576.767	100.19
576.978	89.19
577.188	98.19
577.399	93.19
577.61	84.19
577.821	71.19
578.032	98.19
578.243	87.19
578.454	93.19
578.665	73.19
578.875	80.19
579.086	84.19
579.297	84.19
579.508	87.19
579.718	81.19
579.929	91.19
580.14	84.19
580.35	94.19
580.561	95.19
580.772	92.19
580.982	80.19
581.193	78.19
581.403	90.19
581.614	81.19
581.825	83.19
582.035	80.19
582.246	78.19
582.456	100.19
582.667	84.19
582.877	103.19
583.087	102.19
583.298	97.19
583.508	82.19
583.719	75.19
583.929	92.19
584.139	79.19
584.35	79.19
584.56	86.19
584.77	94.19
584.981	91.19
585.191	89.19
585.401	86.19
585.611	83.19
585.821	77.19
586.032	86.19
586.242	77.19
586.452	80.19
586.662	68.19
586.872	77.19
587.082	88.19
587.292	78.19
587.502	83.19
587.713	77.19
587.923	83.19
588.133	97.19
588.343	90.19
588.553	61.19
588.762	84.19
588.972	88.19
589.182	95.19
589.392	84.19
589.602	76.19
589.812	88.19
590.022	83.19
590.232	65.19
590.441	74.19
590.651	73.19
590.861	92.19
591.071	73.19
591.281	82.19
591.49	94.19
591.7	75.19
591.91	94.19
592.119	73.19
592.329	91.19
592.539	71.19
592.748	79.19
592.958	83.19
593.167	88.19
593.377	79.19
593.587	94.19
593.796	79.19
594.006	83.19
594.215	83.19
594.424	69.19
594.634	88.19
594.843	98.19
595.053	84.19
595.262	89.19
595.472	78.19
595.681	84.19
595.89	85.19
596.1	72.19
596.309	85.19
596.518	83.19
596.727	87.19
596.937	115.19
597.146	88.19
597.355	94.19
597.564	89.19
597.774	108.19
597.983	96.19
598.192	77.19
598.401	68.19
598.61	83.19
598.819	83.19
599.028	97.19
599.237	102.19
599.446	101.19
599.655	88.19
599.864	104.19
600.073	82.19
600.282	94.19
600.491	87.19
600.7	94.19
600.909	93.19
601.118	92.19
601.327	101.19
601.536	107.19
601.745	111.19
601.953	96.19
602.162	94.19
602.371	109.19
602.58	97.19
602.789	103.19
602.997	98.19
603.206	109.19
603.415	113.19
603.623	94.19
603.832	102.19
604.041	97.19
604.249	109.19
604.458	98.19
604.666	92.19
604.875	110.19
605.084	88.19
605.292	99.19
605.501	96.19
605.709	104.19
605.918	108.19
606.126	123.19
606.334	96.19
606.543	107.19
606.751	107.19
606.96	105.19
607.168	116.19
607.376	111.19
607.585	118.19
607.793	112.19
608.001	94.19
608.21	111.19
608.418	107.19
608.626	100.19
608.834	115.19
609.043	91.19
609.251	97.19
609.459	113.19
609.667	104.19
609.875	125.19
610.083	115.19
610.291	124.19
610.499	117.19
610.707	111.19
610.916	95.19
611.124	105.19
611.332	120.19
611.54	119.19
611.748	113.19
611.955	102.19
612.163	91.19
612.371	107.19
612.579	98.19
612.787	100.19
612.995	99.19
613.203	107.19
613.411	113.19
613.618	109.19
613.826	107.19
614.034	103.19
614.242	103.19
614.449	94.19
614.657	96.19
614.865	97.19
615.072	97.19
615.28	99.19
615.488	101.19
615.695	120.19
615.903	97.19
616.111	103.19
616.318	115.19
616.526	97.19
616.733	103.19
616.941	97.19
617.148	124.19
617.356	97.19
617.563	83.19
617.771	98.19
617.978	112.19
618.185	114.19
618.393	102.19
618.6	112.19
618.807	111.19
619.015	92.19
619.222	112.19
619.429	105.19
619.637	101.19
619.844	89.19
620.051	99.19
620.258	88.19
620.466	113.19
620.673	96.19
620.88	95.19
621.087	107.19
621.294	91.19
621.501	94.19
621.708	100.19
621.915	111.19
622.122	108.19
622.329	95.19
622.536	95.19
622.743	105.19
622.95	110.19
623.157	106.19
623.364	101.19
623.571	102.19
623.778	112.19
623.985	112.19
624.192	113.19
624.399	108.19
624.606	114.19
624.812	95.19
625.019	101.19
625.226	100.19
625.433	100.19
625.639	79.19
625.846	93.19
626.053	92.19
626.259	91.19
626.466	103.19
626.673	90.19
626.879	85.19
627.086	107.19
627.293	95.19
627.499	95.19
627.706	105.19
627.912	114.19
628.119	102.19
628.325	109.19
628.532	104.19
628.738	107.19
628.945	85.19
629.151	93.19
629.357	89.19
629.564	102.19
629.77	100.19
629.976	88.19
630.183	92.19
630.389	88.19
630.595	93.19
630.802	93.19
631.008	102.19
631.214	91.19
631.42	99.19
631.627	100.19
631.833	94.19
632.039	91.19
632.245	94.19
632.451	98.19
632.657	97.19
632.863	102.19
633.069	84.19
633.275	98.19
633.481	104.19
633.688	92.19
633.893	101.19
634.099	88.19
634.305	90.19
634.511	87.19
634.717	100.19
634.923	87.19
635.129	82.19
635.335	90.19
635.541	91.19
635.747	95.19
635.952	80.19
636.158	99.19
636.364	93.19
636.57	108.19
636.775	94.19
636.981	98.19
637.187	116.19
637.392	97.19
637.598	98.19
637.804	94.19
638.009	89.19
638.215	100.19
638.421	86.19
638.626	100.19
638.832	99.19
639.037	99.19
639.243	101.19
639.448	101.19
639.654	102.19
639.859	86.19
640.065	103.19
640.27	98.19
640.475	108.19
640.681	96.19
640.886	100.19
641.091	104.19
641.297	101.19
641.502	93.19
641.707	112.19
641.913	79.19
642.118	87.19
642.323	97.19
642.528	88.19
642.733	77.19
642.939	95.19
643.144	100.19
643.349	102.19
643.554	87.19
643.759	78.19
643.964	82.19
644.169	99.19
644.374	94.19
644.579	95.19
644.784	103.19
644.989	95.19
645.194	89.19
645.399	109.19
645.604	84.19
645.809	93.19
646.014	93.19
646.219	97.19
646.423	99.19
646.628	96.19
646.833	89.19
647.038	99.19
647.243	81.19
647.447	106.19
647.652	96.19
647.857	93.19
648.062	79.19
648.266	99.19
648.471	89.19
648.676	96.19
648.88	88.19
649.085	95.19
649.289	85.19
649.494	79.19
649.698	87.19
649.903	77.19
650.107	79.19
650.312	97.19
650.516	96.19
650.721	83.19
650.925	86.19
651.13	87.19
651.334	101.19
651.539	86.19
651.743	92.19
651.947	82.19
652.152	99.19
652.356	71.19
652.56	85.19
652.764	92.19
652.969	98.19
653.173	92.19
653.377	88.19
653.581	96.19
653.785	86.19
653.99	81.19
654.194	80.19
654.398	88.19
654.602	95.19
654.806	75.19
655.01	94.19
655.214	71.19
655.418	80.19
655.622	77.19
655.826	85.19
656.03	90.19
656.234	89.19
656.438	70.19
656.642	91.19
656.846	83.19
657.049	85.19
657.253	93.19
657.457	85.19
657.661	92.19
657.865	88.19
658.068	86.19
658.272	87.19
658.476	81.19
658.68	85.19
658.883	92.19
659.087	69.19
659.291	85.19
659.494	89.19
659.698	80.19
659.901	84.19
660.105	78.19
660.309	78.19
660.512	80.19
660.716	73.19
660.919	87.19
661.123	96.19
661.326	83.19
661.53	81.19
661.733	85.19
661.936	90.19
662.14	93.19
662.343	90.19
662.546	73.19
662.75	77.19
662.953	82.19
663.156	86.19
663.36	93.19
663.563	73.19
663.766	76.19
663.969	85.19
664.173	74.19
664.376	76.19
664.579	79.19
664.782	67.19
664.985	95.19
665.188	80.19
665.391	67.19
665.594	71.19
665.797	84.19
666	78.19
666.203	92.19
666.406	76.19
666.609	74.19
666.812	80.19
667.015	79.19
667.218	74.19
667.421	80.19
667.624	70.19
667.827	71.19
668.03	85.19
668.232	79.19
668.435	70.19
668.638	79.19
668.841	80.19
669.043	76.19
669.246	81.19
669.449	75.19
669.651	82.19
669.854	86.19
670.057	79.19
670.259	83.19
670.462	76.19
670.665	74.19
670.867	76.19
671.07	89.19
671.272	71.19
671.475	83.19
671.677	81.19
671.88	86.19
672.082	87.19
672.284	74.19
672.487	79.19
672.689	62.19
672.892	81.19
