Data from Location4.07152019.Energy5.Lamp.07192019.3%Agarose_HRD10591_16-21-25-926.txt Node
Date: Fri Jul 19 16:21:25 EDT 2019
User: cochatt
Spectrometer: HR+D1059
Trigger mode: 1
Integration Time (sec): 1.000000E-1
Scans to average: 1
Electric dark correction enabled: true
Nonlinearity correction enabled: false
Boxcar width: 0
XAxis mode: Wavelengths
Number of Pixels in Spectrum: 2048
>>>>>Begin Spectral Data<<<<<
223.165	-18.56
223.4	-18.56
223.635	-18.56
223.869	-11.56
224.104	-20.56
224.338	-6.56
224.573	-14.56
224.808	-5.56
225.042	-10.56
225.277	-3.56
225.511	-9.56
225.746	12.44
225.98	1.44
226.215	12.44
226.449	12.44
226.683	7.44
226.918	24.44
227.152	30.44
227.387	47.44
227.621	46.44
227.856	53.44
228.09	33.44
228.324	73.44
228.559	56.44
228.793	61.44
229.027	77.44
229.262	79.44
229.496	61.44
229.73	65.44
229.964	93.44
230.199	75.44
230.433	68.44
230.667	78.44
230.901	77.44
231.136	90.44
231.37	71.44
231.604	82.44
231.838	75.44
232.072	87.44
232.306	86.44
232.541	83.44
232.775	75.44
233.009	94.44
233.243	89.44
233.477	86.44
233.711	91.44
233.945	77.44
234.179	91.44
234.413	73.44
234.647	82.44
234.881	87.44
235.115	82.44
235.349	93.44
235.583	82.44
235.817	82.44
236.051	58.44
236.285	94.44
236.519	65.44
236.753	79.44
236.987	82.44
237.221	82.44
237.455	94.44
237.689	89.44
237.922	95.44
238.156	77.44
238.39	77.44
238.624	68.44
238.858	71.44
239.091	73.44
239.325	70.44
239.559	82.44
239.793	83.44
240.027	82.44
240.26	92.44
240.494	78.44
240.728	75.44
240.961	71.44
241.195	82.44
241.429	69.44
241.662	78.44
241.896	82.44
242.13	79.44
242.363	73.44
242.597	82.44
242.83	84.44
243.064	86.44
243.298	83.44
243.531	81.44
243.765	78.44
243.998	84.44
244.232	94.44
244.465	92.44
244.699	92.44
244.932	86.44
245.166	82.44
245.399	68.44
245.633	78.44
245.866	85.44
246.099	93.44
246.333	64.44
246.566	89.44
246.8	80.44
247.033	81.44
247.266	89.44
247.5	75.44
247.733	82.44
247.966	81.44
248.2	104.44
248.433	88.44
248.666	70.44
248.899	84.44
249.133	83.44
249.366	100.44
249.599	82.44
249.832	83.44
250.066	87.44
250.299	75.44
250.532	77.44
250.765	86.44
250.998	91.44
251.231	89.44
251.465	85.44
251.698	88.44
251.931	85.44
252.164	77.44
252.397	85.44
252.63	78.44
252.863	87.44
253.096	81.44
253.329	85.44
253.562	91.44
253.795	78.44
254.028	81.44
254.261	82.44
254.494	80.44
254.727	85.44
254.96	77.44
255.193	78.44
255.426	85.44
255.659	96.44
255.892	74.44
256.124	81.44
256.357	86.44
256.59	84.44
256.823	82.44
257.056	86.44
257.289	100.44
257.521	92.44
257.754	87.44
257.987	88.44
258.22	70.44
258.452	76.44
258.685	83.44
258.918	80.44
259.151	89.44
259.383	79.44
259.616	83.44
259.849	80.44
260.081	92.44
260.314	85.44
260.547	83.44
260.779	86.44
261.012	94.44
261.244	82.44
261.477	84.44
261.71	93.44
261.942	89.44
262.175	70.44
262.407	98.44
262.64	75.44
262.872	82.44
263.105	92.44
263.337	91.44
263.57	101.44
263.802	97.44
264.035	74.44
264.267	79.44
264.499	90.44
264.732	104.44
264.964	92.44
265.197	107.44
265.429	80.44
265.661	88.44
265.894	83.44
266.126	96.44
266.358	81.44
266.591	96.44
266.823	92.44
267.055	79.44
267.287	81.44
267.52	87.44
267.752	105.44
267.984	99.44
268.216	87.44
268.448	90.44
268.681	74.44
268.913	88.44
269.145	97.44
269.377	91.44
269.609	90.44
269.841	80.44
270.073	78.44
270.306	88.44
270.538	76.44
270.77	78.44
271.002	104.44
271.234	94.44
271.466	99.44
271.698	90.44
271.93	90.44
272.162	97.44
272.394	88.44
272.626	71.44
272.858	92.44
273.09	105.44
273.322	79.44
273.553	80.44
273.785	76.44
274.017	85.44
274.249	112.44
274.481	89.44
274.713	77.44
274.945	99.44
275.176	99.44
275.408	97.44
275.64	90.44
275.872	101.44
276.104	85.44
276.335	79.44
276.567	89.44
276.799	77.44
277.031	90.44
277.262	101.44
277.494	101.44
277.726	88.44
277.957	90.44
278.189	83.44
278.421	97.44
278.652	99.44
278.884	78.44
279.115	84.44
279.347	92.44
279.579	82.44
279.81	92.44
280.042	84.44
280.273	77.44
280.505	95.44
280.736	83.44
280.968	85.44
281.199	89.44
281.431	82.44
281.662	90.44
281.894	84.44
282.125	81.44
282.356	79.44
282.588	78.44
282.819	87.44
283.051	109.44
283.282	98.44
283.513	86.44
283.745	85.44
283.976	89.44
284.207	89.44
284.439	85.44
284.67	88.44
284.901	86.44
285.132	94.44
285.364	97.44
285.595	93.44
285.826	92.44
286.057	82.44
286.288	93.44
286.52	83.44
286.751	87.44
286.982	85.44
287.213	98.44
287.444	88.44
287.675	87.44
287.906	90.44
288.138	95.44
288.369	95.44
288.6	89.44
288.831	78.44
289.062	86.44
289.293	77.44
289.524	82.44
289.755	76.44
289.986	88.44
290.217	93.44
290.448	86.44
290.679	94.44
290.91	80.44
291.141	88.44
291.371	87.44
291.602	82.44
291.833	94.44
292.064	86.44
292.295	89.44
292.526	96.44
292.757	96.44
292.987	86.44
293.218	82.44
293.449	73.44
293.68	94.44
293.91	86.44
294.141	99.44
294.372	99.44
294.603	92.44
294.833	97.44
295.064	94.44
295.295	84.44
295.525	101.44
295.756	93.44
295.987	86.44
296.217	95.44
296.448	86.44
296.679	80.44
296.909	91.44
297.14	88.44
297.37	81.44
297.601	83.44
297.831	82.44
298.062	103.44
298.292	80.44
298.523	86.44
298.753	88.44
298.984	78.44
299.214	90.44
299.445	96.44
299.675	92.44
299.905	86.44
300.136	81.44
300.366	100.44
300.597	98.44
300.827	84.44
301.057	93.44
301.288	90.44
301.518	96.44
301.748	88.44
301.979	97.44
302.209	97.44
302.439	81.44
302.669	90.44
302.9	88.44
303.13	117.44
303.36	88.44
303.59	86.44
303.82	83.44
304.051	91.44
304.281	81.44
304.511	94.44
304.741	90.44
304.971	92.44
305.201	75.44
305.431	88.44
305.661	90.44
305.891	88.44
306.121	89.44
306.352	97.44
306.582	85.44
306.812	88.44
307.042	100.44
307.272	86.44
307.502	100.44
307.731	88.44
307.961	100.44
308.191	90.44
308.421	90.44
308.651	85.44
308.881	81.44
309.111	87.44
309.341	105.44
309.571	95.44
309.8	101.44
310.03	82.44
310.26	92.44
310.49	85.44
310.72	82.44
310.949	88.44
311.179	80.44
311.409	80.44
311.639	92.44
311.868	87.44
312.098	103.44
312.328	91.44
312.557	90.44
312.787	96.44
313.017	92.44
313.246	94.44
313.476	94.44
313.706	93.44
313.935	82.44
314.165	82.44
314.394	78.44
314.624	97.44
314.853	93.44
315.083	80.44
315.312	88.44
315.542	94.44
315.771	97.44
316.001	92.44
316.23	77.44
316.46	85.44
316.689	69.44
316.919	89.44
317.148	102.44
317.377	85.44
317.607	105.44
317.836	80.44
318.065	90.44
318.295	92.44
318.524	90.44
318.753	71.44
318.983	91.44
319.212	78.44
319.441	94.44
319.67	91.44
319.9	81.44
320.129	92.44
320.358	95.44
320.587	90.44
320.816	86.44
321.046	99.44
321.275	96.44
321.504	94.44
321.733	79.44
321.962	87.44
322.191	87.44
322.42	88.44
322.649	90.44
322.878	96.44
323.108	85.44
323.337	86.44
323.566	101.44
323.795	90.44
324.024	98.44
324.253	82.44
324.482	85.44
324.71	85.44
324.939	89.44
325.168	104.44
325.397	98.44
325.626	85.44
325.855	93.44
326.084	81.44
326.313	95.44
326.542	95.44
326.77	96.44
326.999	92.44
327.228	96.44
327.457	82.44
327.686	92.44
327.914	86.44
328.143	99.44
328.372	104.44
328.6	88.44
328.829	94.44
329.058	85.44
329.287	96.44
329.515	81.44
329.744	90.44
329.972	116.44
330.201	78.44
330.43	84.44
330.658	84.44
330.887	92.44
331.115	85.44
331.344	101.44
331.572	102.44
331.801	94.44
332.03	82.44
332.258	91.44
332.486	98.44
332.715	89.44
332.943	87.44
333.172	98.44
333.4	95.44
333.629	85.44
333.857	93.44
334.085	88.44
334.314	92.44
334.542	82.44
334.771	95.44
334.999	82.44
335.227	92.44
335.455	92.44
335.684	87.44
335.912	82.44
336.14	97.44
336.369	82.44
336.597	98.44
336.825	85.44
337.053	95.44
337.281	78.44
337.51	94.44
337.738	92.44
337.966	88.44
338.194	92.44
338.422	87.44
338.65	92.44
338.878	84.44
339.106	84.44
339.334	84.44
339.562	74.44
339.79	84.44
340.018	86.44
340.246	97.44
340.474	82.44
340.702	81.44
340.93	87.44
341.158	89.44
341.386	84.44
341.614	85.44
341.842	90.44
342.07	79.44
342.298	99.44
342.526	83.44
342.754	91.44
342.981	84.44
343.209	78.44
343.437	93.44
343.665	86.44
343.893	88.44
344.12	81.44
344.348	96.44
344.576	98.44
344.804	81.44
345.031	97.44
345.259	83.44
345.487	85.44
345.714	83.44
345.942	95.44
346.17	93.44
346.397	93.44
346.625	92.44
346.853	103.44
347.08	82.44
347.308	95.44
347.535	81.44
347.763	88.44
347.99	81.44
348.218	111.44
348.445	84.44
348.673	76.44
348.9	78.44
349.128	85.44
349.355	95.44
349.583	93.44
349.81	84.44
350.037	93.44
350.265	97.44
350.492	87.44
350.72	72.44
350.947	97.44
351.174	81.44
351.402	94.44
351.629	88.44
351.856	88.44
352.083	101.44
352.311	97.44
352.538	78.44
352.765	93.44
352.992	73.44
353.22	79.44
353.447	88.44
353.674	104.44
353.901	105.44
354.128	87.44
354.355	96.44
354.583	82.44
354.81	81.44
355.037	82.44
355.264	90.44
355.491	91.44
355.718	88.44
355.945	101.44
356.172	94.44
356.399	90.44
356.626	81.44
356.853	80.44
357.08	85.44
357.307	82.44
357.534	76.44
357.761	82.44
357.988	86.44
358.215	89.44
358.441	96.44
358.668	94.44
358.895	95.44
359.122	84.44
359.349	89.44
359.576	88.44
359.802	84.44
360.029	101.44
360.256	84.44
360.483	77.44
360.709	108.44
360.936	83.44
361.163	91.44
361.39	82.44
361.616	86.44
361.843	100.44
362.07	87.44
362.296	88.44
362.523	103.44
362.749	85.44
362.976	99.44
363.203	90.44
363.429	86.44
363.656	97.44
363.882	86.44
364.109	100.44
364.335	93.44
364.562	88.44
364.788	96.44
365.015	99.44
365.241	87.44
365.468	101.44
365.694	88.44
365.92	112.44
366.147	86.44
366.373	104.44
366.599	86.44
366.826	85.44
367.052	100.44
367.278	93.44
367.505	89.44
367.731	116.44
367.957	88.44
368.184	103.44
368.41	94.44
368.636	87.44
368.862	103.44
369.089	87.44
369.315	88.44
369.541	99.44
369.767	103.44
369.993	93.44
370.219	81.44
370.445	91.44
370.672	95.44
370.898	95.44
371.124	104.44
371.35	100.44
371.576	102.44
371.802	103.44
372.028	81.44
372.254	86.44
372.48	90.44
372.706	102.44
372.932	93.44
373.158	89.44
373.384	97.44
373.61	86.44
373.835	122.44
374.061	92.44
374.287	84.44
374.513	96.44
374.739	94.44
374.965	92.44
375.191	91.44
375.416	94.44
375.642	100.44
375.868	110.44
376.094	100.44
376.319	105.44
376.545	95.44
376.771	107.44
376.997	101.44
377.222	107.44
377.448	102.44
377.674	90.44
377.899	108.44
378.125	95.44
378.35	105.44
378.576	90.44
378.802	97.44
379.027	95.44
379.253	94.44
379.478	95.44
379.704	92.44
379.929	104.44
380.155	101.44
380.38	110.44
380.606	103.44
380.831	90.44
381.057	103.44
381.282	94.44
381.507	109.44
381.733	94.44
381.958	100.44
382.184	105.44
382.409	92.44
382.634	96.44
382.86	104.44
383.085	101.44
383.31	109.44
383.535	108.44
383.761	116.44
383.986	96.44
384.211	115.44
384.436	108.44
384.662	105.44
384.887	89.44
385.112	105.44
385.337	97.44
385.562	95.44
385.787	89.44
386.013	108.44
386.238	90.44
386.463	92.44
386.688	105.44
386.913	96.44
387.138	105.44
387.363	95.44
387.588	116.44
387.813	110.44
388.038	97.44
388.263	93.44
388.488	93.44
388.713	106.44
388.938	113.44
389.163	105.44
389.387	107.44
389.612	95.44
389.837	102.44
390.062	105.44
390.287	98.44
390.512	108.44
390.736	109.44
390.961	110.44
391.186	110.44
391.411	100.44
391.636	92.44
391.86	117.44
392.085	114.44
392.31	118.44
392.534	90.44
392.759	103.44
392.984	112.44
393.208	94.44
393.433	102.44
393.658	108.44
393.882	112.44
394.107	113.44
394.331	109.44
394.556	126.44
394.78	95.44
395.005	98.44
395.229	96.44
395.454	114.44
395.678	106.44
395.903	108.44
396.127	100.44
396.352	112.44
396.576	94.44
396.801	126.44
397.025	100.44
397.249	93.44
397.474	117.44
397.698	106.44
397.922	120.44
398.147	114.44
398.371	106.44
398.595	104.44
398.82	111.44
399.044	109.44
399.268	103.44
399.492	107.44
399.717	105.44
399.941	106.44
400.165	121.44
400.389	109.44
400.613	116.44
400.837	120.44
401.062	120.44
401.286	125.44
401.51	110.44
401.734	108.44
401.958	112.44
402.182	107.44
402.406	129.44
402.63	119.44
402.854	114.44
403.078	119.44
403.302	116.44
403.526	131.44
403.75	108.44
403.974	123.44
404.198	95.44
404.422	117.44
404.645	104.44
404.869	128.44
405.093	116.44
405.317	125.44
405.541	111.44
405.765	109.44
405.988	130.44
406.212	120.44
406.436	115.44
406.66	108.44
406.883	114.44
407.107	134.44
407.331	122.44
407.555	115.44
407.778	125.44
408.002	120.44
408.226	129.44
408.449	121.44
408.673	123.44
408.896	125.44
409.12	116.44
409.344	109.44
409.567	114.44
409.791	112.44
410.014	129.44
410.238	130.44
410.461	126.44
410.685	126.44
410.908	124.44
411.132	123.44
411.355	131.44
411.578	117.44
411.802	126.44
412.025	117.44
412.249	123.44
412.472	118.44
412.695	130.44
412.919	125.44
413.142	118.44
413.365	124.44
413.589	108.44
413.812	129.44
414.035	123.44
414.258	125.44
414.482	121.44
414.705	133.44
414.928	122.44
415.151	119.44
415.374	112.44
415.597	117.44
415.821	125.44
416.044	123.44
416.267	128.44
416.49	133.44
416.713	139.44
416.936	139.44
417.159	114.44
417.382	126.44
417.605	121.44
417.828	128.44
418.051	136.44
418.274	141.44
418.497	128.44
418.72	144.44
418.943	136.44
419.166	137.44
419.389	136.44
419.611	144.44
419.834	120.44
420.057	140.44
420.28	136.44
420.503	129.44
420.726	138.44
420.948	136.44
421.171	134.44
421.394	146.44
421.617	153.44
421.839	136.44
422.062	138.44
422.285	138.44
422.507	138.44
422.73	136.44
422.953	137.44
423.175	117.44
423.398	123.44
423.621	131.44
423.843	142.44
424.066	142.44
424.288	157.44
424.511	144.44
424.733	141.44
424.956	144.44
425.178	140.44
425.401	134.44
425.623	141.44
425.846	148.44
426.068	133.44
426.291	139.44
426.513	122.44
426.735	145.44
426.958	125.44
427.18	126.44
427.402	128.44
427.625	127.44
427.847	125.44
428.069	124.44
428.292	133.44
428.514	120.44
428.736	123.44
428.958	135.44
429.181	142.44
429.403	152.44
429.625	132.44
429.847	118.44
430.069	126.44
430.292	131.44
430.514	123.44
430.736	133.44
430.958	111.44
431.18	121.44
431.402	132.44
431.624	120.44
431.846	109.44
432.068	101.44
432.29	97.44
432.512	121.44
432.734	123.44
432.956	141.44
433.178	133.44
433.4	148.44
433.622	154.44
433.844	137.44
434.066	116.44
434.287	121.44
434.509	116.44
434.731	124.44
434.953	133.44
435.175	124.44
435.397	130.44
435.618	117.44
435.84	121.44
436.062	114.44
436.284	136.44
436.505	118.44
436.727	135.44
436.949	124.44
437.17	134.44
437.392	122.44
437.614	124.44
437.835	116.44
438.057	110.44
438.278	116.44
438.5	140.44
438.721	146.44
438.943	133.44
439.165	136.44
439.386	144.44
439.608	153.44
439.829	144.44
440.05	141.44
440.272	156.44
440.493	136.44
440.715	143.44
440.936	156.44
441.158	137.44
441.379	152.44
441.6	155.44
441.822	139.44
442.043	145.44
442.264	147.44
442.486	142.44
442.707	143.44
442.928	160.44
443.149	138.44
443.371	153.44
443.592	146.44
443.813	140.44
444.034	137.44
444.255	133.44
444.476	147.44
444.698	137.44
444.919	141.44
445.14	270.44
445.361	203.44
445.582	143.44
445.803	142.44
446.024	142.44
446.245	157.44
446.466	148.44
446.687	147.44
446.908	161.44
447.129	167.44
447.35	159.44
447.571	134.44
447.792	148.44
448.013	141.44
448.234	130.44
448.455	154.44
448.675	140.44
448.896	139.44
449.117	138.44
449.338	131.44
449.559	144.44
449.779	145.44
450	136.44
450.221	134.44
450.442	142.44
450.662	133.44
450.883	132.44
451.104	145.44
451.324	122.44
451.545	148.44
451.766	119.44
451.986	135.44
452.207	128.44
452.428	138.44
452.648	121.44
452.869	120.44
453.089	132.44
453.31	122.44
453.53	102.44
453.751	93.44
453.971	106.44
454.192	117.44
454.412	108.44
454.633	111.44
454.853	111.44
455.073	129.44
455.294	144.44
455.514	130.44
455.734	122.44
455.955	126.44
456.175	118.44
456.395	115.44
456.616	118.44
456.836	127.44
457.056	111.44
457.276	104.44
457.497	106.44
457.717	93.44
457.937	113.44
458.157	120.44
458.377	106.44
458.598	109.44
458.818	108.44
459.038	92.44
459.258	97.44
459.478	93.44
459.698	109.44
459.918	110.44
460.138	110.44
460.358	123.44
460.578	124.44
460.798	129.44
461.018	110.44
461.238	105.44
461.458	110.44
461.678	113.44
461.898	127.44
462.118	106.44
462.338	128.44
462.558	124.44
462.777	105.44
462.997	118.44
463.217	102.44
463.437	124.44
463.657	116.44
463.876	109.44
464.096	108.44
464.316	121.44
464.536	132.44
464.755	130.44
464.975	114.44
465.195	127.44
465.414	108.44
465.634	104.44
465.854	125.44
466.073	122.44
466.293	137.44
466.512	125.44
466.732	129.44
466.951	128.44
467.171	137.44
467.391	134.44
467.61	124.44
467.829	134.44
468.049	131.44
468.268	132.44
468.488	121.44
468.707	142.44
468.927	162.44
469.146	136.44
469.365	148.44
469.585	127.44
469.804	150.44
470.023	136.44
470.243	141.44
470.462	151.44
470.681	160.44
470.901	140.44
471.12	132.44
471.339	144.44
471.558	146.44
471.777	150.44
471.997	136.44
472.216	141.44
472.435	137.44
472.654	114.44
472.873	117.44
473.092	125.44
473.311	133.44
473.53	133.44
473.749	145.44
473.968	144.44
474.187	137.44
474.406	124.44
474.625	126.44
474.844	131.44
475.063	129.44
475.282	127.44
475.501	111.44
475.72	122.44
475.939	129.44
476.158	128.44
476.377	131.44
476.596	110.44
476.814	125.44
477.033	113.44
477.252	134.44
477.471	106.44
477.69	134.44
477.908	152.44
478.127	132.44
478.346	140.44
478.564	126.44
478.783	134.44
479.002	142.44
479.22	140.44
479.439	132.44
479.658	129.44
479.876	110.44
480.095	110.44
480.313	110.44
480.532	121.44
480.751	117.44
480.969	100.44
481.188	103.44
481.406	86.44
481.624	87.44
481.843	101.44
482.061	109.44
482.28	118.44
482.498	106.44
482.717	102.44
482.935	122.44
483.153	134.44
483.372	149.44
483.59	154.44
483.808	143.44
484.027	130.44
484.245	126.44
484.463	162.44
484.681	151.44
484.9	144.44
485.118	129.44
485.336	137.44
485.554	120.44
485.772	116.44
485.99	112.44
486.209	136.44
486.427	115.44
486.645	136.44
486.863	138.44
487.081	147.44
487.299	140.44
487.517	135.44
487.735	164.44
487.953	198.44
488.171	175.44
488.389	182.44
488.607	166.44
488.825	155.44
489.043	137.44
489.261	132.44
489.479	116.44
489.696	135.44
489.914	136.44
490.132	155.44
490.35	150.44
490.568	156.44
490.786	157.44
491.003	176.44
491.221	171.44
491.439	184.44
491.657	165.44
491.874	202.44
492.092	222.44
492.31	236.44
492.527	215.44
492.745	195.44
492.963	198.44
493.18	193.44
493.398	180.44
493.615	188.44
493.833	167.44
494.05	196.44
494.268	180.44
494.485	162.44
494.703	173.44
494.92	175.44
495.138	173.44
495.355	168.44
495.573	170.44
495.79	164.44
496.008	169.44
496.225	176.44
496.442	177.44
496.66	160.44
496.877	164.44
497.094	160.44
497.312	146.44
497.529	165.44
497.746	151.44
497.963	141.44
498.181	135.44
498.398	130.44
498.615	134.44
498.832	119.44
499.049	127.44
499.267	132.44
499.484	136.44
499.701	119.44
499.918	144.44
500.135	143.44
500.352	146.44
500.569	160.44
500.786	147.44
501.003	152.44
501.22	151.44
501.437	133.44
501.654	139.44
501.871	145.44
502.088	135.44
502.305	130.44
502.522	127.44
502.739	124.44
502.956	124.44
503.172	134.44
503.389	124.44
503.606	137.44
503.823	127.44
504.04	136.44
504.256	132.44
504.473	130.44
504.69	120.44
504.907	127.44
505.123	118.44
505.34	122.44
505.557	124.44
505.773	111.44
505.99	119.44
506.207	126.44
506.423	116.44
506.64	133.44
506.856	135.44
507.073	109.44
507.289	124.44
507.506	117.44
507.722	123.44
507.939	123.44
508.155	127.44
508.372	121.44
508.588	123.44
508.805	119.44
509.021	132.44
509.238	110.44
509.454	104.44
509.67	101.44
509.887	113.44
510.103	92.44
510.319	108.44
510.536	97.44
510.752	87.44
510.968	95.44
511.184	78.44
511.401	86.44
511.617	97.44
511.833	96.44
512.049	109.44
512.265	112.44
512.481	110.44
512.698	100.44
512.914	113.44
513.13	99.44
513.346	90.44
513.562	94.44
513.778	93.44
513.994	94.44
514.21	95.44
514.426	107.44
514.642	106.44
514.858	92.44
515.074	85.44
515.29	89.44
515.506	88.44
515.721	92.44
515.937	99.44
516.153	95.44
516.369	98.44
516.585	104.44
516.801	106.44
517.016	99.44
517.232	95.44
517.448	103.44
517.664	94.44
517.879	102.44
518.095	104.44
518.311	109.44
518.527	104.44
518.742	94.44
518.958	87.44
519.173	107.44
519.389	113.44
519.605	110.44
519.82	108.44
520.036	118.44
520.251	94.44
520.467	122.44
520.682	104.44
520.898	91.44
521.113	93.44
521.329	100.44
521.544	82.44
521.76	98.44
521.975	111.44
522.19	106.44
522.406	102.44
522.621	113.44
522.836	102.44
523.052	116.44
523.267	118.44
523.482	116.44
523.698	109.44
523.913	112.44
524.128	119.44
524.343	113.44
524.559	140.44
524.774	136.44
524.989	129.44
525.204	119.44
525.419	118.44
525.634	120.44
525.849	119.44
526.064	104.44
526.28	114.44
526.495	100.44
526.71	100.44
526.925	88.44
527.14	87.44
527.355	87.44
527.57	94.44
527.785	92.44
527.999	102.44
528.214	99.44
528.429	118.44
528.644	128.44
528.859	133.44
529.074	156.44
529.289	167.44
529.503	167.44
529.718	144.44
529.933	116.44
530.148	95.44
530.363	124.44
530.577	99.44
530.792	94.44
531.007	82.44
531.221	87.44
531.436	90.44
531.651	82.44
531.865	86.44
532.08	97.44
532.295	94.44
532.509	79.44
532.724	82.44
532.938	105.44
533.153	98.44
533.367	119.44
533.582	125.44
533.796	128.44
534.011	119.44
534.225	104.44
534.44	85.44
534.654	103.44
534.868	95.44
535.083	113.44
535.297	110.44
535.511	99.44
535.726	109.44
535.94	107.44
536.154	119.44
536.369	85.44
536.583	98.44
536.797	85.44
537.011	100.44
537.225	96.44
537.44	96.44
537.654	85.44
537.868	95.44
538.082	84.44
538.296	104.44
538.51	104.44
538.724	110.44
538.938	125.44
539.153	139.44
539.367	131.44
539.581	121.44
539.795	101.44
540.009	94.44
540.222	97.44
540.436	98.44
540.65	124.44
540.864	141.44
541.078	137.44
541.292	141.44
541.506	164.44
541.72	184.44
541.934	197.44
542.147	195.44
542.361	183.44
542.575	173.44
542.789	141.44
543.002	141.44
543.216	129.44
543.43	134.44
543.644	132.44
543.857	149.44
544.071	162.44
544.285	164.44
544.498	166.44
544.712	145.44
544.925	146.44
545.139	146.44
545.352	155.44
545.566	165.44
545.779	150.44
545.993	163.44
546.206	175.44
546.42	161.44
546.633	186.44
546.847	165.44
547.06	156.44
547.274	155.44
547.487	190.44
547.7	166.44
547.914	170.44
548.127	153.44
548.34	165.44
548.554	161.44
548.767	150.44
548.98	158.44
549.193	147.44
549.407	136.44
549.62	153.44
549.833	173.44
550.046	148.44
550.259	164.44
550.473	165.44
550.686	155.44
550.899	145.44
551.112	152.44
551.325	142.44
551.538	128.44
551.751	129.44
551.964	120.44
552.177	142.44
552.39	141.44
552.603	166.44
552.816	156.44
553.029	144.44
553.242	157.44
553.455	142.44
553.667	155.44
553.88	160.44
554.093	151.44
554.306	158.44
554.519	158.44
554.732	145.44
554.944	155.44
555.157	149.44
555.37	159.44
555.583	154.44
555.795	145.44
556.008	149.44
556.221	146.44
556.433	123.44
556.646	152.44
556.859	154.44
557.071	151.44
557.284	146.44
557.496	136.44
557.709	152.44
557.921	136.44
558.134	146.44
558.346	136.44
558.559	132.44
558.771	142.44
558.984	140.44
559.196	153.44
559.409	146.44
559.621	114.44
559.833	140.44
560.046	132.44
560.258	133.44
560.47	132.44
560.683	140.44
560.895	126.44
561.107	140.44
561.32	127.44
561.532	132.44
561.744	137.44
561.956	132.44
562.168	152.44
562.381	131.44
562.593	131.44
562.805	149.44
563.017	133.44
563.229	129.44
563.441	130.44
563.653	124.44
563.865	128.44
564.077	134.44
564.289	126.44
564.501	128.44
564.713	110.44
564.925	120.44
565.137	118.44
565.349	125.44
565.561	127.44
565.773	126.44
565.985	128.44
566.197	126.44
566.408	120.44
566.62	116.44
566.832	118.44
567.044	125.44
567.255	126.44
567.467	130.44
567.679	120.44
567.891	113.44
568.102	120.44
568.314	97.44
568.526	91.44
568.737	98.44
568.949	90.44
569.161	75.44
569.372	78.44
569.584	96.44
569.795	91.44
570.007	94.44
570.218	93.44
570.43	100.44
570.641	97.44
570.853	102.44
571.064	118.44
571.276	93.44
571.487	117.44
571.698	104.44
571.91	98.44
572.121	110.44
572.333	111.44
572.544	82.44
572.755	103.44
572.966	93.44
573.178	94.44
573.389	92.44
573.6	96.44
573.811	90.44
574.023	96.44
574.234	109.44
574.445	105.44
574.656	96.44
574.867	97.44
575.078	99.44
575.289	105.44
575.501	103.44
575.712	98.44
575.923	106.44
576.134	109.44
576.345	79.44
576.556	100.44
576.767	104.44
576.978	117.44
577.188	103.44
577.399	96.44
577.61	87.44
577.821	103.44
578.032	103.44
578.243	120.44
578.454	99.44
578.665	81.44
578.875	95.44
579.086	104.44
579.297	102.44
579.508	99.44
579.718	94.44
579.929	98.44
580.14	77.44
580.35	73.44
580.561	101.44
580.772	94.44
580.982	92.44
581.193	91.44
581.403	105.44
581.614	90.44
581.825	93.44
582.035	105.44
582.246	93.44
582.456	92.44
582.667	88.44
582.877	89.44
583.087	107.44
583.298	109.44
583.508	100.44
583.719	105.44
583.929	88.44
584.139	84.44
584.35	97.44
584.56	87.44
584.77	88.44
584.981	83.44
585.191	90.44
585.401	95.44
585.611	94.44
585.821	90.44
586.032	72.44
586.242	77.44
586.452	88.44
586.662	89.44
586.872	84.44
587.082	89.44
587.292	84.44
587.502	96.44
587.713	91.44
587.923	97.44
588.133	89.44
588.343	97.44
588.553	82.44
588.762	102.44
588.972	90.44
589.182	94.44
589.392	78.44
589.602	94.44
589.812	79.44
590.022	91.44
590.232	94.44
590.441	97.44
590.651	82.44
590.861	84.44
591.071	77.44
591.281	99.44
591.49	86.44
591.7	91.44
591.91	100.44
592.119	64.44
592.329	107.44
592.539	106.44
592.748	77.44
592.958	79.44
593.167	85.44
593.377	86.44
593.587	101.44
593.796	88.44
594.006	105.44
594.215	89.44
594.424	93.44
594.634	98.44
594.843	98.44
595.053	104.44
595.262	90.44
595.472	103.44
595.681	97.44
595.89	97.44
596.1	92.44
596.309	105.44
596.518	79.44
596.727	98.44
596.937	108.44
597.146	99.44
597.355	94.44
597.564	89.44
597.774	96.44
597.983	100.44
598.192	92.44
598.401	96.44
598.61	89.44
598.819	87.44
599.028	100.44
599.237	103.44
599.446	101.44
599.655	91.44
599.864	99.44
600.073	107.44
600.282	106.44
600.491	97.44
600.7	93.44
600.909	105.44
601.118	97.44
601.327	103.44
601.536	106.44
601.745	115.44
601.953	101.44
602.162	116.44
602.371	121.44
602.58	123.44
602.789	118.44
602.997	110.44
603.206	113.44
603.415	94.44
603.623	107.44
603.832	117.44
604.041	112.44
604.249	113.44
604.458	106.44
604.666	110.44
604.875	93.44
605.084	113.44
605.292	106.44
605.501	116.44
605.709	115.44
605.918	126.44
606.126	122.44
606.334	112.44
606.543	113.44
606.751	109.44
606.96	121.44
607.168	111.44
607.376	113.44
607.585	110.44
607.793	106.44
608.001	113.44
608.21	128.44
608.418	118.44
608.626	130.44
608.834	117.44
609.043	125.44
609.251	116.44
609.459	112.44
609.667	127.44
609.875	114.44
610.083	119.44
610.291	107.44
610.499	117.44
610.707	142.44
610.916	117.44
611.124	121.44
611.332	112.44
611.54	120.44
611.748	118.44
611.955	118.44
612.163	125.44
612.371	123.44
612.579	117.44
612.787	118.44
612.995	121.44
613.203	125.44
613.411	113.44
613.618	108.44
613.826	105.44
614.034	103.44
614.242	118.44
614.449	113.44
614.657	122.44
614.865	115.44
615.072	100.44
615.28	130.44
615.488	121.44
615.695	108.44
615.903	128.44
616.111	101.44
616.318	110.44
616.526	116.44
616.733	117.44
616.941	130.44
617.148	124.44
617.356	112.44
617.563	106.44
617.771	117.44
617.978	117.44
618.185	106.44
618.393	116.44
618.6	113.44
618.807	110.44
619.015	118.44
619.222	118.44
619.429	120.44
619.637	111.44
619.844	106.44
620.051	107.44
620.258	94.44
620.466	105.44
620.673	106.44
620.88	122.44
621.087	103.44
621.294	121.44
621.501	112.44
621.708	107.44
621.915	113.44
622.122	103.44
622.329	123.44
622.536	114.44
622.743	97.44
622.95	106.44
623.157	124.44
623.364	103.44
623.571	104.44
623.778	115.44
623.985	100.44
624.192	117.44
624.399	101.44
624.606	110.44
624.812	106.44
625.019	115.44
625.226	98.44
625.433	109.44
625.639	112.44
625.846	95.44
626.053	89.44
626.259	111.44
626.466	116.44
626.673	97.44
626.879	101.44
627.086	109.44
627.293	122.44
627.499	126.44
627.706	112.44
627.912	120.44
628.119	115.44
628.325	114.44
628.532	116.44
628.738	120.44
628.945	112.44
629.151	116.44
629.357	90.44
629.564	109.44
629.77	118.44
629.976	111.44
630.183	103.44
630.389	102.44
630.595	102.44
630.802	105.44
631.008	112.44
631.214	113.44
631.42	120.44
631.627	95.44
631.833	98.44
632.039	98.44
632.245	106.44
632.451	107.44
632.657	102.44
632.863	101.44
633.069	101.44
633.275	97.44
633.481	98.44
633.688	104.44
633.893	110.44
634.099	108.44
634.305	101.44
634.511	103.44
634.717	96.44
634.923	101.44
635.129	88.44
635.335	111.44
635.541	86.44
635.747	100.44
635.952	91.44
636.158	98.44
636.364	96.44
636.57	104.44
636.775	105.44
636.981	108.44
637.187	109.44
637.392	104.44
637.598	102.44
637.804	113.44
638.009	102.44
638.215	113.44
638.421	101.44
638.626	99.44
638.832	107.44
639.037	105.44
639.243	117.44
639.448	115.44
639.654	116.44
639.859	107.44
640.065	105.44
640.27	92.44
640.475	107.44
640.681	109.44
640.886	122.44
641.091	104.44
641.297	105.44
641.502	103.44
641.707	115.44
641.913	121.44
642.118	112.44
642.323	100.44
642.528	89.44
642.733	102.44
642.939	92.44
643.144	106.44
643.349	111.44
643.554	112.44
643.759	111.44
643.964	105.44
644.169	96.44
644.374	111.44
644.579	96.44
644.784	97.44
644.989	111.44
645.194	103.44
645.399	101.44
645.604	109.44
645.809	101.44
646.014	97.44
646.219	102.44
646.423	103.44
646.628	110.44
646.833	96.44
647.038	107.44
647.243	106.44
647.447	95.44
647.652	104.44
647.857	110.44
648.062	104.44
648.266	96.44
648.471	101.44
648.676	107.44
648.88	97.44
649.085	101.44
649.289	101.44
649.494	99.44
649.698	96.44
649.903	106.44
650.107	99.44
650.312	102.44
650.516	101.44
650.721	108.44
650.925	112.44
651.13	109.44
651.334	87.44
651.539	117.44
651.743	123.44
651.947	101.44
652.152	95.44
652.356	96.44
652.56	106.44
652.764	87.44
652.969	90.44
653.173	102.44
653.377	107.44
653.581	108.44
653.785	93.44
653.99	85.44
654.194	98.44
654.398	96.44
654.602	97.44
654.806	87.44
655.01	102.44
655.214	88.44
655.418	103.44
655.622	95.44
655.826	91.44
656.03	94.44
656.234	76.44
656.438	91.44
656.642	96.44
656.846	97.44
657.049	107.44
657.253	96.44
657.457	79.44
657.661	95.44
657.865	102.44
658.068	90.44
658.272	78.44
658.476	95.44
658.68	84.44
658.883	79.44
659.087	86.44
659.291	81.44
659.494	85.44
659.698	93.44
659.901	92.44
660.105	94.44
660.309	95.44
660.512	72.44
660.716	82.44
660.919	83.44
661.123	76.44
661.326	79.44
661.53	96.44
661.733	88.44
661.936	83.44
662.14	94.44
662.343	97.44
662.546	86.44
662.75	90.44
662.953	102.44
663.156	98.44
663.36	85.44
663.563	89.44
663.766	89.44
663.969	90.44
664.173	90.44
664.376	79.44
664.579	82.44
664.782	86.44
664.985	89.44
665.188	87.44
665.391	89.44
665.594	93.44
665.797	96.44
666	87.44
666.203	82.44
666.406	68.44
666.609	88.44
666.812	87.44
667.015	94.44
667.218	92.44
667.421	87.44
667.624	88.44
667.827	93.44
668.03	91.44
668.232	96.44
668.435	93.44
668.638	96.44
668.841	92.44
669.043	99.44
669.246	80.44
669.449	83.44
669.651	101.44
669.854	98.44
670.057	93.44
670.259	87.44
670.462	78.44
670.665	89.44
670.867	91.44
671.07	80.44
671.272	92.44
671.475	91.44
671.677	82.44
671.88	95.44
672.082	86.44
672.284	91.44
672.487	82.44
672.689	61.44
672.892	92.44
