Data from Location4.07152019.Energy5.Lamp.07192019.3%Agarose_HRD10591_16-19-21-926.txt Node
Date: Fri Jul 19 16:19:21 EDT 2019
User: cochatt
Spectrometer: HR+D1059
Trigger mode: 1
Integration Time (sec): 1.000000E-1
Scans to average: 1
Electric dark correction enabled: true
Nonlinearity correction enabled: false
Boxcar width: 0
XAxis mode: Wavelengths
Number of Pixels in Spectrum: 2048
>>>>>Begin Spectral Data<<<<<
223.165	-13.5
223.4	-13.5
223.635	-13.5
223.869	-3.5
224.104	-16.5
224.338	-16.5
224.573	-11.5
224.808	-24.5
225.042	-3.5
225.277	-1.5
225.511	-1.5
225.746	-1.5
225.98	2.5
226.215	9.5
226.449	5.5
226.683	26.5
226.918	25.5
227.152	24.5
227.387	25.5
227.621	39.5
227.856	50.5
228.09	49.5
228.324	39.5
228.559	42.5
228.793	61.5
229.027	53.5
229.262	60.5
229.496	79.5
229.73	78.5
229.964	78.5
230.199	76.5
230.433	73.5
230.667	79.5
230.901	70.5
231.136	74.5
231.37	77.5
231.604	68.5
231.838	84.5
232.072	72.5
232.306	72.5
232.541	81.5
232.775	81.5
233.009	95.5
233.243	74.5
233.477	71.5
233.711	85.5
233.945	87.5
234.179	100.5
234.413	85.5
234.647	85.5
234.881	94.5
235.115	79.5
235.349	68.5
235.583	87.5
235.817	69.5
236.051	65.5
236.285	71.5
236.519	80.5
236.753	89.5
236.987	63.5
237.221	84.5
237.455	80.5
237.689	70.5
237.922	80.5
238.156	86.5
238.39	68.5
238.624	78.5
238.858	72.5
239.091	73.5
239.325	78.5
239.559	79.5
239.793	52.5
240.027	81.5
240.26	55.5
240.494	73.5
240.728	80.5
240.961	77.5
241.195	85.5
241.429	71.5
241.662	75.5
241.896	67.5
242.13	54.5
242.363	68.5
242.597	90.5
242.83	75.5
243.064	66.5
243.298	91.5
243.531	81.5
243.765	69.5
243.998	88.5
244.232	81.5
244.465	74.5
244.699	70.5
244.932	66.5
245.166	82.5
245.399	64.5
245.633	81.5
245.866	75.5
246.099	70.5
246.333	73.5
246.566	74.5
246.8	69.5
247.033	75.5
247.266	81.5
247.5	73.5
247.733	62.5
247.966	68.5
248.2	62.5
248.433	90.5
248.666	85.5
248.899	78.5
249.133	72.5
249.366	87.5
249.599	62.5
249.832	79.5
250.066	88.5
250.299	78.5
250.532	83.5
250.765	86.5
250.998	58.5
251.231	79.5
251.465	81.5
251.698	69.5
251.931	83.5
252.164	60.5
252.397	69.5
252.63	79.5
252.863	79.5
253.096	72.5
253.329	81.5
253.562	71.5
253.795	68.5
254.028	67.5
254.261	74.5
254.494	76.5
254.727	68.5
254.96	73.5
255.193	93.5
255.426	83.5
255.659	75.5
255.892	78.5
256.124	82.5
256.357	67.5
256.59	85.5
256.823	82.5
257.056	87.5
257.289	75.5
257.521	79.5
257.754	81.5
257.987	83.5
258.22	73.5
258.452	74.5
258.685	69.5
258.918	81.5
259.151	77.5
259.383	77.5
259.616	73.5
259.849	80.5
260.081	74.5
260.314	82.5
260.547	70.5
260.779	83.5
261.012	81.5
261.244	76.5
261.477	73.5
261.71	71.5
261.942	72.5
262.175	86.5
262.407	83.5
262.64	76.5
262.872	77.5
263.105	70.5
263.337	80.5
263.57	81.5
263.802	76.5
264.035	69.5
264.267	78.5
264.499	77.5
264.732	90.5
264.964	74.5
265.197	83.5
265.429	73.5
265.661	68.5
265.894	91.5
266.126	85.5
266.358	81.5
266.591	80.5
266.823	89.5
267.055	82.5
267.287	70.5
267.52	80.5
267.752	80.5
267.984	81.5
268.216	68.5
268.448	80.5
268.681	92.5
268.913	71.5
269.145	82.5
269.377	99.5
269.609	86.5
269.841	79.5
270.073	79.5
270.306	68.5
270.538	71.5
270.77	70.5
271.002	74.5
271.234	82.5
271.466	66.5
271.698	71.5
271.93	96.5
272.162	81.5
272.394	71.5
272.626	77.5
272.858	79.5
273.09	74.5
273.322	84.5
273.553	78.5
273.785	95.5
274.017	83.5
274.249	76.5
274.481	87.5
274.713	85.5
274.945	81.5
275.176	67.5
275.408	72.5
275.64	79.5
275.872	81.5
276.104	80.5
276.335	95.5
276.567	89.5
276.799	80.5
277.031	69.5
277.262	87.5
277.494	73.5
277.726	70.5
277.957	93.5
278.189	69.5
278.421	73.5
278.652	83.5
278.884	103.5
279.115	86.5
279.347	87.5
279.579	74.5
279.81	61.5
280.042	64.5
280.273	89.5
280.505	97.5
280.736	86.5
280.968	72.5
281.199	93.5
281.431	80.5
281.662	59.5
281.894	87.5
282.125	75.5
282.356	79.5
282.588	90.5
282.819	80.5
283.051	85.5
283.282	86.5
283.513	83.5
283.745	85.5
283.976	73.5
284.207	82.5
284.439	81.5
284.67	86.5
284.901	82.5
285.132	69.5
285.364	81.5
285.595	70.5
285.826	73.5
286.057	79.5
286.288	55.5
286.52	75.5
286.751	76.5
286.982	82.5
287.213	86.5
287.444	78.5
287.675	72.5
287.906	82.5
288.138	71.5
288.369	95.5
288.6	85.5
288.831	87.5
289.062	83.5
289.293	76.5
289.524	88.5
289.755	80.5
289.986	80.5
290.217	78.5
290.448	74.5
290.679	69.5
290.91	81.5
291.141	87.5
291.371	82.5
291.602	89.5
291.833	85.5
292.064	83.5
292.295	73.5
292.526	82.5
292.757	84.5
292.987	79.5
293.218	80.5
293.449	64.5
293.68	81.5
293.91	85.5
294.141	84.5
294.372	81.5
294.603	97.5
294.833	91.5
295.064	77.5
295.295	72.5
295.525	80.5
295.756	82.5
295.987	82.5
296.217	79.5
296.448	71.5
296.679	86.5
296.909	78.5
297.14	82.5
297.37	103.5
297.601	64.5
297.831	74.5
298.062	83.5
298.292	70.5
298.523	83.5
298.753	93.5
298.984	73.5
299.214	87.5
299.445	87.5
299.675	75.5
299.905	88.5
300.136	78.5
300.366	88.5
300.597	92.5
300.827	77.5
301.057	71.5
301.288	93.5
301.518	93.5
301.748	84.5
301.979	76.5
302.209	91.5
302.439	82.5
302.669	89.5
302.9	73.5
303.13	83.5
303.36	90.5
303.59	81.5
303.82	85.5
304.051	89.5
304.281	88.5
304.511	87.5
304.741	81.5
304.971	87.5
305.201	74.5
305.431	71.5
305.661	76.5
305.891	91.5
306.121	76.5
306.352	90.5
306.582	92.5
306.812	87.5
307.042	80.5
307.272	71.5
307.502	81.5
307.731	69.5
307.961	74.5
308.191	79.5
308.421	77.5
308.651	88.5
308.881	86.5
309.111	82.5
309.341	77.5
309.571	86.5
309.8	71.5
310.03	65.5
310.26	73.5
310.49	88.5
310.72	75.5
310.949	80.5
311.179	81.5
311.409	75.5
311.639	86.5
311.868	81.5
312.098	90.5
312.328	90.5
312.557	90.5
312.787	78.5
313.017	81.5
313.246	82.5
313.476	70.5
313.706	87.5
313.935	89.5
314.165	87.5
314.394	81.5
314.624	85.5
314.853	88.5
315.083	73.5
315.312	70.5
315.542	79.5
315.771	70.5
316.001	72.5
316.23	82.5
316.46	78.5
316.689	72.5
316.919	79.5
317.148	83.5
317.377	75.5
317.607	89.5
317.836	85.5
318.065	76.5
318.295	84.5
318.524	84.5
318.753	88.5
318.983	94.5
319.212	72.5
319.441	79.5
319.67	92.5
319.9	77.5
320.129	82.5
320.358	96.5
320.587	78.5
320.816	86.5
321.046	86.5
321.275	89.5
321.504	87.5
321.733	79.5
321.962	83.5
322.191	83.5
322.42	77.5
322.649	81.5
322.878	87.5
323.108	70.5
323.337	88.5
323.566	96.5
323.795	78.5
324.024	84.5
324.253	77.5
324.482	80.5
324.71	75.5
324.939	76.5
325.168	95.5
325.397	81.5
325.626	92.5
325.855	90.5
326.084	88.5
326.313	85.5
326.542	61.5
326.77	83.5
326.999	82.5
327.228	66.5
327.457	86.5
327.686	79.5
327.914	92.5
328.143	89.5
328.372	88.5
328.6	79.5
328.829	75.5
329.058	76.5
329.287	84.5
329.515	86.5
329.744	92.5
329.972	84.5
330.201	94.5
330.43	77.5
330.658	88.5
330.887	75.5
331.115	78.5
331.344	76.5
331.572	92.5
331.801	97.5
332.03	85.5
332.258	75.5
332.486	78.5
332.715	80.5
332.943	78.5
333.172	87.5
333.4	78.5
333.629	87.5
333.857	86.5
334.085	70.5
334.314	87.5
334.542	88.5
334.771	78.5
334.999	93.5
335.227	64.5
335.455	83.5
335.684	87.5
335.912	91.5
336.14	76.5
336.369	78.5
336.597	88.5
336.825	86.5
337.053	87.5
337.281	74.5
337.51	75.5
337.738	86.5
337.966	84.5
338.194	78.5
338.422	69.5
338.65	76.5
338.878	93.5
339.106	72.5
339.334	75.5
339.562	81.5
339.79	78.5
340.018	83.5
340.246	72.5
340.474	91.5
340.702	82.5
340.93	82.5
341.158	80.5
341.386	81.5
341.614	74.5
341.842	76.5
342.07	72.5
342.298	88.5
342.526	87.5
342.754	89.5
342.981	74.5
343.209	90.5
343.437	95.5
343.665	80.5
343.893	77.5
344.12	80.5
344.348	78.5
344.576	77.5
344.804	92.5
345.031	88.5
345.259	65.5
345.487	78.5
345.714	79.5
345.942	86.5
346.17	81.5
346.397	83.5
346.625	91.5
346.853	74.5
347.08	78.5
347.308	85.5
347.535	77.5
347.763	88.5
347.99	95.5
348.218	74.5
348.445	79.5
348.673	88.5
348.9	91.5
349.128	81.5
349.355	70.5
349.583	68.5
349.81	66.5
350.037	92.5
350.265	85.5
350.492	86.5
350.72	85.5
350.947	80.5
351.174	85.5
351.402	74.5
351.629	83.5
351.856	79.5
352.083	60.5
352.311	92.5
352.538	71.5
352.765	78.5
352.992	73.5
353.22	66.5
353.447	75.5
353.674	67.5
353.901	79.5
354.128	80.5
354.355	70.5
354.583	76.5
354.81	84.5
355.037	84.5
355.264	91.5
355.491	78.5
355.718	76.5
355.945	85.5
356.172	85.5
356.399	81.5
356.626	81.5
356.853	73.5
357.08	93.5
357.307	86.5
357.534	85.5
357.761	72.5
357.988	103.5
358.215	82.5
358.441	74.5
358.668	73.5
358.895	81.5
359.122	82.5
359.349	79.5
359.576	81.5
359.802	80.5
360.029	78.5
360.256	84.5
360.483	83.5
360.709	76.5
360.936	94.5
361.163	82.5
361.39	93.5
361.616	82.5
361.843	90.5
362.07	78.5
362.296	73.5
362.523	83.5
362.749	72.5
362.976	83.5
363.203	84.5
363.429	71.5
363.656	76.5
363.882	85.5
364.109	85.5
364.335	85.5
364.562	94.5
364.788	72.5
365.015	77.5
365.241	64.5
365.468	81.5
365.694	68.5
365.92	73.5
366.147	81.5
366.373	63.5
366.599	78.5
366.826	89.5
367.052	89.5
367.278	73.5
367.505	87.5
367.731	82.5
367.957	79.5
368.184	85.5
368.41	86.5
368.636	85.5
368.862	89.5
369.089	77.5
369.315	89.5
369.541	94.5
369.767	86.5
369.993	95.5
370.219	74.5
370.445	92.5
370.672	87.5
370.898	88.5
371.124	86.5
371.35	82.5
371.576	84.5
371.802	82.5
372.028	100.5
372.254	94.5
372.48	82.5
372.706	93.5
372.932	94.5
373.158	90.5
373.384	97.5
373.61	99.5
373.835	86.5
374.061	85.5
374.287	78.5
374.513	80.5
374.739	82.5
374.965	92.5
375.191	88.5
375.416	97.5
375.642	89.5
375.868	92.5
376.094	90.5
376.319	85.5
376.545	78.5
376.771	92.5
376.997	88.5
377.222	75.5
377.448	88.5
377.674	84.5
377.899	99.5
378.125	79.5
378.35	85.5
378.576	95.5
378.802	80.5
379.027	80.5
379.253	82.5
379.478	79.5
379.704	75.5
379.929	86.5
380.155	96.5
380.38	74.5
380.606	98.5
380.831	79.5
381.057	88.5
381.282	82.5
381.507	85.5
381.733	97.5
381.958	103.5
382.184	81.5
382.409	101.5
382.634	82.5
382.86	89.5
383.085	87.5
383.31	85.5
383.535	94.5
383.761	85.5
383.986	109.5
384.211	103.5
384.436	104.5
384.662	99.5
384.887	87.5
385.112	90.5
385.337	106.5
385.562	93.5
385.787	77.5
386.013	110.5
386.238	108.5
386.463	83.5
386.688	87.5
386.913	100.5
387.138	94.5
387.363	81.5
387.588	113.5
387.813	88.5
388.038	76.5
388.263	98.5
388.488	98.5
388.713	104.5
388.938	92.5
389.163	98.5
389.387	112.5
389.612	94.5
389.837	97.5
390.062	89.5
390.287	96.5
390.512	89.5
390.736	100.5
390.961	106.5
391.186	91.5
391.411	85.5
391.636	96.5
391.86	108.5
392.085	113.5
392.31	98.5
392.534	93.5
392.759	110.5
392.984	97.5
393.208	97.5
393.433	100.5
393.658	112.5
393.882	100.5
394.107	99.5
394.331	108.5
394.556	105.5
394.78	91.5
395.005	76.5
395.229	102.5
395.454	98.5
395.678	96.5
395.903	102.5
396.127	100.5
396.352	103.5
396.576	110.5
396.801	94.5
397.025	112.5
397.249	110.5
397.474	109.5
397.698	96.5
397.922	100.5
398.147	105.5
398.371	103.5
398.595	111.5
398.82	89.5
399.044	102.5
399.268	106.5
399.492	105.5
399.717	117.5
399.941	90.5
400.165	101.5
400.389	101.5
400.613	96.5
400.837	119.5
401.062	109.5
401.286	108.5
401.51	105.5
401.734	90.5
401.958	93.5
402.182	101.5
402.406	109.5
402.63	95.5
402.854	111.5
403.078	108.5
403.302	105.5
403.526	106.5
403.75	100.5
403.974	109.5
404.198	98.5
404.422	115.5
404.645	112.5
404.869	121.5
405.093	96.5
405.317	120.5
405.541	113.5
405.765	111.5
405.988	124.5
406.212	108.5
406.436	110.5
406.66	116.5
406.883	105.5
407.107	118.5
407.331	106.5
407.555	108.5
407.778	95.5
408.002	116.5
408.226	111.5
408.449	116.5
408.673	106.5
408.896	119.5
409.12	118.5
409.344	121.5
409.567	107.5
409.791	111.5
410.014	110.5
410.238	113.5
410.461	115.5
410.685	113.5
410.908	112.5
411.132	118.5
411.355	115.5
411.578	121.5
411.802	109.5
412.025	108.5
412.249	87.5
412.472	113.5
412.695	118.5
412.919	113.5
413.142	114.5
413.365	119.5
413.589	129.5
413.812	103.5
414.035	116.5
414.258	120.5
414.482	119.5
414.705	117.5
414.928	121.5
415.151	126.5
415.374	127.5
415.597	121.5
415.821	121.5
416.044	130.5
416.267	118.5
416.49	120.5
416.713	122.5
416.936	105.5
417.159	103.5
417.382	130.5
417.605	120.5
417.828	111.5
418.051	110.5
418.274	129.5
418.497	134.5
418.72	132.5
418.943	130.5
419.166	146.5
419.389	136.5
419.611	116.5
419.834	132.5
420.057	123.5
420.28	118.5
420.503	130.5
420.726	124.5
420.948	126.5
421.171	117.5
421.394	122.5
421.617	133.5
421.839	140.5
422.062	131.5
422.285	119.5
422.507	122.5
422.73	118.5
422.953	121.5
423.175	119.5
423.398	116.5
423.621	120.5
423.843	122.5
424.066	132.5
424.288	145.5
424.511	138.5
424.733	133.5
424.956	141.5
425.178	128.5
425.401	121.5
425.623	126.5
425.846	130.5
426.068	125.5
426.291	126.5
426.513	132.5
426.735	120.5
426.958	134.5
427.18	130.5
427.402	129.5
427.625	149.5
427.847	126.5
428.069	126.5
428.292	125.5
428.514	129.5
428.736	124.5
428.958	110.5
429.181	122.5
429.403	105.5
429.625	118.5
429.847	124.5
430.069	121.5
430.292	144.5
430.514	113.5
430.736	141.5
430.958	121.5
431.18	119.5
431.402	134.5
431.624	119.5
431.846	103.5
432.068	102.5
432.29	83.5
432.512	114.5
432.734	119.5
432.956	128.5
433.178	126.5
433.4	129.5
433.622	141.5
433.844	136.5
434.066	114.5
434.287	113.5
434.509	91.5
434.731	98.5
434.953	98.5
435.175	116.5
435.397	126.5
435.618	105.5
435.84	110.5
436.062	97.5
436.284	117.5
436.505	119.5
436.727	109.5
436.949	120.5
437.17	116.5
437.392	119.5
437.614	118.5
437.835	108.5
438.057	94.5
438.278	104.5
438.5	99.5
438.721	121.5
438.943	122.5
439.165	121.5
439.386	137.5
439.608	136.5
439.829	131.5
440.05	135.5
440.272	130.5
440.493	130.5
440.715	148.5
440.936	122.5
441.158	120.5
441.379	133.5
441.6	146.5
441.822	154.5
442.043	134.5
442.264	112.5
442.486	130.5
442.707	128.5
442.928	136.5
443.149	144.5
443.371	140.5
443.592	128.5
443.813	138.5
444.034	153.5
444.255	132.5
444.476	138.5
444.698	135.5
444.919	146.5
445.14	252.5
445.361	194.5
445.582	146.5
445.803	152.5
446.024	129.5
446.245	149.5
446.466	152.5
446.687	151.5
446.908	151.5
447.129	135.5
447.35	141.5
447.571	153.5
447.792	135.5
448.013	139.5
448.234	138.5
448.455	134.5
448.675	134.5
448.896	131.5
449.117	133.5
449.338	127.5
449.559	143.5
449.779	132.5
450	138.5
450.221	137.5
450.442	131.5
450.662	130.5
450.883	132.5
451.104	129.5
451.324	122.5
451.545	122.5
451.766	130.5
451.986	118.5
452.207	120.5
452.428	137.5
452.648	122.5
452.869	109.5
453.089	106.5
453.31	115.5
453.53	110.5
453.751	113.5
453.971	110.5
454.192	104.5
454.412	112.5
454.633	109.5
454.853	109.5
455.073	106.5
455.294	108.5
455.514	122.5
455.734	117.5
455.955	104.5
456.175	105.5
456.395	104.5
456.616	99.5
456.836	120.5
457.056	106.5
457.276	96.5
457.497	103.5
457.717	98.5
457.937	110.5
458.157	92.5
458.377	92.5
458.598	106.5
458.818	90.5
459.038	97.5
459.258	102.5
459.478	85.5
459.698	83.5
459.918	97.5
460.138	112.5
460.358	121.5
460.578	99.5
460.798	106.5
461.018	114.5
461.238	116.5
461.458	108.5
461.678	110.5
461.898	112.5
462.118	121.5
462.338	118.5
462.558	110.5
462.777	109.5
462.997	104.5
463.217	105.5
463.437	108.5
463.657	104.5
463.876	101.5
464.096	97.5
464.316	104.5
464.536	103.5
464.755	110.5
464.975	89.5
465.195	102.5
465.414	112.5
465.634	118.5
465.854	110.5
466.073	116.5
466.293	114.5
466.512	125.5
466.732	126.5
466.951	118.5
467.171	114.5
467.391	117.5
467.61	127.5
467.829	116.5
468.049	136.5
468.268	127.5
468.488	128.5
468.707	127.5
468.927	132.5
469.146	136.5
469.365	133.5
469.585	133.5
469.804	127.5
470.023	136.5
470.243	137.5
470.462	138.5
470.681	138.5
470.901	136.5
471.12	138.5
471.339	132.5
471.558	135.5
471.777	132.5
471.997	114.5
472.216	124.5
472.435	111.5
472.654	94.5
472.873	108.5
473.092	111.5
473.311	117.5
473.53	126.5
473.749	137.5
473.968	124.5
474.187	130.5
474.406	125.5
474.625	120.5
474.844	124.5
475.063	126.5
475.282	120.5
475.501	120.5
475.72	116.5
475.939	131.5
476.158	131.5
476.377	125.5
476.596	133.5
476.814	126.5
477.033	116.5
477.252	108.5
477.471	120.5
477.69	123.5
477.908	143.5
478.127	130.5
478.346	138.5
478.564	117.5
478.783	130.5
479.002	125.5
479.22	121.5
479.439	122.5
479.658	116.5
479.876	116.5
480.095	116.5
480.313	108.5
480.532	121.5
480.751	115.5
480.969	98.5
481.188	93.5
481.406	89.5
481.624	86.5
481.843	85.5
482.061	106.5
482.28	109.5
482.498	122.5
482.717	94.5
482.935	121.5
483.153	156.5
483.372	146.5
483.59	153.5
483.808	130.5
484.027	121.5
484.245	129.5
484.463	148.5
484.681	162.5
484.9	136.5
485.118	128.5
485.336	126.5
485.554	116.5
485.772	97.5
485.99	87.5
486.209	99.5
486.427	101.5
486.645	122.5
486.863	138.5
487.081	134.5
487.299	139.5
487.517	134.5
487.735	159.5
487.953	184.5
488.171	166.5
488.389	164.5
488.607	147.5
488.825	142.5
489.043	130.5
489.261	124.5
489.479	143.5
489.696	133.5
489.914	116.5
490.132	148.5
490.35	148.5
490.568	156.5
490.786	166.5
491.003	167.5
491.221	174.5
491.439	155.5
491.657	173.5
491.874	190.5
492.092	218.5
492.31	240.5
492.527	225.5
492.745	199.5
492.963	169.5
493.18	188.5
493.398	180.5
493.615	181.5
493.833	169.5
494.05	159.5
494.268	168.5
494.485	160.5
494.703	168.5
494.92	151.5
495.138	156.5
495.355	160.5
495.573	157.5
495.79	172.5
496.008	158.5
496.225	145.5
496.442	161.5
496.66	157.5
496.877	157.5
497.094	167.5
497.312	165.5
497.529	136.5
497.746	140.5
497.963	141.5
498.181	131.5
498.398	130.5
498.615	118.5
498.832	113.5
499.049	113.5
499.267	120.5
499.484	132.5
499.701	116.5
499.918	123.5
500.135	138.5
500.352	137.5
500.569	136.5
500.786	150.5
501.003	140.5
501.22	136.5
501.437	137.5
501.654	116.5
501.871	127.5
502.088	149.5
502.305	124.5
502.522	136.5
502.739	129.5
502.956	120.5
503.172	118.5
503.389	122.5
503.606	116.5
503.823	114.5
504.04	128.5
504.256	120.5
504.473	120.5
504.69	111.5
504.907	126.5
505.123	123.5
505.34	134.5
505.557	126.5
505.773	110.5
505.99	126.5
506.207	114.5
506.423	109.5
506.64	108.5
506.856	106.5
507.073	117.5
507.289	121.5
507.506	120.5
507.722	111.5
507.939	124.5
508.155	113.5
508.372	112.5
508.588	108.5
508.805	91.5
509.021	105.5
509.238	106.5
509.454	113.5
509.67	104.5
509.887	98.5
510.103	83.5
510.319	109.5
510.536	88.5
510.752	102.5
510.968	91.5
511.184	86.5
511.401	77.5
511.617	101.5
511.833	88.5
512.049	87.5
512.265	105.5
512.481	84.5
512.698	89.5
512.914	96.5
513.13	81.5
513.346	88.5
513.562	102.5
513.778	85.5
513.994	98.5
514.21	89.5
514.426	93.5
514.642	108.5
514.858	84.5
515.074	89.5
515.29	86.5
515.506	107.5
515.721	93.5
515.937	86.5
516.153	61.5
516.369	86.5
516.585	86.5
516.801	86.5
517.016	77.5
517.232	103.5
517.448	94.5
517.664	105.5
517.879	90.5
518.095	97.5
518.311	100.5
518.527	99.5
518.742	79.5
518.958	100.5
519.173	112.5
519.389	116.5
519.605	106.5
519.82	98.5
520.036	116.5
520.251	105.5
520.467	116.5
520.682	97.5
520.898	87.5
521.113	80.5
521.329	90.5
521.544	73.5
521.76	98.5
521.975	92.5
522.19	89.5
522.406	108.5
522.621	112.5
522.836	98.5
523.052	98.5
523.267	113.5
523.482	103.5
523.698	117.5
523.913	134.5
524.128	106.5
524.343	101.5
524.559	132.5
524.774	116.5
524.989	117.5
525.204	114.5
525.419	113.5
525.634	122.5
525.849	101.5
526.064	107.5
526.28	94.5
526.495	98.5
526.71	77.5
526.925	88.5
527.14	83.5
527.355	58.5
527.57	86.5
527.785	92.5
527.999	81.5
528.214	88.5
528.429	118.5
528.644	99.5
528.859	130.5
529.074	140.5
529.289	149.5
529.503	160.5
529.718	130.5
529.933	110.5
530.148	106.5
530.363	105.5
530.577	81.5
530.792	88.5
531.007	81.5
531.221	81.5
531.436	89.5
531.651	98.5
531.865	82.5
532.08	84.5
532.295	91.5
532.509	92.5
532.724	85.5
532.938	95.5
533.153	97.5
533.367	106.5
533.582	118.5
533.796	124.5
534.011	118.5
534.225	94.5
534.44	96.5
534.654	80.5
534.868	93.5
535.083	100.5
535.297	91.5
535.511	93.5
535.726	111.5
535.94	95.5
536.154	91.5
536.369	87.5
536.583	88.5
536.797	98.5
537.011	83.5
537.225	92.5
537.44	90.5
537.654	74.5
537.868	97.5
538.082	99.5
538.296	100.5
538.51	114.5
538.724	109.5
538.938	115.5
539.153	122.5
539.367	122.5
539.581	104.5
539.795	98.5
540.009	101.5
540.222	87.5
540.436	98.5
540.65	104.5
540.864	124.5
541.078	126.5
541.292	151.5
541.506	168.5
541.72	177.5
541.934	181.5
542.147	202.5
542.361	174.5
542.575	169.5
542.789	148.5
543.002	144.5
543.216	129.5
543.43	117.5
543.644	132.5
543.857	134.5
544.071	146.5
544.285	159.5
544.498	147.5
544.712	142.5
544.925	145.5
545.139	147.5
545.352	161.5
545.566	153.5
545.779	147.5
545.993	160.5
546.206	167.5
546.42	152.5
546.633	149.5
546.847	149.5
547.06	147.5
547.274	162.5
547.487	174.5
547.7	162.5
547.914	145.5
548.127	151.5
548.34	137.5
548.554	147.5
548.767	144.5
548.98	140.5
549.193	156.5
549.407	136.5
549.62	143.5
549.833	125.5
550.046	157.5
550.259	147.5
550.473	145.5
550.686	139.5
550.899	147.5
551.112	139.5
551.325	124.5
551.538	146.5
551.751	118.5
551.964	116.5
552.177	127.5
552.39	142.5
552.603	133.5
552.816	150.5
553.029	136.5
553.242	167.5
553.455	153.5
553.667	152.5
553.88	158.5
554.093	154.5
554.306	154.5
554.519	136.5
554.732	151.5
554.944	128.5
555.157	136.5
555.37	147.5
555.583	132.5
555.795	130.5
556.008	129.5
556.221	136.5
556.433	133.5
556.646	134.5
556.859	121.5
557.071	132.5
557.284	131.5
557.496	134.5
557.709	145.5
557.921	138.5
558.134	150.5
558.346	130.5
558.559	116.5
558.771	135.5
558.984	125.5
559.196	129.5
559.409	128.5
559.621	135.5
559.833	134.5
560.046	124.5
560.258	113.5
560.47	138.5
560.683	121.5
560.895	122.5
561.107	122.5
561.32	121.5
561.532	131.5
561.744	137.5
561.956	114.5
562.168	128.5
562.381	104.5
562.593	120.5
562.805	116.5
563.017	115.5
563.229	114.5
563.441	113.5
563.653	122.5
563.865	134.5
564.077	126.5
564.289	106.5
564.501	122.5
564.713	124.5
564.925	114.5
565.137	130.5
565.349	109.5
565.561	129.5
565.773	118.5
565.985	115.5
566.197	108.5
566.408	122.5
566.62	104.5
566.832	120.5
567.044	112.5
567.255	115.5
567.467	124.5
567.679	108.5
567.891	113.5
568.102	93.5
568.314	93.5
568.526	91.5
568.737	83.5
568.949	76.5
569.161	81.5
569.372	88.5
569.584	85.5
569.795	92.5
570.007	87.5
570.218	92.5
570.43	84.5
570.641	88.5
570.853	95.5
571.064	95.5
571.276	95.5
571.487	112.5
571.698	103.5
571.91	96.5
572.121	113.5
572.333	100.5
572.544	95.5
572.755	100.5
572.966	81.5
573.178	84.5
573.389	72.5
573.6	94.5
573.811	85.5
574.023	98.5
574.234	90.5
574.445	71.5
574.656	109.5
574.867	110.5
575.078	105.5
575.289	85.5
575.501	83.5
575.712	101.5
575.923	93.5
576.134	87.5
576.345	86.5
576.556	106.5
576.767	89.5
576.978	84.5
577.188	100.5
577.399	105.5
577.61	86.5
577.821	88.5
578.032	86.5
578.243	96.5
578.454	86.5
578.665	80.5
578.875	84.5
579.086	72.5
579.297	81.5
579.508	72.5
579.718	87.5
579.929	89.5
580.14	84.5
580.35	75.5
580.561	85.5
580.772	93.5
580.982	99.5
581.193	95.5
581.403	78.5
581.614	101.5
581.825	107.5
582.035	97.5
582.246	90.5
582.456	78.5
582.667	79.5
582.877	97.5
583.087	94.5
583.298	96.5
583.508	79.5
583.719	88.5
583.929	90.5
584.139	73.5
584.35	79.5
584.56	86.5
584.77	78.5
584.981	89.5
585.191	76.5
585.401	90.5
585.611	84.5
585.821	84.5
586.032	78.5
586.242	82.5
586.452	75.5
586.662	68.5
586.872	61.5
587.082	92.5
587.292	87.5
587.502	92.5
587.713	84.5
587.923	81.5
588.133	78.5
588.343	72.5
588.553	83.5
588.762	81.5
588.972	75.5
589.182	80.5
589.392	87.5
589.602	84.5
589.812	87.5
590.022	100.5
590.232	96.5
590.441	101.5
590.651	87.5
590.861	78.5
591.071	89.5
591.281	71.5
591.49	84.5
591.7	88.5
591.91	81.5
592.119	81.5
592.329	72.5
592.539	88.5
592.748	91.5
592.958	78.5
593.167	76.5
593.377	87.5
593.587	82.5
593.796	80.5
594.006	71.5
594.215	70.5
594.424	78.5
594.634	99.5
594.843	97.5
595.053	84.5
595.262	97.5
595.472	89.5
595.681	84.5
595.89	75.5
596.1	86.5
596.309	89.5
596.518	94.5
596.727	78.5
596.937	95.5
597.146	90.5
597.355	98.5
597.564	84.5
597.774	88.5
597.983	69.5
598.192	82.5
598.401	86.5
598.61	80.5
598.819	75.5
599.028	89.5
599.237	86.5
599.446	91.5
599.655	89.5
599.864	100.5
600.073	84.5
600.282	97.5
600.491	88.5
600.7	104.5
600.909	107.5
601.118	93.5
601.327	88.5
601.536	90.5
601.745	101.5
601.953	103.5
602.162	104.5
602.371	113.5
602.58	99.5
602.789	82.5
602.997	94.5
603.206	104.5
603.415	116.5
603.623	112.5
603.832	113.5
604.041	114.5
604.249	102.5
604.458	99.5
604.666	100.5
604.875	98.5
605.084	97.5
605.292	96.5
605.501	101.5
605.709	109.5
605.918	120.5
606.126	113.5
606.334	104.5
606.543	110.5
606.751	100.5
606.96	114.5
607.168	115.5
607.376	106.5
607.585	93.5
607.793	113.5
608.001	110.5
608.21	97.5
608.418	97.5
608.626	101.5
608.834	102.5
609.043	116.5
609.251	100.5
609.459	102.5
609.667	113.5
609.875	110.5
610.083	118.5
610.291	109.5
610.499	103.5
610.707	114.5
610.916	109.5
611.124	110.5
611.332	112.5
611.54	102.5
611.748	98.5
611.955	113.5
612.163	115.5
612.371	114.5
612.579	102.5
612.787	94.5
612.995	100.5
613.203	114.5
613.411	112.5
613.618	94.5
613.826	102.5
614.034	98.5
614.242	112.5
614.449	117.5
614.657	111.5
614.865	111.5
615.072	101.5
615.28	116.5
615.488	109.5
615.695	115.5
615.903	114.5
616.111	113.5
616.318	104.5
616.526	122.5
616.733	124.5
616.941	94.5
617.148	113.5
617.356	100.5
617.563	117.5
617.771	103.5
617.978	95.5
618.185	93.5
618.393	86.5
618.6	102.5
618.807	95.5
619.015	102.5
619.222	103.5
619.429	110.5
619.637	112.5
619.844	101.5
620.051	112.5
620.258	108.5
620.466	115.5
620.673	105.5
620.88	114.5
621.087	115.5
621.294	81.5
621.501	112.5
621.708	92.5
621.915	106.5
622.122	100.5
622.329	108.5
622.536	112.5
622.743	109.5
622.95	110.5
623.157	100.5
623.364	109.5
623.571	112.5
623.778	117.5
623.985	114.5
624.192	96.5
624.399	97.5
624.606	86.5
624.812	109.5
625.019	108.5
625.226	122.5
625.433	98.5
625.639	94.5
625.846	95.5
626.053	81.5
626.259	93.5
626.466	98.5
626.673	96.5
626.879	91.5
627.086	81.5
627.293	115.5
627.499	96.5
627.706	101.5
627.912	110.5
628.119	100.5
628.325	114.5
628.532	100.5
628.738	113.5
628.945	96.5
629.151	96.5
629.357	92.5
629.564	103.5
629.77	100.5
629.976	99.5
630.183	87.5
630.389	98.5
630.595	91.5
630.802	97.5
631.008	90.5
631.214	86.5
631.42	82.5
631.627	93.5
631.833	104.5
632.039	105.5
632.245	104.5
632.451	95.5
632.657	99.5
632.863	90.5
633.069	100.5
633.275	89.5
633.481	92.5
633.688	72.5
633.893	92.5
634.099	102.5
634.305	95.5
634.511	103.5
634.717	88.5
634.923	88.5
635.129	87.5
635.335	103.5
635.541	103.5
635.747	103.5
635.952	81.5
636.158	99.5
636.364	95.5
636.57	89.5
636.775	100.5
636.981	96.5
637.187	103.5
637.392	90.5
637.598	96.5
637.804	84.5
638.009	112.5
638.215	98.5
638.421	95.5
638.626	100.5
638.832	107.5
639.037	102.5
639.243	95.5
639.448	93.5
639.654	83.5
639.859	89.5
640.065	91.5
640.27	89.5
640.475	78.5
640.681	101.5
640.886	90.5
641.091	81.5
641.297	102.5
641.502	95.5
641.707	107.5
641.913	88.5
642.118	89.5
642.323	102.5
642.528	105.5
642.733	95.5
642.939	100.5
643.144	93.5
643.349	101.5
643.554	109.5
643.759	110.5
643.964	85.5
644.169	99.5
644.374	89.5
644.579	101.5
644.784	87.5
644.989	109.5
645.194	93.5
645.399	95.5
645.604	100.5
645.809	101.5
646.014	75.5
646.219	89.5
646.423	103.5
646.628	102.5
646.833	96.5
647.038	101.5
647.243	88.5
647.447	103.5
647.652	97.5
647.857	91.5
648.062	86.5
648.266	101.5
648.471	89.5
648.676	111.5
648.88	99.5
649.085	102.5
649.289	84.5
649.494	104.5
649.698	93.5
649.903	87.5
650.107	84.5
650.312	77.5
650.516	101.5
650.721	90.5
650.925	102.5
651.13	83.5
651.334	86.5
651.539	102.5
651.743	90.5
651.947	85.5
652.152	91.5
652.356	90.5
652.56	95.5
652.764	88.5
652.969	106.5
653.173	82.5
653.377	101.5
653.581	80.5
653.785	94.5
653.99	108.5
654.194	68.5
654.398	84.5
654.602	80.5
654.806	87.5
655.01	90.5
655.214	82.5
655.418	88.5
655.622	89.5
655.826	88.5
656.03	96.5
656.234	104.5
656.438	68.5
656.642	86.5
656.846	86.5
657.049	81.5
657.253	84.5
657.457	93.5
657.661	93.5
657.865	95.5
658.068	80.5
658.272	85.5
658.476	80.5
658.68	86.5
658.883	80.5
659.087	83.5
659.291	90.5
659.494	74.5
659.698	89.5
659.901	70.5
660.105	76.5
660.309	69.5
660.512	90.5
660.716	82.5
660.919	84.5
661.123	91.5
661.326	78.5
661.53	89.5
661.733	81.5
661.936	80.5
662.14	72.5
662.343	80.5
662.546	83.5
662.75	81.5
662.953	89.5
663.156	82.5
663.36	89.5
663.563	79.5
663.766	76.5
663.969	78.5
664.173	89.5
664.376	57.5
664.579	78.5
664.782	74.5
664.985	76.5
665.188	80.5
665.391	67.5
665.594	79.5
665.797	72.5
666	70.5
666.203	74.5
666.406	89.5
666.609	83.5
666.812	78.5
667.015	76.5
667.218	81.5
667.421	85.5
667.624	76.5
667.827	79.5
668.03	74.5
668.232	77.5
668.435	67.5
668.638	89.5
668.841	84.5
669.043	72.5
669.246	89.5
669.449	77.5
669.651	79.5
669.854	72.5
670.057	80.5
670.259	69.5
670.462	68.5
670.665	73.5
670.867	81.5
671.07	90.5
671.272	73.5
671.475	80.5
671.677	74.5
671.88	85.5
672.082	81.5
672.284	86.5
672.487	82.5
672.689	81.5
672.892	81.5
