Data from Location4.07152019.Energy5.Lamp.07192019.3%Agarose_HRD10591_16-20-08-927.txt Node
Date: Fri Jul 19 16:20:08 EDT 2019
User: cochatt
Spectrometer: HR+D1059
Trigger mode: 1
Integration Time (sec): 1.000000E-1
Scans to average: 1
Electric dark correction enabled: true
Nonlinearity correction enabled: false
Boxcar width: 0
XAxis mode: Wavelengths
Number of Pixels in Spectrum: 2048
>>>>>Begin Spectral Data<<<<<
223.165	-15.56
223.4	-15.56
223.635	-15.56
223.869	-25.56
224.104	-19.56
224.338	-21.56
224.573	-0.56
224.808	-2.56
225.042	2.44
225.277	-13.56
225.511	-9.56
225.746	2.44
225.98	13.44
226.215	-0.56
226.449	17.44
226.683	16.44
226.918	27.44
227.152	29.44
227.387	30.44
227.621	36.44
227.856	50.44
228.09	58.44
228.324	42.44
228.559	60.44
228.793	49.44
229.027	60.44
229.262	66.44
229.496	64.44
229.73	88.44
229.964	81.44
230.199	75.44
230.433	68.44
230.667	70.44
230.901	81.44
231.136	70.44
231.37	68.44
231.604	69.44
231.838	78.44
232.072	78.44
232.306	79.44
232.541	76.44
232.775	92.44
233.009	91.44
233.243	78.44
233.477	93.44
233.711	79.44
233.945	76.44
234.179	82.44
234.413	83.44
234.647	80.44
234.881	93.44
235.115	87.44
235.349	76.44
235.583	67.44
235.817	65.44
236.051	83.44
236.285	70.44
236.519	84.44
236.753	76.44
236.987	88.44
237.221	86.44
237.455	75.44
237.689	72.44
237.922	76.44
238.156	73.44
238.39	77.44
238.624	76.44
238.858	72.44
239.091	67.44
239.325	84.44
239.559	69.44
239.793	74.44
240.027	62.44
240.26	76.44
240.494	87.44
240.728	73.44
240.961	71.44
241.195	86.44
241.429	83.44
241.662	82.44
241.896	66.44
242.13	81.44
242.363	87.44
242.597	78.44
242.83	81.44
243.064	76.44
243.298	66.44
243.531	88.44
243.765	76.44
243.998	84.44
244.232	84.44
244.465	76.44
244.699	72.44
244.932	81.44
245.166	83.44
245.399	77.44
245.633	74.44
245.866	85.44
246.099	75.44
246.333	81.44
246.566	82.44
246.8	77.44
247.033	71.44
247.266	87.44
247.5	76.44
247.733	84.44
247.966	84.44
248.2	89.44
248.433	76.44
248.666	64.44
248.899	80.44
249.133	86.44
249.366	91.44
249.599	85.44
249.832	65.44
250.066	86.44
250.299	86.44
250.532	73.44
250.765	84.44
250.998	86.44
251.231	82.44
251.465	88.44
251.698	73.44
251.931	87.44
252.164	92.44
252.397	84.44
252.63	81.44
252.863	94.44
253.096	83.44
253.329	90.44
253.562	96.44
253.795	85.44
254.028	84.44
254.261	78.44
254.494	76.44
254.727	83.44
254.96	73.44
255.193	86.44
255.426	97.44
255.659	70.44
255.892	77.44
256.124	77.44
256.357	74.44
256.59	77.44
256.823	79.44
257.056	81.44
257.289	71.44
257.521	67.44
257.754	80.44
257.987	74.44
258.22	86.44
258.452	84.44
258.685	83.44
258.918	86.44
259.151	77.44
259.383	88.44
259.616	72.44
259.849	71.44
260.081	82.44
260.314	87.44
260.547	84.44
260.779	75.44
261.012	78.44
261.244	75.44
261.477	82.44
261.71	88.44
261.942	93.44
262.175	72.44
262.407	71.44
262.64	90.44
262.872	85.44
263.105	85.44
263.337	99.44
263.57	88.44
263.802	73.44
264.035	77.44
264.267	83.44
264.499	90.44
264.732	80.44
264.964	78.44
265.197	101.44
265.429	89.44
265.661	83.44
265.894	80.44
266.126	84.44
266.358	73.44
266.591	77.44
266.823	93.44
267.055	99.44
267.287	72.44
267.52	72.44
267.752	79.44
267.984	76.44
268.216	92.44
268.448	78.44
268.681	93.44
268.913	103.44
269.145	80.44
269.377	84.44
269.609	84.44
269.841	81.44
270.073	90.44
270.306	75.44
270.538	97.44
270.77	88.44
271.002	73.44
271.234	85.44
271.466	72.44
271.698	76.44
271.93	85.44
272.162	75.44
272.394	94.44
272.626	89.44
272.858	75.44
273.09	69.44
273.322	87.44
273.553	76.44
273.785	81.44
274.017	85.44
274.249	72.44
274.481	82.44
274.713	84.44
274.945	81.44
275.176	86.44
275.408	85.44
275.64	86.44
275.872	91.44
276.104	81.44
276.335	105.44
276.567	91.44
276.799	82.44
277.031	85.44
277.262	97.44
277.494	78.44
277.726	79.44
277.957	77.44
278.189	87.44
278.421	87.44
278.652	86.44
278.884	78.44
279.115	93.44
279.347	106.44
279.579	91.44
279.81	87.44
280.042	83.44
280.273	73.44
280.505	82.44
280.736	98.44
280.968	82.44
281.199	83.44
281.431	82.44
281.662	77.44
281.894	76.44
282.125	85.44
282.356	88.44
282.588	77.44
282.819	87.44
283.051	84.44
283.282	78.44
283.513	81.44
283.745	76.44
283.976	96.44
284.207	70.44
284.439	78.44
284.67	84.44
284.901	72.44
285.132	89.44
285.364	85.44
285.595	72.44
285.826	112.44
286.057	91.44
286.288	83.44
286.52	81.44
286.751	103.44
286.982	92.44
287.213	78.44
287.444	82.44
287.675	82.44
287.906	83.44
288.138	104.44
288.369	91.44
288.6	81.44
288.831	84.44
289.062	62.44
289.293	92.44
289.524	80.44
289.755	83.44
289.986	69.44
290.217	68.44
290.448	73.44
290.679	89.44
290.91	96.44
291.141	95.44
291.371	88.44
291.602	76.44
291.833	84.44
292.064	92.44
292.295	80.44
292.526	88.44
292.757	82.44
292.987	84.44
293.218	83.44
293.449	91.44
293.68	91.44
293.91	89.44
294.141	83.44
294.372	90.44
294.603	96.44
294.833	75.44
295.064	88.44
295.295	94.44
295.525	90.44
295.756	85.44
295.987	70.44
296.217	93.44
296.448	89.44
296.679	79.44
296.909	79.44
297.14	91.44
297.37	101.44
297.601	86.44
297.831	88.44
298.062	92.44
298.292	71.44
298.523	82.44
298.753	76.44
298.984	95.44
299.214	84.44
299.445	99.44
299.675	89.44
299.905	76.44
300.136	91.44
300.366	86.44
300.597	101.44
300.827	84.44
301.057	84.44
301.288	98.44
301.518	98.44
301.748	92.44
301.979	96.44
302.209	89.44
302.439	87.44
302.669	94.44
302.9	85.44
303.13	88.44
303.36	96.44
303.59	93.44
303.82	65.44
304.051	91.44
304.281	82.44
304.511	80.44
304.741	86.44
304.971	79.44
305.201	86.44
305.431	83.44
305.661	86.44
305.891	85.44
306.121	85.44
306.352	93.44
306.582	76.44
306.812	90.44
307.042	94.44
307.272	92.44
307.502	79.44
307.731	88.44
307.961	76.44
308.191	87.44
308.421	77.44
308.651	89.44
308.881	84.44
309.111	89.44
309.341	94.44
309.571	81.44
309.8	81.44
310.03	90.44
310.26	88.44
310.49	98.44
310.72	84.44
310.949	78.44
311.179	79.44
311.409	87.44
311.639	90.44
311.868	83.44
312.098	91.44
312.328	90.44
312.557	83.44
312.787	84.44
313.017	91.44
313.246	75.44
313.476	88.44
313.706	78.44
313.935	83.44
314.165	65.44
314.394	87.44
314.624	89.44
314.853	87.44
315.083	93.44
315.312	91.44
315.542	78.44
315.771	77.44
316.001	80.44
316.23	72.44
316.46	75.44
316.689	76.44
316.919	98.44
317.148	90.44
317.377	85.44
317.607	88.44
317.836	77.44
318.065	72.44
318.295	84.44
318.524	77.44
318.753	75.44
318.983	85.44
319.212	88.44
319.441	83.44
319.67	100.44
319.9	96.44
320.129	101.44
320.358	101.44
320.587	82.44
320.816	72.44
321.046	98.44
321.275	89.44
321.504	90.44
321.733	84.44
321.962	87.44
322.191	90.44
322.42	72.44
322.649	81.44
322.878	76.44
323.108	97.44
323.337	104.44
323.566	89.44
323.795	93.44
324.024	83.44
324.253	84.44
324.482	89.44
324.71	86.44
324.939	88.44
325.168	85.44
325.397	79.44
325.626	91.44
325.855	68.44
326.084	77.44
326.313	86.44
326.542	92.44
326.77	87.44
326.999	88.44
327.228	91.44
327.457	97.44
327.686	72.44
327.914	74.44
328.143	96.44
328.372	76.44
328.6	76.44
328.829	83.44
329.058	92.44
329.287	87.44
329.515	84.44
329.744	92.44
329.972	80.44
330.201	78.44
330.43	76.44
330.658	79.44
330.887	84.44
331.115	84.44
331.344	81.44
331.572	86.44
331.801	83.44
332.03	82.44
332.258	75.44
332.486	72.44
332.715	80.44
332.943	76.44
333.172	112.44
333.4	75.44
333.629	92.44
333.857	81.44
334.085	70.44
334.314	92.44
334.542	78.44
334.771	85.44
334.999	84.44
335.227	93.44
335.455	90.44
335.684	72.44
335.912	71.44
336.14	78.44
336.369	88.44
336.597	77.44
336.825	71.44
337.053	94.44
337.281	87.44
337.51	84.44
337.738	83.44
337.966	85.44
338.194	77.44
338.422	91.44
338.65	83.44
338.878	89.44
339.106	84.44
339.334	93.44
339.562	74.44
339.79	68.44
340.018	84.44
340.246	96.44
340.474	82.44
340.702	97.44
340.93	85.44
341.158	76.44
341.386	100.44
341.614	84.44
341.842	84.44
342.07	92.44
342.298	74.44
342.526	88.44
342.754	85.44
342.981	89.44
343.209	85.44
343.437	85.44
343.665	90.44
343.893	78.44
344.12	95.44
344.348	93.44
344.576	73.44
344.804	89.44
345.031	94.44
345.259	70.44
345.487	93.44
345.714	86.44
345.942	88.44
346.17	88.44
346.397	70.44
346.625	83.44
346.853	78.44
347.08	92.44
347.308	76.44
347.535	91.44
347.763	86.44
347.99	96.44
348.218	84.44
348.445	87.44
348.673	93.44
348.9	91.44
349.128	97.44
349.355	89.44
349.583	92.44
349.81	96.44
350.037	85.44
350.265	86.44
350.492	99.44
350.72	108.44
350.947	89.44
351.174	81.44
351.402	88.44
351.629	81.44
351.856	85.44
352.083	72.44
352.311	83.44
352.538	93.44
352.765	74.44
352.992	91.44
353.22	95.44
353.447	92.44
353.674	89.44
353.901	84.44
354.128	72.44
354.355	83.44
354.583	92.44
354.81	71.44
355.037	90.44
355.264	70.44
355.491	85.44
355.718	88.44
355.945	88.44
356.172	75.44
356.399	91.44
356.626	74.44
356.853	84.44
357.08	89.44
357.307	87.44
357.534	88.44
357.761	78.44
357.988	82.44
358.215	85.44
358.441	77.44
358.668	82.44
358.895	77.44
359.122	80.44
359.349	86.44
359.576	77.44
359.802	94.44
360.029	89.44
360.256	89.44
360.483	85.44
360.709	77.44
360.936	109.44
361.163	88.44
361.39	82.44
361.616	86.44
361.843	69.44
362.07	82.44
362.296	91.44
362.523	70.44
362.749	81.44
362.976	77.44
363.203	83.44
363.429	82.44
363.656	81.44
363.882	70.44
364.109	84.44
364.335	76.44
364.562	75.44
364.788	76.44
365.015	65.44
365.241	78.44
365.468	85.44
365.694	90.44
365.92	76.44
366.147	75.44
366.373	87.44
366.599	96.44
366.826	82.44
367.052	95.44
367.278	80.44
367.505	87.44
367.731	90.44
367.957	85.44
368.184	86.44
368.41	80.44
368.636	94.44
368.862	78.44
369.089	89.44
369.315	91.44
369.541	88.44
369.767	101.44
369.993	84.44
370.219	85.44
370.445	89.44
370.672	83.44
370.898	108.44
371.124	78.44
371.35	89.44
371.576	94.44
371.802	87.44
372.028	94.44
372.254	83.44
372.48	90.44
372.706	99.44
372.932	93.44
373.158	86.44
373.384	98.44
373.61	99.44
373.835	101.44
374.061	91.44
374.287	87.44
374.513	93.44
374.739	93.44
374.965	81.44
375.191	114.44
375.416	91.44
375.642	84.44
375.868	77.44
376.094	99.44
376.319	90.44
376.545	96.44
376.771	75.44
376.997	104.44
377.222	96.44
377.448	92.44
377.674	97.44
377.899	102.44
378.125	84.44
378.35	83.44
378.576	88.44
378.802	103.44
379.027	86.44
379.253	95.44
379.478	105.44
379.704	87.44
379.929	97.44
380.155	88.44
380.38	96.44
380.606	92.44
380.831	92.44
381.057	109.44
381.282	92.44
381.507	108.44
381.733	107.44
381.958	97.44
382.184	86.44
382.409	91.44
382.634	86.44
382.86	93.44
383.085	100.44
383.31	103.44
383.535	100.44
383.761	114.44
383.986	91.44
384.211	106.44
384.436	74.44
384.662	88.44
384.887	107.44
385.112	90.44
385.337	92.44
385.562	112.44
385.787	98.44
386.013	98.44
386.238	92.44
386.463	84.44
386.688	102.44
386.913	110.44
387.138	104.44
387.363	91.44
387.588	120.44
387.813	98.44
388.038	97.44
388.263	96.44
388.488	102.44
388.713	97.44
388.938	104.44
389.163	105.44
389.387	105.44
389.612	94.44
389.837	99.44
390.062	85.44
390.287	104.44
390.512	99.44
390.736	101.44
390.961	97.44
391.186	113.44
391.411	97.44
391.636	105.44
391.86	98.44
392.085	97.44
392.31	101.44
392.534	101.44
392.759	113.44
392.984	102.44
393.208	111.44
393.433	101.44
393.658	106.44
393.882	110.44
394.107	105.44
394.331	106.44
394.556	108.44
394.78	110.44
395.005	100.44
395.229	94.44
395.454	101.44
395.678	105.44
395.903	108.44
396.127	101.44
396.352	107.44
396.576	116.44
396.801	113.44
397.025	97.44
397.249	113.44
397.474	114.44
397.698	119.44
397.922	121.44
398.147	104.44
398.371	111.44
398.595	113.44
398.82	96.44
399.044	94.44
399.268	110.44
399.492	101.44
399.717	115.44
399.941	115.44
400.165	123.44
400.389	126.44
400.613	101.44
400.837	108.44
401.062	130.44
401.286	101.44
401.51	84.44
401.734	109.44
401.958	106.44
402.182	113.44
402.406	117.44
402.63	113.44
402.854	113.44
403.078	109.44
403.302	120.44
403.526	108.44
403.75	119.44
403.974	101.44
404.198	114.44
404.422	119.44
404.645	117.44
404.869	100.44
405.093	113.44
405.317	112.44
405.541	101.44
405.765	118.44
405.988	106.44
406.212	126.44
406.436	114.44
406.66	104.44
406.883	103.44
407.107	117.44
407.331	107.44
407.555	119.44
407.778	102.44
408.002	116.44
408.226	119.44
408.449	115.44
408.673	113.44
408.896	116.44
409.12	111.44
409.344	120.44
409.567	118.44
409.791	108.44
410.014	119.44
410.238	123.44
410.461	105.44
410.685	136.44
410.908	115.44
411.132	121.44
411.355	137.44
411.578	130.44
411.802	117.44
412.025	117.44
412.249	109.44
412.472	124.44
412.695	113.44
412.919	102.44
413.142	120.44
413.365	123.44
413.589	114.44
413.812	116.44
414.035	116.44
414.258	115.44
414.482	119.44
414.705	115.44
414.928	123.44
415.151	117.44
415.374	121.44
415.597	118.44
415.821	121.44
416.044	112.44
416.267	121.44
416.49	124.44
416.713	119.44
416.936	122.44
417.159	114.44
417.382	120.44
417.605	127.44
417.828	120.44
418.051	121.44
418.274	117.44
418.497	131.44
418.72	126.44
418.943	126.44
419.166	131.44
419.389	112.44
419.611	123.44
419.834	123.44
420.057	124.44
420.28	131.44
420.503	138.44
420.726	130.44
420.948	124.44
421.171	134.44
421.394	132.44
421.617	133.44
421.839	144.44
422.062	125.44
422.285	141.44
422.507	123.44
422.73	116.44
422.953	107.44
423.175	124.44
423.398	133.44
423.621	134.44
423.843	139.44
424.066	135.44
424.288	142.44
424.511	141.44
424.733	149.44
424.956	141.44
425.178	141.44
425.401	138.44
425.623	135.44
425.846	139.44
426.068	135.44
426.291	130.44
426.513	128.44
426.735	133.44
426.958	147.44
427.18	123.44
427.402	136.44
427.625	136.44
427.847	130.44
428.069	123.44
428.292	123.44
428.514	134.44
428.736	130.44
428.958	139.44
429.181	122.44
429.403	132.44
429.625	130.44
429.847	128.44
430.069	127.44
430.292	128.44
430.514	123.44
430.736	138.44
430.958	116.44
431.18	116.44
431.402	131.44
431.624	109.44
431.846	108.44
432.068	77.44
432.29	98.44
432.512	101.44
432.734	115.44
432.956	135.44
433.178	124.44
433.4	137.44
433.622	128.44
433.844	120.44
434.066	122.44
434.287	118.44
434.509	112.44
434.731	85.44
434.953	124.44
435.175	130.44
435.397	133.44
435.618	116.44
435.84	122.44
436.062	118.44
436.284	116.44
436.505	147.44
436.727	136.44
436.949	134.44
437.17	123.44
437.392	130.44
437.614	132.44
437.835	112.44
438.057	109.44
438.278	134.44
438.5	114.44
438.721	138.44
438.943	141.44
439.165	137.44
439.386	117.44
439.608	145.44
439.829	134.44
440.05	143.44
440.272	132.44
440.493	137.44
440.715	128.44
440.936	145.44
441.158	130.44
441.379	158.44
441.6	140.44
441.822	132.44
442.043	145.44
442.264	129.44
442.486	130.44
442.707	132.44
442.928	125.44
443.149	130.44
443.371	148.44
443.592	123.44
443.813	137.44
444.034	137.44
444.255	148.44
444.476	135.44
444.698	152.44
444.919	159.44
445.14	254.44
445.361	203.44
445.582	144.44
445.803	144.44
446.024	151.44
446.245	148.44
446.466	151.44
446.687	146.44
446.908	148.44
447.129	160.44
447.35	136.44
447.571	162.44
447.792	156.44
448.013	141.44
448.234	147.44
448.455	145.44
448.675	151.44
448.896	133.44
449.117	134.44
449.338	128.44
449.559	132.44
449.779	138.44
450	138.44
450.221	137.44
450.442	129.44
450.662	136.44
450.883	130.44
451.104	140.44
451.324	141.44
451.545	127.44
451.766	133.44
451.986	115.44
452.207	120.44
452.428	113.44
452.648	123.44
452.869	99.44
453.089	113.44
453.31	105.44
453.53	110.44
453.751	100.44
453.971	115.44
454.192	93.44
454.412	116.44
454.633	114.44
454.853	117.44
455.073	149.44
455.294	133.44
455.514	126.44
455.734	132.44
455.955	121.44
456.175	108.44
456.395	100.44
456.616	112.44
456.836	112.44
457.056	101.44
457.276	121.44
457.497	107.44
457.717	99.44
457.937	105.44
458.157	124.44
458.377	109.44
458.598	88.44
458.818	99.44
459.038	97.44
459.258	84.44
459.478	105.44
459.698	87.44
459.918	120.44
460.138	113.44
460.358	123.44
460.578	111.44
460.798	115.44
461.018	112.44
461.238	114.44
461.458	121.44
461.678	112.44
461.898	103.44
462.118	116.44
462.338	121.44
462.558	113.44
462.777	120.44
462.997	110.44
463.217	116.44
463.437	117.44
463.657	110.44
463.876	98.44
464.096	118.44
464.316	97.44
464.536	106.44
464.755	127.44
464.975	126.44
465.195	114.44
465.414	128.44
465.634	123.44
465.854	122.44
466.073	117.44
466.293	117.44
466.512	109.44
466.732	128.44
466.951	142.44
467.171	139.44
467.391	128.44
467.61	126.44
467.829	133.44
468.049	127.44
468.268	131.44
468.488	151.44
468.707	129.44
468.927	145.44
469.146	137.44
469.365	140.44
469.585	139.44
469.804	126.44
470.023	122.44
470.243	142.44
470.462	142.44
470.681	140.44
470.901	134.44
471.12	150.44
471.339	137.44
471.558	146.44
471.777	136.44
471.997	134.44
472.216	128.44
472.435	115.44
472.654	97.44
472.873	123.44
473.092	130.44
473.311	128.44
473.53	120.44
473.749	142.44
473.968	117.44
474.187	112.44
474.406	122.44
474.625	123.44
474.844	125.44
475.063	131.44
475.282	112.44
475.501	114.44
475.72	126.44
475.939	117.44
476.158	139.44
476.377	129.44
476.596	128.44
476.814	114.44
477.033	109.44
477.252	116.44
477.471	141.44
477.69	126.44
477.908	132.44
478.127	136.44
478.346	139.44
478.564	133.44
478.783	129.44
479.002	141.44
479.22	136.44
479.439	130.44
479.658	144.44
479.876	123.44
480.095	122.44
480.313	116.44
480.532	108.44
480.751	122.44
480.969	93.44
481.188	98.44
481.406	83.44
481.624	95.44
481.843	101.44
482.061	104.44
482.28	116.44
482.498	121.44
482.717	108.44
482.935	136.44
483.153	140.44
483.372	149.44
483.59	146.44
483.808	130.44
484.027	132.44
484.245	129.44
484.463	133.44
484.681	142.44
484.9	157.44
485.118	132.44
485.336	148.44
485.554	103.44
485.772	96.44
485.99	107.44
486.209	115.44
486.427	101.44
486.645	120.44
486.863	144.44
487.081	141.44
487.299	146.44
487.517	124.44
487.735	157.44
487.953	182.44
488.171	184.44
488.389	168.44
488.607	164.44
488.825	152.44
489.043	132.44
489.261	138.44
489.479	146.44
489.696	146.44
489.914	134.44
490.132	143.44
490.35	139.44
490.568	163.44
490.786	174.44
491.003	167.44
491.221	170.44
491.439	171.44
491.657	196.44
491.874	196.44
492.092	217.44
492.31	236.44
492.527	229.44
492.745	204.44
492.963	199.44
493.18	178.44
493.398	176.44
493.615	166.44
493.833	169.44
494.05	154.44
494.268	181.44
494.485	172.44
494.703	150.44
494.92	166.44
495.138	180.44
495.355	176.44
495.573	170.44
495.79	161.44
496.008	160.44
496.225	160.44
496.442	160.44
496.66	155.44
496.877	166.44
497.094	170.44
497.312	165.44
497.529	164.44
497.746	163.44
497.963	131.44
498.181	127.44
498.398	116.44
498.615	114.44
498.832	105.44
499.049	118.44
499.267	115.44
499.484	107.44
499.701	128.44
499.918	124.44
500.135	131.44
500.352	143.44
500.569	124.44
500.786	139.44
501.003	140.44
501.22	126.44
501.437	140.44
501.654	140.44
501.871	133.44
502.088	107.44
502.305	122.44
502.522	142.44
502.739	127.44
502.956	123.44
503.172	128.44
503.389	113.44
503.606	120.44
503.823	126.44
504.04	119.44
504.256	114.44
504.473	137.44
504.69	123.44
504.907	131.44
505.123	121.44
505.34	131.44
505.557	136.44
505.773	130.44
505.99	125.44
506.207	132.44
506.423	118.44
506.64	118.44
506.856	108.44
507.073	114.44
507.289	137.44
507.506	114.44
507.722	120.44
507.939	119.44
508.155	121.44
508.372	107.44
508.588	128.44
508.805	109.44
509.021	100.44
509.238	105.44
509.454	109.44
509.67	93.44
509.887	96.44
510.103	103.44
510.319	81.44
510.536	95.44
510.752	68.44
510.968	78.44
511.184	79.44
511.401	81.44
511.617	97.44
511.833	91.44
512.049	105.44
512.265	79.44
512.481	106.44
512.698	88.44
512.914	112.44
513.13	108.44
513.346	75.44
513.562	112.44
513.778	104.44
513.994	91.44
514.21	108.44
514.426	91.44
514.642	88.44
514.858	85.44
515.074	78.44
515.29	85.44
515.506	96.44
515.721	91.44
515.937	83.44
516.153	75.44
516.369	81.44
516.585	94.44
516.801	96.44
517.016	94.44
517.232	88.44
517.448	92.44
517.664	98.44
517.879	92.44
518.095	103.44
518.311	103.44
518.527	106.44
518.742	104.44
518.958	99.44
519.173	103.44
519.389	113.44
519.605	113.44
519.82	117.44
520.036	109.44
520.251	112.44
520.467	105.44
520.682	103.44
520.898	94.44
521.113	87.44
521.329	88.44
521.544	97.44
521.76	106.44
521.975	83.44
522.19	94.44
522.406	118.44
522.621	99.44
522.836	101.44
523.052	102.44
523.267	112.44
523.482	96.44
523.698	116.44
523.913	118.44
524.128	117.44
524.343	126.44
524.559	127.44
524.774	134.44
524.989	128.44
525.204	108.44
525.419	118.44
525.634	114.44
525.849	102.44
526.064	112.44
526.28	89.44
526.495	106.44
526.71	92.44
526.925	90.44
527.14	71.44
527.355	75.44
527.57	82.44
527.785	100.44
527.999	99.44
528.214	113.44
528.429	117.44
528.644	106.44
528.859	140.44
529.074	163.44
529.289	153.44
529.503	158.44
529.718	127.44
529.933	110.44
530.148	110.44
530.363	91.44
530.577	93.44
530.792	94.44
531.007	81.44
531.221	89.44
531.436	77.44
531.651	86.44
531.865	93.44
532.08	82.44
532.295	81.44
532.509	92.44
532.724	78.44
532.938	74.44
533.153	91.44
533.367	119.44
533.582	117.44
533.796	128.44
534.011	113.44
534.225	92.44
534.44	94.44
534.654	97.44
534.868	102.44
535.083	100.44
535.297	90.44
535.511	97.44
535.726	96.44
535.94	84.44
536.154	99.44
536.369	102.44
536.583	82.44
536.797	101.44
537.011	94.44
537.225	85.44
537.44	95.44
537.654	77.44
537.868	71.44
538.082	87.44
538.296	89.44
538.51	113.44
538.724	109.44
538.938	120.44
539.153	116.44
539.367	113.44
539.581	114.44
539.795	106.44
540.009	112.44
540.222	98.44
540.436	98.44
540.65	118.44
540.864	127.44
541.078	126.44
541.292	152.44
541.506	141.44
541.72	165.44
541.934	201.44
542.147	185.44
542.361	170.44
542.575	153.44
542.789	138.44
543.002	135.44
543.216	127.44
543.43	128.44
543.644	140.44
543.857	144.44
544.071	146.44
544.285	157.44
544.498	155.44
544.712	160.44
544.925	149.44
545.139	169.44
545.352	151.44
545.566	154.44
545.779	164.44
545.993	151.44
546.206	156.44
546.42	167.44
546.633	162.44
546.847	163.44
547.06	168.44
547.274	164.44
547.487	191.44
547.7	172.44
547.914	172.44
548.127	168.44
548.34	164.44
548.554	134.44
548.767	156.44
548.98	150.44
549.193	150.44
549.407	153.44
549.62	160.44
549.833	153.44
550.046	141.44
550.259	156.44
550.473	156.44
550.686	142.44
550.899	141.44
551.112	156.44
551.325	141.44
551.538	130.44
551.751	130.44
551.964	116.44
552.177	131.44
552.39	140.44
552.603	147.44
552.816	147.44
553.029	149.44
553.242	153.44
553.455	144.44
553.667	155.44
553.88	164.44
554.093	152.44
554.306	138.44
554.519	153.44
554.732	140.44
554.944	136.44
555.157	141.44
555.37	145.44
555.583	150.44
555.795	141.44
556.008	141.44
556.221	142.44
556.433	143.44
556.646	126.44
556.859	124.44
557.071	130.44
557.284	146.44
557.496	139.44
557.709	132.44
557.921	124.44
558.134	133.44
558.346	132.44
558.559	132.44
558.771	133.44
558.984	117.44
559.196	143.44
559.409	126.44
559.621	123.44
559.833	118.44
560.046	128.44
560.258	112.44
560.47	120.44
560.683	126.44
560.895	132.44
561.107	149.44
561.32	139.44
561.532	124.44
561.744	131.44
561.956	138.44
562.168	125.44
562.381	135.44
562.593	135.44
562.805	132.44
563.017	125.44
563.229	123.44
563.441	126.44
563.653	115.44
563.865	120.44
564.077	118.44
564.289	122.44
564.501	120.44
564.713	142.44
564.925	128.44
565.137	131.44
565.349	118.44
565.561	115.44
565.773	121.44
565.985	122.44
566.197	128.44
566.408	104.44
566.62	122.44
566.832	129.44
567.044	118.44
567.255	130.44
567.467	118.44
567.679	119.44
567.891	92.44
568.102	90.44
568.314	107.44
568.526	93.44
568.737	88.44
568.949	100.44
569.161	93.44
569.372	88.44
569.584	76.44
569.795	81.44
570.007	92.44
570.218	98.44
570.43	101.44
570.641	94.44
570.853	93.44
571.064	90.44
571.276	112.44
571.487	95.44
571.698	107.44
571.91	95.44
572.121	101.44
572.333	107.44
572.544	114.44
572.755	67.44
572.966	99.44
573.178	93.44
573.389	77.44
573.6	84.44
573.811	82.44
574.023	83.44
574.234	87.44
574.445	88.44
574.656	81.44
574.867	96.44
575.078	87.44
575.289	96.44
575.501	109.44
575.712	90.44
575.923	87.44
576.134	85.44
576.345	80.44
576.556	97.44
576.767	96.44
576.978	100.44
577.188	89.44
577.399	93.44
577.61	75.44
577.821	101.44
578.032	107.44
578.243	94.44
578.454	85.44
578.665	84.44
578.875	83.44
579.086	93.44
579.297	78.44
579.508	99.44
579.718	82.44
579.929	85.44
580.14	88.44
580.35	106.44
580.561	78.44
580.772	76.44
580.982	92.44
581.193	84.44
581.403	91.44
581.614	95.44
581.825	83.44
582.035	91.44
582.246	101.44
582.456	94.44
582.667	86.44
582.877	85.44
583.087	89.44
583.298	98.44
583.508	91.44
583.719	76.44
583.929	99.44
584.139	86.44
584.35	97.44
584.56	93.44
584.77	91.44
584.981	95.44
585.191	76.44
585.401	96.44
585.611	94.44
585.821	90.44
586.032	79.44
586.242	106.44
586.452	90.44
586.662	91.44
586.872	87.44
587.082	92.44
587.292	69.44
587.502	89.44
587.713	88.44
587.923	84.44
588.133	80.44
588.343	82.44
588.553	83.44
588.762	103.44
588.972	89.44
589.182	92.44
589.392	88.44
589.602	100.44
589.812	78.44
590.022	103.44
590.232	82.44
590.441	93.44
590.651	87.44
590.861	93.44
591.071	79.44
591.281	97.44
591.49	84.44
591.7	86.44
591.91	79.44
592.119	84.44
592.329	93.44
592.539	89.44
592.748	85.44
592.958	99.44
593.167	88.44
593.377	88.44
593.587	90.44
593.796	80.44
594.006	81.44
594.215	91.44
594.424	81.44
594.634	92.44
594.843	93.44
595.053	102.44
595.262	109.44
595.472	87.44
595.681	85.44
595.89	100.44
596.1	103.44
596.309	101.44
596.518	101.44
596.727	108.44
596.937	94.44
597.146	101.44
597.355	93.44
597.564	86.44
597.774	100.44
597.983	91.44
598.192	90.44
598.401	77.44
598.61	90.44
598.819	89.44
599.028	100.44
599.237	97.44
599.446	86.44
599.655	84.44
599.864	97.44
600.073	92.44
600.282	88.44
600.491	102.44
600.7	116.44
600.909	104.44
601.118	101.44
601.327	106.44
601.536	109.44
601.745	99.44
601.953	111.44
602.162	103.44
602.371	107.44
602.58	103.44
602.789	102.44
602.997	103.44
603.206	121.44
603.415	108.44
603.623	107.44
603.832	119.44
604.041	114.44
604.249	100.44
604.458	105.44
604.666	95.44
604.875	106.44
605.084	104.44
605.292	113.44
605.501	116.44
605.709	113.44
605.918	122.44
606.126	128.44
606.334	112.44
606.543	119.44
606.751	108.44
606.96	118.44
607.168	116.44
607.376	118.44
607.585	122.44
607.793	118.44
608.001	129.44
608.21	112.44
608.418	110.44
608.626	115.44
608.834	106.44
609.043	124.44
609.251	113.44
609.459	106.44
609.667	125.44
609.875	121.44
610.083	126.44
610.291	121.44
610.499	109.44
610.707	100.44
610.916	113.44
611.124	89.44
611.332	114.44
611.54	106.44
611.748	114.44
611.955	122.44
612.163	126.44
612.371	121.44
612.579	126.44
612.787	115.44
612.995	102.44
613.203	96.44
613.411	109.44
613.618	107.44
613.826	107.44
614.034	113.44
614.242	124.44
614.449	118.44
614.657	121.44
614.865	119.44
615.072	105.44
615.28	110.44
615.488	109.44
615.695	115.44
615.903	103.44
616.111	114.44
616.318	120.44
616.526	110.44
616.733	126.44
616.941	102.44
617.148	106.44
617.356	115.44
617.563	104.44
617.771	104.44
617.978	112.44
618.185	107.44
618.393	109.44
618.6	119.44
618.807	119.44
619.015	120.44
619.222	110.44
619.429	101.44
619.637	108.44
619.844	115.44
620.051	99.44
620.258	107.44
620.466	106.44
620.673	113.44
620.88	111.44
621.087	109.44
621.294	108.44
621.501	103.44
621.708	102.44
621.915	113.44
622.122	114.44
622.329	116.44
622.536	114.44
622.743	111.44
622.95	109.44
623.157	122.44
623.364	101.44
623.571	109.44
623.778	101.44
623.985	116.44
624.192	100.44
624.399	98.44
624.606	115.44
624.812	122.44
625.019	109.44
625.226	100.44
625.433	106.44
625.639	90.44
625.846	95.44
626.053	94.44
626.259	100.44
626.466	96.44
626.673	106.44
626.879	104.44
627.086	103.44
627.293	91.44
627.499	102.44
627.706	107.44
627.912	103.44
628.119	105.44
628.325	117.44
628.532	101.44
628.738	112.44
628.945	114.44
629.151	104.44
629.357	100.44
629.564	85.44
629.77	101.44
629.976	108.44
630.183	95.44
630.389	96.44
630.595	84.44
630.802	108.44
631.008	108.44
631.214	109.44
631.42	85.44
631.627	113.44
631.833	117.44
632.039	92.44
632.245	106.44
632.451	96.44
632.657	106.44
632.863	92.44
633.069	107.44
633.275	106.44
633.481	79.44
633.688	112.44
633.893	105.44
634.099	102.44
634.305	105.44
634.511	103.44
634.717	105.44
634.923	93.44
635.129	105.44
635.335	105.44
635.541	96.44
635.747	114.44
635.952	92.44
636.158	101.44
636.364	97.44
636.57	107.44
636.775	108.44
636.981	116.44
637.187	102.44
637.392	86.44
637.598	121.44
637.804	114.44
638.009	99.44
638.215	105.44
638.421	92.44
638.626	115.44
638.832	110.44
639.037	102.44
639.243	112.44
639.448	97.44
639.654	115.44
639.859	81.44
640.065	99.44
640.27	116.44
640.475	93.44
640.681	98.44
640.886	100.44
641.091	85.44
641.297	103.44
641.502	100.44
641.707	97.44
641.913	100.44
642.118	107.44
642.323	117.44
642.528	98.44
642.733	115.44
642.939	104.44
643.144	92.44
643.349	79.44
643.554	109.44
643.759	95.44
643.964	96.44
644.169	102.44
644.374	97.44
644.579	103.44
644.784	104.44
644.989	103.44
645.194	95.44
645.399	102.44
645.604	93.44
645.809	107.44
646.014	112.44
646.219	100.44
646.423	102.44
646.628	98.44
646.833	109.44
647.038	107.44
647.243	104.44
647.447	99.44
647.652	106.44
647.857	105.44
648.062	98.44
648.266	99.44
648.471	106.44
648.676	103.44
648.88	92.44
649.085	105.44
649.289	106.44
649.494	114.44
649.698	102.44
649.903	100.44
650.107	91.44
650.312	98.44
650.516	95.44
650.721	100.44
650.925	117.44
651.13	92.44
651.334	112.44
651.539	108.44
651.743	106.44
651.947	93.44
652.152	92.44
652.356	98.44
652.56	84.44
652.764	88.44
652.969	79.44
653.173	94.44
653.377	93.44
653.581	96.44
653.785	96.44
653.99	102.44
654.194	104.44
654.398	100.44
654.602	93.44
654.806	97.44
655.01	91.44
655.214	114.44
655.418	92.44
655.622	96.44
655.826	91.44
656.03	85.44
656.234	88.44
656.438	101.44
656.642	76.44
656.846	95.44
657.049	85.44
657.253	91.44
657.457	94.44
657.661	83.44
657.865	95.44
658.068	80.44
658.272	88.44
658.476	79.44
658.68	86.44
658.883	97.44
659.087	98.44
659.291	94.44
659.494	82.44
659.698	85.44
659.901	94.44
660.105	101.44
660.309	92.44
660.512	94.44
660.716	79.44
660.919	99.44
661.123	92.44
661.326	95.44
661.53	88.44
661.733	89.44
661.936	90.44
662.14	98.44
662.343	87.44
662.546	84.44
662.75	82.44
662.953	90.44
663.156	83.44
663.36	77.44
663.563	91.44
663.766	78.44
663.969	81.44
664.173	94.44
664.376	90.44
664.579	91.44
664.782	92.44
664.985	84.44
665.188	89.44
665.391	75.44
665.594	86.44
665.797	88.44
666	88.44
666.203	88.44
666.406	75.44
666.609	74.44
666.812	84.44
667.015	79.44
667.218	75.44
667.421	84.44
667.624	72.44
667.827	77.44
668.03	83.44
668.232	71.44
668.435	88.44
668.638	67.44
668.841	103.44
669.043	90.44
669.246	77.44
669.449	76.44
669.651	94.44
669.854	77.44
670.057	85.44
670.259	78.44
670.462	95.44
670.665	78.44
670.867	78.44
671.07	80.44
671.272	88.44
671.475	104.44
671.677	78.44
671.88	95.44
672.082	79.44
672.284	82.44
672.487	83.44
672.689	94.44
672.892	88.44
