Data from Location4.07152019.Energy5.Lamp.07192019.3%Agarose_HRD10591_16-20-40-927.txt Node
Date: Fri Jul 19 16:20:40 EDT 2019
User: cochatt
Spectrometer: HR+D1059
Trigger mode: 1
Integration Time (sec): 1.000000E-1
Scans to average: 1
Electric dark correction enabled: true
Nonlinearity correction enabled: false
Boxcar width: 0
XAxis mode: Wavelengths
Number of Pixels in Spectrum: 2048
>>>>>Begin Spectral Data<<<<<
223.165	-6.38
223.4	-6.38
223.635	-6.38
223.869	-11.38
224.104	-17.38
224.338	-16.38
224.573	-10.38
224.808	-12.38
225.042	-8.38
225.277	-21.38
225.511	-6.38
225.746	10.62
225.98	-2.38
226.215	7.62
226.449	32.62
226.683	12.62
226.918	26.62
227.152	22.62
227.387	33.62
227.621	57.62
227.856	37.62
228.09	40.62
228.324	41.62
228.559	50.62
228.793	68.62
229.027	62.62
229.262	75.62
229.496	67.62
229.73	69.62
229.964	72.62
230.199	82.62
230.433	82.62
230.667	75.62
230.901	78.62
231.136	89.62
231.37	87.62
231.604	83.62
231.838	84.62
232.072	87.62
232.306	69.62
232.541	85.62
232.775	79.62
233.009	86.62
233.243	73.62
233.477	84.62
233.711	93.62
233.945	69.62
234.179	96.62
234.413	80.62
234.647	85.62
234.881	93.62
235.115	67.62
235.349	83.62
235.583	88.62
235.817	84.62
236.051	93.62
236.285	85.62
236.519	77.62
236.753	86.62
236.987	70.62
237.221	90.62
237.455	97.62
237.689	73.62
237.922	74.62
238.156	83.62
238.39	82.62
238.624	85.62
238.858	73.62
239.091	74.62
239.325	80.62
239.559	68.62
239.793	75.62
240.027	92.62
240.26	73.62
240.494	84.62
240.728	62.62
240.961	85.62
241.195	70.62
241.429	78.62
241.662	82.62
241.896	79.62
242.13	80.62
242.363	74.62
242.597	87.62
242.83	77.62
243.064	86.62
243.298	89.62
243.531	83.62
243.765	79.62
243.998	72.62
244.232	93.62
244.465	86.62
244.699	87.62
244.932	75.62
245.166	85.62
245.399	78.62
245.633	83.62
245.866	66.62
246.099	79.62
246.333	82.62
246.566	89.62
246.8	76.62
247.033	88.62
247.266	74.62
247.5	85.62
247.733	76.62
247.966	78.62
248.2	83.62
248.433	81.62
248.666	70.62
248.899	80.62
249.133	85.62
249.366	79.62
249.599	82.62
249.832	87.62
250.066	87.62
250.299	75.62
250.532	80.62
250.765	73.62
250.998	81.62
251.231	78.62
251.465	80.62
251.698	76.62
251.931	77.62
252.164	79.62
252.397	79.62
252.63	64.62
252.863	80.62
253.096	66.62
253.329	87.62
253.562	75.62
253.795	82.62
254.028	84.62
254.261	83.62
254.494	87.62
254.727	89.62
254.96	93.62
255.193	89.62
255.426	74.62
255.659	72.62
255.892	81.62
256.124	73.62
256.357	84.62
256.59	80.62
256.823	83.62
257.056	80.62
257.289	80.62
257.521	104.62
257.754	91.62
257.987	79.62
258.22	77.62
258.452	80.62
258.685	73.62
258.918	78.62
259.151	77.62
259.383	74.62
259.616	84.62
259.849	77.62
260.081	88.62
260.314	77.62
260.547	84.62
260.779	76.62
261.012	74.62
261.244	78.62
261.477	83.62
261.71	87.62
261.942	75.62
262.175	77.62
262.407	77.62
262.64	76.62
262.872	83.62
263.105	88.62
263.337	89.62
263.57	80.62
263.802	68.62
264.035	77.62
264.267	90.62
264.499	73.62
264.732	68.62
264.964	81.62
265.197	83.62
265.429	84.62
265.661	80.62
265.894	74.62
266.126	91.62
266.358	83.62
266.591	81.62
266.823	90.62
267.055	84.62
267.287	78.62
267.52	89.62
267.752	75.62
267.984	78.62
268.216	83.62
268.448	87.62
268.681	76.62
268.913	76.62
269.145	81.62
269.377	88.62
269.609	89.62
269.841	75.62
270.073	70.62
270.306	89.62
270.538	81.62
270.77	78.62
271.002	100.62
271.234	81.62
271.466	88.62
271.698	91.62
271.93	75.62
272.162	89.62
272.394	85.62
272.626	83.62
272.858	91.62
273.09	81.62
273.322	84.62
273.553	81.62
273.785	82.62
274.017	82.62
274.249	85.62
274.481	79.62
274.713	90.62
274.945	97.62
275.176	67.62
275.408	85.62
275.64	79.62
275.872	85.62
276.104	89.62
276.335	76.62
276.567	94.62
276.799	95.62
277.031	79.62
277.262	70.62
277.494	88.62
277.726	86.62
277.957	62.62
278.189	74.62
278.421	76.62
278.652	89.62
278.884	81.62
279.115	65.62
279.347	70.62
279.579	96.62
279.81	76.62
280.042	83.62
280.273	85.62
280.505	67.62
280.736	77.62
280.968	89.62
281.199	86.62
281.431	83.62
281.662	87.62
281.894	75.62
282.125	90.62
282.356	91.62
282.588	98.62
282.819	84.62
283.051	92.62
283.282	82.62
283.513	106.62
283.745	93.62
283.976	92.62
284.207	85.62
284.439	86.62
284.67	102.62
284.901	97.62
285.132	92.62
285.364	69.62
285.595	79.62
285.826	71.62
286.057	86.62
286.288	87.62
286.52	102.62
286.751	71.62
286.982	88.62
287.213	86.62
287.444	83.62
287.675	78.62
287.906	85.62
288.138	81.62
288.369	87.62
288.6	81.62
288.831	82.62
289.062	86.62
289.293	82.62
289.524	91.62
289.755	78.62
289.986	93.62
290.217	80.62
290.448	82.62
290.679	82.62
290.91	87.62
291.141	85.62
291.371	82.62
291.602	79.62
291.833	85.62
292.064	89.62
292.295	86.62
292.526	77.62
292.757	78.62
292.987	79.62
293.218	99.62
293.449	86.62
293.68	78.62
293.91	84.62
294.141	86.62
294.372	79.62
294.603	85.62
294.833	82.62
295.064	83.62
295.295	79.62
295.525	78.62
295.756	71.62
295.987	87.62
296.217	84.62
296.448	80.62
296.679	78.62
296.909	86.62
297.14	91.62
297.37	83.62
297.601	73.62
297.831	71.62
298.062	85.62
298.292	86.62
298.523	77.62
298.753	83.62
298.984	86.62
299.214	101.62
299.445	93.62
299.675	79.62
299.905	93.62
300.136	84.62
300.366	58.62
300.597	89.62
300.827	85.62
301.057	83.62
301.288	91.62
301.518	84.62
301.748	98.62
301.979	87.62
302.209	88.62
302.439	92.62
302.669	86.62
302.9	79.62
303.13	83.62
303.36	85.62
303.59	87.62
303.82	75.62
304.051	87.62
304.281	101.62
304.511	91.62
304.741	85.62
304.971	83.62
305.201	78.62
305.431	89.62
305.661	88.62
305.891	84.62
306.121	80.62
306.352	77.62
306.582	80.62
306.812	95.62
307.042	93.62
307.272	92.62
307.502	90.62
307.731	81.62
307.961	88.62
308.191	87.62
308.421	83.62
308.651	88.62
308.881	87.62
309.111	75.62
309.341	77.62
309.571	74.62
309.8	93.62
310.03	83.62
310.26	76.62
310.49	90.62
310.72	93.62
310.949	94.62
311.179	89.62
311.409	92.62
311.639	78.62
311.868	74.62
312.098	89.62
312.328	72.62
312.557	88.62
312.787	80.62
313.017	93.62
313.246	76.62
313.476	75.62
313.706	90.62
313.935	75.62
314.165	88.62
314.394	81.62
314.624	83.62
314.853	76.62
315.083	75.62
315.312	78.62
315.542	86.62
315.771	94.62
316.001	82.62
316.23	78.62
316.46	86.62
316.689	77.62
316.919	79.62
317.148	86.62
317.377	82.62
317.607	79.62
317.836	79.62
318.065	93.62
318.295	90.62
318.524	86.62
318.753	78.62
318.983	77.62
319.212	83.62
319.441	75.62
319.67	82.62
319.9	83.62
320.129	99.62
320.358	83.62
320.587	95.62
320.816	81.62
321.046	89.62
321.275	98.62
321.504	76.62
321.733	65.62
321.962	93.62
322.191	79.62
322.42	82.62
322.649	88.62
322.878	79.62
323.108	98.62
323.337	82.62
323.566	100.62
323.795	85.62
324.024	75.62
324.253	74.62
324.482	76.62
324.71	68.62
324.939	93.62
325.168	88.62
325.397	76.62
325.626	82.62
325.855	91.62
326.084	96.62
326.313	88.62
326.542	76.62
326.77	83.62
326.999	83.62
327.228	87.62
327.457	92.62
327.686	89.62
327.914	89.62
328.143	77.62
328.372	69.62
328.6	76.62
328.829	79.62
329.058	82.62
329.287	77.62
329.515	71.62
329.744	82.62
329.972	75.62
330.201	86.62
330.43	86.62
330.658	84.62
330.887	85.62
331.115	71.62
331.344	96.62
331.572	96.62
331.801	86.62
332.03	86.62
332.258	87.62
332.486	86.62
332.715	84.62
332.943	80.62
333.172	89.62
333.4	85.62
333.629	92.62
333.857	89.62
334.085	93.62
334.314	78.62
334.542	84.62
334.771	79.62
334.999	75.62
335.227	90.62
335.455	109.62
335.684	85.62
335.912	82.62
336.14	79.62
336.369	87.62
336.597	86.62
336.825	94.62
337.053	78.62
337.281	87.62
337.51	74.62
337.738	89.62
337.966	84.62
338.194	82.62
338.422	76.62
338.65	90.62
338.878	98.62
339.106	94.62
339.334	93.62
339.562	83.62
339.79	82.62
340.018	82.62
340.246	90.62
340.474	86.62
340.702	90.62
340.93	87.62
341.158	93.62
341.386	86.62
341.614	85.62
341.842	73.62
342.07	74.62
342.298	89.62
342.526	90.62
342.754	85.62
342.981	92.62
343.209	74.62
343.437	85.62
343.665	91.62
343.893	66.62
344.12	98.62
344.348	95.62
344.576	85.62
344.804	96.62
345.031	84.62
345.259	74.62
345.487	77.62
345.714	82.62
345.942	80.62
346.17	84.62
346.397	86.62
346.625	86.62
346.853	84.62
347.08	83.62
347.308	87.62
347.535	94.62
347.763	88.62
347.99	86.62
348.218	100.62
348.445	78.62
348.673	93.62
348.9	91.62
349.128	85.62
349.355	89.62
349.583	81.62
349.81	74.62
350.037	73.62
350.265	86.62
350.492	78.62
350.72	75.62
350.947	73.62
351.174	84.62
351.402	81.62
351.629	77.62
351.856	91.62
352.083	82.62
352.311	89.62
352.538	87.62
352.765	87.62
352.992	75.62
353.22	83.62
353.447	83.62
353.674	97.62
353.901	90.62
354.128	73.62
354.355	80.62
354.583	85.62
354.81	85.62
355.037	74.62
355.264	71.62
355.491	91.62
355.718	89.62
355.945	79.62
356.172	81.62
356.399	86.62
356.626	85.62
356.853	90.62
357.08	88.62
357.307	87.62
357.534	86.62
357.761	92.62
357.988	89.62
358.215	90.62
358.441	77.62
358.668	83.62
358.895	79.62
359.122	73.62
359.349	86.62
359.576	93.62
359.802	87.62
360.029	83.62
360.256	87.62
360.483	90.62
360.709	84.62
360.936	90.62
361.163	92.62
361.39	78.62
361.616	87.62
361.843	88.62
362.07	84.62
362.296	85.62
362.523	91.62
362.749	90.62
362.976	92.62
363.203	87.62
363.429	89.62
363.656	83.62
363.882	89.62
364.109	82.62
364.335	79.62
364.562	93.62
364.788	101.62
365.015	87.62
365.241	85.62
365.468	86.62
365.694	89.62
365.92	92.62
366.147	87.62
366.373	85.62
366.599	84.62
366.826	88.62
367.052	107.62
367.278	81.62
367.505	87.62
367.731	101.62
367.957	83.62
368.184	86.62
368.41	90.62
368.636	81.62
368.862	92.62
369.089	96.62
369.315	103.62
369.541	96.62
369.767	77.62
369.993	92.62
370.219	91.62
370.445	100.62
370.672	84.62
370.898	89.62
371.124	92.62
371.35	85.62
371.576	101.62
371.802	94.62
372.028	89.62
372.254	101.62
372.48	96.62
372.706	94.62
372.932	91.62
373.158	100.62
373.384	94.62
373.61	98.62
373.835	83.62
374.061	105.62
374.287	92.62
374.513	84.62
374.739	95.62
374.965	100.62
375.191	98.62
375.416	98.62
375.642	97.62
375.868	90.62
376.094	93.62
376.319	91.62
376.545	81.62
376.771	107.62
376.997	97.62
377.222	91.62
377.448	96.62
377.674	92.62
377.899	83.62
378.125	83.62
378.35	92.62
378.576	99.62
378.802	90.62
379.027	99.62
379.253	93.62
379.478	103.62
379.704	99.62
379.929	95.62
380.155	90.62
380.38	83.62
380.606	102.62
380.831	116.62
381.057	101.62
381.282	99.62
381.507	99.62
381.733	90.62
381.958	89.62
382.184	83.62
382.409	103.62
382.634	93.62
382.86	89.62
383.085	86.62
383.31	103.62
383.535	94.62
383.761	105.62
383.986	90.62
384.211	99.62
384.436	92.62
384.662	87.62
384.887	97.62
385.112	94.62
385.337	99.62
385.562	104.62
385.787	101.62
386.013	119.62
386.238	100.62
386.463	93.62
386.688	94.62
386.913	108.62
387.138	112.62
387.363	121.62
387.588	92.62
387.813	89.62
388.038	98.62
388.263	103.62
388.488	96.62
388.713	102.62
388.938	107.62
389.163	106.62
389.387	94.62
389.612	100.62
389.837	110.62
390.062	99.62
390.287	125.62
390.512	85.62
390.736	105.62
390.961	103.62
391.186	97.62
391.411	109.62
391.636	98.62
391.86	113.62
392.085	93.62
392.31	87.62
392.534	98.62
392.759	103.62
392.984	121.62
393.208	108.62
393.433	104.62
393.658	119.62
393.882	105.62
394.107	121.62
394.331	109.62
394.556	105.62
394.78	105.62
395.005	111.62
395.229	106.62
395.454	106.62
395.678	102.62
395.903	112.62
396.127	107.62
396.352	102.62
396.576	112.62
396.801	93.62
397.025	89.62
397.249	122.62
397.474	99.62
397.698	120.62
397.922	105.62
398.147	102.62
398.371	106.62
398.595	96.62
398.82	117.62
399.044	120.62
399.268	103.62
399.492	94.62
399.717	104.62
399.941	111.62
400.165	113.62
400.389	114.62
400.613	103.62
400.837	119.62
401.062	109.62
401.286	110.62
401.51	107.62
401.734	126.62
401.958	121.62
402.182	109.62
402.406	106.62
402.63	111.62
402.854	103.62
403.078	120.62
403.302	117.62
403.526	102.62
403.75	106.62
403.974	109.62
404.198	113.62
404.422	119.62
404.645	115.62
404.869	120.62
405.093	97.62
405.317	109.62
405.541	122.62
405.765	113.62
405.988	116.62
406.212	118.62
406.436	117.62
406.66	122.62
406.883	113.62
407.107	123.62
407.331	114.62
407.555	132.62
407.778	115.62
408.002	122.62
408.226	119.62
408.449	123.62
408.673	120.62
408.896	126.62
409.12	114.62
409.344	113.62
409.567	126.62
409.791	121.62
410.014	108.62
410.238	137.62
410.461	127.62
410.685	137.62
410.908	139.62
411.132	134.62
411.355	131.62
411.578	127.62
411.802	125.62
412.025	132.62
412.249	118.62
412.472	126.62
412.695	110.62
412.919	127.62
413.142	124.62
413.365	116.62
413.589	124.62
413.812	127.62
414.035	120.62
414.258	131.62
414.482	113.62
414.705	107.62
414.928	119.62
415.151	121.62
415.374	123.62
415.597	123.62
415.821	119.62
416.044	125.62
416.267	103.62
416.49	115.62
416.713	138.62
416.936	114.62
417.159	117.62
417.382	125.62
417.605	128.62
417.828	134.62
418.051	127.62
418.274	130.62
418.497	133.62
418.72	133.62
418.943	145.62
419.166	133.62
419.389	129.62
419.611	130.62
419.834	125.62
420.057	133.62
420.28	122.62
420.503	141.62
420.726	127.62
420.948	126.62
421.171	122.62
421.394	113.62
421.617	118.62
421.839	145.62
422.062	149.62
422.285	134.62
422.507	134.62
422.73	121.62
422.953	142.62
423.175	129.62
423.398	115.62
423.621	148.62
423.843	130.62
424.066	131.62
424.288	133.62
424.511	141.62
424.733	132.62
424.956	132.62
425.178	154.62
425.401	129.62
425.623	137.62
425.846	135.62
426.068	124.62
426.291	125.62
426.513	118.62
426.735	122.62
426.958	117.62
427.18	124.62
427.402	117.62
427.625	138.62
427.847	119.62
428.069	121.62
428.292	127.62
428.514	137.62
428.736	122.62
428.958	133.62
429.181	117.62
429.403	119.62
429.625	126.62
429.847	132.62
430.069	142.62
430.292	135.62
430.514	129.62
430.736	132.62
430.958	127.62
431.18	124.62
431.402	107.62
431.624	113.62
431.846	109.62
432.068	101.62
432.29	100.62
432.512	117.62
432.734	114.62
432.956	101.62
433.178	122.62
433.4	129.62
433.622	141.62
433.844	129.62
434.066	125.62
434.287	114.62
434.509	96.62
434.731	101.62
434.953	108.62
435.175	116.62
435.397	120.62
435.618	126.62
435.84	115.62
436.062	120.62
436.284	122.62
436.505	125.62
436.727	109.62
436.949	129.62
437.17	120.62
437.392	127.62
437.614	122.62
437.835	108.62
438.057	119.62
438.278	121.62
438.5	115.62
438.721	137.62
438.943	137.62
439.165	124.62
439.386	123.62
439.608	123.62
439.829	149.62
440.05	141.62
440.272	157.62
440.493	143.62
440.715	145.62
440.936	140.62
441.158	139.62
441.379	151.62
441.6	142.62
441.822	137.62
442.043	154.62
442.264	135.62
442.486	151.62
442.707	148.62
442.928	140.62
443.149	133.62
443.371	120.62
443.592	122.62
443.813	125.62
444.034	139.62
444.255	134.62
444.476	141.62
444.698	161.62
444.919	126.62
445.14	279.62
445.361	182.62
445.582	131.62
445.803	148.62
446.024	150.62
446.245	150.62
446.466	159.62
446.687	149.62
446.908	159.62
447.129	153.62
447.35	156.62
447.571	149.62
447.792	164.62
448.013	126.62
448.234	148.62
448.455	151.62
448.675	148.62
448.896	152.62
449.117	126.62
449.338	134.62
449.559	142.62
449.779	128.62
450	133.62
450.221	136.62
450.442	143.62
450.662	131.62
450.883	144.62
451.104	155.62
451.324	131.62
451.545	123.62
451.766	121.62
451.986	127.62
452.207	133.62
452.428	126.62
452.648	129.62
452.869	131.62
453.089	128.62
453.31	128.62
453.53	122.62
453.751	103.62
453.971	99.62
454.192	102.62
454.412	94.62
454.633	117.62
454.853	129.62
455.073	123.62
455.294	122.62
455.514	116.62
455.734	112.62
455.955	121.62
456.175	127.62
456.395	112.62
456.616	117.62
456.836	101.62
457.056	108.62
457.276	105.62
457.497	107.62
457.717	118.62
457.937	115.62
458.157	107.62
458.377	108.62
458.598	105.62
458.818	95.62
459.038	94.62
459.258	85.62
459.478	94.62
459.698	80.62
459.918	92.62
460.138	101.62
460.358	121.62
460.578	127.62
460.798	120.62
461.018	112.62
461.238	114.62
461.458	123.62
461.678	109.62
461.898	108.62
462.118	108.62
462.338	112.62
462.558	127.62
462.777	111.62
462.997	105.62
463.217	109.62
463.437	108.62
463.657	110.62
463.876	99.62
464.096	114.62
464.316	102.62
464.536	103.62
464.755	126.62
464.975	121.62
465.195	124.62
465.414	122.62
465.634	122.62
465.854	110.62
466.073	123.62
466.293	118.62
466.512	121.62
466.732	129.62
466.951	122.62
467.171	127.62
467.391	132.62
467.61	129.62
467.829	133.62
468.049	132.62
468.268	133.62
468.488	130.62
468.707	139.62
468.927	151.62
469.146	135.62
469.365	143.62
469.585	133.62
469.804	140.62
470.023	142.62
470.243	148.62
470.462	143.62
470.681	147.62
470.901	150.62
471.12	147.62
471.339	147.62
471.558	145.62
471.777	149.62
471.997	117.62
472.216	115.62
472.435	121.62
472.654	112.62
472.873	115.62
473.092	129.62
473.311	115.62
473.53	128.62
473.749	140.62
473.968	133.62
474.187	117.62
474.406	123.62
474.625	122.62
474.844	146.62
475.063	143.62
475.282	143.62
475.501	118.62
475.72	127.62
475.939	133.62
476.158	135.62
476.377	138.62
476.596	127.62
476.814	115.62
477.033	99.62
477.252	111.62
477.471	129.62
477.69	129.62
477.908	142.62
478.127	133.62
478.346	125.62
478.564	124.62
478.783	150.62
479.002	133.62
479.22	136.62
479.439	138.62
479.658	126.62
479.876	133.62
480.095	102.62
480.313	116.62
480.532	117.62
480.751	120.62
480.969	87.62
481.188	100.62
481.406	98.62
481.624	87.62
481.843	83.62
482.061	104.62
482.28	110.62
482.498	115.62
482.717	119.62
482.935	122.62
483.153	139.62
483.372	155.62
483.59	143.62
483.808	129.62
484.027	125.62
484.245	143.62
484.463	142.62
484.681	157.62
484.9	143.62
485.118	140.62
485.336	125.62
485.554	93.62
485.772	105.62
485.99	110.62
486.209	108.62
486.427	113.62
486.645	113.62
486.863	124.62
487.081	124.62
487.299	131.62
487.517	143.62
487.735	151.62
487.953	187.62
488.171	178.62
488.389	166.62
488.607	154.62
488.825	139.62
489.043	145.62
489.261	153.62
489.479	139.62
489.696	133.62
489.914	127.62
490.132	143.62
490.35	155.62
490.568	163.62
490.786	167.62
491.003	178.62
491.221	164.62
491.439	181.62
491.657	178.62
491.874	198.62
492.092	217.62
492.31	238.62
492.527	232.62
492.745	213.62
492.963	182.62
493.18	203.62
493.398	191.62
493.615	176.62
493.833	162.62
494.05	166.62
494.268	174.62
494.485	184.62
494.703	179.62
494.92	166.62
495.138	181.62
495.355	165.62
495.573	163.62
495.79	146.62
496.008	150.62
496.225	177.62
496.442	181.62
496.66	167.62
496.877	175.62
497.094	157.62
497.312	166.62
497.529	158.62
497.746	156.62
497.963	134.62
498.181	127.62
498.398	120.62
498.615	130.62
498.832	122.62
499.049	111.62
499.267	119.62
499.484	130.62
499.701	128.62
499.918	138.62
500.135	119.62
500.352	152.62
500.569	147.62
500.786	137.62
501.003	147.62
501.22	139.62
501.437	144.62
501.654	129.62
501.871	147.62
502.088	125.62
502.305	138.62
502.522	127.62
502.739	131.62
502.956	129.62
503.172	124.62
503.389	127.62
503.606	131.62
503.823	131.62
504.04	129.62
504.256	127.62
504.473	131.62
504.69	119.62
504.907	120.62
505.123	125.62
505.34	112.62
505.557	122.62
505.773	125.62
505.99	124.62
506.207	132.62
506.423	122.62
506.64	108.62
506.856	127.62
507.073	105.62
507.289	121.62
507.506	117.62
507.722	104.62
507.939	131.62
508.155	123.62
508.372	132.62
508.588	113.62
508.805	115.62
509.021	114.62
509.238	100.62
509.454	83.62
509.67	94.62
509.887	110.62
510.103	99.62
510.319	94.62
510.536	107.62
510.752	79.62
510.968	83.62
511.184	82.62
511.401	96.62
511.617	91.62
511.833	85.62
512.049	102.62
512.265	101.62
512.481	96.62
512.698	91.62
512.914	97.62
513.13	102.62
513.346	95.62
513.562	99.62
513.778	90.62
513.994	79.62
514.21	94.62
514.426	88.62
514.642	93.62
514.858	99.62
515.074	92.62
515.29	95.62
515.506	92.62
515.721	80.62
515.937	100.62
516.153	94.62
516.369	86.62
516.585	104.62
516.801	78.62
517.016	88.62
517.232	93.62
517.448	90.62
517.664	110.62
517.879	103.62
518.095	97.62
518.311	91.62
518.527	105.62
518.742	120.62
518.958	97.62
519.173	117.62
519.389	123.62
519.605	122.62
519.82	100.62
520.036	112.62
520.251	102.62
520.467	101.62
520.682	107.62
520.898	109.62
521.113	96.62
521.329	92.62
521.544	90.62
521.76	100.62
521.975	102.62
522.19	104.62
522.406	101.62
522.621	105.62
522.836	113.62
523.052	107.62
523.267	112.62
523.482	108.62
523.698	111.62
523.913	111.62
524.128	116.62
524.343	123.62
524.559	106.62
524.774	129.62
524.989	117.62
525.204	112.62
525.419	115.62
525.634	118.62
525.849	109.62
526.064	113.62
526.28	111.62
526.495	97.62
526.71	97.62
526.925	90.62
527.14	85.62
527.355	96.62
527.57	88.62
527.785	93.62
527.999	86.62
528.214	94.62
528.429	106.62
528.644	127.62
528.859	126.62
529.074	144.62
529.289	163.62
529.503	154.62
529.718	135.62
529.933	135.62
530.148	115.62
530.363	94.62
530.577	77.62
530.792	80.62
531.007	86.62
531.221	97.62
531.436	92.62
531.651	88.62
531.865	82.62
532.08	78.62
532.295	82.62
532.509	91.62
532.724	85.62
532.938	86.62
533.153	92.62
533.367	110.62
533.582	127.62
533.796	130.62
534.011	108.62
534.225	99.62
534.44	94.62
534.654	94.62
534.868	87.62
535.083	106.62
535.297	103.62
535.511	104.62
535.726	97.62
535.94	114.62
536.154	107.62
536.369	93.62
536.583	92.62
536.797	97.62
537.011	89.62
537.225	87.62
537.44	93.62
537.654	106.62
537.868	89.62
538.082	103.62
538.296	100.62
538.51	91.62
538.724	124.62
538.938	118.62
539.153	131.62
539.367	118.62
539.581	124.62
539.795	101.62
540.009	99.62
540.222	95.62
540.436	115.62
540.65	115.62
540.864	126.62
541.078	135.62
541.292	156.62
541.506	147.62
541.72	179.62
541.934	174.62
542.147	181.62
542.361	181.62
542.575	177.62
542.789	141.62
543.002	123.62
543.216	129.62
543.43	129.62
543.644	131.62
543.857	140.62
544.071	147.62
544.285	158.62
544.498	159.62
544.712	164.62
544.925	154.62
545.139	162.62
545.352	140.62
545.566	173.62
545.779	167.62
545.993	167.62
546.206	162.62
546.42	150.62
546.633	159.62
546.847	158.62
547.06	163.62
547.274	174.62
547.487	167.62
547.7	158.62
547.914	169.62
548.127	169.62
548.34	163.62
548.554	152.62
548.767	152.62
548.98	145.62
549.193	149.62
549.407	144.62
549.62	143.62
549.833	159.62
550.046	146.62
550.259	145.62
550.473	135.62
550.686	157.62
550.899	143.62
551.112	155.62
551.325	126.62
551.538	136.62
551.751	132.62
551.964	125.62
552.177	134.62
552.39	142.62
552.603	159.62
552.816	153.62
553.029	151.62
553.242	146.62
553.455	158.62
553.667	169.62
553.88	142.62
554.093	144.62
554.306	154.62
554.519	153.62
554.732	152.62
554.944	154.62
555.157	140.62
555.37	138.62
555.583	149.62
555.795	133.62
556.008	131.62
556.221	135.62
556.433	141.62
556.646	131.62
556.859	150.62
557.071	133.62
557.284	151.62
557.496	140.62
557.709	137.62
557.921	131.62
558.134	128.62
558.346	143.62
558.559	142.62
558.771	137.62
558.984	137.62
559.196	136.62
559.409	137.62
559.621	125.62
559.833	140.62
560.046	130.62
560.258	126.62
560.47	135.62
560.683	128.62
560.895	135.62
561.107	133.62
561.32	116.62
561.532	126.62
561.744	143.62
561.956	120.62
562.168	131.62
562.381	122.62
562.593	137.62
562.805	117.62
563.017	127.62
563.229	138.62
563.441	133.62
563.653	123.62
563.865	119.62
564.077	130.62
564.289	111.62
564.501	126.62
564.713	107.62
564.925	122.62
565.137	111.62
565.349	121.62
565.561	121.62
565.773	114.62
565.985	125.62
566.197	114.62
566.408	115.62
566.62	107.62
566.832	113.62
567.044	106.62
567.255	122.62
567.467	123.62
567.679	109.62
567.891	108.62
568.102	101.62
568.314	105.62
568.526	90.62
568.737	76.62
568.949	79.62
569.161	76.62
569.372	91.62
569.584	89.62
569.795	79.62
570.007	100.62
570.218	99.62
570.43	94.62
570.641	103.62
570.853	86.62
571.064	106.62
571.276	110.62
571.487	112.62
571.698	100.62
571.91	110.62
572.121	114.62
572.333	100.62
572.544	100.62
572.755	89.62
572.966	94.62
573.178	86.62
573.389	92.62
573.6	81.62
573.811	104.62
574.023	87.62
574.234	83.62
574.445	82.62
574.656	89.62
574.867	91.62
575.078	107.62
575.289	98.62
575.501	100.62
575.712	98.62
575.923	101.62
576.134	90.62
576.345	100.62
576.556	92.62
576.767	95.62
576.978	97.62
577.188	80.62
577.399	88.62
577.61	115.62
577.821	81.62
578.032	90.62
578.243	87.62
578.454	90.62
578.665	101.62
578.875	77.62
579.086	81.62
579.297	95.62
579.508	89.62
579.718	73.62
579.929	91.62
580.14	86.62
580.35	82.62
580.561	91.62
580.772	92.62
580.982	92.62
581.193	85.62
581.403	92.62
581.614	111.62
581.825	97.62
582.035	84.62
582.246	96.62
582.456	84.62
582.667	85.62
582.877	97.62
583.087	89.62
583.298	103.62
583.508	83.62
583.719	90.62
583.929	84.62
584.139	85.62
584.35	91.62
584.56	92.62
584.77	86.62
584.981	89.62
585.191	93.62
585.401	95.62
585.611	96.62
585.821	79.62
586.032	88.62
586.242	87.62
586.452	88.62
586.662	79.62
586.872	74.62
587.082	80.62
587.292	88.62
587.502	83.62
587.713	92.62
587.923	85.62
588.133	95.62
588.343	87.62
588.553	71.62
588.762	78.62
588.972	90.62
589.182	84.62
589.392	86.62
589.602	95.62
589.812	90.62
590.022	86.62
590.232	90.62
590.441	82.62
590.651	76.62
590.861	83.62
591.071	86.62
591.281	85.62
591.49	79.62
591.7	80.62
591.91	91.62
592.119	108.62
592.329	93.62
592.539	78.62
592.748	82.62
592.958	93.62
593.167	95.62
593.377	90.62
593.587	86.62
593.796	83.62
594.006	82.62
594.215	90.62
594.424	93.62
594.634	89.62
594.843	91.62
595.053	94.62
595.262	98.62
595.472	93.62
595.681	97.62
595.89	94.62
596.1	91.62
596.309	108.62
596.518	99.62
596.727	91.62
596.937	103.62
597.146	103.62
597.355	104.62
597.564	94.62
597.774	90.62
597.983	84.62
598.192	82.62
598.401	91.62
598.61	83.62
598.819	77.62
599.028	97.62
599.237	109.62
599.446	82.62
599.655	93.62
599.864	103.62
600.073	81.62
600.282	90.62
600.491	90.62
600.7	98.62
600.909	90.62
601.118	95.62
601.327	105.62
601.536	107.62
601.745	108.62
601.953	102.62
602.162	110.62
602.371	113.62
602.58	107.62
602.789	100.62
602.997	116.62
603.206	109.62
603.415	107.62
603.623	111.62
603.832	114.62
604.041	110.62
604.249	102.62
604.458	108.62
604.666	97.62
604.875	104.62
605.084	109.62
605.292	108.62
605.501	122.62
605.709	119.62
605.918	107.62
606.126	103.62
606.334	121.62
606.543	104.62
606.751	103.62
606.96	97.62
607.168	107.62
607.376	101.62
607.585	100.62
607.793	117.62
608.001	108.62
608.21	118.62
608.418	102.62
608.626	104.62
608.834	102.62
609.043	115.62
609.251	115.62
609.459	97.62
609.667	109.62
609.875	127.62
610.083	119.62
610.291	109.62
610.499	115.62
610.707	113.62
610.916	119.62
611.124	110.62
611.332	117.62
611.54	119.62
611.748	110.62
611.955	109.62
612.163	119.62
612.371	111.62
612.579	110.62
612.787	115.62
612.995	114.62
613.203	117.62
613.411	114.62
613.618	92.62
613.826	125.62
614.034	122.62
614.242	115.62
614.449	100.62
614.657	112.62
614.865	119.62
615.072	104.62
615.28	117.62
615.488	99.62
615.695	104.62
615.903	111.62
616.111	106.62
616.318	119.62
616.526	101.62
616.733	116.62
616.941	102.62
617.148	111.62
617.356	101.62
617.563	123.62
617.771	117.62
617.978	102.62
618.185	110.62
618.393	100.62
618.6	108.62
618.807	95.62
619.015	118.62
619.222	133.62
619.429	108.62
619.637	110.62
619.844	91.62
620.051	105.62
620.258	108.62
620.466	110.62
620.673	108.62
620.88	107.62
621.087	104.62
621.294	95.62
621.501	126.62
621.708	108.62
621.915	101.62
622.122	100.62
622.329	102.62
622.536	102.62
622.743	123.62
622.95	118.62
623.157	95.62
623.364	103.62
623.571	124.62
623.778	106.62
623.985	101.62
624.192	110.62
624.399	119.62
624.606	109.62
624.812	90.62
625.019	108.62
625.226	102.62
625.433	107.62
625.639	98.62
625.846	108.62
626.053	106.62
626.259	95.62
626.466	112.62
626.673	98.62
626.879	88.62
627.086	104.62
627.293	100.62
627.499	108.62
627.706	110.62
627.912	110.62
628.119	93.62
628.325	97.62
628.532	103.62
628.738	99.62
628.945	101.62
629.151	109.62
629.357	103.62
629.564	109.62
629.77	98.62
629.976	116.62
630.183	103.62
630.389	113.62
630.595	107.62
630.802	109.62
631.008	103.62
631.214	99.62
631.42	98.62
631.627	108.62
631.833	122.62
632.039	103.62
632.245	95.62
632.451	102.62
632.657	108.62
632.863	118.62
633.069	100.62
633.275	96.62
633.481	89.62
633.688	114.62
633.893	101.62
634.099	89.62
634.305	104.62
634.511	88.62
634.717	100.62
634.923	86.62
635.129	86.62
635.335	79.62
635.541	86.62
635.747	93.62
635.952	105.62
636.158	112.62
636.364	91.62
636.57	103.62
636.775	113.62
636.981	94.62
637.187	95.62
637.392	98.62
637.598	105.62
637.804	110.62
638.009	99.62
638.215	95.62
638.421	93.62
638.626	98.62
638.832	103.62
639.037	107.62
639.243	85.62
639.448	116.62
639.654	101.62
639.859	87.62
640.065	96.62
640.27	115.62
640.475	125.62
640.681	87.62
640.886	104.62
641.091	102.62
641.297	113.62
641.502	91.62
641.707	103.62
641.913	102.62
642.118	93.62
642.323	94.62
642.528	108.62
642.733	105.62
642.939	101.62
643.144	94.62
643.349	97.62
643.554	97.62
643.759	117.62
643.964	91.62
644.169	102.62
644.374	110.62
644.579	87.62
644.784	100.62
644.989	101.62
645.194	103.62
645.399	105.62
645.604	107.62
645.809	93.62
646.014	89.62
646.219	87.62
646.423	96.62
646.628	99.62
646.833	99.62
647.038	110.62
647.243	93.62
647.447	99.62
647.652	107.62
647.857	104.62
648.062	94.62
648.266	92.62
648.471	110.62
648.676	101.62
648.88	85.62
649.085	89.62
649.289	92.62
649.494	105.62
649.698	99.62
649.903	92.62
650.107	99.62
650.312	105.62
650.516	100.62
650.721	85.62
650.925	96.62
651.13	95.62
651.334	97.62
651.539	97.62
651.743	93.62
651.947	102.62
652.152	102.62
652.356	90.62
652.56	99.62
652.764	98.62
652.969	81.62
653.173	99.62
653.377	83.62
653.581	90.62
653.785	93.62
653.99	94.62
654.194	84.62
654.398	89.62
654.602	99.62
654.806	92.62
655.01	91.62
655.214	97.62
655.418	103.62
655.622	90.62
655.826	91.62
656.03	100.62
656.234	84.62
656.438	86.62
656.642	97.62
656.846	92.62
657.049	96.62
657.253	85.62
657.457	89.62
657.661	78.62
657.865	73.62
658.068	91.62
658.272	99.62
658.476	82.62
658.68	84.62
658.883	87.62
659.087	72.62
659.291	89.62
659.494	94.62
659.698	83.62
659.901	83.62
660.105	88.62
660.309	86.62
660.512	88.62
660.716	91.62
660.919	78.62
661.123	85.62
661.326	90.62
661.53	82.62
661.733	87.62
661.936	89.62
662.14	87.62
662.343	88.62
662.546	86.62
662.75	86.62
662.953	92.62
663.156	83.62
663.36	79.62
663.563	89.62
663.766	75.62
663.969	95.62
664.173	87.62
664.376	87.62
664.579	82.62
664.782	92.62
664.985	79.62
665.188	82.62
665.391	70.62
665.594	76.62
665.797	89.62
666	74.62
666.203	83.62
666.406	86.62
666.609	83.62
666.812	82.62
667.015	72.62
667.218	86.62
667.421	71.62
667.624	77.62
667.827	74.62
668.03	73.62
668.232	83.62
668.435	78.62
668.638	88.62
668.841	103.62
669.043	83.62
669.246	77.62
669.449	79.62
669.651	78.62
669.854	79.62
670.057	79.62
670.259	77.62
670.462	98.62
670.665	78.62
670.867	74.62
671.07	83.62
671.272	84.62
671.475	100.62
671.677	90.62
671.88	85.62
672.082	77.62
672.284	91.62
672.487	73.62
672.689	85.62
672.892	79.62
