Data from Location4.07152019.Energy5.Lamp.07192019.3%Agarose_HRD10591_16-20-47-926.txt Node
Date: Fri Jul 19 16:20:47 EDT 2019
User: cochatt
Spectrometer: HR+D1059
Trigger mode: 1
Integration Time (sec): 1.000000E-1
Scans to average: 1
Electric dark correction enabled: true
Nonlinearity correction enabled: false
Boxcar width: 0
XAxis mode: Wavelengths
Number of Pixels in Spectrum: 2048
>>>>>Begin Spectral Data<<<<<
223.165	-12.88
223.4	-12.88
223.635	-12.88
223.869	-20.88
224.104	-22.88
224.338	-6.88
224.573	-12.88
224.808	-8.88
225.042	3.12
225.277	-9.88
225.511	-18.88
225.746	8.12
225.98	-2.88
226.215	2.12
226.449	14.12
226.683	20.12
226.918	33.12
227.152	36.12
227.387	42.12
227.621	50.12
227.856	52.12
228.09	56.12
228.324	57.12
228.559	54.12
228.793	61.12
229.027	60.12
229.262	69.12
229.496	37.12
229.73	60.12
229.964	67.12
230.199	71.12
230.433	82.12
230.667	89.12
230.901	64.12
231.136	91.12
231.37	80.12
231.604	75.12
231.838	69.12
232.072	74.12
232.306	83.12
232.541	90.12
232.775	88.12
233.009	93.12
233.243	85.12
233.477	84.12
233.711	84.12
233.945	72.12
234.179	87.12
234.413	86.12
234.647	94.12
234.881	82.12
235.115	74.12
235.349	80.12
235.583	80.12
235.817	89.12
236.051	78.12
236.285	88.12
236.519	77.12
236.753	83.12
236.987	64.12
237.221	84.12
237.455	94.12
237.689	80.12
237.922	70.12
238.156	78.12
238.39	86.12
238.624	76.12
238.858	85.12
239.091	80.12
239.325	75.12
239.559	76.12
239.793	82.12
240.027	78.12
240.26	72.12
240.494	68.12
240.728	86.12
240.961	78.12
241.195	85.12
241.429	87.12
241.662	70.12
241.896	77.12
242.13	76.12
242.363	82.12
242.597	76.12
242.83	76.12
243.064	81.12
243.298	90.12
243.531	65.12
243.765	75.12
243.998	70.12
244.232	81.12
244.465	78.12
244.699	94.12
244.932	93.12
245.166	84.12
245.399	80.12
245.633	70.12
245.866	88.12
246.099	74.12
246.333	79.12
246.566	96.12
246.8	92.12
247.033	73.12
247.266	82.12
247.5	75.12
247.733	85.12
247.966	76.12
248.2	87.12
248.433	80.12
248.666	82.12
248.899	80.12
249.133	68.12
249.366	78.12
249.599	71.12
249.832	87.12
250.066	83.12
250.299	81.12
250.532	86.12
250.765	72.12
250.998	71.12
251.231	93.12
251.465	80.12
251.698	81.12
251.931	84.12
252.164	89.12
252.397	93.12
252.63	84.12
252.863	77.12
253.096	67.12
253.329	79.12
253.562	96.12
253.795	95.12
254.028	77.12
254.261	81.12
254.494	84.12
254.727	91.12
254.96	67.12
255.193	71.12
255.426	72.12
255.659	82.12
255.892	76.12
256.124	77.12
256.357	72.12
256.59	85.12
256.823	85.12
257.056	80.12
257.289	81.12
257.521	77.12
257.754	77.12
257.987	99.12
258.22	72.12
258.452	84.12
258.685	85.12
258.918	78.12
259.151	86.12
259.383	90.12
259.616	88.12
259.849	75.12
260.081	87.12
260.314	79.12
260.547	90.12
260.779	85.12
261.012	82.12
261.244	71.12
261.477	86.12
261.71	80.12
261.942	95.12
262.175	82.12
262.407	77.12
262.64	68.12
262.872	69.12
263.105	79.12
263.337	82.12
263.57	89.12
263.802	69.12
264.035	69.12
264.267	89.12
264.499	81.12
264.732	85.12
264.964	93.12
265.197	85.12
265.429	74.12
265.661	67.12
265.894	71.12
266.126	88.12
266.358	85.12
266.591	79.12
266.823	88.12
267.055	89.12
267.287	86.12
267.52	90.12
267.752	83.12
267.984	88.12
268.216	74.12
268.448	79.12
268.681	81.12
268.913	78.12
269.145	88.12
269.377	96.12
269.609	74.12
269.841	89.12
270.073	82.12
270.306	92.12
270.538	77.12
270.77	79.12
271.002	72.12
271.234	72.12
271.466	76.12
271.698	93.12
271.93	78.12
272.162	112.12
272.394	89.12
272.626	88.12
272.858	83.12
273.09	85.12
273.322	91.12
273.553	82.12
273.785	77.12
274.017	87.12
274.249	90.12
274.481	91.12
274.713	94.12
274.945	78.12
275.176	79.12
275.408	82.12
275.64	82.12
275.872	75.12
276.104	75.12
276.335	97.12
276.567	82.12
276.799	89.12
277.031	98.12
277.262	87.12
277.494	94.12
277.726	93.12
277.957	89.12
278.189	73.12
278.421	94.12
278.652	78.12
278.884	73.12
279.115	76.12
279.347	78.12
279.579	79.12
279.81	86.12
280.042	98.12
280.273	84.12
280.505	79.12
280.736	92.12
280.968	74.12
281.199	72.12
281.431	92.12
281.662	76.12
281.894	89.12
282.125	76.12
282.356	88.12
282.588	77.12
282.819	75.12
283.051	78.12
283.282	82.12
283.513	92.12
283.745	80.12
283.976	87.12
284.207	77.12
284.439	81.12
284.67	80.12
284.901	83.12
285.132	72.12
285.364	83.12
285.595	85.12
285.826	96.12
286.057	86.12
286.288	92.12
286.52	72.12
286.751	71.12
286.982	81.12
287.213	94.12
287.444	91.12
287.675	91.12
287.906	76.12
288.138	81.12
288.369	80.12
288.6	99.12
288.831	83.12
289.062	80.12
289.293	90.12
289.524	70.12
289.755	84.12
289.986	83.12
290.217	86.12
290.448	72.12
290.679	86.12
290.91	93.12
291.141	84.12
291.371	92.12
291.602	93.12
291.833	92.12
292.064	85.12
292.295	75.12
292.526	73.12
292.757	77.12
292.987	87.12
293.218	82.12
293.449	78.12
293.68	105.12
293.91	79.12
294.141	78.12
294.372	94.12
294.603	90.12
294.833	92.12
295.064	95.12
295.295	86.12
295.525	89.12
295.756	69.12
295.987	87.12
296.217	85.12
296.448	84.12
296.679	90.12
296.909	89.12
297.14	88.12
297.37	81.12
297.601	78.12
297.831	96.12
298.062	104.12
298.292	87.12
298.523	87.12
298.753	87.12
298.984	76.12
299.214	84.12
299.445	87.12
299.675	86.12
299.905	88.12
300.136	89.12
300.366	90.12
300.597	98.12
300.827	75.12
301.057	88.12
301.288	79.12
301.518	87.12
301.748	75.12
301.979	89.12
302.209	78.12
302.439	92.12
302.669	84.12
302.9	89.12
303.13	97.12
303.36	100.12
303.59	85.12
303.82	84.12
304.051	93.12
304.281	93.12
304.511	94.12
304.741	83.12
304.971	86.12
305.201	101.12
305.431	81.12
305.661	96.12
305.891	88.12
306.121	102.12
306.352	94.12
306.582	85.12
306.812	85.12
307.042	88.12
307.272	81.12
307.502	83.12
307.731	96.12
307.961	90.12
308.191	89.12
308.421	97.12
308.651	80.12
308.881	88.12
309.111	79.12
309.341	82.12
309.571	85.12
309.8	86.12
310.03	83.12
310.26	82.12
310.49	85.12
310.72	77.12
310.949	88.12
311.179	83.12
311.409	86.12
311.639	89.12
311.868	93.12
312.098	84.12
312.328	84.12
312.557	86.12
312.787	90.12
313.017	97.12
313.246	84.12
313.476	82.12
313.706	78.12
313.935	80.12
314.165	77.12
314.394	101.12
314.624	94.12
314.853	76.12
315.083	88.12
315.312	90.12
315.542	77.12
315.771	85.12
316.001	76.12
316.23	97.12
316.46	87.12
316.689	90.12
316.919	82.12
317.148	85.12
317.377	75.12
317.607	88.12
317.836	75.12
318.065	73.12
318.295	84.12
318.524	84.12
318.753	86.12
318.983	84.12
319.212	82.12
319.441	89.12
319.67	83.12
319.9	85.12
320.129	84.12
320.358	86.12
320.587	84.12
320.816	72.12
321.046	89.12
321.275	69.12
321.504	85.12
321.733	91.12
321.962	102.12
322.191	84.12
322.42	86.12
322.649	85.12
322.878	81.12
323.108	93.12
323.337	98.12
323.566	84.12
323.795	78.12
324.024	82.12
324.253	86.12
324.482	86.12
324.71	87.12
324.939	106.12
325.168	82.12
325.397	95.12
325.626	73.12
325.855	82.12
326.084	88.12
326.313	85.12
326.542	75.12
326.77	82.12
326.999	70.12
327.228	81.12
327.457	100.12
327.686	94.12
327.914	92.12
328.143	99.12
328.372	80.12
328.6	78.12
328.829	87.12
329.058	75.12
329.287	83.12
329.515	93.12
329.744	81.12
329.972	89.12
330.201	95.12
330.43	94.12
330.658	91.12
330.887	68.12
331.115	89.12
331.344	96.12
331.572	93.12
331.801	81.12
332.03	95.12
332.258	76.12
332.486	82.12
332.715	86.12
332.943	69.12
333.172	92.12
333.4	84.12
333.629	79.12
333.857	79.12
334.085	83.12
334.314	98.12
334.542	98.12
334.771	93.12
334.999	83.12
335.227	92.12
335.455	87.12
335.684	72.12
335.912	75.12
336.14	76.12
336.369	99.12
336.597	85.12
336.825	73.12
337.053	76.12
337.281	84.12
337.51	73.12
337.738	72.12
337.966	88.12
338.194	76.12
338.422	68.12
338.65	82.12
338.878	95.12
339.106	73.12
339.334	89.12
339.562	71.12
339.79	83.12
340.018	90.12
340.246	88.12
340.474	96.12
340.702	91.12
340.93	82.12
341.158	95.12
341.386	80.12
341.614	88.12
341.842	83.12
342.07	85.12
342.298	87.12
342.526	87.12
342.754	90.12
342.981	81.12
343.209	76.12
343.437	86.12
343.665	85.12
343.893	88.12
344.12	89.12
344.348	72.12
344.576	85.12
344.804	74.12
345.031	80.12
345.259	94.12
345.487	92.12
345.714	85.12
345.942	83.12
346.17	84.12
346.397	95.12
346.625	96.12
346.853	75.12
347.08	88.12
347.308	83.12
347.535	77.12
347.763	91.12
347.99	92.12
348.218	81.12
348.445	85.12
348.673	84.12
348.9	82.12
349.128	77.12
349.355	90.12
349.583	84.12
349.81	90.12
350.037	83.12
350.265	88.12
350.492	79.12
350.72	80.12
350.947	73.12
351.174	75.12
351.402	79.12
351.629	71.12
351.856	72.12
352.083	81.12
352.311	88.12
352.538	74.12
352.765	88.12
352.992	87.12
353.22	87.12
353.447	87.12
353.674	92.12
353.901	81.12
354.128	78.12
354.355	83.12
354.583	88.12
354.81	79.12
355.037	80.12
355.264	86.12
355.491	81.12
355.718	77.12
355.945	78.12
356.172	89.12
356.399	89.12
356.626	82.12
356.853	80.12
357.08	90.12
357.307	88.12
357.534	81.12
357.761	65.12
357.988	73.12
358.215	82.12
358.441	77.12
358.668	76.12
358.895	82.12
359.122	98.12
359.349	83.12
359.576	78.12
359.802	77.12
360.029	72.12
360.256	80.12
360.483	90.12
360.709	82.12
360.936	91.12
361.163	71.12
361.39	77.12
361.616	86.12
361.843	96.12
362.07	88.12
362.296	97.12
362.523	82.12
362.749	79.12
362.976	87.12
363.203	90.12
363.429	84.12
363.656	98.12
363.882	84.12
364.109	79.12
364.335	82.12
364.562	86.12
364.788	94.12
365.015	81.12
365.241	93.12
365.468	85.12
365.694	87.12
365.92	88.12
366.147	91.12
366.373	84.12
366.599	101.12
366.826	92.12
367.052	103.12
367.278	82.12
367.505	100.12
367.731	93.12
367.957	92.12
368.184	94.12
368.41	91.12
368.636	86.12
368.862	78.12
369.089	85.12
369.315	106.12
369.541	90.12
369.767	89.12
369.993	89.12
370.219	97.12
370.445	106.12
370.672	72.12
370.898	94.12
371.124	82.12
371.35	90.12
371.576	99.12
371.802	96.12
372.028	100.12
372.254	100.12
372.48	102.12
372.706	84.12
372.932	84.12
373.158	96.12
373.384	86.12
373.61	88.12
373.835	80.12
374.061	91.12
374.287	84.12
374.513	105.12
374.739	82.12
374.965	88.12
375.191	88.12
375.416	97.12
375.642	89.12
375.868	102.12
376.094	87.12
376.319	88.12
376.545	88.12
376.771	88.12
376.997	96.12
377.222	86.12
377.448	78.12
377.674	89.12
377.899	103.12
378.125	81.12
378.35	87.12
378.576	72.12
378.802	93.12
379.027	92.12
379.253	103.12
379.478	97.12
379.704	89.12
379.929	93.12
380.155	94.12
380.38	92.12
380.606	100.12
380.831	91.12
381.057	111.12
381.282	82.12
381.507	92.12
381.733	109.12
381.958	77.12
382.184	103.12
382.409	90.12
382.634	93.12
382.86	96.12
383.085	102.12
383.31	100.12
383.535	97.12
383.761	113.12
383.986	93.12
384.211	99.12
384.436	82.12
384.662	98.12
384.887	88.12
385.112	85.12
385.337	83.12
385.562	99.12
385.787	98.12
386.013	112.12
386.238	103.12
386.463	96.12
386.688	108.12
386.913	86.12
387.138	97.12
387.363	87.12
387.588	114.12
387.813	104.12
388.038	114.12
388.263	93.12
388.488	105.12
388.713	87.12
388.938	89.12
389.163	103.12
389.387	101.12
389.612	100.12
389.837	87.12
390.062	92.12
390.287	94.12
390.512	92.12
390.736	97.12
390.961	90.12
391.186	114.12
391.411	101.12
391.636	89.12
391.86	101.12
392.085	111.12
392.31	96.12
392.534	123.12
392.759	95.12
392.984	99.12
393.208	105.12
393.433	101.12
393.658	103.12
393.882	106.12
394.107	112.12
394.331	105.12
394.556	102.12
394.78	107.12
395.005	101.12
395.229	99.12
395.454	113.12
395.678	103.12
395.903	102.12
396.127	109.12
396.352	108.12
396.576	108.12
396.801	97.12
397.025	103.12
397.249	99.12
397.474	114.12
397.698	104.12
397.922	107.12
398.147	119.12
398.371	107.12
398.595	109.12
398.82	116.12
399.044	109.12
399.268	105.12
399.492	122.12
399.717	103.12
399.941	109.12
400.165	103.12
400.389	104.12
400.613	114.12
400.837	92.12
401.062	102.12
401.286	105.12
401.51	119.12
401.734	101.12
401.958	109.12
402.182	124.12
402.406	122.12
402.63	118.12
402.854	122.12
403.078	118.12
403.302	123.12
403.526	108.12
403.75	115.12
403.974	112.12
404.198	112.12
404.422	115.12
404.645	118.12
404.869	106.12
405.093	120.12
405.317	118.12
405.541	112.12
405.765	124.12
405.988	119.12
406.212	132.12
406.436	128.12
406.66	140.12
406.883	125.12
407.107	108.12
407.331	123.12
407.555	117.12
407.778	118.12
408.002	113.12
408.226	116.12
408.449	104.12
408.673	124.12
408.896	117.12
409.12	100.12
409.344	122.12
409.567	106.12
409.791	124.12
410.014	122.12
410.238	122.12
410.461	118.12
410.685	125.12
410.908	112.12
411.132	132.12
411.355	105.12
411.578	124.12
411.802	112.12
412.025	116.12
412.249	128.12
412.472	117.12
412.695	122.12
412.919	100.12
413.142	118.12
413.365	113.12
413.589	118.12
413.812	121.12
414.035	124.12
414.258	118.12
414.482	115.12
414.705	118.12
414.928	128.12
415.151	120.12
415.374	126.12
415.597	128.12
415.821	116.12
416.044	116.12
416.267	131.12
416.49	133.12
416.713	121.12
416.936	115.12
417.159	115.12
417.382	117.12
417.605	130.12
417.828	124.12
418.051	122.12
418.274	139.12
418.497	136.12
418.72	126.12
418.943	130.12
419.166	118.12
419.389	133.12
419.611	130.12
419.834	124.12
420.057	127.12
420.28	131.12
420.503	128.12
420.726	117.12
420.948	124.12
421.171	148.12
421.394	131.12
421.617	122.12
421.839	142.12
422.062	148.12
422.285	108.12
422.507	128.12
422.73	130.12
422.953	121.12
423.175	123.12
423.398	120.12
423.621	142.12
423.843	124.12
424.066	124.12
424.288	136.12
424.511	142.12
424.733	141.12
424.956	137.12
425.178	154.12
425.401	138.12
425.623	148.12
425.846	114.12
426.068	128.12
426.291	136.12
426.513	132.12
426.735	130.12
426.958	143.12
427.18	128.12
427.402	133.12
427.625	125.12
427.847	133.12
428.069	133.12
428.292	119.12
428.514	128.12
428.736	118.12
428.958	117.12
429.181	119.12
429.403	123.12
429.625	129.12
429.847	121.12
430.069	123.12
430.292	131.12
430.514	126.12
430.736	123.12
430.958	130.12
431.18	117.12
431.402	106.12
431.624	101.12
431.846	109.12
432.068	84.12
432.29	92.12
432.512	102.12
432.734	123.12
432.956	128.12
433.178	140.12
433.4	145.12
433.622	137.12
433.844	118.12
434.066	137.12
434.287	117.12
434.509	109.12
434.731	105.12
434.953	117.12
435.175	118.12
435.397	118.12
435.618	120.12
435.84	108.12
436.062	130.12
436.284	128.12
436.505	118.12
436.727	125.12
436.949	140.12
437.17	121.12
437.392	129.12
437.614	102.12
437.835	110.12
438.057	106.12
438.278	106.12
438.5	122.12
438.721	127.12
438.943	134.12
439.165	147.12
439.386	125.12
439.608	136.12
439.829	132.12
440.05	133.12
440.272	136.12
440.493	135.12
440.715	153.12
440.936	129.12
441.158	152.12
441.379	140.12
441.6	133.12
441.822	137.12
442.043	143.12
442.264	134.12
442.486	134.12
442.707	144.12
442.928	148.12
443.149	142.12
443.371	127.12
443.592	128.12
443.813	137.12
444.034	138.12
444.255	129.12
444.476	131.12
444.698	148.12
444.919	149.12
445.14	283.12
445.361	203.12
445.582	150.12
445.803	134.12
446.024	161.12
446.245	153.12
446.466	159.12
446.687	151.12
446.908	163.12
447.129	156.12
447.35	138.12
447.571	149.12
447.792	132.12
448.013	124.12
448.234	139.12
448.455	136.12
448.675	145.12
448.896	142.12
449.117	108.12
449.338	132.12
449.559	129.12
449.779	140.12
450	134.12
450.221	127.12
450.442	120.12
450.662	140.12
450.883	126.12
451.104	139.12
451.324	131.12
451.545	117.12
451.766	125.12
451.986	129.12
452.207	128.12
452.428	130.12
452.648	128.12
452.869	107.12
453.089	118.12
453.31	104.12
453.53	103.12
453.751	114.12
453.971	117.12
454.192	109.12
454.412	105.12
454.633	102.12
454.853	117.12
455.073	130.12
455.294	108.12
455.514	130.12
455.734	128.12
455.955	126.12
456.175	95.12
456.395	117.12
456.616	102.12
456.836	112.12
457.056	114.12
457.276	106.12
457.497	109.12
457.717	109.12
457.937	115.12
458.157	105.12
458.377	123.12
458.598	102.12
458.818	92.12
459.038	110.12
459.258	101.12
459.478	77.12
459.698	94.12
459.918	98.12
460.138	109.12
460.358	123.12
460.578	122.12
460.798	117.12
461.018	118.12
461.238	125.12
461.458	111.12
461.678	114.12
461.898	114.12
462.118	119.12
462.338	107.12
462.558	107.12
462.777	110.12
462.997	103.12
463.217	104.12
463.437	94.12
463.657	117.12
463.876	104.12
464.096	100.12
464.316	125.12
464.536	108.12
464.755	118.12
464.975	103.12
465.195	116.12
465.414	100.12
465.634	108.12
465.854	113.12
466.073	126.12
466.293	132.12
466.512	120.12
466.732	125.12
466.951	126.12
467.171	139.12
467.391	136.12
467.61	134.12
467.829	132.12
468.049	118.12
468.268	145.12
468.488	138.12
468.707	123.12
468.927	125.12
469.146	132.12
469.365	138.12
469.585	133.12
469.804	146.12
470.023	144.12
470.243	143.12
470.462	129.12
470.681	136.12
470.901	150.12
471.12	150.12
471.339	153.12
471.558	140.12
471.777	153.12
471.997	147.12
472.216	138.12
472.435	109.12
472.654	132.12
472.873	121.12
473.092	119.12
473.311	120.12
473.53	119.12
473.749	116.12
473.968	130.12
474.187	108.12
474.406	122.12
474.625	131.12
474.844	126.12
475.063	126.12
475.282	129.12
475.501	118.12
475.72	119.12
475.939	126.12
476.158	121.12
476.377	142.12
476.596	130.12
476.814	129.12
477.033	114.12
477.252	105.12
477.471	123.12
477.69	125.12
477.908	138.12
478.127	142.12
478.346	152.12
478.564	130.12
478.783	134.12
479.002	138.12
479.22	134.12
479.439	137.12
479.658	132.12
479.876	101.12
480.095	122.12
480.313	120.12
480.532	123.12
480.751	107.12
480.969	88.12
481.188	89.12
481.406	84.12
481.624	84.12
481.843	89.12
482.061	110.12
482.28	113.12
482.498	90.12
482.717	94.12
482.935	107.12
483.153	139.12
483.372	152.12
483.59	133.12
483.808	136.12
484.027	123.12
484.245	124.12
484.463	155.12
484.681	155.12
484.9	127.12
485.118	141.12
485.336	122.12
485.554	104.12
485.772	101.12
485.99	120.12
486.209	104.12
486.427	103.12
486.645	118.12
486.863	126.12
487.081	153.12
487.299	132.12
487.517	139.12
487.735	172.12
487.953	186.12
488.171	167.12
488.389	152.12
488.607	159.12
488.825	126.12
489.043	132.12
489.261	146.12
489.479	140.12
489.696	149.12
489.914	134.12
490.132	137.12
490.35	160.12
490.568	148.12
490.786	159.12
491.003	190.12
491.221	174.12
491.439	192.12
491.657	191.12
491.874	199.12
492.092	212.12
492.31	237.12
492.527	228.12
492.745	192.12
492.963	188.12
493.18	171.12
493.398	186.12
493.615	158.12
493.833	164.12
494.05	185.12
494.268	151.12
494.485	169.12
494.703	181.12
494.92	179.12
495.138	169.12
495.355	161.12
495.573	159.12
495.79	155.12
496.008	163.12
496.225	177.12
496.442	180.12
496.66	178.12
496.877	155.12
497.094	169.12
497.312	162.12
497.529	164.12
497.746	154.12
497.963	129.12
498.181	129.12
498.398	125.12
498.615	121.12
498.832	126.12
499.049	117.12
499.267	127.12
499.484	129.12
499.701	141.12
499.918	144.12
500.135	141.12
500.352	150.12
500.569	145.12
500.786	134.12
501.003	140.12
501.22	148.12
501.437	136.12
501.654	126.12
501.871	126.12
502.088	136.12
502.305	134.12
502.522	130.12
502.739	134.12
502.956	113.12
503.172	136.12
503.389	114.12
503.606	126.12
503.823	136.12
504.04	116.12
504.256	114.12
504.473	120.12
504.69	116.12
504.907	116.12
505.123	124.12
505.34	124.12
505.557	110.12
505.773	138.12
505.99	124.12
506.207	114.12
506.423	125.12
506.64	118.12
506.856	95.12
507.073	124.12
507.289	116.12
507.506	120.12
507.722	119.12
507.939	116.12
508.155	112.12
508.372	110.12
508.588	116.12
508.805	126.12
509.021	112.12
509.238	94.12
509.454	118.12
509.67	100.12
509.887	86.12
510.103	101.12
510.319	86.12
510.536	105.12
510.752	100.12
510.968	94.12
511.184	85.12
511.401	68.12
511.617	79.12
511.833	92.12
512.049	90.12
512.265	98.12
512.481	99.12
512.698	102.12
512.914	104.12
513.13	97.12
513.346	82.12
513.562	92.12
513.778	101.12
513.994	105.12
514.21	88.12
514.426	88.12
514.642	101.12
514.858	86.12
515.074	79.12
515.29	93.12
515.506	87.12
515.721	91.12
515.937	85.12
516.153	86.12
516.369	81.12
516.585	85.12
516.801	85.12
517.016	89.12
517.232	91.12
517.448	93.12
517.664	94.12
517.879	83.12
518.095	99.12
518.311	81.12
518.527	90.12
518.742	105.12
518.958	98.12
519.173	107.12
519.389	116.12
519.605	112.12
519.82	125.12
520.036	112.12
520.251	94.12
520.467	114.12
520.682	104.12
520.898	92.12
521.113	96.12
521.329	114.12
521.544	105.12
521.76	104.12
521.975	99.12
522.19	114.12
522.406	99.12
522.621	103.12
522.836	107.12
523.052	101.12
523.267	120.12
523.482	109.12
523.698	116.12
523.913	105.12
524.128	105.12
524.343	121.12
524.559	110.12
524.774	123.12
524.989	130.12
525.204	122.12
525.419	106.12
525.634	107.12
525.849	119.12
526.064	114.12
526.28	114.12
526.495	93.12
526.71	96.12
526.925	83.12
527.14	88.12
527.355	85.12
527.57	101.12
527.785	88.12
527.999	97.12
528.214	106.12
528.429	113.12
528.644	137.12
528.859	117.12
529.074	157.12
529.289	168.12
529.503	156.12
529.718	132.12
529.933	116.12
530.148	90.12
530.363	96.12
530.577	96.12
530.792	80.12
531.007	93.12
531.221	89.12
531.436	94.12
531.651	100.12
531.865	92.12
532.08	89.12
532.295	100.12
532.509	97.12
532.724	82.12
532.938	86.12
533.153	110.12
533.367	117.12
533.582	132.12
533.796	122.12
534.011	110.12
534.225	103.12
534.44	94.12
534.654	93.12
534.868	94.12
535.083	95.12
535.297	89.12
535.511	98.12
535.726	124.12
535.94	106.12
536.154	94.12
536.369	100.12
536.583	89.12
536.797	88.12
537.011	92.12
537.225	96.12
537.44	96.12
537.654	90.12
537.868	98.12
538.082	98.12
538.296	106.12
538.51	104.12
538.724	118.12
538.938	125.12
539.153	121.12
539.367	120.12
539.581	115.12
539.795	107.12
540.009	102.12
540.222	110.12
540.436	114.12
540.65	117.12
540.864	129.12
541.078	129.12
541.292	143.12
541.506	148.12
541.72	179.12
541.934	171.12
542.147	194.12
542.361	186.12
542.575	157.12
542.789	148.12
543.002	143.12
543.216	130.12
543.43	126.12
543.644	131.12
543.857	146.12
544.071	141.12
544.285	171.12
544.498	172.12
544.712	150.12
544.925	152.12
545.139	149.12
545.352	161.12
545.566	164.12
545.779	166.12
545.993	177.12
546.206	156.12
546.42	151.12
546.633	176.12
546.847	160.12
547.06	169.12
547.274	182.12
547.487	174.12
547.7	170.12
547.914	166.12
548.127	161.12
548.34	157.12
548.554	154.12
548.767	144.12
548.98	171.12
549.193	157.12
549.407	158.12
549.62	143.12
549.833	156.12
550.046	154.12
550.259	152.12
550.473	137.12
550.686	151.12
550.899	142.12
551.112	140.12
551.325	148.12
551.538	129.12
551.751	128.12
551.964	118.12
552.177	129.12
552.39	141.12
552.603	142.12
552.816	152.12
553.029	153.12
553.242	161.12
553.455	155.12
553.667	147.12
553.88	154.12
554.093	137.12
554.306	147.12
554.519	146.12
554.732	146.12
554.944	136.12
555.157	153.12
555.37	149.12
555.583	137.12
555.795	133.12
556.008	112.12
556.221	130.12
556.433	132.12
556.646	130.12
556.859	140.12
557.071	138.12
557.284	128.12
557.496	138.12
557.709	150.12
557.921	122.12
558.134	129.12
558.346	152.12
558.559	143.12
558.771	132.12
558.984	128.12
559.196	126.12
559.409	110.12
559.621	139.12
559.833	119.12
560.046	127.12
560.258	128.12
560.47	123.12
560.683	130.12
560.895	140.12
561.107	128.12
561.32	139.12
561.532	130.12
561.744	123.12
561.956	128.12
562.168	117.12
562.381	126.12
562.593	123.12
562.805	118.12
563.017	139.12
563.229	127.12
563.441	121.12
563.653	125.12
563.865	119.12
564.077	115.12
564.289	126.12
564.501	125.12
564.713	137.12
564.925	121.12
565.137	108.12
565.349	117.12
565.561	114.12
565.773	123.12
565.985	117.12
566.197	106.12
566.408	126.12
566.62	120.12
566.832	114.12
567.044	116.12
567.255	113.12
567.467	116.12
567.679	101.12
567.891	110.12
568.102	96.12
568.314	93.12
568.526	103.12
568.737	92.12
568.949	93.12
569.161	98.12
569.372	82.12
569.584	80.12
569.795	91.12
570.007	96.12
570.218	95.12
570.43	105.12
570.641	107.12
570.853	110.12
571.064	101.12
571.276	85.12
571.487	102.12
571.698	113.12
571.91	99.12
572.121	86.12
572.333	100.12
572.544	95.12
572.755	83.12
572.966	102.12
573.178	70.12
573.389	89.12
573.6	81.12
573.811	103.12
574.023	97.12
574.234	85.12
574.445	89.12
574.656	102.12
574.867	106.12
575.078	96.12
575.289	101.12
575.501	94.12
575.712	94.12
575.923	91.12
576.134	103.12
576.345	92.12
576.556	110.12
576.767	101.12
576.978	104.12
577.188	94.12
577.399	92.12
577.61	96.12
577.821	97.12
578.032	103.12
578.243	101.12
578.454	100.12
578.665	86.12
578.875	80.12
579.086	82.12
579.297	93.12
579.508	90.12
579.718	98.12
579.929	96.12
580.14	88.12
580.35	84.12
580.561	94.12
580.772	96.12
580.982	77.12
581.193	81.12
581.403	97.12
581.614	92.12
581.825	100.12
582.035	98.12
582.246	93.12
582.456	96.12
582.667	89.12
582.877	101.12
583.087	105.12
583.298	83.12
583.508	105.12
583.719	92.12
583.929	86.12
584.139	100.12
584.35	92.12
584.56	95.12
584.77	97.12
584.981	81.12
585.191	97.12
585.401	98.12
585.611	92.12
585.821	100.12
586.032	92.12
586.242	91.12
586.452	94.12
586.662	83.12
586.872	88.12
587.082	73.12
587.292	90.12
587.502	90.12
587.713	90.12
587.923	85.12
588.133	107.12
588.343	67.12
588.553	83.12
588.762	85.12
588.972	84.12
589.182	82.12
589.392	82.12
589.602	87.12
589.812	77.12
590.022	88.12
590.232	91.12
590.441	96.12
590.651	83.12
590.861	86.12
591.071	80.12
591.281	74.12
591.49	97.12
591.7	98.12
591.91	83.12
592.119	90.12
592.329	91.12
592.539	88.12
592.748	96.12
592.958	83.12
593.167	96.12
593.377	82.12
593.587	82.12
593.796	78.12
594.006	79.12
594.215	85.12
594.424	85.12
594.634	98.12
594.843	96.12
595.053	105.12
595.262	98.12
595.472	88.12
595.681	89.12
595.89	92.12
596.1	85.12
596.309	100.12
596.518	101.12
596.727	82.12
596.937	92.12
597.146	87.12
597.355	80.12
597.564	104.12
597.774	101.12
597.983	90.12
598.192	90.12
598.401	72.12
598.61	99.12
598.819	97.12
599.028	88.12
599.237	96.12
599.446	84.12
599.655	105.12
599.864	92.12
600.073	90.12
600.282	87.12
600.491	92.12
600.7	96.12
600.909	93.12
601.118	97.12
601.327	111.12
601.536	99.12
601.745	100.12
601.953	114.12
602.162	105.12
602.371	104.12
602.58	93.12
602.789	117.12
602.997	108.12
603.206	116.12
603.415	102.12
603.623	106.12
603.832	93.12
604.041	110.12
604.249	92.12
604.458	106.12
604.666	103.12
604.875	102.12
605.084	109.12
605.292	101.12
605.501	117.12
605.709	105.12
605.918	108.12
606.126	120.12
606.334	107.12
606.543	104.12
606.751	105.12
606.96	110.12
607.168	99.12
607.376	112.12
607.585	119.12
607.793	106.12
608.001	122.12
608.21	107.12
608.418	122.12
608.626	120.12
608.834	118.12
609.043	125.12
609.251	106.12
609.459	117.12
609.667	122.12
609.875	110.12
610.083	114.12
610.291	116.12
610.499	116.12
610.707	113.12
610.916	110.12
611.124	119.12
611.332	128.12
611.54	117.12
611.748	113.12
611.955	116.12
612.163	102.12
612.371	110.12
612.579	101.12
612.787	113.12
612.995	119.12
613.203	112.12
613.411	126.12
613.618	112.12
613.826	114.12
614.034	102.12
614.242	122.12
614.449	109.12
614.657	122.12
614.865	96.12
615.072	123.12
615.28	116.12
615.488	113.12
615.695	116.12
615.903	112.12
616.111	106.12
616.318	110.12
616.526	107.12
616.733	98.12
616.941	112.12
617.148	108.12
617.356	118.12
617.563	101.12
617.771	109.12
617.978	101.12
618.185	100.12
618.393	109.12
618.6	109.12
618.807	113.12
619.015	121.12
619.222	104.12
619.429	100.12
619.637	113.12
619.844	114.12
620.051	117.12
620.258	111.12
620.466	104.12
620.673	102.12
620.88	117.12
621.087	109.12
621.294	109.12
621.501	104.12
621.708	93.12
621.915	108.12
622.122	106.12
622.329	111.12
622.536	117.12
622.743	92.12
622.95	109.12
623.157	123.12
623.364	116.12
623.571	101.12
623.778	128.12
623.985	118.12
624.192	90.12
624.399	96.12
624.606	116.12
624.812	120.12
625.019	114.12
625.226	109.12
625.433	114.12
625.639	115.12
625.846	100.12
626.053	102.12
626.259	97.12
626.466	112.12
626.673	100.12
626.879	93.12
627.086	101.12
627.293	92.12
627.499	105.12
627.706	107.12
627.912	109.12
628.119	100.12
628.325	118.12
628.532	88.12
628.738	109.12
628.945	108.12
629.151	98.12
629.357	96.12
629.564	99.12
629.77	109.12
629.976	93.12
630.183	81.12
630.389	102.12
630.595	97.12
630.802	89.12
631.008	97.12
631.214	104.12
631.42	122.12
631.627	90.12
631.833	92.12
632.039	99.12
632.245	108.12
632.451	100.12
632.657	81.12
632.863	98.12
633.069	99.12
633.275	105.12
633.481	105.12
633.688	100.12
633.893	97.12
634.099	108.12
634.305	105.12
634.511	104.12
634.717	95.12
634.923	102.12
635.129	96.12
635.335	91.12
635.541	89.12
635.747	100.12
635.952	103.12
636.158	88.12
636.364	114.12
636.57	114.12
636.775	118.12
636.981	108.12
637.187	100.12
637.392	90.12
637.598	101.12
637.804	113.12
638.009	93.12
638.215	107.12
638.421	96.12
638.626	93.12
638.832	89.12
639.037	101.12
639.243	101.12
639.448	99.12
639.654	92.12
639.859	120.12
640.065	100.12
640.27	110.12
640.475	106.12
640.681	90.12
640.886	109.12
641.091	91.12
641.297	107.12
641.502	90.12
641.707	98.12
641.913	89.12
642.118	108.12
642.323	117.12
642.528	96.12
642.733	106.12
642.939	106.12
643.144	102.12
643.349	100.12
643.554	85.12
643.759	94.12
643.964	94.12
644.169	94.12
644.374	103.12
644.579	104.12
644.784	93.12
644.989	96.12
645.194	100.12
645.399	91.12
645.604	104.12
645.809	89.12
646.014	84.12
646.219	96.12
646.423	92.12
646.628	88.12
646.833	92.12
647.038	87.12
647.243	118.12
647.447	78.12
647.652	91.12
647.857	95.12
648.062	96.12
648.266	110.12
648.471	102.12
648.676	98.12
648.88	91.12
649.085	96.12
649.289	95.12
649.494	97.12
649.698	97.12
649.903	114.12
650.107	86.12
650.312	95.12
650.516	92.12
650.721	92.12
650.925	111.12
651.13	90.12
651.334	100.12
651.539	105.12
651.743	99.12
651.947	95.12
652.152	99.12
652.356	93.12
652.56	104.12
652.764	74.12
652.969	90.12
653.173	85.12
653.377	82.12
653.581	83.12
653.785	105.12
653.99	81.12
654.194	89.12
654.398	86.12
654.602	89.12
654.806	89.12
655.01	97.12
655.214	84.12
655.418	82.12
655.622	77.12
655.826	90.12
656.03	113.12
656.234	98.12
656.438	91.12
656.642	92.12
656.846	100.12
657.049	95.12
657.253	94.12
657.457	90.12
657.661	92.12
657.865	99.12
658.068	81.12
658.272	95.12
658.476	93.12
658.68	76.12
658.883	73.12
659.087	93.12
659.291	84.12
659.494	89.12
659.698	92.12
659.901	94.12
660.105	85.12
660.309	87.12
660.512	84.12
660.716	82.12
660.919	84.12
661.123	82.12
661.326	87.12
661.53	90.12
661.733	79.12
661.936	86.12
662.14	81.12
662.343	81.12
662.546	93.12
662.75	88.12
662.953	84.12
663.156	86.12
663.36	81.12
663.563	93.12
663.766	69.12
663.969	85.12
664.173	79.12
664.376	91.12
664.579	85.12
664.782	82.12
664.985	89.12
665.188	71.12
665.391	92.12
665.594	75.12
665.797	80.12
666	90.12
666.203	93.12
666.406	98.12
666.609	89.12
666.812	79.12
667.015	85.12
667.218	76.12
667.421	80.12
667.624	88.12
667.827	99.12
668.03	75.12
668.232	67.12
668.435	70.12
668.638	80.12
668.841	89.12
669.043	76.12
669.246	84.12
669.449	81.12
669.651	86.12
669.854	84.12
670.057	86.12
670.259	83.12
670.462	82.12
670.665	94.12
670.867	92.12
671.07	91.12
671.272	73.12
671.475	80.12
671.677	78.12
671.88	76.12
672.082	86.12
672.284	82.12
672.487	76.12
672.689	72.12
672.892	85.12
