Data from Location4.07152019.Energy5.Lamp.07192019.3%Agarose_HRD10591_16-19-02-927.txt Node
Date: Fri Jul 19 16:19:02 EDT 2019
User: cochatt
Spectrometer: HR+D1059
Trigger mode: 1
Integration Time (sec): 1.000000E-1
Scans to average: 1
Electric dark correction enabled: true
Nonlinearity correction enabled: false
Boxcar width: 0
XAxis mode: Wavelengths
Number of Pixels in Spectrum: 2048
>>>>>Begin Spectral Data<<<<<
223.165	-13.06
223.4	-13.06
223.635	-13.06
223.869	-22.06
224.104	-28.06
224.338	-17.06
224.573	-19.06
224.808	-3.06
225.042	-8.06
225.277	-14.06
225.511	-2.06
225.746	20.94
225.98	-8.06
226.215	14.94
226.449	4.94
226.683	34.94
226.918	29.94
227.152	28.94
227.387	34.94
227.621	55.94
227.856	26.94
228.09	43.94
228.324	60.94
228.559	56.94
228.793	57.94
229.027	73.94
229.262	59.94
229.496	70.94
229.73	68.94
229.964	84.94
230.199	70.94
230.433	82.94
230.667	76.94
230.901	66.94
231.136	74.94
231.37	70.94
231.604	70.94
231.838	81.94
232.072	86.94
232.306	89.94
232.541	74.94
232.775	65.94
233.009	93.94
233.243	71.94
233.477	77.94
233.711	78.94
233.945	78.94
234.179	85.94
234.413	81.94
234.647	74.94
234.881	81.94
235.115	72.94
235.349	88.94
235.583	76.94
235.817	70.94
236.051	71.94
236.285	81.94
236.519	75.94
236.753	79.94
236.987	85.94
237.221	72.94
237.455	70.94
237.689	80.94
237.922	65.94
238.156	64.94
238.39	74.94
238.624	71.94
238.858	70.94
239.091	84.94
239.325	61.94
239.559	80.94
239.793	74.94
240.027	77.94
240.26	65.94
240.494	88.94
240.728	56.94
240.961	67.94
241.195	85.94
241.429	72.94
241.662	63.94
241.896	81.94
242.13	69.94
242.363	83.94
242.597	77.94
242.83	86.94
243.064	74.94
243.298	71.94
243.531	78.94
243.765	72.94
243.998	78.94
244.232	76.94
244.465	86.94
244.699	86.94
244.932	75.94
245.166	72.94
245.399	75.94
245.633	76.94
245.866	74.94
246.099	72.94
246.333	62.94
246.566	59.94
246.8	78.94
247.033	78.94
247.266	71.94
247.5	78.94
247.733	82.94
247.966	76.94
248.2	83.94
248.433	86.94
248.666	78.94
248.899	77.94
249.133	74.94
249.366	78.94
249.599	85.94
249.832	88.94
250.066	92.94
250.299	79.94
250.532	69.94
250.765	77.94
250.998	84.94
251.231	87.94
251.465	72.94
251.698	91.94
251.931	76.94
252.164	71.94
252.397	90.94
252.63	69.94
252.863	66.94
253.096	74.94
253.329	81.94
253.562	84.94
253.795	79.94
254.028	91.94
254.261	93.94
254.494	76.94
254.727	89.94
254.96	80.94
255.193	89.94
255.426	70.94
255.659	71.94
255.892	89.94
256.124	86.94
256.357	89.94
256.59	91.94
256.823	76.94
257.056	73.94
257.289	70.94
257.521	97.94
257.754	78.94
257.987	73.94
258.22	77.94
258.452	89.94
258.685	72.94
258.918	88.94
259.151	74.94
259.383	81.94
259.616	79.94
259.849	77.94
260.081	86.94
260.314	75.94
260.547	80.94
260.779	82.94
261.012	85.94
261.244	76.94
261.477	81.94
261.71	77.94
261.942	82.94
262.175	82.94
262.407	78.94
262.64	94.94
262.872	82.94
263.105	73.94
263.337	68.94
263.57	86.94
263.802	71.94
264.035	75.94
264.267	72.94
264.499	74.94
264.732	96.94
264.964	86.94
265.197	93.94
265.429	79.94
265.661	78.94
265.894	82.94
266.126	83.94
266.358	77.94
266.591	85.94
266.823	78.94
267.055	76.94
267.287	96.94
267.52	96.94
267.752	70.94
267.984	81.94
268.216	79.94
268.448	83.94
268.681	92.94
268.913	86.94
269.145	83.94
269.377	89.94
269.609	85.94
269.841	58.94
270.073	77.94
270.306	79.94
270.538	79.94
270.77	85.94
271.002	66.94
271.234	78.94
271.466	97.94
271.698	97.94
271.93	86.94
272.162	71.94
272.394	72.94
272.626	67.94
272.858	76.94
273.09	77.94
273.322	84.94
273.553	79.94
273.785	81.94
274.017	90.94
274.249	84.94
274.481	84.94
274.713	90.94
274.945	79.94
275.176	77.94
275.408	83.94
275.64	85.94
275.872	93.94
276.104	84.94
276.335	71.94
276.567	80.94
276.799	81.94
277.031	93.94
277.262	84.94
277.494	68.94
277.726	90.94
277.957	82.94
278.189	94.94
278.421	82.94
278.652	84.94
278.884	68.94
279.115	73.94
279.347	78.94
279.579	80.94
279.81	73.94
280.042	90.94
280.273	80.94
280.505	76.94
280.736	65.94
280.968	80.94
281.199	86.94
281.431	72.94
281.662	71.94
281.894	68.94
282.125	82.94
282.356	75.94
282.588	69.94
282.819	86.94
283.051	84.94
283.282	72.94
283.513	103.94
283.745	70.94
283.976	79.94
284.207	76.94
284.439	84.94
284.67	77.94
284.901	79.94
285.132	85.94
285.364	86.94
285.595	78.94
285.826	67.94
286.057	92.94
286.288	82.94
286.52	85.94
286.751	91.94
286.982	104.94
287.213	83.94
287.444	76.94
287.675	88.94
287.906	89.94
288.138	89.94
288.369	93.94
288.6	73.94
288.831	86.94
289.062	92.94
289.293	99.94
289.524	84.94
289.755	77.94
289.986	72.94
290.217	102.94
290.448	82.94
290.679	61.94
290.91	80.94
291.141	62.94
291.371	77.94
291.602	84.94
291.833	81.94
292.064	86.94
292.295	91.94
292.526	74.94
292.757	86.94
292.987	77.94
293.218	74.94
293.449	76.94
293.68	93.94
293.91	86.94
294.141	86.94
294.372	86.94
294.603	90.94
294.833	75.94
295.064	86.94
295.295	92.94
295.525	88.94
295.756	72.94
295.987	72.94
296.217	85.94
296.448	85.94
296.679	64.94
296.909	93.94
297.14	97.94
297.37	94.94
297.601	90.94
297.831	78.94
298.062	84.94
298.292	80.94
298.523	91.94
298.753	79.94
298.984	85.94
299.214	77.94
299.445	101.94
299.675	90.94
299.905	79.94
300.136	74.94
300.366	78.94
300.597	82.94
300.827	91.94
301.057	85.94
301.288	92.94
301.518	87.94
301.748	82.94
301.979	83.94
302.209	80.94
302.439	77.94
302.669	75.94
302.9	102.94
303.13	89.94
303.36	91.94
303.59	86.94
303.82	84.94
304.051	99.94
304.281	93.94
304.511	86.94
304.741	75.94
304.971	85.94
305.201	88.94
305.431	71.94
305.661	84.94
305.891	79.94
306.121	97.94
306.352	84.94
306.582	72.94
306.812	88.94
307.042	72.94
307.272	77.94
307.502	92.94
307.731	85.94
307.961	82.94
308.191	75.94
308.421	85.94
308.651	93.94
308.881	100.94
309.111	77.94
309.341	89.94
309.571	90.94
309.8	88.94
310.03	101.94
310.26	78.94
310.49	77.94
310.72	82.94
310.949	90.94
311.179	89.94
311.409	95.94
311.639	90.94
311.868	83.94
312.098	85.94
312.328	97.94
312.557	88.94
312.787	77.94
313.017	89.94
313.246	87.94
313.476	76.94
313.706	60.94
313.935	73.94
314.165	87.94
314.394	91.94
314.624	108.94
314.853	96.94
315.083	83.94
315.312	89.94
315.542	96.94
315.771	91.94
316.001	93.94
316.23	87.94
316.46	85.94
316.689	82.94
316.919	82.94
317.148	88.94
317.377	83.94
317.607	82.94
317.836	97.94
318.065	76.94
318.295	96.94
318.524	93.94
318.753	79.94
318.983	86.94
319.212	99.94
319.441	95.94
319.67	96.94
319.9	89.94
320.129	78.94
320.358	79.94
320.587	83.94
320.816	82.94
321.046	86.94
321.275	86.94
321.504	101.94
321.733	82.94
321.962	71.94
322.191	71.94
322.42	74.94
322.649	83.94
322.878	68.94
323.108	93.94
323.337	77.94
323.566	84.94
323.795	94.94
324.024	80.94
324.253	77.94
324.482	78.94
324.71	83.94
324.939	86.94
325.168	84.94
325.397	80.94
325.626	80.94
325.855	83.94
326.084	85.94
326.313	84.94
326.542	93.94
326.77	76.94
326.999	89.94
327.228	88.94
327.457	89.94
327.686	81.94
327.914	80.94
328.143	79.94
328.372	85.94
328.6	84.94
328.829	85.94
329.058	89.94
329.287	85.94
329.515	82.94
329.744	102.94
329.972	86.94
330.201	76.94
330.43	92.94
330.658	98.94
330.887	76.94
331.115	94.94
331.344	86.94
331.572	93.94
331.801	72.94
332.03	78.94
332.258	87.94
332.486	88.94
332.715	86.94
332.943	88.94
333.172	91.94
333.4	63.94
333.629	81.94
333.857	78.94
334.085	103.94
334.314	81.94
334.542	92.94
334.771	88.94
334.999	89.94
335.227	78.94
335.455	91.94
335.684	83.94
335.912	83.94
336.14	92.94
336.369	94.94
336.597	94.94
336.825	92.94
337.053	77.94
337.281	87.94
337.51	87.94
337.738	82.94
337.966	86.94
338.194	81.94
338.422	89.94
338.65	76.94
338.878	78.94
339.106	93.94
339.334	81.94
339.562	72.94
339.79	77.94
340.018	93.94
340.246	81.94
340.474	77.94
340.702	91.94
340.93	93.94
341.158	88.94
341.386	96.94
341.614	86.94
341.842	80.94
342.07	95.94
342.298	101.94
342.526	84.94
342.754	87.94
342.981	80.94
343.209	82.94
343.437	78.94
343.665	91.94
343.893	83.94
344.12	82.94
344.348	88.94
344.576	88.94
344.804	90.94
345.031	100.94
345.259	78.94
345.487	84.94
345.714	80.94
345.942	84.94
346.17	88.94
346.397	89.94
346.625	82.94
346.853	87.94
347.08	84.94
347.308	88.94
347.535	83.94
347.763	94.94
347.99	85.94
348.218	85.94
348.445	89.94
348.673	83.94
348.9	93.94
349.128	85.94
349.355	92.94
349.583	91.94
349.81	75.94
350.037	82.94
350.265	77.94
350.492	72.94
350.72	73.94
350.947	77.94
351.174	83.94
351.402	81.94
351.629	85.94
351.856	73.94
352.083	69.94
352.311	84.94
352.538	88.94
352.765	85.94
352.992	81.94
353.22	88.94
353.447	84.94
353.674	77.94
353.901	97.94
354.128	82.94
354.355	80.94
354.583	88.94
354.81	72.94
355.037	93.94
355.264	85.94
355.491	82.94
355.718	81.94
355.945	85.94
356.172	95.94
356.399	84.94
356.626	82.94
356.853	85.94
357.08	73.94
357.307	82.94
357.534	87.94
357.761	77.94
357.988	85.94
358.215	80.94
358.441	84.94
358.668	81.94
358.895	89.94
359.122	85.94
359.349	84.94
359.576	81.94
359.802	71.94
360.029	86.94
360.256	92.94
360.483	96.94
360.709	88.94
360.936	87.94
361.163	75.94
361.39	83.94
361.616	75.94
361.843	83.94
362.07	77.94
362.296	78.94
362.523	84.94
362.749	82.94
362.976	85.94
363.203	85.94
363.429	76.94
363.656	71.94
363.882	77.94
364.109	79.94
364.335	93.94
364.562	94.94
364.788	69.94
365.015	80.94
365.241	82.94
365.468	77.94
365.694	80.94
365.92	79.94
366.147	88.94
366.373	83.94
366.599	72.94
366.826	93.94
367.052	104.94
367.278	88.94
367.505	74.94
367.731	87.94
367.957	88.94
368.184	90.94
368.41	94.94
368.636	84.94
368.862	86.94
369.089	93.94
369.315	77.94
369.541	86.94
369.767	87.94
369.993	80.94
370.219	77.94
370.445	88.94
370.672	104.94
370.898	81.94
371.124	92.94
371.35	94.94
371.576	109.94
371.802	98.94
372.028	86.94
372.254	101.94
372.48	63.94
372.706	74.94
372.932	88.94
373.158	104.94
373.384	92.94
373.61	83.94
373.835	89.94
374.061	81.94
374.287	87.94
374.513	82.94
374.739	99.94
374.965	78.94
375.191	95.94
375.416	95.94
375.642	93.94
375.868	94.94
376.094	102.94
376.319	98.94
376.545	92.94
376.771	93.94
376.997	103.94
377.222	103.94
377.448	85.94
377.674	95.94
377.899	92.94
378.125	94.94
378.35	80.94
378.576	92.94
378.802	98.94
379.027	94.94
379.253	110.94
379.478	86.94
379.704	90.94
379.929	104.94
380.155	94.94
380.38	89.94
380.606	90.94
380.831	82.94
381.057	94.94
381.282	93.94
381.507	96.94
381.733	105.94
381.958	95.94
382.184	107.94
382.409	85.94
382.634	99.94
382.86	91.94
383.085	106.94
383.31	90.94
383.535	83.94
383.761	93.94
383.986	113.94
384.211	96.94
384.436	91.94
384.662	87.94
384.887	92.94
385.112	94.94
385.337	84.94
385.562	101.94
385.787	97.94
386.013	103.94
386.238	83.94
386.463	93.94
386.688	94.94
386.913	92.94
387.138	96.94
387.363	98.94
387.588	94.94
387.813	113.94
388.038	86.94
388.263	101.94
388.488	97.94
388.713	99.94
388.938	99.94
389.163	81.94
389.387	97.94
389.612	93.94
389.837	98.94
390.062	96.94
390.287	99.94
390.512	89.94
390.736	112.94
390.961	106.94
391.186	96.94
391.411	90.94
391.636	86.94
391.86	107.94
392.085	100.94
392.31	105.94
392.534	113.94
392.759	102.94
392.984	109.94
393.208	99.94
393.433	92.94
393.658	104.94
393.882	98.94
394.107	115.94
394.331	111.94
394.556	110.94
394.78	107.94
395.005	116.94
395.229	116.94
395.454	113.94
395.678	102.94
395.903	115.94
396.127	113.94
396.352	113.94
396.576	104.94
396.801	103.94
397.025	107.94
397.249	94.94
397.474	89.94
397.698	106.94
397.922	98.94
398.147	112.94
398.371	100.94
398.595	122.94
398.82	118.94
399.044	106.94
399.268	107.94
399.492	106.94
399.717	114.94
399.941	103.94
400.165	118.94
400.389	124.94
400.613	113.94
400.837	112.94
401.062	118.94
401.286	107.94
401.51	116.94
401.734	116.94
401.958	122.94
402.182	92.94
402.406	116.94
402.63	103.94
402.854	135.94
403.078	121.94
403.302	119.94
403.526	106.94
403.75	105.94
403.974	108.94
404.198	120.94
404.422	114.94
404.645	99.94
404.869	113.94
405.093	123.94
405.317	120.94
405.541	115.94
405.765	108.94
405.988	114.94
406.212	108.94
406.436	110.94
406.66	112.94
406.883	110.94
407.107	118.94
407.331	105.94
407.555	96.94
407.778	113.94
408.002	114.94
408.226	118.94
408.449	126.94
408.673	119.94
408.896	126.94
409.12	130.94
409.344	115.94
409.567	118.94
409.791	112.94
410.014	116.94
410.238	117.94
410.461	121.94
410.685	130.94
410.908	108.94
411.132	124.94
411.355	121.94
411.578	127.94
411.802	102.94
412.025	102.94
412.249	133.94
412.472	114.94
412.695	116.94
412.919	123.94
413.142	131.94
413.365	118.94
413.589	130.94
413.812	113.94
414.035	117.94
414.258	131.94
414.482	123.94
414.705	124.94
414.928	118.94
415.151	127.94
415.374	123.94
415.597	129.94
415.821	110.94
416.044	126.94
416.267	126.94
416.49	126.94
416.713	129.94
416.936	135.94
417.159	112.94
417.382	125.94
417.605	126.94
417.828	124.94
418.051	128.94
418.274	126.94
418.497	130.94
418.72	135.94
418.943	120.94
419.166	134.94
419.389	124.94
419.611	127.94
419.834	121.94
420.057	137.94
420.28	127.94
420.503	120.94
420.726	130.94
420.948	130.94
421.171	125.94
421.394	119.94
421.617	130.94
421.839	130.94
422.062	142.94
422.285	143.94
422.507	125.94
422.73	122.94
422.953	132.94
423.175	128.94
423.398	125.94
423.621	133.94
423.843	123.94
424.066	123.94
424.288	138.94
424.511	131.94
424.733	140.94
424.956	148.94
425.178	127.94
425.401	124.94
425.623	132.94
425.846	140.94
426.068	137.94
426.291	133.94
426.513	114.94
426.735	111.94
426.958	121.94
427.18	114.94
427.402	126.94
427.625	113.94
427.847	125.94
428.069	137.94
428.292	132.94
428.514	135.94
428.736	137.94
428.958	122.94
429.181	123.94
429.403	122.94
429.625	132.94
429.847	125.94
430.069	130.94
430.292	135.94
430.514	113.94
430.736	125.94
430.958	126.94
431.18	125.94
431.402	132.94
431.624	112.94
431.846	110.94
432.068	94.94
432.29	116.94
432.512	112.94
432.734	120.94
432.956	131.94
433.178	146.94
433.4	140.94
433.622	116.94
433.844	145.94
434.066	122.94
434.287	116.94
434.509	82.94
434.731	91.94
434.953	97.94
435.175	123.94
435.397	110.94
435.618	130.94
435.84	123.94
436.062	112.94
436.284	112.94
436.505	134.94
436.727	122.94
436.949	117.94
437.17	130.94
437.392	140.94
437.614	132.94
437.835	121.94
438.057	98.94
438.278	111.94
438.5	119.94
438.721	121.94
438.943	130.94
439.165	149.94
439.386	150.94
439.608	142.94
439.829	152.94
440.05	145.94
440.272	140.94
440.493	141.94
440.715	138.94
440.936	141.94
441.158	140.94
441.379	144.94
441.6	148.94
441.822	154.94
442.043	146.94
442.264	143.94
442.486	138.94
442.707	141.94
442.928	137.94
443.149	146.94
443.371	139.94
443.592	120.94
443.813	139.94
444.034	139.94
444.255	146.94
444.476	138.94
444.698	146.94
444.919	138.94
445.14	258.94
445.361	197.94
445.582	148.94
445.803	145.94
446.024	147.94
446.245	127.94
446.466	154.94
446.687	144.94
446.908	166.94
447.129	157.94
447.35	142.94
447.571	147.94
447.792	140.94
448.013	132.94
448.234	157.94
448.455	128.94
448.675	148.94
448.896	140.94
449.117	121.94
449.338	138.94
449.559	129.94
449.779	128.94
450	129.94
450.221	142.94
450.442	149.94
450.662	120.94
450.883	133.94
451.104	123.94
451.324	134.94
451.545	138.94
451.766	115.94
451.986	130.94
452.207	128.94
452.428	135.94
452.648	116.94
452.869	126.94
453.089	115.94
453.31	113.94
453.53	121.94
453.751	109.94
453.971	106.94
454.192	99.94
454.412	95.94
454.633	121.94
454.853	109.94
455.073	132.94
455.294	118.94
455.514	114.94
455.734	120.94
455.955	108.94
456.175	109.94
456.395	117.94
456.616	105.94
456.836	108.94
457.056	102.94
457.276	117.94
457.497	118.94
457.717	115.94
457.937	106.94
458.157	114.94
458.377	102.94
458.598	105.94
458.818	103.94
459.038	95.94
459.258	91.94
459.478	96.94
459.698	93.94
459.918	97.94
460.138	102.94
460.358	103.94
460.578	111.94
460.798	105.94
461.018	112.94
461.238	92.94
461.458	113.94
461.678	103.94
461.898	112.94
462.118	110.94
462.338	120.94
462.558	118.94
462.777	123.94
462.997	124.94
463.217	119.94
463.437	113.94
463.657	115.94
463.876	109.94
464.096	132.94
464.316	108.94
464.536	106.94
464.755	124.94
464.975	114.94
465.195	128.94
465.414	118.94
465.634	120.94
465.854	107.94
466.073	122.94
466.293	130.94
466.512	137.94
466.732	116.94
466.951	139.94
467.171	134.94
467.391	131.94
467.61	129.94
467.829	126.94
468.049	137.94
468.268	128.94
468.488	127.94
468.707	134.94
468.927	133.94
469.146	140.94
469.365	136.94
469.585	113.94
469.804	132.94
470.023	143.94
470.243	136.94
470.462	128.94
470.681	138.94
470.901	143.94
471.12	151.94
471.339	145.94
471.558	117.94
471.777	132.94
471.997	138.94
472.216	119.94
472.435	127.94
472.654	101.94
472.873	101.94
473.092	131.94
473.311	118.94
473.53	118.94
473.749	139.94
473.968	121.94
474.187	120.94
474.406	115.94
474.625	118.94
474.844	133.94
475.063	122.94
475.282	122.94
475.501	115.94
475.72	122.94
475.939	122.94
476.158	137.94
476.377	124.94
476.596	133.94
476.814	111.94
477.033	107.94
477.252	113.94
477.471	135.94
477.69	133.94
477.908	137.94
478.127	156.94
478.346	154.94
478.564	144.94
478.783	128.94
479.002	137.94
479.22	141.94
479.439	138.94
479.658	124.94
479.876	110.94
480.095	97.94
480.313	117.94
480.532	116.94
480.751	96.94
480.969	74.94
481.188	93.94
481.406	102.94
481.624	96.94
481.843	76.94
482.061	96.94
482.28	114.94
482.498	108.94
482.717	117.94
482.935	131.94
483.153	144.94
483.372	150.94
483.59	173.94
483.808	146.94
484.027	132.94
484.245	118.94
484.463	146.94
484.681	160.94
484.9	139.94
485.118	126.94
485.336	120.94
485.554	117.94
485.772	107.94
485.99	102.94
486.209	110.94
486.427	92.94
486.645	123.94
486.863	146.94
487.081	146.94
487.299	118.94
487.517	125.94
487.735	157.94
487.953	188.94
488.171	180.94
488.389	197.94
488.607	156.94
488.825	152.94
489.043	132.94
489.261	132.94
489.479	131.94
489.696	154.94
489.914	136.94
490.132	139.94
490.35	137.94
490.568	168.94
490.786	152.94
491.003	176.94
491.221	184.94
491.439	188.94
491.657	179.94
491.874	201.94
492.092	231.94
492.31	246.94
492.527	229.94
492.745	214.94
492.963	199.94
493.18	188.94
493.398	174.94
493.615	170.94
493.833	175.94
494.05	177.94
494.268	170.94
494.485	158.94
494.703	156.94
494.92	176.94
495.138	186.94
495.355	188.94
495.573	178.94
495.79	144.94
496.008	158.94
496.225	158.94
496.442	144.94
496.66	168.94
496.877	167.94
497.094	164.94
497.312	150.94
497.529	162.94
497.746	136.94
497.963	152.94
498.181	125.94
498.398	128.94
498.615	113.94
498.832	122.94
499.049	116.94
499.267	122.94
499.484	116.94
499.701	129.94
499.918	129.94
500.135	134.94
500.352	143.94
500.569	140.94
500.786	149.94
501.003	136.94
501.22	136.94
501.437	141.94
501.654	134.94
501.871	122.94
502.088	132.94
502.305	139.94
502.522	148.94
502.739	130.94
502.956	130.94
503.172	133.94
503.389	115.94
503.606	116.94
503.823	105.94
504.04	126.94
504.256	120.94
504.473	124.94
504.69	129.94
504.907	122.94
505.123	114.94
505.34	116.94
505.557	115.94
505.773	132.94
505.99	124.94
506.207	137.94
506.423	128.94
506.64	115.94
506.856	127.94
507.073	109.94
507.289	128.94
507.506	122.94
507.722	116.94
507.939	117.94
508.155	104.94
508.372	103.94
508.588	102.94
508.805	117.94
509.021	99.94
509.238	99.94
509.454	89.94
509.67	87.94
509.887	110.94
510.103	99.94
510.319	94.94
510.536	89.94
510.752	84.94
510.968	93.94
511.184	85.94
511.401	86.94
511.617	86.94
511.833	91.94
512.049	92.94
512.265	108.94
512.481	104.94
512.698	97.94
512.914	90.94
513.13	107.94
513.346	92.94
513.562	93.94
513.778	104.94
513.994	102.94
514.21	105.94
514.426	104.94
514.642	86.94
514.858	100.94
515.074	92.94
515.29	105.94
515.506	82.94
515.721	96.94
515.937	92.94
516.153	87.94
516.369	91.94
516.585	88.94
516.801	82.94
517.016	96.94
517.232	88.94
517.448	104.94
517.664	92.94
517.879	95.94
518.095	93.94
518.311	96.94
518.527	96.94
518.742	98.94
518.958	109.94
519.173	113.94
519.389	104.94
519.605	120.94
519.82	101.94
520.036	116.94
520.251	116.94
520.467	104.94
520.682	112.94
520.898	89.94
521.113	85.94
521.329	101.94
521.544	92.94
521.76	88.94
521.975	84.94
522.19	97.94
522.406	109.94
522.621	114.94
522.836	96.94
523.052	109.94
523.267	109.94
523.482	107.94
523.698	107.94
523.913	114.94
524.128	114.94
524.343	130.94
524.559	119.94
524.774	120.94
524.989	125.94
525.204	116.94
525.419	128.94
525.634	92.94
525.849	105.94
526.064	105.94
526.28	93.94
526.495	82.94
526.71	84.94
526.925	85.94
527.14	83.94
527.355	85.94
527.57	97.94
527.785	105.94
527.999	101.94
528.214	99.94
528.429	122.94
528.644	116.94
528.859	138.94
529.074	140.94
529.289	168.94
529.503	168.94
529.718	131.94
529.933	125.94
530.148	101.94
530.363	86.94
530.577	88.94
530.792	88.94
531.007	87.94
531.221	84.94
531.436	85.94
531.651	74.94
531.865	77.94
532.08	82.94
532.295	90.94
532.509	92.94
532.724	84.94
532.938	90.94
533.153	94.94
533.367	102.94
533.582	123.94
533.796	122.94
534.011	110.94
534.225	94.94
534.44	85.94
534.654	91.94
534.868	97.94
535.083	107.94
535.297	106.94
535.511	101.94
535.726	104.94
535.94	104.94
536.154	101.94
536.369	82.94
536.583	68.94
536.797	91.94
537.011	86.94
537.225	75.94
537.44	85.94
537.654	103.94
537.868	88.94
538.082	82.94
538.296	92.94
538.51	94.94
538.724	128.94
538.938	118.94
539.153	125.94
539.367	116.94
539.581	112.94
539.795	107.94
540.009	98.94
540.222	112.94
540.436	114.94
540.65	116.94
540.864	116.94
541.078	132.94
541.292	133.94
541.506	140.94
541.72	159.94
541.934	191.94
542.147	209.94
542.361	176.94
542.575	162.94
542.789	150.94
543.002	148.94
543.216	124.94
543.43	131.94
543.644	136.94
543.857	134.94
544.071	151.94
544.285	156.94
544.498	153.94
544.712	152.94
544.925	149.94
545.139	169.94
545.352	151.94
545.566	154.94
545.779	164.94
545.993	145.94
546.206	161.94
546.42	155.94
546.633	154.94
546.847	171.94
547.06	160.94
547.274	168.94
547.487	183.94
547.7	170.94
547.914	166.94
548.127	153.94
548.34	158.94
548.554	150.94
548.767	134.94
548.98	136.94
549.193	148.94
549.407	149.94
549.62	156.94
549.833	132.94
550.046	153.94
550.259	160.94
550.473	140.94
550.686	145.94
550.899	143.94
551.112	140.94
551.325	142.94
551.538	129.94
551.751	124.94
551.964	130.94
552.177	139.94
552.39	148.94
552.603	152.94
552.816	142.94
553.029	160.94
553.242	151.94
553.455	139.94
553.667	161.94
553.88	146.94
554.093	162.94
554.306	142.94
554.519	164.94
554.732	145.94
554.944	138.94
555.157	124.94
555.37	145.94
555.583	134.94
555.795	142.94
556.008	149.94
556.221	130.94
556.433	134.94
556.646	139.94
556.859	142.94
557.071	139.94
557.284	154.94
557.496	144.94
557.709	136.94
557.921	133.94
558.134	144.94
558.346	139.94
558.559	130.94
558.771	128.94
558.984	149.94
559.196	122.94
559.409	128.94
559.621	131.94
559.833	138.94
560.046	136.94
560.258	135.94
560.47	142.94
560.683	135.94
560.895	122.94
561.107	115.94
561.32	125.94
561.532	134.94
561.744	130.94
561.956	126.94
562.168	139.94
562.381	128.94
562.593	126.94
562.805	130.94
563.017	126.94
563.229	122.94
563.441	131.94
563.653	118.94
563.865	100.94
564.077	128.94
564.289	126.94
564.501	124.94
564.713	119.94
564.925	123.94
565.137	133.94
565.349	128.94
565.561	117.94
565.773	103.94
565.985	115.94
566.197	104.94
566.408	112.94
566.62	114.94
566.832	137.94
567.044	121.94
567.255	103.94
567.467	125.94
567.679	108.94
567.891	112.94
568.102	115.94
568.314	93.94
568.526	105.94
568.737	95.94
568.949	81.94
569.161	89.94
569.372	92.94
569.584	91.94
569.795	88.94
570.007	89.94
570.218	76.94
570.43	90.94
570.641	96.94
570.853	104.94
571.064	91.94
571.276	106.94
571.487	116.94
571.698	108.94
571.91	95.94
572.121	101.94
572.333	117.94
572.544	87.94
572.755	88.94
572.966	100.94
573.178	101.94
573.389	66.94
573.6	76.94
573.811	100.94
574.023	84.94
574.234	96.94
574.445	99.94
574.656	97.94
574.867	97.94
575.078	94.94
575.289	97.94
575.501	91.94
575.712	85.94
575.923	92.94
576.134	101.94
576.345	102.94
576.556	109.94
576.767	91.94
576.978	96.94
577.188	114.94
577.399	102.94
577.61	102.94
577.821	96.94
578.032	100.94
578.243	100.94
578.454	95.94
578.665	82.94
578.875	93.94
579.086	88.94
579.297	74.94
579.508	92.94
579.718	89.94
579.929	77.94
580.14	76.94
580.35	99.94
580.561	91.94
580.772	90.94
580.982	85.94
581.193	90.94
581.403	88.94
581.614	113.94
581.825	93.94
582.035	92.94
582.246	103.94
582.456	89.94
582.667	89.94
582.877	96.94
583.087	93.94
583.298	98.94
583.508	89.94
583.719	79.94
583.929	99.94
584.139	91.94
584.35	74.94
584.56	70.94
584.77	80.94
584.981	82.94
585.191	101.94
585.401	91.94
585.611	92.94
585.821	89.94
586.032	83.94
586.242	91.94
586.452	88.94
586.662	75.94
586.872	82.94
587.082	77.94
587.292	90.94
587.502	92.94
587.713	100.94
587.923	87.94
588.133	82.94
588.343	85.94
588.553	88.94
588.762	96.94
588.972	80.94
589.182	75.94
589.392	98.94
589.602	85.94
589.812	86.94
590.022	93.94
590.232	76.94
590.441	77.94
590.651	84.94
590.861	79.94
591.071	75.94
591.281	96.94
591.49	87.94
591.7	108.94
591.91	76.94
592.119	79.94
592.329	84.94
592.539	84.94
592.748	97.94
592.958	88.94
593.167	81.94
593.377	87.94
593.587	85.94
593.796	94.94
594.006	86.94
594.215	96.94
594.424	76.94
594.634	90.94
594.843	85.94
595.053	86.94
595.262	88.94
595.472	91.94
595.681	86.94
595.89	99.94
596.1	98.94
596.309	93.94
596.518	82.94
596.727	89.94
596.937	97.94
597.146	77.94
597.355	93.94
597.564	97.94
597.774	88.94
597.983	96.94
598.192	82.94
598.401	90.94
598.61	104.94
598.819	95.94
599.028	87.94
599.237	88.94
599.446	103.94
599.655	86.94
599.864	88.94
600.073	95.94
600.282	101.94
600.491	99.94
600.7	87.94
600.909	79.94
601.118	97.94
601.327	97.94
601.536	100.94
601.745	96.94
601.953	98.94
602.162	108.94
602.371	100.94
602.58	101.94
602.789	104.94
602.997	126.94
603.206	132.94
603.415	110.94
603.623	114.94
603.832	117.94
604.041	110.94
604.249	112.94
604.458	94.94
604.666	104.94
604.875	90.94
605.084	101.94
605.292	101.94
605.501	107.94
605.709	122.94
605.918	108.94
606.126	120.94
606.334	122.94
606.543	109.94
606.751	123.94
606.96	114.94
607.168	96.94
607.376	116.94
607.585	118.94
607.793	124.94
608.001	98.94
608.21	106.94
608.418	109.94
608.626	109.94
608.834	123.94
609.043	112.94
609.251	119.94
609.459	104.94
609.667	112.94
609.875	117.94
610.083	114.94
610.291	123.94
610.499	124.94
610.707	109.94
610.916	114.94
611.124	109.94
611.332	99.94
611.54	117.94
611.748	117.94
611.955	105.94
612.163	108.94
612.371	124.94
612.579	128.94
612.787	115.94
612.995	119.94
613.203	108.94
613.411	110.94
613.618	97.94
613.826	98.94
614.034	117.94
614.242	111.94
614.449	102.94
614.657	107.94
614.865	103.94
615.072	122.94
615.28	105.94
615.488	102.94
615.695	100.94
615.903	119.94
616.111	111.94
616.318	113.94
616.526	122.94
616.733	119.94
616.941	120.94
617.148	115.94
617.356	106.94
617.563	99.94
617.771	104.94
617.978	121.94
618.185	100.94
618.393	118.94
618.6	110.94
618.807	117.94
619.015	104.94
619.222	120.94
619.429	100.94
619.637	117.94
619.844	108.94
620.051	95.94
620.258	98.94
620.466	109.94
620.673	113.94
620.88	102.94
621.087	122.94
621.294	103.94
621.501	96.94
621.708	108.94
621.915	99.94
622.122	112.94
622.329	107.94
622.536	110.94
622.743	122.94
622.95	111.94
623.157	112.94
623.364	121.94
623.571	109.94
623.778	100.94
623.985	105.94
624.192	108.94
624.399	108.94
624.606	115.94
624.812	106.94
625.019	98.94
625.226	85.94
625.433	107.94
625.639	104.94
625.846	87.94
626.053	96.94
626.259	100.94
626.466	102.94
626.673	92.94
626.879	90.94
627.086	99.94
627.293	100.94
627.499	112.94
627.706	119.94
627.912	113.94
628.119	106.94
628.325	122.94
628.532	112.94
628.738	126.94
628.945	113.94
629.151	108.94
629.357	109.94
629.564	111.94
629.77	108.94
629.976	88.94
630.183	107.94
630.389	115.94
630.595	101.94
630.802	96.94
631.008	93.94
631.214	100.94
631.42	88.94
631.627	112.94
631.833	105.94
632.039	93.94
632.245	94.94
632.451	102.94
632.657	96.94
632.863	112.94
633.069	101.94
633.275	93.94
633.481	102.94
633.688	95.94
633.893	103.94
634.099	97.94
634.305	89.94
634.511	106.94
634.717	111.94
634.923	88.94
635.129	104.94
635.335	98.94
635.541	96.94
635.747	113.94
635.952	110.94
636.158	97.94
636.364	105.94
636.57	102.94
636.775	84.94
636.981	99.94
637.187	102.94
637.392	118.94
637.598	109.94
637.804	88.94
638.009	104.94
638.215	109.94
638.421	102.94
638.626	106.94
638.832	106.94
639.037	97.94
639.243	85.94
639.448	101.94
639.654	115.94
639.859	90.94
640.065	94.94
640.27	109.94
640.475	99.94
640.681	88.94
640.886	92.94
641.091	91.94
641.297	91.94
641.502	97.94
641.707	102.94
641.913	109.94
642.118	84.94
642.323	95.94
642.528	98.94
642.733	93.94
642.939	116.94
643.144	107.94
643.349	91.94
643.554	113.94
643.759	83.94
643.964	86.94
644.169	117.94
644.374	90.94
644.579	91.94
644.784	103.94
644.989	97.94
645.194	101.94
645.399	118.94
645.604	82.94
645.809	92.94
646.014	101.94
646.219	99.94
646.423	95.94
646.628	103.94
646.833	88.94
647.038	109.94
647.243	112.94
647.447	98.94
647.652	95.94
647.857	96.94
648.062	97.94
648.266	86.94
648.471	89.94
648.676	98.94
648.88	92.94
649.085	85.94
649.289	94.94
649.494	89.94
649.698	110.94
649.903	93.94
650.107	95.94
650.312	88.94
650.516	99.94
650.721	100.94
650.925	82.94
651.13	114.94
651.334	99.94
651.539	93.94
651.743	101.94
651.947	87.94
652.152	97.94
652.356	104.94
652.56	99.94
652.764	84.94
652.969	84.94
653.173	84.94
653.377	79.94
653.581	96.94
653.785	95.94
653.99	106.94
654.194	98.94
654.398	80.94
654.602	87.94
654.806	104.94
655.01	102.94
655.214	99.94
655.418	96.94
655.622	75.94
655.826	89.94
656.03	87.94
656.234	84.94
656.438	89.94
656.642	89.94
656.846	101.94
657.049	98.94
657.253	97.94
657.457	82.94
657.661	82.94
657.865	85.94
658.068	89.94
658.272	81.94
658.476	84.94
658.68	83.94
658.883	81.94
659.087	92.94
659.291	88.94
659.494	76.94
659.698	82.94
659.901	83.94
660.105	76.94
660.309	77.94
660.512	94.94
660.716	81.94
660.919	79.94
661.123	89.94
661.326	82.94
661.53	71.94
661.733	102.94
661.936	75.94
662.14	87.94
662.343	85.94
662.546	87.94
662.75	100.94
662.953	80.94
663.156	68.94
663.36	83.94
663.563	92.94
663.766	85.94
663.969	86.94
664.173	77.94
664.376	93.94
664.579	89.94
664.782	80.94
664.985	73.94
665.188	90.94
665.391	84.94
665.594	70.94
665.797	85.94
666	65.94
666.203	74.94
666.406	68.94
666.609	75.94
666.812	84.94
667.015	79.94
667.218	74.94
667.421	72.94
667.624	96.94
667.827	100.94
668.03	91.94
668.232	77.94
668.435	75.94
668.638	85.94
668.841	89.94
669.043	83.94
669.246	89.94
669.449	92.94
669.651	83.94
669.854	98.94
670.057	88.94
670.259	75.94
670.462	82.94
670.665	87.94
670.867	78.94
671.07	82.94
671.272	79.94
671.475	83.94
671.677	93.94
671.88	80.94
672.082	68.94
672.284	78.94
672.487	88.94
672.689	78.94
672.892	88.94
