Data from Location4.07152019.Energy5.Lamp.07192019.3%Agarose_HRD10591_16-19-53-926.txt Node
Date: Fri Jul 19 16:19:53 EDT 2019
User: cochatt
Spectrometer: HR+D1059
Trigger mode: 1
Integration Time (sec): 1.000000E-1
Scans to average: 1
Electric dark correction enabled: true
Nonlinearity correction enabled: false
Boxcar width: 0
XAxis mode: Wavelengths
Number of Pixels in Spectrum: 2048
>>>>>Begin Spectral Data<<<<<
223.165	-10.38
223.4	-10.38
223.635	-10.38
223.869	-14.38
224.104	-18.38
224.338	-7.38
224.573	-8.38
224.808	-14.38
225.042	-28.38
225.277	-8.38
225.511	0.62
225.746	13.62
225.98	8.62
226.215	13.62
226.449	25.62
226.683	4.62
226.918	23.62
227.152	19.62
227.387	13.62
227.621	27.62
227.856	42.62
228.09	39.62
228.324	74.62
228.559	39.62
228.793	47.62
229.027	55.62
229.262	60.62
229.496	57.62
229.73	60.62
229.964	69.62
230.199	69.62
230.433	63.62
230.667	72.62
230.901	66.62
231.136	66.62
231.37	78.62
231.604	76.62
231.838	97.62
232.072	79.62
232.306	76.62
232.541	82.62
232.775	85.62
233.009	82.62
233.243	67.62
233.477	65.62
233.711	86.62
233.945	75.62
234.179	83.62
234.413	72.62
234.647	89.62
234.881	74.62
235.115	87.62
235.349	83.62
235.583	79.62
235.817	84.62
236.051	79.62
236.285	73.62
236.519	77.62
236.753	78.62
236.987	94.62
237.221	68.62
237.455	81.62
237.689	84.62
237.922	72.62
238.156	82.62
238.39	68.62
238.624	72.62
238.858	72.62
239.091	59.62
239.325	82.62
239.559	83.62
239.793	69.62
240.027	72.62
240.26	69.62
240.494	66.62
240.728	75.62
240.961	65.62
241.195	73.62
241.429	69.62
241.662	77.62
241.896	67.62
242.13	76.62
242.363	88.62
242.597	70.62
242.83	70.62
243.064	78.62
243.298	88.62
243.531	71.62
243.765	68.62
243.998	73.62
244.232	76.62
244.465	65.62
244.699	76.62
244.932	68.62
245.166	66.62
245.399	80.62
245.633	71.62
245.866	66.62
246.099	72.62
246.333	60.62
246.566	66.62
246.8	71.62
247.033	67.62
247.266	61.62
247.5	77.62
247.733	79.62
247.966	63.62
248.2	73.62
248.433	71.62
248.666	56.62
248.899	77.62
249.133	80.62
249.366	84.62
249.599	78.62
249.832	72.62
250.066	73.62
250.299	59.62
250.532	70.62
250.765	79.62
250.998	67.62
251.231	76.62
251.465	82.62
251.698	88.62
251.931	77.62
252.164	74.62
252.397	78.62
252.63	91.62
252.863	77.62
253.096	72.62
253.329	69.62
253.562	74.62
253.795	65.62
254.028	79.62
254.261	70.62
254.494	55.62
254.727	76.62
254.96	75.62
255.193	82.62
255.426	69.62
255.659	89.62
255.892	68.62
256.124	69.62
256.357	64.62
256.59	73.62
256.823	65.62
257.056	83.62
257.289	62.62
257.521	85.62
257.754	82.62
257.987	87.62
258.22	76.62
258.452	91.62
258.685	67.62
258.918	81.62
259.151	76.62
259.383	89.62
259.616	91.62
259.849	72.62
260.081	81.62
260.314	68.62
260.547	66.62
260.779	87.62
261.012	72.62
261.244	76.62
261.477	75.62
261.71	75.62
261.942	78.62
262.175	78.62
262.407	61.62
262.64	69.62
262.872	74.62
263.105	81.62
263.337	86.62
263.57	72.62
263.802	56.62
264.035	85.62
264.267	67.62
264.499	80.62
264.732	92.62
264.964	83.62
265.197	69.62
265.429	65.62
265.661	73.62
265.894	72.62
266.126	79.62
266.358	72.62
266.591	82.62
266.823	80.62
267.055	69.62
267.287	67.62
267.52	73.62
267.752	73.62
267.984	67.62
268.216	73.62
268.448	71.62
268.681	90.62
268.913	72.62
269.145	68.62
269.377	82.62
269.609	84.62
269.841	80.62
270.073	72.62
270.306	82.62
270.538	68.62
270.77	81.62
271.002	70.62
271.234	81.62
271.466	80.62
271.698	75.62
271.93	84.62
272.162	86.62
272.394	79.62
272.626	73.62
272.858	75.62
273.09	68.62
273.322	93.62
273.553	79.62
273.785	89.62
274.017	94.62
274.249	81.62
274.481	73.62
274.713	82.62
274.945	85.62
275.176	78.62
275.408	72.62
275.64	75.62
275.872	68.62
276.104	71.62
276.335	84.62
276.567	83.62
276.799	72.62
277.031	72.62
277.262	75.62
277.494	76.62
277.726	86.62
277.957	77.62
278.189	80.62
278.421	63.62
278.652	72.62
278.884	72.62
279.115	84.62
279.347	68.62
279.579	87.62
279.81	69.62
280.042	83.62
280.273	82.62
280.505	72.62
280.736	88.62
280.968	71.62
281.199	77.62
281.431	85.62
281.662	71.62
281.894	66.62
282.125	85.62
282.356	74.62
282.588	68.62
282.819	71.62
283.051	78.62
283.282	81.62
283.513	91.62
283.745	79.62
283.976	73.62
284.207	72.62
284.439	87.62
284.67	77.62
284.901	81.62
285.132	92.62
285.364	69.62
285.595	94.62
285.826	80.62
286.057	90.62
286.288	78.62
286.52	67.62
286.751	78.62
286.982	82.62
287.213	89.62
287.444	82.62
287.675	80.62
287.906	81.62
288.138	85.62
288.369	80.62
288.6	83.62
288.831	88.62
289.062	72.62
289.293	95.62
289.524	71.62
289.755	89.62
289.986	63.62
290.217	85.62
290.448	80.62
290.679	76.62
290.91	85.62
291.141	68.62
291.371	76.62
291.602	75.62
291.833	75.62
292.064	86.62
292.295	64.62
292.526	91.62
292.757	85.62
292.987	73.62
293.218	68.62
293.449	92.62
293.68	88.62
293.91	83.62
294.141	77.62
294.372	72.62
294.603	66.62
294.833	82.62
295.064	74.62
295.295	73.62
295.525	79.62
295.756	69.62
295.987	88.62
296.217	82.62
296.448	76.62
296.679	92.62
296.909	72.62
297.14	85.62
297.37	97.62
297.601	77.62
297.831	72.62
298.062	75.62
298.292	80.62
298.523	84.62
298.753	70.62
298.984	75.62
299.214	84.62
299.445	93.62
299.675	79.62
299.905	77.62
300.136	81.62
300.366	83.62
300.597	81.62
300.827	88.62
301.057	78.62
301.288	85.62
301.518	76.62
301.748	79.62
301.979	75.62
302.209	85.62
302.439	73.62
302.669	86.62
302.9	93.62
303.13	83.62
303.36	88.62
303.59	82.62
303.82	73.62
304.051	76.62
304.281	92.62
304.511	97.62
304.741	82.62
304.971	75.62
305.201	71.62
305.431	75.62
305.661	79.62
305.891	87.62
306.121	83.62
306.352	83.62
306.582	67.62
306.812	67.62
307.042	87.62
307.272	84.62
307.502	79.62
307.731	72.62
307.961	89.62
308.191	78.62
308.421	73.62
308.651	82.62
308.881	86.62
309.111	77.62
309.341	69.62
309.571	85.62
309.8	70.62
310.03	94.62
310.26	73.62
310.49	70.62
310.72	72.62
310.949	86.62
311.179	79.62
311.409	80.62
311.639	76.62
311.868	65.62
312.098	79.62
312.328	74.62
312.557	78.62
312.787	74.62
313.017	79.62
313.246	80.62
313.476	78.62
313.706	74.62
313.935	86.62
314.165	75.62
314.394	90.62
314.624	79.62
314.853	86.62
315.083	75.62
315.312	80.62
315.542	85.62
315.771	77.62
316.001	88.62
316.23	68.62
316.46	93.62
316.689	75.62
316.919	79.62
317.148	78.62
317.377	79.62
317.607	86.62
317.836	71.62
318.065	76.62
318.295	88.62
318.524	81.62
318.753	78.62
318.983	70.62
319.212	76.62
319.441	79.62
319.67	82.62
319.9	77.62
320.129	77.62
320.358	81.62
320.587	69.62
320.816	73.62
321.046	87.62
321.275	81.62
321.504	77.62
321.733	94.62
321.962	77.62
322.191	72.62
322.42	71.62
322.649	86.62
322.878	87.62
323.108	84.62
323.337	84.62
323.566	79.62
323.795	84.62
324.024	97.62
324.253	83.62
324.482	77.62
324.71	86.62
324.939	80.62
325.168	81.62
325.397	82.62
325.626	92.62
325.855	73.62
326.084	83.62
326.313	75.62
326.542	96.62
326.77	82.62
326.999	84.62
327.228	85.62
327.457	79.62
327.686	76.62
327.914	77.62
328.143	99.62
328.372	80.62
328.6	75.62
328.829	74.62
329.058	70.62
329.287	77.62
329.515	74.62
329.744	71.62
329.972	70.62
330.201	80.62
330.43	87.62
330.658	94.62
330.887	99.62
331.115	88.62
331.344	72.62
331.572	100.62
331.801	82.62
332.03	72.62
332.258	85.62
332.486	76.62
332.715	82.62
332.943	83.62
333.172	81.62
333.4	93.62
333.629	82.62
333.857	73.62
334.085	67.62
334.314	75.62
334.542	71.62
334.771	75.62
334.999	81.62
335.227	83.62
335.455	80.62
335.684	82.62
335.912	65.62
336.14	79.62
336.369	83.62
336.597	85.62
336.825	70.62
337.053	73.62
337.281	71.62
337.51	76.62
337.738	73.62
337.966	74.62
338.194	70.62
338.422	91.62
338.65	75.62
338.878	85.62
339.106	87.62
339.334	83.62
339.562	77.62
339.79	78.62
340.018	84.62
340.246	77.62
340.474	81.62
340.702	82.62
340.93	87.62
341.158	73.62
341.386	76.62
341.614	89.62
341.842	83.62
342.07	81.62
342.298	100.62
342.526	73.62
342.754	77.62
342.981	91.62
343.209	77.62
343.437	83.62
343.665	91.62
343.893	80.62
344.12	74.62
344.348	82.62
344.576	79.62
344.804	77.62
345.031	76.62
345.259	79.62
345.487	69.62
345.714	71.62
345.942	83.62
346.17	79.62
346.397	72.62
346.625	86.62
346.853	85.62
347.08	79.62
347.308	96.62
347.535	79.62
347.763	71.62
347.99	75.62
348.218	80.62
348.445	67.62
348.673	81.62
348.9	94.62
349.128	88.62
349.355	79.62
349.583	81.62
349.81	85.62
350.037	78.62
350.265	81.62
350.492	78.62
350.72	83.62
350.947	75.62
351.174	65.62
351.402	77.62
351.629	74.62
351.856	78.62
352.083	81.62
352.311	72.62
352.538	80.62
352.765	67.62
352.992	80.62
353.22	89.62
353.447	70.62
353.674	88.62
353.901	85.62
354.128	74.62
354.355	67.62
354.583	68.62
354.81	68.62
355.037	73.62
355.264	68.62
355.491	79.62
355.718	79.62
355.945	96.62
356.172	88.62
356.399	76.62
356.626	67.62
356.853	79.62
357.08	69.62
357.307	71.62
357.534	83.62
357.761	75.62
357.988	71.62
358.215	83.62
358.441	63.62
358.668	84.62
358.895	87.62
359.122	78.62
359.349	82.62
359.576	86.62
359.802	83.62
360.029	87.62
360.256	66.62
360.483	61.62
360.709	67.62
360.936	83.62
361.163	70.62
361.39	64.62
361.616	70.62
361.843	78.62
362.07	63.62
362.296	77.62
362.523	84.62
362.749	80.62
362.976	84.62
363.203	73.62
363.429	78.62
363.656	78.62
363.882	79.62
364.109	86.62
364.335	86.62
364.562	81.62
364.788	78.62
365.015	81.62
365.241	73.62
365.468	63.62
365.694	92.62
365.92	69.62
366.147	67.62
366.373	85.62
366.599	85.62
366.826	80.62
367.052	83.62
367.278	94.62
367.505	88.62
367.731	87.62
367.957	89.62
368.184	77.62
368.41	96.62
368.636	87.62
368.862	92.62
369.089	77.62
369.315	69.62
369.541	82.62
369.767	86.62
369.993	82.62
370.219	84.62
370.445	69.62
370.672	76.62
370.898	97.62
371.124	91.62
371.35	91.62
371.576	101.62
371.802	76.62
372.028	87.62
372.254	87.62
372.48	88.62
372.706	90.62
372.932	86.62
373.158	86.62
373.384	88.62
373.61	85.62
373.835	82.62
374.061	85.62
374.287	85.62
374.513	80.62
374.739	89.62
374.965	81.62
375.191	76.62
375.416	100.62
375.642	77.62
375.868	87.62
376.094	91.62
376.319	88.62
376.545	87.62
376.771	95.62
376.997	91.62
377.222	86.62
377.448	92.62
377.674	87.62
377.899	96.62
378.125	92.62
378.35	76.62
378.576	77.62
378.802	95.62
379.027	112.62
379.253	83.62
379.478	77.62
379.704	89.62
379.929	98.62
380.155	94.62
380.38	89.62
380.606	101.62
380.831	80.62
381.057	89.62
381.282	84.62
381.507	91.62
381.733	102.62
381.958	86.62
382.184	70.62
382.409	85.62
382.634	95.62
382.86	101.62
383.085	93.62
383.31	85.62
383.535	94.62
383.761	94.62
383.986	98.62
384.211	76.62
384.436	93.62
384.662	85.62
384.887	87.62
385.112	92.62
385.337	90.62
385.562	91.62
385.787	94.62
386.013	80.62
386.238	77.62
386.463	98.62
386.688	84.62
386.913	91.62
387.138	92.62
387.363	92.62
387.588	104.62
387.813	86.62
388.038	109.62
388.263	107.62
388.488	81.62
388.713	98.62
388.938	80.62
389.163	97.62
389.387	113.62
389.612	95.62
389.837	104.62
390.062	96.62
390.287	102.62
390.512	92.62
390.736	101.62
390.961	115.62
391.186	91.62
391.411	99.62
391.636	101.62
391.86	86.62
392.085	89.62
392.31	90.62
392.534	94.62
392.759	104.62
392.984	93.62
393.208	111.62
393.433	100.62
393.658	92.62
393.882	103.62
394.107	109.62
394.331	99.62
394.556	99.62
394.78	110.62
395.005	101.62
395.229	93.62
395.454	99.62
395.678	96.62
395.903	103.62
396.127	93.62
396.352	98.62
396.576	92.62
396.801	93.62
397.025	113.62
397.249	96.62
397.474	114.62
397.698	100.62
397.922	103.62
398.147	107.62
398.371	107.62
398.595	99.62
398.82	95.62
399.044	104.62
399.268	96.62
399.492	94.62
399.717	124.62
399.941	111.62
400.165	107.62
400.389	114.62
400.613	112.62
400.837	91.62
401.062	95.62
401.286	100.62
401.51	104.62
401.734	98.62
401.958	111.62
402.182	108.62
402.406	93.62
402.63	90.62
402.854	99.62
403.078	125.62
403.302	112.62
403.526	108.62
403.75	105.62
403.974	115.62
404.198	117.62
404.422	117.62
404.645	102.62
404.869	103.62
405.093	121.62
405.317	114.62
405.541	114.62
405.765	117.62
405.988	111.62
406.212	112.62
406.436	115.62
406.66	119.62
406.883	111.62
407.107	119.62
407.331	114.62
407.555	118.62
407.778	112.62
408.002	109.62
408.226	102.62
408.449	111.62
408.673	101.62
408.896	122.62
409.12	117.62
409.344	120.62
409.567	125.62
409.791	115.62
410.014	103.62
410.238	123.62
410.461	102.62
410.685	114.62
410.908	113.62
411.132	119.62
411.355	136.62
411.578	119.62
411.802	124.62
412.025	104.62
412.249	111.62
412.472	122.62
412.695	125.62
412.919	105.62
413.142	117.62
413.365	115.62
413.589	100.62
413.812	111.62
414.035	112.62
414.258	103.62
414.482	119.62
414.705	102.62
414.928	119.62
415.151	117.62
415.374	112.62
415.597	126.62
415.821	119.62
416.044	117.62
416.267	118.62
416.49	111.62
416.713	119.62
416.936	122.62
417.159	113.62
417.382	116.62
417.605	120.62
417.828	120.62
418.051	127.62
418.274	121.62
418.497	126.62
418.72	131.62
418.943	111.62
419.166	134.62
419.389	104.62
419.611	125.62
419.834	147.62
420.057	136.62
420.28	131.62
420.503	127.62
420.726	129.62
420.948	115.62
421.171	133.62
421.394	120.62
421.617	127.62
421.839	136.62
422.062	137.62
422.285	131.62
422.507	122.62
422.73	127.62
422.953	125.62
423.175	117.62
423.398	125.62
423.621	124.62
423.843	120.62
424.066	131.62
424.288	120.62
424.511	136.62
424.733	118.62
424.956	126.62
425.178	145.62
425.401	140.62
425.623	131.62
425.846	124.62
426.068	134.62
426.291	116.62
426.513	121.62
426.735	124.62
426.958	129.62
427.18	123.62
427.402	127.62
427.625	118.62
427.847	123.62
428.069	127.62
428.292	119.62
428.514	117.62
428.736	128.62
428.958	127.62
429.181	119.62
429.403	125.62
429.625	124.62
429.847	122.62
430.069	124.62
430.292	126.62
430.514	132.62
430.736	123.62
430.958	107.62
431.18	126.62
431.402	134.62
431.624	108.62
431.846	109.62
432.068	97.62
432.29	115.62
432.512	109.62
432.734	111.62
432.956	132.62
433.178	136.62
433.4	128.62
433.622	134.62
433.844	129.62
434.066	119.62
434.287	102.62
434.509	94.62
434.731	86.62
434.953	105.62
435.175	107.62
435.397	117.62
435.618	118.62
435.84	118.62
436.062	102.62
436.284	115.62
436.505	122.62
436.727	124.62
436.949	114.62
437.17	122.62
437.392	127.62
437.614	111.62
437.835	103.62
438.057	115.62
438.278	100.62
438.5	114.62
438.721	125.62
438.943	140.62
439.165	125.62
439.386	131.62
439.608	146.62
439.829	124.62
440.05	136.62
440.272	138.62
440.493	131.62
440.715	143.62
440.936	127.62
441.158	122.62
441.379	117.62
441.6	141.62
441.822	150.62
442.043	145.62
442.264	132.62
442.486	133.62
442.707	122.62
442.928	137.62
443.149	133.62
443.371	131.62
443.592	128.62
443.813	126.62
444.034	129.62
444.255	128.62
444.476	142.62
444.698	137.62
444.919	141.62
445.14	277.62
445.361	202.62
445.582	153.62
445.803	149.62
446.024	133.62
446.245	144.62
446.466	162.62
446.687	147.62
446.908	152.62
447.129	133.62
447.35	145.62
447.571	143.62
447.792	145.62
448.013	131.62
448.234	139.62
448.455	132.62
448.675	143.62
448.896	131.62
449.117	136.62
449.338	119.62
449.559	130.62
449.779	126.62
450	115.62
450.221	143.62
450.442	131.62
450.662	133.62
450.883	139.62
451.104	125.62
451.324	127.62
451.545	121.62
451.766	122.62
451.986	120.62
452.207	115.62
452.428	120.62
452.648	110.62
452.869	116.62
453.089	112.62
453.31	122.62
453.53	121.62
453.751	92.62
453.971	104.62
454.192	97.62
454.412	113.62
454.633	116.62
454.853	105.62
455.073	102.62
455.294	113.62
455.514	117.62
455.734	109.62
455.955	98.62
456.175	123.62
456.395	104.62
456.616	90.62
456.836	86.62
457.056	103.62
457.276	110.62
457.497	104.62
457.717	107.62
457.937	95.62
458.157	103.62
458.377	112.62
458.598	102.62
458.818	90.62
459.038	70.62
459.258	79.62
459.478	97.62
459.698	76.62
459.918	89.62
460.138	101.62
460.358	103.62
460.578	107.62
460.798	120.62
461.018	111.62
461.238	107.62
461.458	114.62
461.678	107.62
461.898	109.62
462.118	113.62
462.338	108.62
462.558	95.62
462.777	115.62
462.997	97.62
463.217	89.62
463.437	107.62
463.657	106.62
463.876	109.62
464.096	109.62
464.316	104.62
464.536	115.62
464.755	101.62
464.975	111.62
465.195	100.62
465.414	107.62
465.634	112.62
465.854	101.62
466.073	109.62
466.293	132.62
466.512	117.62
466.732	136.62
466.951	124.62
467.171	131.62
467.391	135.62
467.61	117.62
467.829	128.62
468.049	126.62
468.268	125.62
468.488	133.62
468.707	135.62
468.927	126.62
469.146	119.62
469.365	141.62
469.585	129.62
469.804	131.62
470.023	125.62
470.243	143.62
470.462	137.62
470.681	120.62
470.901	132.62
471.12	147.62
471.339	136.62
471.558	131.62
471.777	128.62
471.997	121.62
472.216	119.62
472.435	108.62
472.654	112.62
472.873	110.62
473.092	104.62
473.311	124.62
473.53	119.62
473.749	121.62
473.968	128.62
474.187	114.62
474.406	107.62
474.625	127.62
474.844	110.62
475.063	124.62
475.282	99.62
475.501	123.62
475.72	110.62
475.939	114.62
476.158	113.62
476.377	118.62
476.596	106.62
476.814	98.62
477.033	102.62
477.252	112.62
477.471	113.62
477.69	115.62
477.908	125.62
478.127	129.62
478.346	121.62
478.564	136.62
478.783	120.62
479.002	129.62
479.22	127.62
479.439	137.62
479.658	115.62
479.876	117.62
480.095	103.62
480.313	117.62
480.532	95.62
480.751	94.62
480.969	93.62
481.188	93.62
481.406	72.62
481.624	87.62
481.843	100.62
482.061	94.62
482.28	104.62
482.498	104.62
482.717	98.62
482.935	119.62
483.153	127.62
483.372	123.62
483.59	129.62
483.808	145.62
484.027	131.62
484.245	134.62
484.463	143.62
484.681	149.62
484.9	139.62
485.118	134.62
485.336	133.62
485.554	117.62
485.772	110.62
485.99	93.62
486.209	100.62
486.427	96.62
486.645	111.62
486.863	127.62
487.081	131.62
487.299	125.62
487.517	128.62
487.735	160.62
487.953	170.62
488.171	177.62
488.389	159.62
488.607	157.62
488.825	130.62
489.043	123.62
489.261	134.62
489.479	131.62
489.696	121.62
489.914	137.62
490.132	138.62
490.35	125.62
490.568	161.62
490.786	173.62
491.003	178.62
491.221	169.62
491.439	172.62
491.657	169.62
491.874	187.62
492.092	210.62
492.31	224.62
492.527	240.62
492.745	201.62
492.963	197.62
493.18	177.62
493.398	186.62
493.615	184.62
493.833	180.62
494.05	165.62
494.268	159.62
494.485	159.62
494.703	156.62
494.92	171.62
495.138	157.62
495.355	161.62
495.573	166.62
495.79	158.62
496.008	160.62
496.225	149.62
496.442	155.62
496.66	160.62
496.877	151.62
497.094	164.62
497.312	147.62
497.529	166.62
497.746	130.62
497.963	143.62
498.181	132.62
498.398	114.62
498.615	118.62
498.832	110.62
499.049	116.62
499.267	133.62
499.484	132.62
499.701	120.62
499.918	130.62
500.135	125.62
500.352	143.62
500.569	139.62
500.786	138.62
501.003	144.62
501.22	131.62
501.437	129.62
501.654	121.62
501.871	126.62
502.088	131.62
502.305	123.62
502.522	134.62
502.739	116.62
502.956	101.62
503.172	119.62
503.389	119.62
503.606	120.62
503.823	108.62
504.04	115.62
504.256	115.62
504.473	126.62
504.69	127.62
504.907	117.62
505.123	115.62
505.34	109.62
505.557	120.62
505.773	105.62
505.99	120.62
506.207	128.62
506.423	127.62
506.64	105.62
506.856	106.62
507.073	109.62
507.289	123.62
507.506	119.62
507.722	115.62
507.939	102.62
508.155	114.62
508.372	105.62
508.588	123.62
508.805	113.62
509.021	96.62
509.238	100.62
509.454	96.62
509.67	91.62
509.887	101.62
510.103	95.62
510.319	82.62
510.536	88.62
510.752	93.62
510.968	87.62
511.184	87.62
511.401	81.62
511.617	83.62
511.833	88.62
512.049	88.62
512.265	86.62
512.481	83.62
512.698	93.62
512.914	81.62
513.13	96.62
513.346	86.62
513.562	99.62
513.778	77.62
513.994	94.62
514.21	98.62
514.426	98.62
514.642	89.62
514.858	85.62
515.074	76.62
515.29	89.62
515.506	97.62
515.721	73.62
515.937	96.62
516.153	95.62
516.369	88.62
516.585	76.62
516.801	70.62
517.016	83.62
517.232	85.62
517.448	84.62
517.664	79.62
517.879	95.62
518.095	84.62
518.311	82.62
518.527	83.62
518.742	108.62
518.958	89.62
519.173	103.62
519.389	108.62
519.605	121.62
519.82	101.62
520.036	112.62
520.251	81.62
520.467	113.62
520.682	97.62
520.898	94.62
521.113	98.62
521.329	89.62
521.544	87.62
521.76	94.62
521.975	93.62
522.19	97.62
522.406	83.62
522.621	95.62
522.836	88.62
523.052	104.62
523.267	102.62
523.482	101.62
523.698	112.62
523.913	115.62
524.128	114.62
524.343	111.62
524.559	116.62
524.774	99.62
524.989	114.62
525.204	121.62
525.419	118.62
525.634	101.62
525.849	117.62
526.064	109.62
526.28	99.62
526.495	85.62
526.71	88.62
526.925	68.62
527.14	90.62
527.355	77.62
527.57	85.62
527.785	85.62
527.999	84.62
528.214	115.62
528.429	120.62
528.644	123.62
528.859	121.62
529.074	135.62
529.289	151.62
529.503	144.62
529.718	119.62
529.933	117.62
530.148	97.62
530.363	99.62
530.577	77.62
530.792	88.62
531.007	72.62
531.221	80.62
531.436	71.62
531.651	77.62
531.865	93.62
532.08	95.62
532.295	89.62
532.509	85.62
532.724	92.62
532.938	91.62
533.153	82.62
533.367	87.62
533.582	120.62
533.796	98.62
534.011	104.62
534.225	84.62
534.44	80.62
534.654	97.62
534.868	98.62
535.083	88.62
535.297	99.62
535.511	101.62
535.726	97.62
535.94	84.62
536.154	88.62
536.369	79.62
536.583	83.62
536.797	96.62
537.011	89.62
537.225	95.62
537.44	80.62
537.654	86.62
537.868	98.62
538.082	79.62
538.296	89.62
538.51	99.62
538.724	107.62
538.938	107.62
539.153	122.62
539.367	124.62
539.581	122.62
539.795	108.62
540.009	90.62
540.222	93.62
540.436	92.62
540.65	111.62
540.864	127.62
541.078	127.62
541.292	133.62
541.506	152.62
541.72	158.62
541.934	162.62
542.147	187.62
542.361	164.62
542.575	151.62
542.789	129.62
543.002	133.62
543.216	131.62
543.43	130.62
543.644	133.62
543.857	141.62
544.071	145.62
544.285	159.62
544.498	149.62
544.712	166.62
544.925	145.62
545.139	142.62
545.352	145.62
545.566	149.62
545.779	159.62
545.993	162.62
546.206	146.62
546.42	158.62
546.633	160.62
546.847	169.62
547.06	150.62
547.274	159.62
547.487	173.62
547.7	179.62
547.914	161.62
548.127	140.62
548.34	150.62
548.554	152.62
548.767	140.62
548.98	141.62
549.193	129.62
549.407	156.62
549.62	137.62
549.833	141.62
550.046	151.62
550.259	136.62
550.473	141.62
550.686	151.62
550.899	146.62
551.112	140.62
551.325	143.62
551.538	125.62
551.751	125.62
551.964	122.62
552.177	135.62
552.39	126.62
552.603	141.62
552.816	143.62
553.029	143.62
553.242	150.62
553.455	142.62
553.667	153.62
553.88	138.62
554.093	144.62
554.306	147.62
554.519	145.62
554.732	138.62
554.944	123.62
555.157	132.62
555.37	145.62
555.583	134.62
555.795	147.62
556.008	133.62
556.221	139.62
556.433	143.62
556.646	136.62
556.859	135.62
557.071	146.62
557.284	129.62
557.496	138.62
557.709	136.62
557.921	117.62
558.134	129.62
558.346	125.62
558.559	129.62
558.771	128.62
558.984	130.62
559.196	133.62
559.409	118.62
559.621	128.62
559.833	127.62
560.046	114.62
560.258	113.62
560.47	120.62
560.683	131.62
560.895	131.62
561.107	124.62
561.32	115.62
561.532	121.62
561.744	134.62
561.956	125.62
562.168	123.62
562.381	120.62
562.593	133.62
562.805	132.62
563.017	121.62
563.229	124.62
563.441	113.62
563.653	120.62
563.865	121.62
564.077	114.62
564.289	111.62
564.501	130.62
564.713	108.62
564.925	120.62
565.137	101.62
565.349	107.62
565.561	107.62
565.773	115.62
565.985	119.62
566.197	118.62
566.408	115.62
566.62	103.62
566.832	108.62
567.044	113.62
567.255	132.62
567.467	103.62
567.679	117.62
567.891	101.62
568.102	100.62
568.314	92.62
568.526	89.62
568.737	73.62
568.949	95.62
569.161	80.62
569.372	92.62
569.584	84.62
569.795	88.62
570.007	74.62
570.218	80.62
570.43	80.62
570.641	86.62
570.853	100.62
571.064	88.62
571.276	113.62
571.487	115.62
571.698	100.62
571.91	109.62
572.121	102.62
572.333	93.62
572.544	101.62
572.755	83.62
572.966	94.62
573.178	87.62
573.389	99.62
573.6	83.62
573.811	90.62
574.023	77.62
574.234	81.62
574.445	79.62
574.656	93.62
574.867	92.62
575.078	102.62
575.289	100.62
575.501	103.62
575.712	94.62
575.923	93.62
576.134	99.62
576.345	93.62
576.556	97.62
576.767	84.62
576.978	91.62
577.188	86.62
577.399	90.62
577.61	97.62
577.821	83.62
578.032	87.62
578.243	83.62
578.454	85.62
578.665	83.62
578.875	86.62
579.086	85.62
579.297	92.62
579.508	90.62
579.718	98.62
579.929	106.62
580.14	83.62
580.35	79.62
580.561	83.62
580.772	79.62
580.982	93.62
581.193	69.62
581.403	92.62
581.614	95.62
581.825	81.62
582.035	79.62
582.246	96.62
582.456	73.62
582.667	86.62
582.877	76.62
583.087	95.62
583.298	91.62
583.508	84.62
583.719	86.62
583.929	84.62
584.139	88.62
584.35	76.62
584.56	91.62
584.77	88.62
584.981	80.62
585.191	88.62
585.401	96.62
585.611	86.62
585.821	103.62
586.032	83.62
586.242	77.62
586.452	89.62
586.662	76.62
586.872	87.62
587.082	74.62
587.292	74.62
587.502	76.62
587.713	90.62
587.923	78.62
588.133	83.62
588.343	90.62
588.553	72.62
588.762	94.62
588.972	83.62
589.182	77.62
589.392	77.62
589.602	88.62
589.812	81.62
590.022	78.62
590.232	74.62
590.441	77.62
590.651	86.62
590.861	75.62
591.071	74.62
591.281	77.62
591.49	88.62
591.7	74.62
591.91	79.62
592.119	73.62
592.329	86.62
592.539	82.62
592.748	76.62
592.958	93.62
593.167	85.62
593.377	80.62
593.587	90.62
593.796	91.62
594.006	79.62
594.215	99.62
594.424	82.62
594.634	87.62
594.843	93.62
595.053	95.62
595.262	92.62
595.472	89.62
595.681	78.62
595.89	71.62
596.1	89.62
596.309	94.62
596.518	86.62
596.727	92.62
596.937	91.62
597.146	98.62
597.355	93.62
597.564	88.62
597.774	82.62
597.983	71.62
598.192	88.62
598.401	79.62
598.61	80.62
598.819	99.62
599.028	75.62
599.237	86.62
599.446	87.62
599.655	95.62
599.864	85.62
600.073	90.62
600.282	88.62
600.491	90.62
600.7	95.62
600.909	85.62
601.118	96.62
601.327	107.62
601.536	99.62
601.745	94.62
601.953	101.62
602.162	114.62
602.371	109.62
602.58	98.62
602.789	117.62
602.997	96.62
603.206	100.62
603.415	98.62
603.623	105.62
603.832	95.62
604.041	102.62
604.249	103.62
604.458	101.62
604.666	90.62
604.875	103.62
605.084	100.62
605.292	98.62
605.501	100.62
605.709	98.62
605.918	110.62
606.126	117.62
606.334	97.62
606.543	107.62
606.751	84.62
606.96	104.62
607.168	99.62
607.376	103.62
607.585	106.62
607.793	96.62
608.001	113.62
608.21	115.62
608.418	114.62
608.626	116.62
608.834	105.62
609.043	112.62
609.251	101.62
609.459	109.62
609.667	109.62
609.875	114.62
610.083	110.62
610.291	103.62
610.499	111.62
610.707	102.62
610.916	114.62
611.124	111.62
611.332	81.62
611.54	98.62
611.748	108.62
611.955	91.62
612.163	108.62
612.371	109.62
612.579	121.62
612.787	100.62
612.995	105.62
613.203	112.62
613.411	98.62
613.618	94.62
613.826	102.62
614.034	90.62
614.242	104.62
614.449	113.62
614.657	95.62
614.865	98.62
615.072	109.62
615.28	115.62
615.488	107.62
615.695	128.62
615.903	117.62
616.111	107.62
616.318	100.62
616.526	102.62
616.733	121.62
616.941	115.62
617.148	99.62
617.356	111.62
617.563	103.62
617.771	98.62
617.978	110.62
618.185	95.62
618.393	99.62
618.6	102.62
618.807	100.62
619.015	112.62
619.222	98.62
619.429	98.62
619.637	86.62
619.844	101.62
620.051	81.62
620.258	97.62
620.466	112.62
620.673	111.62
620.88	102.62
621.087	113.62
621.294	98.62
621.501	101.62
621.708	97.62
621.915	99.62
622.122	115.62
622.329	108.62
622.536	99.62
622.743	110.62
622.95	102.62
623.157	114.62
623.364	97.62
623.571	107.62
623.778	107.62
623.985	96.62
624.192	103.62
624.399	107.62
624.606	111.62
624.812	101.62
625.019	112.62
625.226	100.62
625.433	119.62
625.639	83.62
625.846	76.62
626.053	85.62
626.259	82.62
626.466	75.62
626.673	83.62
626.879	85.62
627.086	100.62
627.293	102.62
627.499	105.62
627.706	112.62
627.912	96.62
628.119	92.62
628.325	95.62
628.532	110.62
628.738	109.62
628.945	109.62
629.151	97.62
629.357	101.62
629.564	94.62
629.77	89.62
629.976	84.62
630.183	109.62
630.389	86.62
630.595	95.62
630.802	100.62
631.008	89.62
631.214	95.62
631.42	88.62
631.627	103.62
631.833	87.62
632.039	101.62
632.245	98.62
632.451	91.62
632.657	104.62
632.863	103.62
633.069	98.62
633.275	107.62
633.481	98.62
633.688	88.62
633.893	99.62
634.099	100.62
634.305	105.62
634.511	88.62
634.717	87.62
634.923	89.62
635.129	87.62
635.335	95.62
635.541	95.62
635.747	99.62
635.952	97.62
636.158	90.62
636.364	90.62
636.57	105.62
636.775	96.62
636.981	98.62
637.187	111.62
637.392	117.62
637.598	99.62
637.804	103.62
638.009	104.62
638.215	98.62
638.421	102.62
638.626	102.62
638.832	104.62
639.037	100.62
639.243	95.62
639.448	93.62
639.654	98.62
639.859	82.62
640.065	83.62
640.27	116.62
640.475	93.62
640.681	93.62
640.886	89.62
641.091	101.62
641.297	95.62
641.502	104.62
641.707	98.62
641.913	89.62
642.118	96.62
642.323	96.62
642.528	93.62
642.733	102.62
642.939	86.62
643.144	99.62
643.349	107.62
643.554	93.62
643.759	102.62
643.964	92.62
644.169	100.62
644.374	88.62
644.579	87.62
644.784	100.62
644.989	95.62
645.194	97.62
645.399	95.62
645.604	102.62
645.809	107.62
646.014	85.62
646.219	93.62
646.423	90.62
646.628	91.62
646.833	103.62
647.038	97.62
647.243	102.62
647.447	104.62
647.652	91.62
647.857	81.62
648.062	81.62
648.266	95.62
648.471	88.62
648.676	95.62
648.88	86.62
649.085	97.62
649.289	85.62
649.494	100.62
649.698	88.62
649.903	92.62
650.107	111.62
650.312	91.62
650.516	92.62
650.721	92.62
650.925	99.62
651.13	88.62
651.334	88.62
651.539	86.62
651.743	91.62
651.947	88.62
652.152	91.62
652.356	85.62
652.56	97.62
652.764	77.62
652.969	76.62
653.173	87.62
653.377	104.62
653.581	101.62
653.785	92.62
653.99	93.62
654.194	83.62
654.398	89.62
654.602	91.62
654.806	81.62
655.01	83.62
655.214	70.62
655.418	80.62
655.622	93.62
655.826	104.62
656.03	86.62
656.234	67.62
656.438	89.62
656.642	72.62
656.846	91.62
657.049	78.62
657.253	77.62
657.457	84.62
657.661	72.62
657.865	91.62
658.068	91.62
658.272	78.62
658.476	72.62
658.68	93.62
658.883	91.62
659.087	94.62
659.291	80.62
659.494	84.62
659.698	73.62
659.901	57.62
660.105	76.62
660.309	83.62
660.512	73.62
660.716	96.62
660.919	66.62
661.123	68.62
661.326	88.62
661.53	74.62
661.733	79.62
661.936	84.62
662.14	85.62
662.343	78.62
662.546	93.62
662.75	99.62
662.953	86.62
663.156	81.62
663.36	87.62
663.563	82.62
663.766	93.62
663.969	68.62
664.173	71.62
664.376	75.62
664.579	75.62
664.782	85.62
664.985	75.62
665.188	78.62
665.391	87.62
665.594	75.62
665.797	91.62
666	68.62
666.203	79.62
666.406	87.62
666.609	92.62
666.812	92.62
667.015	78.62
667.218	81.62
667.421	72.62
667.624	80.62
667.827	90.62
668.03	75.62
668.232	77.62
668.435	78.62
668.638	70.62
668.841	94.62
669.043	73.62
669.246	77.62
669.449	77.62
669.651	68.62
669.854	81.62
670.057	87.62
670.259	67.62
670.462	88.62
670.665	85.62
670.867	71.62
671.07	76.62
671.272	96.62
671.475	61.62
671.677	83.62
671.88	86.62
672.082	82.62
672.284	67.62
672.487	81.62
672.689	79.62
672.892	79.62
