Data from Location4.07152019.Energy5.Lamp.07192019.3%Agarose_HRD10591_16-20-13-925.txt Node
Date: Fri Jul 19 16:20:13 EDT 2019
User: cochatt
Spectrometer: HR+D1059
Trigger mode: 1
Integration Time (sec): 1.000000E-1
Scans to average: 1
Electric dark correction enabled: true
Nonlinearity correction enabled: false
Boxcar width: 0
XAxis mode: Wavelengths
Number of Pixels in Spectrum: 2048
>>>>>Begin Spectral Data<<<<<
223.165	-9.38
223.4	-9.38
223.635	-9.38
223.869	-20.38
224.104	-7.38
224.338	-12.38
224.573	-9.38
224.808	-26.38
225.042	-8.38
225.277	-9.38
225.511	3.62
225.746	8.62
225.98	2.62
226.215	11.62
226.449	19.62
226.683	10.62
226.918	22.62
227.152	23.62
227.387	31.62
227.621	41.62
227.856	48.62
228.09	42.62
228.324	46.62
228.559	57.62
228.793	59.62
229.027	63.62
229.262	65.62
229.496	79.62
229.73	79.62
229.964	76.62
230.199	75.62
230.433	76.62
230.667	80.62
230.901	76.62
231.136	73.62
231.37	69.62
231.604	84.62
231.838	82.62
232.072	73.62
232.306	83.62
232.541	81.62
232.775	87.62
233.009	75.62
233.243	84.62
233.477	74.62
233.711	75.62
233.945	74.62
234.179	80.62
234.413	83.62
234.647	92.62
234.881	93.62
235.115	84.62
235.349	64.62
235.583	72.62
235.817	80.62
236.051	71.62
236.285	81.62
236.519	82.62
236.753	60.62
236.987	75.62
237.221	83.62
237.455	74.62
237.689	77.62
237.922	79.62
238.156	72.62
238.39	91.62
238.624	70.62
238.858	74.62
239.091	66.62
239.325	73.62
239.559	76.62
239.793	66.62
240.027	79.62
240.26	71.62
240.494	71.62
240.728	80.62
240.961	72.62
241.195	86.62
241.429	75.62
241.662	84.62
241.896	76.62
242.13	51.62
242.363	76.62
242.597	71.62
242.83	71.62
243.064	87.62
243.298	75.62
243.531	75.62
243.765	70.62
243.998	83.62
244.232	75.62
244.465	79.62
244.699	70.62
244.932	76.62
245.166	74.62
245.399	73.62
245.633	75.62
245.866	92.62
246.099	87.62
246.333	74.62
246.566	65.62
246.8	76.62
247.033	69.62
247.266	81.62
247.5	76.62
247.733	73.62
247.966	88.62
248.2	75.62
248.433	77.62
248.666	80.62
248.899	65.62
249.133	70.62
249.366	76.62
249.599	92.62
249.832	81.62
250.066	74.62
250.299	86.62
250.532	79.62
250.765	83.62
250.998	77.62
251.231	86.62
251.465	68.62
251.698	87.62
251.931	70.62
252.164	73.62
252.397	74.62
252.63	77.62
252.863	76.62
253.096	67.62
253.329	78.62
253.562	72.62
253.795	81.62
254.028	76.62
254.261	82.62
254.494	81.62
254.727	62.62
254.96	73.62
255.193	84.62
255.426	86.62
255.659	78.62
255.892	76.62
256.124	77.62
256.357	67.62
256.59	64.62
256.823	77.62
257.056	73.62
257.289	83.62
257.521	75.62
257.754	85.62
257.987	71.62
258.22	76.62
258.452	82.62
258.685	88.62
258.918	73.62
259.151	73.62
259.383	76.62
259.616	79.62
259.849	72.62
260.081	79.62
260.314	75.62
260.547	60.62
260.779	80.62
261.012	73.62
261.244	80.62
261.477	77.62
261.71	82.62
261.942	70.62
262.175	91.62
262.407	81.62
262.64	81.62
262.872	84.62
263.105	85.62
263.337	81.62
263.57	77.62
263.802	77.62
264.035	76.62
264.267	87.62
264.499	88.62
264.732	87.62
264.964	78.62
265.197	79.62
265.429	97.62
265.661	85.62
265.894	95.62
266.126	88.62
266.358	74.62
266.591	88.62
266.823	86.62
267.055	81.62
267.287	84.62
267.52	71.62
267.752	78.62
267.984	76.62
268.216	82.62
268.448	83.62
268.681	82.62
268.913	87.62
269.145	81.62
269.377	63.62
269.609	78.62
269.841	84.62
270.073	86.62
270.306	78.62
270.538	86.62
270.77	85.62
271.002	91.62
271.234	85.62
271.466	87.62
271.698	74.62
271.93	89.62
272.162	87.62
272.394	67.62
272.626	72.62
272.858	79.62
273.09	71.62
273.322	91.62
273.553	81.62
273.785	94.62
274.017	74.62
274.249	85.62
274.481	82.62
274.713	89.62
274.945	89.62
275.176	81.62
275.408	88.62
275.64	79.62
275.872	72.62
276.104	77.62
276.335	81.62
276.567	77.62
276.799	82.62
277.031	84.62
277.262	73.62
277.494	77.62
277.726	83.62
277.957	90.62
278.189	76.62
278.421	75.62
278.652	84.62
278.884	93.62
279.115	79.62
279.347	78.62
279.579	84.62
279.81	84.62
280.042	63.62
280.273	87.62
280.505	76.62
280.736	85.62
280.968	89.62
281.199	83.62
281.431	83.62
281.662	78.62
281.894	80.62
282.125	76.62
282.356	71.62
282.588	89.62
282.819	75.62
283.051	75.62
283.282	85.62
283.513	69.62
283.745	65.62
283.976	77.62
284.207	75.62
284.439	83.62
284.67	79.62
284.901	86.62
285.132	83.62
285.364	86.62
285.595	94.62
285.826	75.62
286.057	94.62
286.288	84.62
286.52	81.62
286.751	76.62
286.982	96.62
287.213	86.62
287.444	85.62
287.675	85.62
287.906	75.62
288.138	81.62
288.369	77.62
288.6	90.62
288.831	71.62
289.062	82.62
289.293	82.62
289.524	94.62
289.755	83.62
289.986	76.62
290.217	84.62
290.448	84.62
290.679	77.62
290.91	95.62
291.141	81.62
291.371	96.62
291.602	86.62
291.833	63.62
292.064	87.62
292.295	86.62
292.526	91.62
292.757	72.62
292.987	74.62
293.218	92.62
293.449	71.62
293.68	69.62
293.91	96.62
294.141	74.62
294.372	77.62
294.603	88.62
294.833	75.62
295.064	88.62
295.295	77.62
295.525	87.62
295.756	90.62
295.987	84.62
296.217	90.62
296.448	77.62
296.679	84.62
296.909	68.62
297.14	82.62
297.37	89.62
297.601	73.62
297.831	88.62
298.062	83.62
298.292	74.62
298.523	80.62
298.753	91.62
298.984	93.62
299.214	76.62
299.445	92.62
299.675	84.62
299.905	76.62
300.136	91.62
300.366	60.62
300.597	73.62
300.827	72.62
301.057	77.62
301.288	81.62
301.518	88.62
301.748	87.62
301.979	67.62
302.209	84.62
302.439	90.62
302.669	74.62
302.9	80.62
303.13	78.62
303.36	67.62
303.59	84.62
303.82	76.62
304.051	90.62
304.281	87.62
304.511	92.62
304.741	92.62
304.971	74.62
305.201	93.62
305.431	84.62
305.661	90.62
305.891	80.62
306.121	86.62
306.352	86.62
306.582	65.62
306.812	91.62
307.042	81.62
307.272	88.62
307.502	80.62
307.731	95.62
307.961	71.62
308.191	70.62
308.421	79.62
308.651	82.62
308.881	77.62
309.111	82.62
309.341	82.62
309.571	81.62
309.8	99.62
310.03	92.62
310.26	92.62
310.49	80.62
310.72	94.62
310.949	87.62
311.179	90.62
311.409	80.62
311.639	72.62
311.868	104.62
312.098	85.62
312.328	98.62
312.557	70.62
312.787	87.62
313.017	77.62
313.246	85.62
313.476	80.62
313.706	91.62
313.935	84.62
314.165	62.62
314.394	86.62
314.624	99.62
314.853	85.62
315.083	82.62
315.312	74.62
315.542	77.62
315.771	91.62
316.001	90.62
316.23	83.62
316.46	81.62
316.689	80.62
316.919	81.62
317.148	88.62
317.377	83.62
317.607	95.62
317.836	82.62
318.065	90.62
318.295	88.62
318.524	78.62
318.753	93.62
318.983	74.62
319.212	79.62
319.441	70.62
319.67	91.62
319.9	76.62
320.129	88.62
320.358	81.62
320.587	81.62
320.816	89.62
321.046	99.62
321.275	98.62
321.504	89.62
321.733	76.62
321.962	84.62
322.191	89.62
322.42	83.62
322.649	76.62
322.878	70.62
323.108	93.62
323.337	98.62
323.566	86.62
323.795	77.62
324.024	86.62
324.253	89.62
324.482	69.62
324.71	81.62
324.939	84.62
325.168	94.62
325.397	70.62
325.626	89.62
325.855	82.62
326.084	88.62
326.313	73.62
326.542	79.62
326.77	76.62
326.999	89.62
327.228	70.62
327.457	90.62
327.686	66.62
327.914	91.62
328.143	91.62
328.372	80.62
328.6	71.62
328.829	73.62
329.058	80.62
329.287	94.62
329.515	75.62
329.744	92.62
329.972	89.62
330.201	88.62
330.43	84.62
330.658	82.62
330.887	83.62
331.115	87.62
331.344	83.62
331.572	88.62
331.801	92.62
332.03	74.62
332.258	79.62
332.486	84.62
332.715	91.62
332.943	78.62
333.172	86.62
333.4	93.62
333.629	84.62
333.857	93.62
334.085	97.62
334.314	78.62
334.542	83.62
334.771	70.62
334.999	81.62
335.227	78.62
335.455	91.62
335.684	95.62
335.912	88.62
336.14	84.62
336.369	94.62
336.597	97.62
336.825	78.62
337.053	83.62
337.281	83.62
337.51	82.62
337.738	83.62
337.966	91.62
338.194	83.62
338.422	84.62
338.65	84.62
338.878	82.62
339.106	82.62
339.334	102.62
339.562	91.62
339.79	104.62
340.018	75.62
340.246	92.62
340.474	81.62
340.702	84.62
340.93	80.62
341.158	86.62
341.386	88.62
341.614	95.62
341.842	77.62
342.07	91.62
342.298	79.62
342.526	79.62
342.754	83.62
342.981	71.62
343.209	66.62
343.437	82.62
343.665	77.62
343.893	89.62
344.12	75.62
344.348	86.62
344.576	84.62
344.804	83.62
345.031	77.62
345.259	79.62
345.487	85.62
345.714	84.62
345.942	90.62
346.17	88.62
346.397	79.62
346.625	65.62
346.853	80.62
347.08	88.62
347.308	93.62
347.535	88.62
347.763	86.62
347.99	73.62
348.218	74.62
348.445	96.62
348.673	87.62
348.9	80.62
349.128	87.62
349.355	72.62
349.583	82.62
349.81	85.62
350.037	92.62
350.265	91.62
350.492	90.62
350.72	85.62
350.947	85.62
351.174	90.62
351.402	88.62
351.629	70.62
351.856	72.62
352.083	88.62
352.311	87.62
352.538	75.62
352.765	81.62
352.992	93.62
353.22	82.62
353.447	86.62
353.674	88.62
353.901	89.62
354.128	86.62
354.355	81.62
354.583	76.62
354.81	78.62
355.037	68.62
355.264	80.62
355.491	83.62
355.718	83.62
355.945	96.62
356.172	78.62
356.399	89.62
356.626	82.62
356.853	92.62
357.08	75.62
357.307	86.62
357.534	86.62
357.761	83.62
357.988	84.62
358.215	94.62
358.441	76.62
358.668	74.62
358.895	79.62
359.122	91.62
359.349	89.62
359.576	89.62
359.802	71.62
360.029	85.62
360.256	75.62
360.483	81.62
360.709	75.62
360.936	87.62
361.163	86.62
361.39	87.62
361.616	75.62
361.843	85.62
362.07	89.62
362.296	83.62
362.523	76.62
362.749	72.62
362.976	88.62
363.203	79.62
363.429	81.62
363.656	59.62
363.882	92.62
364.109	77.62
364.335	76.62
364.562	91.62
364.788	82.62
365.015	82.62
365.241	68.62
365.468	92.62
365.694	82.62
365.92	95.62
366.147	84.62
366.373	91.62
366.599	87.62
366.826	76.62
367.052	87.62
367.278	90.62
367.505	84.62
367.731	95.62
367.957	79.62
368.184	78.62
368.41	79.62
368.636	85.62
368.862	84.62
369.089	75.62
369.315	80.62
369.541	84.62
369.767	91.62
369.993	88.62
370.219	86.62
370.445	86.62
370.672	88.62
370.898	80.62
371.124	73.62
371.35	96.62
371.576	73.62
371.802	93.62
372.028	76.62
372.254	80.62
372.48	88.62
372.706	90.62
372.932	83.62
373.158	93.62
373.384	83.62
373.61	94.62
373.835	86.62
374.061	74.62
374.287	89.62
374.513	92.62
374.739	80.62
374.965	91.62
375.191	80.62
375.416	92.62
375.642	84.62
375.868	98.62
376.094	95.62
376.319	93.62
376.545	96.62
376.771	80.62
376.997	90.62
377.222	73.62
377.448	79.62
377.674	84.62
377.899	98.62
378.125	87.62
378.35	91.62
378.576	90.62
378.802	86.62
379.027	94.62
379.253	92.62
379.478	81.62
379.704	87.62
379.929	84.62
380.155	84.62
380.38	101.62
380.606	84.62
380.831	94.62
381.057	96.62
381.282	101.62
381.507	80.62
381.733	92.62
381.958	94.62
382.184	102.62
382.409	101.62
382.634	99.62
382.86	96.62
383.085	86.62
383.31	83.62
383.535	95.62
383.761	111.62
383.986	80.62
384.211	104.62
384.436	80.62
384.662	98.62
384.887	92.62
385.112	103.62
385.337	96.62
385.562	91.62
385.787	96.62
386.013	105.62
386.238	87.62
386.463	100.62
386.688	104.62
386.913	88.62
387.138	93.62
387.363	96.62
387.588	95.62
387.813	96.62
388.038	87.62
388.263	96.62
388.488	107.62
388.713	98.62
388.938	92.62
389.163	105.62
389.387	106.62
389.612	84.62
389.837	94.62
390.062	115.62
390.287	93.62
390.512	102.62
390.736	93.62
390.961	103.62
391.186	105.62
391.411	93.62
391.636	105.62
391.86	99.62
392.085	103.62
392.31	98.62
392.534	92.62
392.759	99.62
392.984	97.62
393.208	113.62
393.433	90.62
393.658	92.62
393.882	104.62
394.107	103.62
394.331	118.62
394.556	98.62
394.78	96.62
395.005	92.62
395.229	85.62
395.454	116.62
395.678	102.62
395.903	105.62
396.127	102.62
396.352	90.62
396.576	97.62
396.801	110.62
397.025	107.62
397.249	104.62
397.474	112.62
397.698	111.62
397.922	105.62
398.147	106.62
398.371	103.62
398.595	108.62
398.82	105.62
399.044	104.62
399.268	88.62
399.492	105.62
399.717	104.62
399.941	119.62
400.165	107.62
400.389	102.62
400.613	114.62
400.837	112.62
401.062	114.62
401.286	105.62
401.51	117.62
401.734	103.62
401.958	110.62
402.182	102.62
402.406	117.62
402.63	107.62
402.854	109.62
403.078	114.62
403.302	110.62
403.526	112.62
403.75	103.62
403.974	110.62
404.198	112.62
404.422	104.62
404.645	104.62
404.869	117.62
405.093	93.62
405.317	103.62
405.541	108.62
405.765	104.62
405.988	102.62
406.212	116.62
406.436	105.62
406.66	124.62
406.883	124.62
407.107	124.62
407.331	106.62
407.555	105.62
407.778	108.62
408.002	102.62
408.226	122.62
408.449	120.62
408.673	114.62
408.896	107.62
409.12	108.62
409.344	117.62
409.567	110.62
409.791	126.62
410.014	129.62
410.238	118.62
410.461	107.62
410.685	119.62
410.908	118.62
411.132	134.62
411.355	113.62
411.578	107.62
411.802	107.62
412.025	110.62
412.249	116.62
412.472	115.62
412.695	119.62
412.919	118.62
413.142	119.62
413.365	124.62
413.589	113.62
413.812	102.62
414.035	122.62
414.258	133.62
414.482	97.62
414.705	111.62
414.928	117.62
415.151	108.62
415.374	126.62
415.597	120.62
415.821	119.62
416.044	102.62
416.267	133.62
416.49	118.62
416.713	119.62
416.936	125.62
417.159	131.62
417.382	101.62
417.605	114.62
417.828	124.62
418.051	120.62
418.274	126.62
418.497	103.62
418.72	137.62
418.943	133.62
419.166	131.62
419.389	117.62
419.611	143.62
419.834	122.62
420.057	122.62
420.28	135.62
420.503	115.62
420.726	130.62
420.948	128.62
421.171	122.62
421.394	118.62
421.617	121.62
421.839	126.62
422.062	130.62
422.285	136.62
422.507	129.62
422.73	124.62
422.953	126.62
423.175	125.62
423.398	122.62
423.621	126.62
423.843	139.62
424.066	138.62
424.288	137.62
424.511	127.62
424.733	141.62
424.956	142.62
425.178	133.62
425.401	135.62
425.623	139.62
425.846	141.62
426.068	118.62
426.291	132.62
426.513	123.62
426.735	138.62
426.958	122.62
427.18	126.62
427.402	124.62
427.625	130.62
427.847	133.62
428.069	128.62
428.292	124.62
428.514	127.62
428.736	119.62
428.958	117.62
429.181	143.62
429.403	115.62
429.625	122.62
429.847	115.62
430.069	124.62
430.292	143.62
430.514	126.62
430.736	134.62
430.958	129.62
431.18	118.62
431.402	118.62
431.624	122.62
431.846	118.62
432.068	95.62
432.29	108.62
432.512	98.62
432.734	119.62
432.956	134.62
433.178	133.62
433.4	136.62
433.622	132.62
433.844	132.62
434.066	123.62
434.287	113.62
434.509	84.62
434.731	88.62
434.953	119.62
435.175	122.62
435.397	119.62
435.618	129.62
435.84	115.62
436.062	110.62
436.284	113.62
436.505	113.62
436.727	112.62
436.949	126.62
437.17	120.62
437.392	118.62
437.614	119.62
437.835	99.62
438.057	114.62
438.278	107.62
438.5	111.62
438.721	133.62
438.943	129.62
439.165	134.62
439.386	141.62
439.608	136.62
439.829	138.62
440.05	128.62
440.272	136.62
440.493	137.62
440.715	144.62
440.936	152.62
441.158	148.62
441.379	134.62
441.6	147.62
441.822	146.62
442.043	138.62
442.264	142.62
442.486	143.62
442.707	121.62
442.928	123.62
443.149	130.62
443.371	131.62
443.592	134.62
443.813	142.62
444.034	130.62
444.255	138.62
444.476	126.62
444.698	132.62
444.919	132.62
445.14	272.62
445.361	198.62
445.582	148.62
445.803	131.62
446.024	159.62
446.245	146.62
446.466	136.62
446.687	151.62
446.908	149.62
447.129	152.62
447.35	131.62
447.571	146.62
447.792	151.62
448.013	134.62
448.234	146.62
448.455	139.62
448.675	130.62
448.896	139.62
449.117	117.62
449.338	125.62
449.559	120.62
449.779	142.62
450	144.62
450.221	143.62
450.442	130.62
450.662	136.62
450.883	130.62
451.104	133.62
451.324	133.62
451.545	127.62
451.766	130.62
451.986	128.62
452.207	128.62
452.428	141.62
452.648	127.62
452.869	111.62
453.089	113.62
453.31	104.62
453.53	108.62
453.751	98.62
453.971	110.62
454.192	110.62
454.412	101.62
454.633	116.62
454.853	112.62
455.073	117.62
455.294	112.62
455.514	121.62
455.734	119.62
455.955	123.62
456.175	102.62
456.395	112.62
456.616	100.62
456.836	88.62
457.056	104.62
457.276	107.62
457.497	110.62
457.717	112.62
457.937	103.62
458.157	114.62
458.377	98.62
458.598	83.62
458.818	92.62
459.038	92.62
459.258	89.62
459.478	73.62
459.698	92.62
459.918	86.62
460.138	110.62
460.358	112.62
460.578	124.62
460.798	106.62
461.018	109.62
461.238	122.62
461.458	125.62
461.678	100.62
461.898	111.62
462.118	118.62
462.338	120.62
462.558	104.62
462.777	102.62
462.997	108.62
463.217	100.62
463.437	104.62
463.657	112.62
463.876	119.62
464.096	106.62
464.316	105.62
464.536	99.62
464.755	126.62
464.975	99.62
465.195	116.62
465.414	102.62
465.634	120.62
465.854	118.62
466.073	117.62
466.293	136.62
466.512	119.62
466.732	119.62
466.951	120.62
467.171	138.62
467.391	123.62
467.61	135.62
467.829	117.62
468.049	128.62
468.268	128.62
468.488	130.62
468.707	118.62
468.927	122.62
469.146	115.62
469.365	132.62
469.585	130.62
469.804	140.62
470.023	127.62
470.243	136.62
470.462	138.62
470.681	137.62
470.901	139.62
471.12	151.62
471.339	116.62
471.558	136.62
471.777	136.62
471.997	134.62
472.216	137.62
472.435	110.62
472.654	98.62
472.873	106.62
473.092	115.62
473.311	130.62
473.53	113.62
473.749	133.62
473.968	123.62
474.187	116.62
474.406	115.62
474.625	121.62
474.844	132.62
475.063	122.62
475.282	125.62
475.501	120.62
475.72	129.62
475.939	112.62
476.158	122.62
476.377	122.62
476.596	108.62
476.814	105.62
477.033	102.62
477.252	122.62
477.471	130.62
477.69	131.62
477.908	114.62
478.127	150.62
478.346	140.62
478.564	133.62
478.783	138.62
479.002	152.62
479.22	136.62
479.439	127.62
479.658	131.62
479.876	119.62
480.095	115.62
480.313	106.62
480.532	116.62
480.751	107.62
480.969	92.62
481.188	91.62
481.406	80.62
481.624	94.62
481.843	93.62
482.061	103.62
482.28	115.62
482.498	106.62
482.717	96.62
482.935	114.62
483.153	138.62
483.372	146.62
483.59	148.62
483.808	126.62
484.027	126.62
484.245	119.62
484.463	139.62
484.681	156.62
484.9	135.62
485.118	146.62
485.336	130.62
485.554	111.62
485.772	86.62
485.99	95.62
486.209	104.62
486.427	103.62
486.645	120.62
486.863	133.62
487.081	151.62
487.299	131.62
487.517	124.62
487.735	145.62
487.953	184.62
488.171	176.62
488.389	183.62
488.607	153.62
488.825	140.62
489.043	122.62
489.261	155.62
489.479	146.62
489.696	140.62
489.914	131.62
490.132	145.62
490.35	154.62
490.568	151.62
490.786	158.62
491.003	169.62
491.221	170.62
491.439	168.62
491.657	171.62
491.874	198.62
492.092	217.62
492.31	223.62
492.527	217.62
492.745	197.62
492.963	201.62
493.18	174.62
493.398	163.62
493.615	185.62
493.833	177.62
494.05	159.62
494.268	153.62
494.485	154.62
494.703	154.62
494.92	169.62
495.138	174.62
495.355	174.62
495.573	168.62
495.79	154.62
496.008	156.62
496.225	165.62
496.442	156.62
496.66	149.62
496.877	165.62
497.094	165.62
497.312	164.62
497.529	162.62
497.746	155.62
497.963	138.62
498.181	128.62
498.398	126.62
498.615	135.62
498.832	117.62
499.049	101.62
499.267	123.62
499.484	121.62
499.701	137.62
499.918	151.62
500.135	129.62
500.352	140.62
500.569	134.62
500.786	142.62
501.003	151.62
501.22	144.62
501.437	147.62
501.654	137.62
501.871	129.62
502.088	138.62
502.305	135.62
502.522	124.62
502.739	126.62
502.956	134.62
503.172	115.62
503.389	118.62
503.606	110.62
503.823	114.62
504.04	107.62
504.256	120.62
504.473	110.62
504.69	113.62
504.907	129.62
505.123	112.62
505.34	121.62
505.557	117.62
505.773	124.62
505.99	128.62
506.207	106.62
506.423	107.62
506.64	122.62
506.856	122.62
507.073	118.62
507.289	118.62
507.506	102.62
507.722	106.62
507.939	114.62
508.155	108.62
508.372	112.62
508.588	116.62
508.805	114.62
509.021	102.62
509.238	116.62
509.454	104.62
509.67	104.62
509.887	97.62
510.103	106.62
510.319	99.62
510.536	92.62
510.752	82.62
510.968	92.62
511.184	91.62
511.401	86.62
511.617	90.62
511.833	98.62
512.049	73.62
512.265	89.62
512.481	88.62
512.698	80.62
512.914	99.62
513.13	99.62
513.346	91.62
513.562	84.62
513.778	84.62
513.994	95.62
514.21	97.62
514.426	86.62
514.642	84.62
514.858	88.62
515.074	77.62
515.29	96.62
515.506	90.62
515.721	81.62
515.937	91.62
516.153	84.62
516.369	74.62
516.585	93.62
516.801	80.62
517.016	93.62
517.232	91.62
517.448	100.62
517.664	90.62
517.879	87.62
518.095	90.62
518.311	95.62
518.527	96.62
518.742	104.62
518.958	88.62
519.173	111.62
519.389	105.62
519.605	105.62
519.82	108.62
520.036	89.62
520.251	102.62
520.467	101.62
520.682	99.62
520.898	99.62
521.113	95.62
521.329	98.62
521.544	94.62
521.76	102.62
521.975	98.62
522.19	108.62
522.406	102.62
522.621	95.62
522.836	107.62
523.052	95.62
523.267	105.62
523.482	108.62
523.698	100.62
523.913	114.62
524.128	107.62
524.343	106.62
524.559	125.62
524.774	130.62
524.989	101.62
525.204	110.62
525.419	115.62
525.634	99.62
525.849	105.62
526.064	98.62
526.28	108.62
526.495	97.62
526.71	77.62
526.925	81.62
527.14	83.62
527.355	100.62
527.57	84.62
527.785	99.62
527.999	96.62
528.214	100.62
528.429	98.62
528.644	112.62
528.859	139.62
529.074	152.62
529.289	169.62
529.503	138.62
529.718	144.62
529.933	113.62
530.148	99.62
530.363	99.62
530.577	80.62
530.792	87.62
531.007	69.62
531.221	85.62
531.436	76.62
531.651	71.62
531.865	92.62
532.08	95.62
532.295	90.62
532.509	82.62
532.724	73.62
532.938	90.62
533.153	99.62
533.367	97.62
533.582	115.62
533.796	115.62
534.011	112.62
534.225	93.62
534.44	86.62
534.654	99.62
534.868	104.62
535.083	100.62
535.297	108.62
535.511	100.62
535.726	119.62
535.94	96.62
536.154	99.62
536.369	84.62
536.583	91.62
536.797	84.62
537.011	98.62
537.225	94.62
537.44	95.62
537.654	82.62
537.868	91.62
538.082	91.62
538.296	97.62
538.51	98.62
538.724	116.62
538.938	107.62
539.153	115.62
539.367	130.62
539.581	122.62
539.795	111.62
540.009	97.62
540.222	94.62
540.436	105.62
540.65	111.62
540.864	123.62
541.078	126.62
541.292	152.62
541.506	144.62
541.72	179.62
541.934	176.62
542.147	191.62
542.361	181.62
542.575	166.62
542.789	152.62
543.002	132.62
543.216	127.62
543.43	112.62
543.644	115.62
543.857	128.62
544.071	147.62
544.285	175.62
544.498	152.62
544.712	158.62
544.925	154.62
545.139	159.62
545.352	152.62
545.566	158.62
545.779	160.62
545.993	167.62
546.206	166.62
546.42	155.62
546.633	148.62
546.847	151.62
547.06	158.62
547.274	170.62
547.487	174.62
547.7	167.62
547.914	148.62
548.127	149.62
548.34	158.62
548.554	146.62
548.767	153.62
548.98	150.62
549.193	143.62
549.407	155.62
549.62	153.62
549.833	162.62
550.046	138.62
550.259	147.62
550.473	138.62
550.686	136.62
550.899	150.62
551.112	137.62
551.325	148.62
551.538	141.62
551.751	133.62
551.964	123.62
552.177	136.62
552.39	140.62
552.603	154.62
552.816	152.62
553.029	160.62
553.242	145.62
553.455	148.62
553.667	157.62
553.88	150.62
554.093	138.62
554.306	158.62
554.519	140.62
554.732	135.62
554.944	148.62
555.157	140.62
555.37	139.62
555.583	138.62
555.795	130.62
556.008	126.62
556.221	131.62
556.433	136.62
556.646	140.62
556.859	135.62
557.071	130.62
557.284	125.62
557.496	142.62
557.709	134.62
557.921	148.62
558.134	130.62
558.346	139.62
558.559	135.62
558.771	134.62
558.984	122.62
559.196	148.62
559.409	130.62
559.621	130.62
559.833	122.62
560.046	124.62
560.258	130.62
560.47	136.62
560.683	140.62
560.895	131.62
561.107	143.62
561.32	139.62
561.532	130.62
561.744	124.62
561.956	120.62
562.168	123.62
562.381	126.62
562.593	139.62
562.805	132.62
563.017	124.62
563.229	115.62
563.441	124.62
563.653	113.62
563.865	109.62
564.077	119.62
564.289	121.62
564.501	132.62
564.713	124.62
564.925	125.62
565.137	124.62
565.349	127.62
565.561	118.62
565.773	114.62
565.985	117.62
566.197	116.62
566.408	108.62
566.62	112.62
566.832	114.62
567.044	125.62
567.255	118.62
567.467	112.62
567.679	106.62
567.891	100.62
568.102	103.62
568.314	105.62
568.526	95.62
568.737	85.62
568.949	71.62
569.161	95.62
569.372	74.62
569.584	79.62
569.795	82.62
570.007	88.62
570.218	82.62
570.43	88.62
570.641	95.62
570.853	96.62
571.064	88.62
571.276	99.62
571.487	97.62
571.698	93.62
571.91	105.62
572.121	105.62
572.333	90.62
572.544	94.62
572.755	84.62
572.966	90.62
573.178	86.62
573.389	90.62
573.6	76.62
573.811	97.62
574.023	81.62
574.234	83.62
574.445	76.62
574.656	95.62
574.867	99.62
575.078	94.62
575.289	81.62
575.501	111.62
575.712	91.62
575.923	105.62
576.134	110.62
576.345	91.62
576.556	89.62
576.767	103.62
576.978	86.62
577.188	103.62
577.399	86.62
577.61	105.62
577.821	87.62
578.032	98.62
578.243	89.62
578.454	94.62
578.665	100.62
578.875	95.62
579.086	83.62
579.297	68.62
579.508	101.62
579.718	86.62
579.929	88.62
580.14	89.62
580.35	81.62
580.561	93.62
580.772	87.62
580.982	102.62
581.193	91.62
581.403	92.62
581.614	101.62
581.825	87.62
582.035	86.62
582.246	84.62
582.456	83.62
582.667	104.62
582.877	99.62
583.087	103.62
583.298	87.62
583.508	92.62
583.719	85.62
583.929	87.62
584.139	81.62
584.35	90.62
584.56	83.62
584.77	92.62
584.981	94.62
585.191	89.62
585.401	88.62
585.611	73.62
585.821	92.62
586.032	87.62
586.242	90.62
586.452	83.62
586.662	86.62
586.872	97.62
587.082	81.62
587.292	82.62
587.502	81.62
587.713	79.62
587.923	98.62
588.133	90.62
588.343	78.62
588.553	73.62
588.762	87.62
588.972	80.62
589.182	76.62
589.392	81.62
589.602	88.62
589.812	78.62
590.022	75.62
590.232	84.62
590.441	89.62
590.651	83.62
590.861	86.62
591.071	94.62
591.281	84.62
591.49	87.62
591.7	82.62
591.91	86.62
592.119	92.62
592.329	94.62
592.539	96.62
592.748	95.62
592.958	90.62
593.167	88.62
593.377	71.62
593.587	75.62
593.796	89.62
594.006	73.62
594.215	82.62
594.424	72.62
594.634	88.62
594.843	87.62
595.053	100.62
595.262	83.62
595.472	98.62
595.681	89.62
595.89	98.62
596.1	99.62
596.309	80.62
596.518	83.62
596.727	92.62
596.937	89.62
597.146	79.62
597.355	94.62
597.564	90.62
597.774	98.62
597.983	84.62
598.192	86.62
598.401	81.62
598.61	90.62
598.819	84.62
599.028	103.62
599.237	90.62
599.446	93.62
599.655	97.62
599.864	90.62
600.073	95.62
600.282	100.62
600.491	86.62
600.7	93.62
600.909	88.62
601.118	100.62
601.327	108.62
601.536	100.62
601.745	108.62
601.953	97.62
602.162	112.62
602.371	120.62
602.58	120.62
602.789	111.62
602.997	101.62
603.206	101.62
603.415	107.62
603.623	111.62
603.832	86.62
604.041	110.62
604.249	103.62
604.458	94.62
604.666	105.62
604.875	99.62
605.084	118.62
605.292	118.62
605.501	113.62
605.709	111.62
605.918	113.62
606.126	114.62
606.334	110.62
606.543	115.62
606.751	118.62
606.96	107.62
607.168	113.62
607.376	106.62
607.585	96.62
607.793	101.62
608.001	102.62
608.21	116.62
608.418	104.62
608.626	117.62
608.834	98.62
609.043	115.62
609.251	112.62
609.459	104.62
609.667	115.62
609.875	105.62
610.083	95.62
610.291	110.62
610.499	104.62
610.707	115.62
610.916	110.62
611.124	120.62
611.332	120.62
611.54	116.62
611.748	101.62
611.955	109.62
612.163	114.62
612.371	116.62
612.579	98.62
612.787	120.62
612.995	112.62
613.203	123.62
613.411	122.62
613.618	104.62
613.826	113.62
614.034	116.62
614.242	114.62
614.449	109.62
614.657	120.62
614.865	111.62
615.072	105.62
615.28	114.62
615.488	123.62
615.695	118.62
615.903	110.62
616.111	124.62
616.318	107.62
616.526	132.62
616.733	124.62
616.941	105.62
617.148	107.62
617.356	100.62
617.563	99.62
617.771	116.62
617.978	97.62
618.185	103.62
618.393	117.62
618.6	110.62
618.807	112.62
619.015	121.62
619.222	100.62
619.429	121.62
619.637	104.62
619.844	90.62
620.051	111.62
620.258	103.62
620.466	95.62
620.673	108.62
620.88	97.62
621.087	104.62
621.294	109.62
621.501	111.62
621.708	108.62
621.915	100.62
622.122	120.62
622.329	108.62
622.536	110.62
622.743	96.62
622.95	107.62
623.157	90.62
623.364	106.62
623.571	105.62
623.778	106.62
623.985	102.62
624.192	97.62
624.399	100.62
624.606	97.62
624.812	124.62
625.019	102.62
625.226	106.62
625.433	109.62
625.639	107.62
625.846	105.62
626.053	111.62
626.259	88.62
626.466	85.62
626.673	93.62
626.879	95.62
627.086	91.62
627.293	98.62
627.499	103.62
627.706	112.62
627.912	98.62
628.119	99.62
628.325	110.62
628.532	103.62
628.738	103.62
628.945	101.62
629.151	96.62
629.357	97.62
629.564	112.62
629.77	113.62
629.976	110.62
630.183	103.62
630.389	90.62
630.595	94.62
630.802	104.62
631.008	115.62
631.214	106.62
631.42	96.62
631.627	107.62
631.833	90.62
632.039	98.62
632.245	101.62
632.451	104.62
632.657	99.62
632.863	97.62
633.069	94.62
633.275	100.62
633.481	102.62
633.688	86.62
633.893	92.62
634.099	107.62
634.305	103.62
634.511	99.62
634.717	98.62
634.923	96.62
635.129	97.62
635.335	105.62
635.541	96.62
635.747	105.62
635.952	98.62
636.158	104.62
636.364	104.62
636.57	101.62
636.775	105.62
636.981	107.62
637.187	101.62
637.392	102.62
637.598	94.62
637.804	105.62
638.009	101.62
638.215	105.62
638.421	117.62
638.626	90.62
638.832	87.62
639.037	92.62
639.243	97.62
639.448	86.62
639.654	91.62
639.859	103.62
640.065	102.62
640.27	99.62
640.475	94.62
640.681	108.62
640.886	96.62
641.091	94.62
641.297	96.62
641.502	115.62
641.707	100.62
641.913	101.62
642.118	94.62
642.323	87.62
642.528	90.62
642.733	90.62
642.939	85.62
643.144	83.62
643.349	108.62
643.554	115.62
643.759	112.62
643.964	81.62
644.169	93.62
644.374	99.62
644.579	91.62
644.784	98.62
644.989	97.62
645.194	90.62
645.399	90.62
645.604	95.62
645.809	96.62
646.014	117.62
646.219	85.62
646.423	91.62
646.628	108.62
646.833	99.62
647.038	96.62
647.243	80.62
647.447	90.62
647.652	89.62
647.857	100.62
648.062	97.62
648.266	85.62
648.471	99.62
648.676	91.62
648.88	102.62
649.085	103.62
649.289	104.62
649.494	111.62
649.698	93.62
649.903	104.62
650.107	101.62
650.312	118.62
650.516	102.62
650.721	80.62
650.925	90.62
651.13	88.62
651.334	86.62
651.539	99.62
651.743	106.62
651.947	89.62
652.152	111.62
652.356	103.62
652.56	94.62
652.764	70.62
652.969	94.62
653.173	96.62
653.377	104.62
653.581	98.62
653.785	95.62
653.99	95.62
654.194	95.62
654.398	106.62
654.602	103.62
654.806	96.62
655.01	85.62
655.214	94.62
655.418	87.62
655.622	110.62
655.826	88.62
656.03	86.62
656.234	103.62
656.438	93.62
656.642	91.62
656.846	76.62
657.049	83.62
657.253	93.62
657.457	70.62
657.661	98.62
657.865	104.62
658.068	93.62
658.272	75.62
658.476	88.62
658.68	81.62
658.883	81.62
659.087	69.62
659.291	74.62
659.494	95.62
659.698	105.62
659.901	85.62
660.105	80.62
660.309	89.62
660.512	73.62
660.716	85.62
660.919	82.62
661.123	86.62
661.326	94.62
661.53	87.62
661.733	79.62
661.936	83.62
662.14	90.62
662.343	91.62
662.546	82.62
662.75	57.62
662.953	71.62
663.156	73.62
663.36	70.62
663.563	86.62
663.766	84.62
663.969	89.62
664.173	75.62
664.376	71.62
664.579	76.62
664.782	71.62
664.985	89.62
665.188	83.62
665.391	87.62
665.594	85.62
665.797	76.62
666	90.62
666.203	80.62
666.406	73.62
666.609	65.62
666.812	71.62
667.015	64.62
667.218	83.62
667.421	74.62
667.624	77.62
667.827	87.62
668.03	88.62
668.232	88.62
668.435	90.62
668.638	76.62
668.841	75.62
669.043	73.62
669.246	65.62
669.449	74.62
669.651	68.62
669.854	82.62
670.057	91.62
670.259	77.62
670.462	84.62
670.665	88.62
670.867	77.62
671.07	86.62
671.272	78.62
671.475	75.62
671.677	82.62
671.88	79.62
672.082	70.62
672.284	86.62
672.487	83.62
672.689	78.62
672.892	78.62
