Data from 1980.PennyLincolnUp.Lamp.En5.5.200Scan.071819.P1_HRD10591_16-35-17-956.txt Node
Date: Thu Jul 18 16:35:17 EDT 2019
User: cochatt
Spectrometer: HR+D1059
Trigger mode: 1
Integration Time (sec): 1.000000E-1
Scans to average: 1
Electric dark correction enabled: true
Nonlinearity correction enabled: false
Boxcar width: 0
XAxis mode: Wavelengths
Number of Pixels in Spectrum: 2048
>>>>>Begin Spectral Data<<<<<
223.165	-14.19
223.4	-14.19
223.635	-14.19
223.869	-24.19
224.104	-17.19
224.338	-15.19
224.573	-25.19
224.808	-8.19
225.042	-9.19
225.277	-1.19
225.511	13.81
225.746	10.81
225.98	7.81
226.215	0.81
226.449	18.81
226.683	9.81
226.918	30.81
227.152	21.81
227.387	44.81
227.621	34.81
227.856	39.81
228.09	43.81
228.324	53.81
228.559	51.81
228.793	69.81
229.027	91.81
229.262	102.81
229.496	96.81
229.73	114.81
229.964	131.81
230.199	117.81
230.433	107.81
230.667	103.81
230.901	113.81
231.136	98.81
231.37	109.81
231.604	104.81
231.838	100.81
232.072	95.81
232.306	92.81
232.541	104.81
232.775	109.81
233.009	93.81
233.243	111.81
233.477	93.81
233.711	108.81
233.945	101.81
234.179	99.81
234.413	101.81
234.647	100.81
234.881	102.81
235.115	103.81
235.349	106.81
235.583	108.81
235.817	93.81
236.051	121.81
236.285	106.81
236.519	107.81
236.753	104.81
236.987	129.81
237.221	135.81
237.455	194.81
237.689	156.81
237.922	118.81
238.156	119.81
238.39	117.81
238.624	111.81
238.858	107.81
239.091	111.81
239.325	113.81
239.559	118.81
239.793	109.81
240.027	125.81
240.26	129.81
240.494	127.81
240.728	131.81
240.961	131.81
241.195	125.81
241.429	126.81
241.662	115.81
241.896	135.81
242.13	125.81
242.363	113.81
242.597	117.81
242.83	104.81
243.064	117.81
243.298	121.81
243.531	130.81
243.765	126.81
243.998	129.81
244.232	131.81
244.465	123.81
244.699	114.81
244.932	127.81
245.166	107.81
245.399	124.81
245.633	121.81
245.866	123.81
246.099	130.81
246.333	120.81
246.566	130.81
246.8	120.81
247.033	125.81
247.266	141.81
247.5	139.81
247.733	163.81
247.966	151.81
248.2	163.81
248.433	142.81
248.666	143.81
248.899	163.81
249.133	142.81
249.366	179.81
249.599	165.81
249.832	163.81
250.066	163.81
250.299	158.81
250.532	149.81
250.765	167.81
250.998	179.81
251.231	184.81
251.465	171.81
251.698	189.81
251.931	161.81
252.164	173.81
252.397	155.81
252.63	159.81
252.863	179.81
253.096	191.81
253.329	188.81
253.562	177.81
253.795	178.81
254.028	171.81
254.261	170.81
254.494	199.81
254.727	195.81
254.96	209.81
255.193	214.81
255.426	199.81
255.659	182.81
255.892	184.81
256.124	199.81
256.357	187.81
256.59	165.81
256.823	158.81
257.056	171.81
257.289	159.81
257.521	172.81
257.754	182.81
257.987	141.81
258.22	170.81
258.452	179.81
258.685	163.81
258.918	169.81
259.151	158.81
259.383	166.81
259.616	174.81
259.849	176.81
260.081	183.81
260.314	201.81
260.547	181.81
260.779	188.81
261.012	195.81
261.244	184.81
261.477	172.81
261.71	169.81
261.942	179.81
262.175	181.81
262.407	183.81
262.64	165.81
262.872	155.81
263.105	164.81
263.337	157.81
263.57	162.81
263.802	153.81
264.035	154.81
264.267	151.81
264.499	143.81
264.732	156.81
264.964	144.81
265.197	152.81
265.429	159.81
265.661	140.81
265.894	168.81
266.126	156.81
266.358	160.81
266.591	153.81
266.823	150.81
267.055	149.81
267.287	162.81
267.52	179.81
267.752	157.81
267.984	168.81
268.216	148.81
268.448	156.81
268.681	163.81
268.913	169.81
269.145	189.81
269.377	202.81
269.609	190.81
269.841	192.81
270.073	189.81
270.306	213.81
270.538	225.81
270.77	235.81
271.002	190.81
271.234	201.81
271.466	215.81
271.698	215.81
271.93	220.81
272.162	199.81
272.394	217.81
272.626	216.81
272.858	214.81
273.09	212.81
273.322	179.81
273.553	184.81
273.785	207.81
274.017	186.81
274.249	183.81
274.481	181.81
274.713	198.81
274.945	157.81
275.176	175.81
275.408	204.81
275.64	175.81
275.872	176.81
276.104	201.81
276.335	170.81
276.567	185.81
276.799	201.81
277.031	223.81
277.262	201.81
277.494	213.81
277.726	204.81
277.957	194.81
278.189	190.81
278.421	186.81
278.652	193.81
278.884	163.81
279.115	174.81
279.347	180.81
279.579	183.81
279.81	196.81
280.042	193.81
280.273	179.81
280.505	187.81
280.736	180.81
280.968	163.81
281.199	179.81
281.431	169.81
281.662	182.81
281.894	174.81
282.125	170.81
282.356	181.81
282.588	197.81
282.819	174.81
283.051	180.81
283.282	168.81
283.513	181.81
283.745	179.81
283.976	163.81
284.207	160.81
284.439	175.81
284.67	182.81
284.901	188.81
285.132	186.81
285.364	171.81
285.595	165.81
285.826	172.81
286.057	182.81
286.288	185.81
286.52	145.81
286.751	174.81
286.982	179.81
287.213	176.81
287.444	174.81
287.675	189.81
287.906	186.81
288.138	175.81
288.369	180.81
288.6	178.81
288.831	181.81
289.062	179.81
289.293	178.81
289.524	187.81
289.755	189.81
289.986	178.81
290.217	177.81
290.448	173.81
290.679	193.81
290.91	195.81
291.141	178.81
291.371	179.81
291.602	182.81
291.833	178.81
292.064	175.81
292.295	164.81
292.526	180.81
292.757	165.81
292.987	172.81
293.218	157.81
293.449	165.81
293.68	169.81
293.91	191.81
294.141	173.81
294.372	162.81
294.603	181.81
294.833	175.81
295.064	183.81
295.295	181.81
295.525	177.81
295.756	171.81
295.987	184.81
296.217	195.81
296.448	207.81
296.679	193.81
296.909	195.81
297.14	177.81
297.37	181.81
297.601	183.81
297.831	190.81
298.062	185.81
298.292	195.81
298.523	181.81
298.753	189.81
298.984	190.81
299.214	187.81
299.445	178.81
299.675	183.81
299.905	184.81
300.136	187.81
300.366	184.81
300.597	186.81
300.827	179.81
301.057	183.81
301.288	197.81
301.518	202.81
301.748	189.81
301.979	191.81
302.209	201.81
302.439	187.81
302.669	189.81
302.9	202.81
303.13	188.81
303.36	201.81
303.59	193.81
303.82	210.81
304.051	198.81
304.281	187.81
304.511	193.81
304.741	204.81
304.971	184.81
305.201	195.81
305.431	194.81
305.661	197.81
305.891	206.81
306.121	189.81
306.352	202.81
306.582	206.81
306.812	194.81
307.042	187.81
307.272	203.81
307.502	205.81
307.731	204.81
307.961	182.81
308.191	198.81
308.421	201.81
308.651	217.81
308.881	196.81
309.111	198.81
309.341	196.81
309.571	197.81
309.8	231.81
310.03	203.81
310.26	229.81
310.49	217.81
310.72	221.81
310.949	239.81
311.179	263.81
311.409	258.81
311.639	223.81
311.868	233.81
312.098	230.81
312.328	224.81
312.557	238.81
312.787	240.81
313.017	233.81
313.246	219.81
313.476	213.81
313.706	224.81
313.935	247.81
314.165	235.81
314.394	247.81
314.624	231.81
314.853	234.81
315.083	237.81
315.312	230.81
315.542	226.81
315.771	235.81
316.001	195.81
316.23	233.81
316.46	220.81
316.689	228.81
316.919	217.81
317.148	228.81
317.377	244.81
317.607	258.81
317.836	246.81
318.065	222.81
318.295	219.81
318.524	232.81
318.753	235.81
318.983	236.81
319.212	234.81
319.441	230.81
319.67	223.81
319.9	212.81
320.129	220.81
320.358	217.81
320.587	227.81
320.816	234.81
321.046	238.81
321.275	242.81
321.504	242.81
321.733	246.81
321.962	236.81
322.191	240.81
322.42	266.81
322.649	275.81
322.878	265.81
323.108	280.81
323.337	306.81
323.566	322.81
323.795	314.81
324.024	357.81
324.253	453.81
324.482	619.81
324.71	861.81
324.939	1207.81
325.168	1074.81
325.397	613.81
325.626	419.81
325.855	347.81
326.084	330.81
326.313	349.81
326.542	335.81
326.77	350.81
326.999	402.81
327.228	567.81
327.457	792.81
327.686	947.81
327.914	689.81
328.143	466.81
328.372	411.81
328.6	368.81
328.829	362.81
329.058	361.81
329.287	378.81
329.515	327.81
329.744	307.81
329.972	301.81
330.201	303.81
330.43	342.81
330.658	366.81
330.887	381.81
331.115	377.81
331.344	335.81
331.572	302.81
331.801	296.81
332.03	308.81
332.258	307.81
332.486	275.81
332.715	271.81
332.943	251.81
333.172	265.81
333.4	253.81
333.629	268.81
333.857	279.81
334.085	271.81
334.314	279.81
334.542	291.81
334.771	297.81
334.999	274.81
335.227	259.81
335.455	259.81
335.684	261.81
335.912	259.81
336.14	249.81
336.369	259.81
336.597	274.81
336.825	265.81
337.053	274.81
337.281	254.81
337.51	251.81
337.738	271.81
337.966	247.81
338.194	269.81
338.422	264.81
338.65	258.81
338.878	247.81
339.106	252.81
339.334	240.81
339.562	255.81
339.79	257.81
340.018	257.81
340.246	282.81
340.474	268.81
340.702	262.81
340.93	262.81
341.158	251.81
341.386	265.81
341.614	255.81
341.842	251.81
342.07	271.81
342.298	251.81
342.526	244.81
342.754	231.81
342.981	237.81
343.209	226.81
343.437	263.81
343.665	249.81
343.893	244.81
344.12	252.81
344.348	272.81
344.576	252.81
344.804	264.81
345.031	264.81
345.259	266.81
345.487	246.81
345.714	277.81
345.942	265.81
346.17	257.81
346.397	241.81
346.625	247.81
346.853	231.81
347.08	255.81
347.308	247.81
347.535	240.81
347.763	276.81
347.99	258.81
348.218	263.81
348.445	249.81
348.673	254.81
348.9	270.81
349.128	246.81
349.355	233.81
349.583	257.81
349.81	247.81
350.037	233.81
350.265	248.81
350.492	247.81
350.72	260.81
350.947	231.81
351.174	237.81
351.402	263.81
351.629	267.81
351.856	269.81
352.083	271.81
352.311	268.81
352.538	277.81
352.765	287.81
352.992	271.81
353.22	270.81
353.447	269.81
353.674	258.81
353.901	250.81
354.128	257.81
354.355	248.81
354.583	257.81
354.81	246.81
355.037	228.81
355.264	239.81
355.491	238.81
355.718	240.81
355.945	234.81
356.172	238.81
356.399	238.81
356.626	225.81
356.853	221.81
357.08	238.81
357.307	238.81
357.534	233.81
357.761	246.81
357.988	245.81
358.215	232.81
358.441	238.81
358.668	247.81
358.895	248.81
359.122	259.81
359.349	255.81
359.576	261.81
359.802	271.81
360.029	316.81
360.256	309.81
360.483	286.81
360.709	258.81
360.936	277.81
361.163	252.81
361.39	267.81
361.616	276.81
361.843	247.81
362.07	256.81
362.296	258.81
362.523	249.81
362.749	281.81
362.976	263.81
363.203	245.81
363.429	245.81
363.656	270.81
363.882	261.81
364.109	244.81
364.335	263.81
364.562	274.81
364.788	268.81
365.015	257.81
365.241	245.81
365.468	243.81
365.694	274.81
365.92	245.81
366.147	249.81
366.373	256.81
366.599	246.81
366.826	242.81
367.052	256.81
367.278	262.81
367.505	257.81
367.731	254.81
367.957	245.81
368.184	245.81
368.41	254.81
368.636	274.81
368.862	269.81
369.089	257.81
369.315	246.81
369.541	249.81
369.767	263.81
369.993	255.81
370.219	237.81
370.445	249.81
370.672	250.81
370.898	248.81
371.124	244.81
371.35	253.81
371.576	237.81
371.802	263.81
372.028	247.81
372.254	238.81
372.48	230.81
372.706	255.81
372.932	249.81
373.158	269.81
373.384	271.81
373.61	252.81
373.835	265.81
374.061	269.81
374.287	257.81
374.513	258.81
374.739	249.81
374.965	268.81
375.191	261.81
375.416	256.81
375.642	251.81
375.868	281.81
376.094	258.81
376.319	258.81
376.545	250.81
376.771	261.81
376.997	263.81
377.222	258.81
377.448	252.81
377.674	274.81
377.899	256.81
378.125	254.81
378.35	255.81
378.576	235.81
378.802	259.81
379.027	275.81
379.253	258.81
379.478	246.81
379.704	266.81
379.929	247.81
380.155	245.81
380.38	264.81
380.606	268.81
380.831	264.81
381.057	264.81
381.282	259.81
381.507	267.81
381.733	270.81
381.958	258.81
382.184	262.81
382.409	261.81
382.634	278.81
382.86	289.81
383.085	259.81
383.31	266.81
383.535	253.81
383.761	257.81
383.986	273.81
384.211	268.81
384.436	284.81
384.662	247.81
384.887	252.81
385.112	271.81
385.337	281.81
385.562	279.81
385.787	276.81
386.013	286.81
386.238	291.81
386.463	296.81
386.688	280.81
386.913	250.81
387.138	275.81
387.363	274.81
387.588	275.81
387.813	283.81
388.038	259.81
388.263	272.81
388.488	271.81
388.713	261.81
388.938	275.81
389.163	272.81
389.387	275.81
389.612	251.81
389.837	274.81
390.062	264.81
390.287	278.81
390.512	252.81
390.736	253.81
390.961	263.81
391.186	268.81
391.411	257.81
391.636	266.81
391.86	276.81
392.085	269.81
392.31	264.81
392.534	263.81
392.759	267.81
392.984	282.81
393.208	310.81
393.433	331.81
393.658	348.81
393.882	287.81
394.107	271.81
394.331	277.81
394.556	267.81
394.78	274.81
395.005	274.81
395.229	271.81
395.454	266.81
395.678	264.81
395.903	290.81
396.127	297.81
396.352	302.81
396.576	298.81
396.801	286.81
397.025	331.81
397.249	307.81
397.474	263.81
397.698	292.81
397.922	298.81
398.147	288.81
398.371	303.81
398.595	309.81
398.82	292.81
399.044	305.81
399.268	293.81
399.492	301.81
399.717	324.81
399.941	339.81
400.165	364.81
400.389	366.81
400.613	326.81
400.837	324.81
401.062	306.81
401.286	292.81
401.51	303.81
401.734	312.81
401.958	286.81
402.182	289.81
402.406	305.81
402.63	297.81
402.854	301.81
403.078	313.81
403.302	330.81
403.526	297.81
403.75	318.81
403.974	327.81
404.198	311.81
404.422	302.81
404.645	323.81
404.869	313.81
405.093	343.81
405.317	345.81
405.541	372.81
405.765	361.81
405.988	339.81
406.212	343.81
406.436	341.81
406.66	364.81
406.883	346.81
407.107	357.81
407.331	387.81
407.555	413.81
407.778	415.81
408.002	375.81
408.226	335.81
408.449	349.81
408.673	358.81
408.896	375.81
409.12	378.81
409.344	358.81
409.567	341.81
409.791	332.81
410.014	320.81
410.238	340.81
410.461	309.81
410.685	322.81
410.908	343.81
411.132	361.81
411.355	381.81
411.578	353.81
411.802	333.81
412.025	315.81
412.249	313.81
412.472	331.81
412.695	357.81
412.919	346.81
413.142	313.81
413.365	312.81
413.589	311.81
413.812	296.81
414.035	291.81
414.258	304.81
414.482	287.81
414.705	303.81
414.928	301.81
415.151	297.81
415.374	295.81
415.597	279.81
415.821	305.81
416.044	307.81
416.267	322.81
416.49	303.81
416.713	301.81
416.936	290.81
417.159	299.81
417.382	323.81
417.605	318.81
417.828	330.81
418.051	312.81
418.274	308.81
418.497	322.81
418.72	313.81
418.943	302.81
419.166	317.81
419.389	333.81
419.611	327.81
419.834	339.81
420.057	317.81
420.28	340.81
420.503	309.81
420.726	331.81
420.948	334.81
421.171	377.81
421.394	391.81
421.617	354.81
421.839	343.81
422.062	334.81
422.285	361.81
422.507	381.81
422.73	424.81
422.953	429.81
423.175	363.81
423.398	345.81
423.621	366.81
423.843	368.81
424.066	366.81
424.288	365.81
424.511	385.81
424.733	417.81
424.956	471.81
425.178	459.81
425.401	438.81
425.623	466.81
425.846	389.81
426.068	374.81
426.291	379.81
426.513	376.81
426.735	357.81
426.958	403.81
427.18	462.81
427.402	519.81
427.625	569.81
427.847	545.81
428.069	462.81
428.292	408.81
428.514	389.81
428.736	367.81
428.958	363.81
429.181	344.81
429.403	342.81
429.625	375.81
429.847	377.81
430.069	415.81
430.292	405.81
430.514	349.81
430.736	346.81
430.958	345.81
431.18	326.81
431.402	320.81
431.624	330.81
431.846	340.81
432.068	319.81
432.29	318.81
432.512	324.81
432.734	317.81
432.956	314.81
433.178	342.81
433.4	353.81
433.622	323.81
433.844	313.81
434.066	325.81
434.287	315.81
434.509	324.81
434.731	349.81
434.953	331.81
435.175	360.81
435.397	382.81
435.618	371.81
435.84	407.81
436.062	438.81
436.284	480.81
436.505	422.81
436.727	392.81
436.949	381.81
437.17	346.81
437.392	353.81
437.614	358.81
437.835	390.81
438.057	456.81
438.278	535.81
438.5	521.81
438.721	527.81
438.943	514.81
439.165	438.81
439.386	410.81
439.608	404.81
439.829	417.81
440.05	402.81
440.272	423.81
440.493	407.81
440.715	356.81
440.936	362.81
441.158	344.81
441.379	367.81
441.6	346.81
441.822	393.81
442.043	413.81
442.264	463.81
442.486	498.81
442.707	411.81
442.928	405.81
443.149	397.81
443.371	398.81
443.592	447.81
443.813	475.81
444.034	518.81
444.255	432.81
444.476	393.81
444.698	375.81
444.919	363.81
445.14	470.81
445.361	429.81
445.582	399.81
445.803	441.81
446.024	482.81
446.245	513.81
446.466	449.81
446.687	396.81
446.908	373.81
447.129	359.81
447.35	344.81
447.571	328.81
447.792	358.81
448.013	355.81
448.234	369.81
448.455	410.81
448.675	455.81
448.896	532.81
449.117	490.81
449.338	465.81
449.559	499.81
449.779	543.81
450	467.81
450.221	414.81
450.442	363.81
450.662	355.81
450.883	364.81
451.104	359.81
451.324	357.81
451.545	335.81
451.766	319.81
451.986	305.81
452.207	311.81
452.428	307.81
452.648	302.81
452.869	303.81
453.089	330.81
453.31	315.81
453.53	323.81
453.751	310.81
453.971	317.81
454.192	335.81
454.412	352.81
454.633	308.81
454.853	329.81
455.073	319.81
455.294	317.81
455.514	380.81
455.734	371.81
455.955	305.81
456.175	303.81
456.395	300.81
456.616	278.81
456.836	283.81
457.056	304.81
457.276	288.81
457.497	298.81
457.717	283.81
457.937	283.81
458.157	316.81
458.377	296.81
458.598	317.81
458.818	371.81
459.038	409.81
459.258	419.81
459.478	370.81
459.698	334.81
459.918	315.81
460.138	305.81
460.358	301.81
460.578	316.81
460.798	308.81
461.018	319.81
461.238	313.81
461.458	294.81
461.678	290.81
461.898	322.81
462.118	306.81
462.338	307.81
462.558	305.81
462.777	295.81
462.997	330.81
463.217	316.81
463.437	341.81
463.657	312.81
463.876	351.81
464.096	322.81
464.316	329.81
464.536	334.81
464.755	339.81
464.975	347.81
465.195	358.81
465.414	430.81
465.634	423.81
465.854	358.81
466.073	356.81
466.293	315.81
466.512	310.81
466.732	296.81
466.951	323.81
467.171	316.81
467.391	302.81
467.61	325.81
467.829	318.81
468.049	331.81
468.268	314.81
468.488	314.81
468.707	327.81
468.927	301.81
469.146	301.81
469.365	293.81
469.585	322.81
469.804	314.81
470.023	352.81
470.243	317.81
470.462	329.81
470.681	341.81
470.901	330.81
471.12	319.81
471.339	333.81
471.558	322.81
471.777	338.81
471.997	314.81
472.216	321.81
472.435	309.81
472.654	313.81
472.873	313.81
473.092	316.81
473.311	317.81
473.53	299.81
473.749	326.81
473.968	361.81
474.187	438.81
474.406	429.81
474.625	371.81
474.844	329.81
475.063	329.81
475.282	313.81
475.501	318.81
475.72	337.81
475.939	324.81
476.158	325.81
476.377	333.81
476.596	318.81
476.814	331.81
477.033	353.81
477.252	355.81
477.471	343.81
477.69	335.81
477.908	356.81
478.127	345.81
478.346	348.81
478.564	351.81
478.783	355.81
479.002	349.81
479.22	353.81
479.439	356.81
479.658	370.81
479.876	391.81
480.095	388.81
480.313	406.81
480.532	386.81
480.751	381.81
480.969	379.81
481.188	414.81
481.406	412.81
481.624	400.81
481.843	409.81
482.061	367.81
482.28	385.81
482.498	388.81
482.717	371.81
482.935	376.81
483.153	353.81
483.372	379.81
483.59	381.81
483.808	388.81
484.027	385.81
484.245	393.81
484.463	382.81
484.681	389.81
484.9	381.81
485.118	388.81
485.336	378.81
485.554	399.81
485.772	403.81
485.99	397.81
486.209	396.81
486.427	419.81
486.645	413.81
486.863	403.81
487.081	413.81
487.299	430.81
487.517	420.81
487.735	386.81
487.953	409.81
488.171	405.81
488.389	425.81
488.607	443.81
488.825	423.81
489.043	431.81
489.261	420.81
489.479	429.81
489.696	441.81
489.914	448.81
490.132	426.81
490.35	444.81
490.568	443.81
490.786	454.81
491.003	453.81
491.221	482.81
491.439	467.81
491.657	482.81
491.874	499.81
492.092	482.81
492.31	485.81
492.527	500.81
492.745	484.81
492.963	501.81
493.18	509.81
493.398	497.81
493.615	523.81
493.833	517.81
494.05	503.81
494.268	491.81
494.485	506.81
494.703	500.81
494.92	494.81
495.138	544.81
495.355	528.81
495.573	534.81
495.79	511.81
496.008	518.81
496.225	541.81
496.442	525.81
496.66	492.81
496.877	494.81
497.094	506.81
497.312	508.81
497.529	518.81
497.746	525.81
497.963	508.81
498.181	540.81
498.398	529.81
498.615	539.81
498.832	542.81
499.049	535.81
499.267	534.81
499.484	572.81
499.701	560.81
499.918	571.81
500.135	601.81
500.352	604.81
500.569	598.81
500.786	580.81
501.003	605.81
501.22	614.81
501.437	583.81
501.654	598.81
501.871	612.81
502.088	581.81
502.305	566.81
502.522	546.81
502.739	552.81
502.956	556.81
503.172	542.81
503.389	530.81
503.606	527.81
503.823	537.81
504.04	522.81
504.256	521.81
504.473	480.81
504.69	523.81
504.907	521.81
505.123	497.81
505.34	501.81
505.557	505.81
505.773	484.81
505.99	502.81
506.207	486.81
506.423	490.81
506.64	502.81
506.856	483.81
507.073	489.81
507.289	480.81
507.506	498.81
507.722	503.81
507.939	522.81
508.155	523.81
508.372	500.81
508.588	486.81
508.805	466.81
509.021	490.81
509.238	482.81
509.454	503.81
509.67	489.81
509.887	486.81
510.103	465.81
510.319	484.81
510.536	559.81
510.752	951.81
510.968	776.81
511.184	526.81
511.401	482.81
511.617	462.81
511.833	466.81
512.049	469.81
512.265	447.81
512.481	457.81
512.698	444.81
512.914	448.81
513.13	452.81
513.346	460.81
513.562	445.81
513.778	469.81
513.994	447.81
514.21	484.81
514.426	499.81
514.642	523.81
514.858	563.81
515.074	601.81
515.29	699.81
515.506	1020.81
515.721	884.81
515.937	564.81
516.153	523.81
516.369	500.81
516.585	457.81
516.801	446.81
517.016	455.81
517.232	455.81
517.448	462.81
517.664	444.81
517.879	450.81
518.095	438.81
518.311	458.81
518.527	424.81
518.742	450.81
518.958	450.81
519.173	446.81
519.389	439.81
519.605	428.81
519.82	478.81
520.036	464.81
520.251	491.81
520.467	519.81
520.682	503.81
520.898	519.81
521.113	541.81
521.329	589.81
521.544	659.81
521.76	827.81
521.975	1361.81
522.19	1338.81
522.406	745.81
522.621	559.81
522.836	503.81
523.052	489.81
523.267	441.81
523.482	427.81
523.698	425.81
523.913	438.81
524.128	428.81
524.343	405.81
524.559	393.81
524.774	421.81
524.989	400.81
525.204	409.81
525.419	404.81
525.634	373.81
525.849	385.81
526.064	377.81
526.28	403.81
526.495	380.81
526.71	381.81
526.925	374.81
527.14	347.81
527.355	371.81
527.57	345.81
527.785	345.81
527.999	354.81
528.214	357.81
528.429	368.81
528.644	347.81
528.859	365.81
529.074	358.81
529.289	377.81
529.503	441.81
529.718	427.81
529.933	387.81
530.148	382.81
530.363	360.81
530.577	356.81
530.792	376.81
531.007	346.81
531.221	349.81
531.436	331.81
531.651	353.81
531.865	340.81
532.08	348.81
532.295	357.81
532.509	341.81
532.724	334.81
532.938	323.81
533.153	343.81
533.367	341.81
533.582	323.81
533.796	344.81
534.011	322.81
534.225	335.81
534.44	340.81
534.654	328.81
534.868	336.81
535.083	333.81
535.297	340.81
535.511	350.81
535.726	348.81
535.94	357.81
536.154	346.81
536.369	348.81
536.583	331.81
536.797	330.81
537.011	311.81
537.225	332.81
537.44	327.81
537.654	344.81
537.868	339.81
538.082	329.81
538.296	332.81
538.51	336.81
538.724	329.81
538.938	338.81
539.153	345.81
539.367	340.81
539.581	341.81
539.795	315.81
540.009	323.81
540.222	334.81
540.436	319.81
540.65	325.81
540.864	341.81
541.078	353.81
541.292	339.81
541.506	332.81
541.72	336.81
541.934	333.81
542.147	336.81
542.361	332.81
542.575	322.81
542.789	335.81
543.002	318.81
543.216	335.81
543.43	338.81
543.644	340.81
543.857	337.81
544.071	326.81
544.285	332.81
544.498	328.81
544.712	330.81
544.925	341.81
545.139	328.81
545.352	308.81
545.566	322.81
545.779	311.81
545.993	300.81
546.206	318.81
546.42	320.81
546.633	312.81
546.847	316.81
547.06	319.81
547.274	309.81
547.487	306.81
547.7	280.81
547.914	298.81
548.127	308.81
548.34	306.81
548.554	311.81
548.767	309.81
548.98	325.81
549.193	290.81
549.407	305.81
549.62	302.81
549.833	302.81
550.046	290.81
550.259	311.81
550.473	309.81
550.686	289.81
550.899	285.81
551.112	312.81
551.325	304.81
551.538	307.81
551.751	305.81
551.964	306.81
552.177	305.81
552.39	298.81
552.603	308.81
552.816	299.81
553.029	305.81
553.242	295.81
553.455	305.81
553.667	321.81
553.88	332.81
554.093	323.81
554.306	324.81
554.519	310.81
554.732	297.81
554.944	286.81
555.157	309.81
555.37	275.81
555.583	302.81
555.795	305.81
556.008	284.81
556.221	297.81
556.433	290.81
556.646	285.81
556.859	291.81
557.071	284.81
557.284	264.81
557.496	283.81
557.709	285.81
557.921	274.81
558.134	285.81
558.346	268.81
558.559	285.81
558.771	282.81
558.984	286.81
559.196	272.81
559.409	285.81
559.621	287.81
559.833	285.81
560.046	276.81
560.258	289.81
560.47	273.81
560.683	281.81
560.895	291.81
561.107	287.81
561.32	267.81
561.532	286.81
561.744	260.81
561.956	277.81
562.168	292.81
562.381	272.81
562.593	286.81
562.805	283.81
563.017	269.81
563.229	271.81
563.441	275.81
563.653	261.81
563.865	279.81
564.077	272.81
564.289	270.81
564.501	286.81
564.713	304.81
564.925	275.81
565.137	284.81
565.349	299.81
565.561	294.81
565.773	282.81
565.985	282.81
566.197	299.81
566.408	299.81
566.62	287.81
566.832	305.81
567.044	302.81
567.255	307.81
567.467	317.81
567.679	310.81
567.891	295.81
568.102	281.81
568.314	307.81
568.526	289.81
568.737	282.81
568.949	289.81
569.161	295.81
569.372	285.81
569.584	285.81
569.795	273.81
570.007	277.81
570.218	314.81
570.43	291.81
570.641	267.81
570.853	262.81
571.064	264.81
571.276	265.81
571.487	274.81
571.698	244.81
571.91	258.81
572.121	255.81
572.333	251.81
572.544	264.81
572.755	256.81
572.966	256.81
573.178	241.81
573.389	247.81
573.6	236.81
573.811	234.81
574.023	227.81
574.234	237.81
574.445	230.81
574.656	234.81
574.867	235.81
575.078	242.81
575.289	237.81
575.501	242.81
575.712	252.81
575.923	243.81
576.134	260.81
576.345	244.81
576.556	245.81
576.767	236.81
576.978	242.81
577.188	257.81
577.399	237.81
577.61	237.81
577.821	230.81
578.032	223.81
578.243	282.81
578.454	437.81
578.665	335.81
578.875	253.81
579.086	242.81
579.297	234.81
579.508	249.81
579.718	255.81
579.929	228.81
580.14	227.81
580.35	223.81
580.561	220.81
580.772	225.81
580.982	231.81
581.193	221.81
581.403	225.81
581.614	231.81
581.825	217.81
582.035	204.81
582.246	221.81
582.456	211.81
582.667	205.81
582.877	212.81
583.087	213.81
583.298	225.81
583.508	229.81
583.719	213.81
583.929	214.81
584.139	224.81
584.35	231.81
584.56	235.81
584.77	214.81
584.981	220.81
585.191	236.81
585.401	215.81
585.611	216.81
585.821	217.81
586.032	219.81
586.242	219.81
586.452	208.81
586.662	227.81
586.872	229.81
587.082	219.81
587.292	218.81
587.502	238.81
587.713	212.81
587.923	223.81
588.133	225.81
588.343	200.81
588.553	207.81
588.762	210.81
588.972	222.81
589.182	271.81
589.392	270.81
589.602	217.81
589.812	259.81
590.022	243.81
590.232	225.81
590.441	219.81
590.651	211.81
590.861	209.81
591.071	217.81
591.281	214.81
591.49	213.81
591.7	218.81
591.91	207.81
592.119	222.81
592.329	221.81
592.539	214.81
592.748	207.81
592.958	227.81
593.167	214.81
593.377	216.81
593.587	227.81
593.796	226.81
594.006	208.81
594.215	205.81
594.424	217.81
594.634	218.81
594.843	229.81
595.053	215.81
595.262	206.81
595.472	203.81
595.681	208.81
595.89	207.81
596.1	204.81
596.309	205.81
596.518	193.81
596.727	207.81
596.937	211.81
597.146	193.81
597.355	212.81
597.564	208.81
597.774	198.81
597.983	197.81
598.192	188.81
598.401	214.81
598.61	195.81
598.819	205.81
599.028	193.81
599.237	185.81
599.446	195.81
599.655	201.81
599.864	189.81
600.073	188.81
600.282	185.81
600.491	202.81
600.7	196.81
600.909	199.81
601.118	201.81
601.327	192.81
601.536	205.81
601.745	172.81
601.953	187.81
602.162	183.81
602.371	201.81
602.58	211.81
602.789	191.81
602.997	191.81
603.206	212.81
603.415	214.81
603.623	181.81
603.832	186.81
604.041	201.81
604.249	199.81
604.458	170.81
604.666	178.81
604.875	173.81
605.084	181.81
605.292	189.81
605.501	189.81
605.709	193.81
605.918	190.81
606.126	189.81
606.334	193.81
606.543	183.81
606.751	184.81
606.96	189.81
607.168	182.81
607.376	193.81
607.585	197.81
607.793	193.81
608.001	189.81
608.21	189.81
608.418	190.81
608.626	174.81
608.834	193.81
609.043	190.81
609.251	177.81
609.459	195.81
609.667	179.81
609.875	181.81
610.083	183.81
610.291	194.81
610.499	200.81
610.707	188.81
610.916	177.81
611.124	187.81
611.332	194.81
611.54	197.81
611.748	184.81
611.955	181.81
612.163	197.81
612.371	190.81
612.579	183.81
612.787	188.81
612.995	193.81
613.203	183.81
613.411	171.81
613.618	203.81
613.826	185.81
614.034	206.81
614.242	191.81
614.449	194.81
614.657	191.81
614.865	169.81
615.072	199.81
615.28	195.81
615.488	186.81
615.695	181.81
615.903	184.81
616.111	197.81
616.318	182.81
616.526	172.81
616.733	175.81
616.941	186.81
617.148	179.81
617.356	165.81
617.563	186.81
617.771	188.81
617.978	196.81
618.185	195.81
618.393	178.81
618.6	184.81
618.807	189.81
619.015	182.81
619.222	175.81
619.429	180.81
619.637	175.81
619.844	175.81
620.051	186.81
620.258	167.81
620.466	173.81
620.673	166.81
620.88	171.81
621.087	169.81
621.294	178.81
621.501	178.81
621.708	175.81
621.915	179.81
622.122	178.81
622.329	188.81
622.536	188.81
622.743	166.81
622.95	192.81
623.157	173.81
623.364	180.81
623.571	170.81
623.778	165.81
623.985	169.81
624.192	174.81
624.399	171.81
624.606	156.81
624.812	165.81
625.019	177.81
625.226	171.81
625.433	184.81
625.639	149.81
625.846	153.81
626.053	168.81
626.259	174.81
626.466	164.81
626.673	175.81
626.879	155.81
627.086	163.81
627.293	162.81
627.499	164.81
627.706	179.81
627.912	159.81
628.119	146.81
628.325	173.81
628.532	163.81
628.738	165.81
628.945	172.81
629.151	156.81
629.357	165.81
629.564	174.81
629.77	140.81
629.976	167.81
630.183	157.81
630.389	159.81
630.595	161.81
630.802	153.81
631.008	156.81
631.214	155.81
631.42	153.81
631.627	164.81
631.833	155.81
632.039	154.81
632.245	170.81
632.451	147.81
632.657	160.81
632.863	161.81
633.069	141.81
633.275	156.81
633.481	171.81
633.688	155.81
633.893	151.81
634.099	162.81
634.305	149.81
634.511	161.81
634.717	156.81
634.923	127.81
635.129	145.81
635.335	161.81
635.541	142.81
635.747	155.81
635.952	139.81
636.158	155.81
636.364	142.81
636.57	149.81
636.775	154.81
636.981	149.81
637.187	153.81
637.392	151.81
637.598	153.81
637.804	129.81
638.009	147.81
638.215	158.81
638.421	137.81
638.626	155.81
638.832	146.81
639.037	162.81
639.243	160.81
639.448	149.81
639.654	162.81
639.859	157.81
640.065	149.81
640.27	152.81
640.475	144.81
640.681	147.81
640.886	153.81
641.091	141.81
641.297	132.81
641.502	143.81
641.707	133.81
641.913	137.81
642.118	121.81
642.323	149.81
642.528	137.81
642.733	148.81
642.939	150.81
643.144	147.81
643.349	134.81
643.554	141.81
643.759	148.81
643.964	142.81
644.169	144.81
644.374	131.81
644.579	141.81
644.784	138.81
644.989	128.81
645.194	135.81
645.399	154.81
645.604	144.81
645.809	146.81
646.014	141.81
646.219	144.81
646.423	133.81
646.628	150.81
646.833	141.81
647.038	151.81
647.243	148.81
647.447	142.81
647.652	132.81
647.857	134.81
648.062	122.81
648.266	141.81
648.471	149.81
648.676	139.81
648.88	140.81
649.085	137.81
649.289	140.81
649.494	141.81
649.698	134.81
649.903	139.81
650.107	144.81
650.312	130.81
650.516	141.81
650.721	127.81
650.925	143.81
651.13	124.81
651.334	123.81
651.539	127.81
651.743	138.81
651.947	130.81
652.152	136.81
652.356	131.81
652.56	121.81
652.764	119.81
652.969	126.81
653.173	119.81
653.377	113.81
653.581	129.81
653.785	123.81
653.99	99.81
654.194	105.81
654.398	111.81
654.602	120.81
654.806	121.81
655.01	118.81
655.214	111.81
655.418	107.81
655.622	116.81
655.826	114.81
656.03	113.81
656.234	119.81
656.438	108.81
656.642	119.81
656.846	115.81
657.049	125.81
657.253	115.81
657.457	102.81
657.661	109.81
657.865	120.81
658.068	93.81
658.272	97.81
658.476	84.81
658.68	86.81
658.883	107.81
659.087	111.81
659.291	108.81
659.494	91.81
659.698	108.81
659.901	99.81
660.105	98.81
660.309	78.81
660.512	93.81
660.716	94.81
660.919	99.81
661.123	88.81
661.326	90.81
661.53	97.81
661.733	104.81
661.936	94.81
662.14	77.81
662.343	84.81
662.546	83.81
662.75	82.81
662.953	89.81
663.156	79.81
663.36	90.81
663.563	85.81
663.766	77.81
663.969	95.81
664.173	78.81
664.376	83.81
664.579	77.81
664.782	82.81
664.985	89.81
665.188	83.81
665.391	104.81
665.594	77.81
665.797	89.81
666	103.81
666.203	85.81
666.406	84.81
666.609	84.81
666.812	82.81
667.015	94.81
667.218	77.81
667.421	79.81
667.624	93.81
667.827	92.81
668.03	77.81
668.232	67.81
668.435	79.81
668.638	89.81
668.841	88.81
669.043	85.81
669.246	79.81
669.449	95.81
669.651	86.81
669.854	80.81
670.057	76.81
670.259	77.81
670.462	71.81
670.665	82.81
670.867	79.81
671.07	85.81
671.272	82.81
671.475	72.81
671.677	76.81
671.88	77.81
672.082	78.81
672.284	89.81
672.487	83.81
672.689	85.81
672.892	95.81
