Data from 1980.PennyLincolnUp.Lamp.En5.5.200Scan.071819.P1_HRD10591_16-37-09-957.txt Node
Date: Thu Jul 18 16:37:09 EDT 2019
User: cochatt
Spectrometer: HR+D1059
Trigger mode: 1
Integration Time (sec): 1.000000E-1
Scans to average: 1
Electric dark correction enabled: true
Nonlinearity correction enabled: false
Boxcar width: 0
XAxis mode: Wavelengths
Number of Pixels in Spectrum: 2048
>>>>>Begin Spectral Data<<<<<
223.165	-11
223.4	-11
223.635	-11
223.869	-21
224.104	-19
224.338	-17
224.573	-21
224.808	-10
225.042	9
225.277	3
225.511	-5
225.746	9
225.98	2
226.215	-3
226.449	18
226.683	13
226.918	27
227.152	26
227.387	38
227.621	32
227.856	46
228.09	39
228.324	44
228.559	57
228.793	69
229.027	88
229.262	124
229.496	123
229.73	135
229.964	166
230.199	139
230.433	130
230.667	97
230.901	111
231.136	116
231.37	113
231.604	115
231.838	116
232.072	117
232.306	113
232.541	117
232.775	117
233.009	103
233.243	119
233.477	115
233.711	113
233.945	103
234.179	109
234.413	108
234.647	121
234.881	110
235.115	125
235.349	138
235.583	118
235.817	129
236.051	141
236.285	131
236.519	132
236.753	143
236.987	154
237.221	194
237.455	238
237.689	195
237.922	156
238.156	137
238.39	139
238.624	127
238.858	128
239.091	132
239.325	123
239.559	147
239.793	137
240.027	121
240.26	134
240.494	169
240.728	153
240.961	147
241.195	152
241.429	138
241.662	124
241.896	121
242.13	138
242.363	120
242.597	127
242.83	141
243.064	145
243.298	131
243.531	141
243.765	136
243.998	133
244.232	124
244.465	146
244.699	127
244.932	141
245.166	141
245.399	146
245.633	149
245.866	150
246.099	143
246.333	143
246.566	157
246.8	154
247.033	151
247.266	164
247.5	164
247.733	169
247.966	169
248.2	190
248.433	181
248.666	167
248.899	189
249.133	207
249.366	204
249.599	203
249.832	186
250.066	187
250.299	180
250.532	201
250.765	201
250.998	212
251.231	247
251.465	233
251.698	214
251.931	202
252.164	186
252.397	186
252.63	208
252.863	203
253.096	224
253.329	223
253.562	232
253.795	217
254.028	223
254.261	222
254.494	233
254.727	245
254.96	295
255.193	275
255.426	270
255.659	240
255.892	248
256.124	238
256.357	241
256.59	234
256.823	220
257.056	222
257.289	220
257.521	220
257.754	223
257.987	218
258.22	202
258.452	212
258.685	232
258.918	213
259.151	214
259.383	222
259.616	231
259.849	223
260.081	237
260.314	256
260.547	249
260.779	227
261.012	238
261.244	218
261.477	204
261.71	215
261.942	208
262.175	223
262.407	226
262.64	246
262.872	193
263.105	201
263.337	210
263.57	208
263.802	223
264.035	209
264.267	212
264.499	210
264.732	190
264.964	199
265.197	197
265.429	206
265.661	221
265.894	197
266.126	221
266.358	216
266.591	210
266.823	222
267.055	203
267.287	243
267.52	221
267.752	238
267.984	214
268.216	215
268.448	228
268.681	207
268.913	244
269.145	257
269.377	262
269.609	279
269.841	267
270.073	270
270.306	290
270.538	326
270.77	295
271.002	295
271.234	282
271.466	315
271.698	312
271.93	326
272.162	324
272.394	312
272.626	297
272.858	248
273.09	279
273.322	267
273.553	267
273.785	266
274.017	259
274.249	265
274.481	262
274.713	265
274.945	254
275.176	246
275.408	246
275.64	265
275.872	255
276.104	261
276.335	258
276.567	272
276.799	261
277.031	303
277.262	301
277.494	314
277.726	293
277.957	271
278.189	280
278.421	263
278.652	251
278.884	257
279.115	253
279.347	245
279.579	254
279.81	259
280.042	232
280.273	250
280.505	259
280.736	259
280.968	255
281.199	255
281.431	226
281.662	246
281.894	253
282.125	260
282.356	280
282.588	299
282.819	300
283.051	267
283.282	276
283.513	261
283.745	261
283.976	248
284.207	263
284.439	253
284.67	258
284.901	261
285.132	268
285.364	252
285.595	249
285.826	259
286.057	263
286.288	266
286.52	263
286.751	252
286.982	245
287.213	253
287.444	252
287.675	258
287.906	264
288.138	284
288.369	284
288.6	275
288.831	284
289.062	299
289.293	276
289.524	269
289.755	272
289.986	271
290.217	272
290.448	275
290.679	265
290.91	262
291.141	261
291.371	254
291.602	271
291.833	257
292.064	252
292.295	251
292.526	271
292.757	261
292.987	256
293.218	272
293.449	262
293.68	267
293.91	258
294.141	260
294.372	262
294.603	256
294.833	267
295.064	276
295.295	246
295.525	248
295.756	270
295.987	282
296.217	297
296.448	307
296.679	285
296.909	276
297.14	260
297.37	279
297.601	294
297.831	265
298.062	260
298.292	277
298.523	272
298.753	268
298.984	261
299.214	280
299.445	282
299.675	278
299.905	272
300.136	284
300.366	272
300.597	271
300.827	308
301.057	281
301.288	272
301.518	301
301.748	305
301.979	282
302.209	284
302.439	296
302.669	290
302.9	290
303.13	286
303.36	289
303.59	286
303.82	307
304.051	288
304.281	309
304.511	293
304.741	305
304.971	283
305.201	288
305.431	274
305.661	283
305.891	299
306.121	303
306.352	299
306.582	318
306.812	313
307.042	282
307.272	315
307.502	284
307.731	302
307.961	305
308.191	294
308.421	299
308.651	313
308.881	298
309.111	298
309.341	320
309.571	329
309.8	340
310.03	345
310.26	354
310.49	327
310.72	348
310.949	371
311.179	364
311.409	343
311.639	352
311.868	354
312.098	348
312.328	357
312.557	395
312.787	385
313.017	391
313.246	359
313.476	335
313.706	360
313.935	371
314.165	367
314.394	376
314.624	353
314.853	361
315.083	335
315.312	354
315.542	324
315.771	357
316.001	335
316.23	344
316.46	329
316.689	339
316.919	339
317.148	365
317.377	353
317.607	357
317.836	344
318.065	351
318.295	370
318.524	361
318.753	343
318.983	362
319.212	362
319.441	354
319.67	365
319.9	358
320.129	344
320.358	359
320.587	374
320.816	357
321.046	377
321.275	378
321.504	374
321.733	377
321.962	388
322.191	383
322.42	412
322.649	419
322.878	453
323.108	443
323.337	473
323.566	500
323.795	519
324.024	579
324.253	726
324.482	1019
324.71	1563
324.939	2259
325.168	1981
325.397	1033
325.626	683
325.855	571
326.084	520
326.313	511
326.542	499
326.77	564
326.999	647
327.228	900
327.457	1362
327.686	1682
327.914	1209
328.143	797
328.372	660
328.6	625
328.829	581
329.058	552
329.287	592
329.515	579
329.744	517
329.972	507
330.201	503
330.43	547
330.658	591
330.887	613
331.115	602
331.344	511
331.572	458
331.801	470
332.03	477
332.258	448
332.486	407
332.715	413
332.943	410
333.172	397
333.4	414
333.629	417
333.857	443
334.085	431
334.314	438
334.542	499
334.771	505
334.999	453
335.227	423
335.455	397
335.684	422
335.912	405
336.14	392
336.369	401
336.597	412
336.825	422
337.053	411
337.281	396
337.51	398
337.738	399
337.966	402
338.194	375
338.422	418
338.65	409
338.878	375
339.106	391
339.334	398
339.562	390
339.79	380
340.018	392
340.246	383
340.474	405
340.702	400
340.93	382
341.158	388
341.386	381
341.614	387
341.842	385
342.07	384
342.298	390
342.526	370
342.754	369
342.981	373
343.209	376
343.437	373
343.665	370
343.893	377
344.12	391
344.348	394
344.576	380
344.804	388
345.031	396
345.259	415
345.487	400
345.714	388
345.942	389
346.17	378
346.397	371
346.625	377
346.853	377
347.08	392
347.308	388
347.535	385
347.763	396
347.99	390
348.218	398
348.445	419
348.673	389
348.9	392
349.128	394
349.355	357
349.583	372
349.81	349
350.037	360
350.265	380
350.492	362
350.72	376
350.947	364
351.174	381
351.402	396
351.629	395
351.856	377
352.083	402
352.311	401
352.538	387
352.765	400
352.992	394
353.22	387
353.447	374
353.674	399
353.901	373
354.128	378
354.355	371
354.583	346
354.81	345
355.037	350
355.264	360
355.491	349
355.718	354
355.945	342
356.172	345
356.399	354
356.626	322
356.853	327
357.08	329
357.307	360
357.534	343
357.761	347
357.988	357
358.215	358
358.441	352
358.668	362
358.895	365
359.122	351
359.349	368
359.576	381
359.802	425
360.029	459
360.256	451
360.483	449
360.709	392
360.936	371
361.163	379
361.39	395
361.616	383
361.843	407
362.07	376
362.296	379
362.523	375
362.749	359
362.976	375
363.203	375
363.429	362
363.656	349
363.882	379
364.109	371
364.335	375
364.562	370
364.788	370
365.015	348
365.241	366
365.468	351
365.694	357
365.92	392
366.147	345
366.373	347
366.599	355
366.826	357
367.052	354
367.278	353
367.505	373
367.731	365
367.957	339
368.184	339
368.41	374
368.636	369
368.862	379
369.089	372
369.315	366
369.541	379
369.767	381
369.993	353
370.219	346
370.445	349
370.672	357
370.898	345
371.124	361
371.35	357
371.576	345
371.802	340
372.028	350
372.254	355
372.48	361
372.706	355
372.932	350
373.158	341
373.384	360
373.61	355
373.835	350
374.061	354
374.287	348
374.513	374
374.739	345
374.965	349
375.191	351
375.416	372
375.642	345
375.868	343
376.094	350
376.319	358
376.545	377
376.771	353
376.997	348
377.222	340
377.448	345
377.674	356
377.899	346
378.125	344
378.35	350
378.576	347
378.802	340
379.027	349
379.253	356
379.478	346
379.704	341
379.929	354
380.155	342
380.38	365
380.606	343
380.831	361
381.057	362
381.282	346
381.507	361
381.733	357
381.958	362
382.184	346
382.409	366
382.634	357
382.86	345
383.085	369
383.31	352
383.535	374
383.761	363
383.986	343
384.211	367
384.436	363
384.662	360
384.887	363
385.112	352
385.337	353
385.562	374
385.787	369
386.013	376
386.238	372
386.463	396
386.688	383
386.913	374
387.138	374
387.363	378
387.588	367
387.813	372
388.038	387
388.263	361
388.488	370
388.713	384
388.938	378
389.163	374
389.387	382
389.612	373
389.837	364
390.062	369
390.287	343
390.512	374
390.736	364
390.961	369
391.186	379
391.411	379
391.636	386
391.86	359
392.085	371
392.31	377
392.534	376
392.759	372
392.984	385
393.208	366
393.433	392
393.658	365
393.882	360
394.107	361
394.331	370
394.556	377
394.78	370
395.005	369
395.229	371
395.454	360
395.678	387
395.903	383
396.127	411
396.352	436
396.576	403
396.801	412
397.025	389
397.249	391
397.474	383
397.698	400
397.922	397
398.147	415
398.371	439
398.595	419
398.82	430
399.044	396
399.268	428
399.492	444
399.717	448
399.941	481
400.165	490
400.389	533
400.613	503
400.837	457
401.062	414
401.286	418
401.51	424
401.734	424
401.958	436
402.182	443
402.406	439
402.63	433
402.854	438
403.078	430
403.302	428
403.526	450
403.75	425
403.974	428
404.198	445
404.422	439
404.645	442
404.869	426
405.093	479
405.317	503
405.541	531
405.765	467
405.988	461
406.212	473
406.436	490
406.66	527
406.883	488
407.107	505
407.331	527
407.555	613
407.778	613
408.002	527
408.226	481
408.449	488
408.673	486
408.896	512
409.12	563
409.344	545
409.567	481
409.791	445
410.014	450
410.238	447
410.461	443
410.685	450
410.908	479
411.132	505
411.355	534
411.578	531
411.802	473
412.025	441
412.249	451
412.472	467
412.695	519
412.919	505
413.142	455
413.365	435
413.589	415
413.812	415
414.035	415
414.258	419
414.482	435
414.705	409
414.928	399
415.151	431
415.374	411
415.597	392
415.821	400
416.044	430
416.267	421
416.49	439
416.713	413
416.936	417
417.159	427
417.382	399
417.605	427
417.828	442
418.051	451
418.274	469
418.497	420
418.72	394
418.943	420
419.166	446
419.389	446
419.611	448
419.834	454
420.057	431
420.28	445
420.503	453
420.726	458
420.948	469
421.171	512
421.394	535
421.617	471
421.839	444
422.062	457
422.285	463
422.507	513
422.73	602
422.953	579
423.175	504
423.398	491
423.621	475
423.843	477
424.066	512
424.288	482
424.511	499
424.733	561
424.956	620
425.178	609
425.401	604
425.623	611
425.846	551
426.068	501
426.291	488
426.513	506
426.735	507
426.958	531
427.18	614
427.402	733
427.625	824
427.847	732
428.069	634
428.292	554
428.514	507
428.736	479
428.958	457
429.181	463
429.403	457
429.625	480
429.847	502
430.069	585
430.292	576
430.514	477
430.736	446
430.958	441
431.18	432
431.402	447
431.624	419
431.846	438
432.068	428
432.29	426
432.512	427
432.734	444
432.956	440
433.178	447
433.4	472
433.622	435
433.844	430
434.066	403
434.287	431
434.509	413
434.731	437
434.953	449
435.175	462
435.397	497
435.618	489
435.84	549
436.062	625
436.284	696
436.505	585
436.727	523
436.949	496
437.17	479
437.392	487
437.614	477
437.835	501
438.057	628
438.278	696
438.5	711
438.721	779
438.943	730
439.165	604
439.386	546
439.608	505
439.829	513
440.05	548
440.272	596
440.493	545
440.715	515
440.936	501
441.158	473
441.379	451
441.6	462
441.822	495
442.043	538
442.264	613
442.486	667
442.707	574
442.928	531
443.149	523
443.371	557
443.592	565
443.813	661
444.034	729
444.255	591
444.476	524
444.698	501
444.919	489
445.14	616
445.361	566
445.582	535
445.803	614
446.024	709
446.245	709
446.466	645
446.687	553
446.908	533
447.129	485
447.35	480
447.571	461
447.792	479
448.013	475
448.234	485
448.455	540
448.675	637
448.896	725
449.117	637
449.338	602
449.559	711
449.779	792
450	641
450.221	531
450.442	477
450.662	453
450.883	482
451.104	496
451.324	478
451.545	459
451.766	454
451.986	441
452.207	405
452.428	433
452.648	425
452.869	416
453.089	443
453.31	460
453.53	437
453.751	423
453.971	423
454.192	438
454.412	423
454.633	418
454.853	434
455.073	415
455.294	453
455.514	520
455.734	494
455.955	417
456.175	419
456.395	389
456.616	363
456.836	393
457.056	393
457.276	392
457.497	399
457.717	378
457.937	397
458.157	380
458.377	400
458.598	420
458.818	489
459.038	568
459.258	582
459.478	475
459.698	453
459.918	421
460.138	414
460.358	421
460.578	405
460.798	429
461.018	421
461.238	429
461.458	430
461.678	399
461.898	442
462.118	426
462.338	409
462.558	408
462.777	425
462.997	439
463.217	442
463.437	434
463.657	446
463.876	446
464.096	438
464.316	438
464.536	461
464.755	434
464.975	463
465.195	515
465.414	590
465.634	520
465.854	473
466.073	445
466.293	423
466.512	434
466.732	409
466.951	406
467.171	419
467.391	422
467.61	438
467.829	433
468.049	435
468.268	412
468.488	425
468.707	415
468.927	398
469.146	381
469.365	395
469.585	389
469.804	405
470.023	419
470.243	414
470.462	421
470.681	459
470.901	458
471.12	422
471.339	428
471.558	417
471.777	435
471.997	430
472.216	431
472.435	475
472.654	455
472.873	421
473.092	444
473.311	435
473.53	425
473.749	427
473.968	487
474.187	596
474.406	604
474.625	510
474.844	458
475.063	435
475.282	427
475.501	447
475.72	452
475.939	449
476.158	449
476.377	428
476.596	430
476.814	443
477.033	450
477.252	441
477.471	443
477.69	436
477.908	461
478.127	471
478.346	453
478.564	455
478.783	473
479.002	485
479.22	477
479.439	470
479.658	501
479.876	534
480.095	500
480.313	528
480.532	532
480.751	525
480.969	540
481.188	584
481.406	639
481.624	561
481.843	510
482.061	553
482.28	508
482.498	493
482.717	491
482.935	500
483.153	499
483.372	490
483.59	499
483.808	488
484.027	501
484.245	521
484.463	497
484.681	500
484.9	513
485.118	522
485.336	531
485.554	497
485.772	532
485.99	510
486.209	537
486.427	520
486.645	525
486.863	543
487.081	551
487.299	551
487.517	548
487.735	539
487.953	546
488.171	568
488.389	562
488.607	530
488.825	530
489.043	546
489.261	533
489.479	576
489.696	561
489.914	549
490.132	551
490.35	590
490.568	574
490.786	597
491.003	607
491.221	595
491.439	610
491.657	625
491.874	623
492.092	614
492.31	646
492.527	641
492.745	654
492.963	625
493.18	652
493.398	657
493.615	655
493.833	658
494.05	631
494.268	664
494.485	641
494.703	638
494.92	638
495.138	661
495.355	645
495.573	669
495.79	673
496.008	631
496.225	635
496.442	648
496.66	651
496.877	628
497.094	654
497.312	654
497.529	677
497.746	692
497.963	684
498.181	714
498.398	666
498.615	687
498.832	705
499.049	713
499.267	700
499.484	733
499.701	718
499.918	790
500.135	795
500.352	798
500.569	793
500.786	797
501.003	783
501.22	809
501.437	776
501.654	775
501.871	772
502.088	772
502.305	747
502.522	723
502.739	698
502.956	668
503.172	657
503.389	685
503.606	664
503.823	676
504.04	661
504.256	635
504.473	635
504.69	633
504.907	658
505.123	636
505.34	634
505.557	649
505.773	637
505.99	627
506.207	635
506.423	641
506.64	620
506.856	620
507.073	610
507.289	622
507.506	619
507.722	634
507.939	650
508.155	644
508.372	631
508.588	613
508.805	605
509.021	607
509.238	631
509.454	649
509.67	619
509.887	633
510.103	625
510.319	628
510.536	744
510.752	1278
510.968	1054
511.184	647
511.401	611
511.617	610
511.833	591
512.049	571
512.265	581
512.481	578
512.698	561
512.914	574
513.13	582
513.346	583
513.562	576
513.778	569
513.994	615
514.21	594
514.426	620
514.642	695
514.858	711
515.074	755
515.29	931
515.506	1421
515.721	1151
515.937	746
516.153	697
516.369	671
516.585	631
516.801	604
517.016	609
517.232	605
517.448	590
517.664	594
517.879	569
518.095	591
518.311	590
518.527	576
518.742	572
518.958	564
519.173	571
519.389	589
519.605	581
519.82	584
520.036	621
520.251	626
520.467	650
520.682	661
520.898	655
521.113	675
521.329	743
521.544	858
521.76	1111
521.975	1897
522.19	1853
522.406	1006
522.621	704
522.836	618
523.052	579
523.267	561
523.482	549
523.698	548
523.913	540
524.128	532
524.343	529
524.559	499
524.774	515
524.989	513
525.204	510
525.419	523
525.634	488
525.849	517
526.064	493
526.28	489
526.495	476
526.71	460
526.925	478
527.14	465
527.355	476
527.57	479
527.785	466
527.999	441
528.214	474
528.429	462
528.644	464
528.859	449
529.074	471
529.289	500
529.503	580
529.718	550
529.933	526
530.148	502
530.363	486
530.577	465
530.792	458
531.007	443
531.221	441
531.436	453
531.651	447
531.865	454
532.08	463
532.295	463
532.509	440
532.724	443
532.938	446
533.153	437
533.367	444
533.582	444
533.796	439
534.011	427
534.225	433
534.44	433
534.654	437
534.868	412
535.083	450
535.297	421
535.511	445
535.726	446
535.94	444
536.154	444
536.369	446
536.583	411
536.797	431
537.011	405
537.225	422
537.44	422
537.654	424
537.868	435
538.082	439
538.296	428
538.51	423
538.724	413
538.938	415
539.153	415
539.367	452
539.581	427
539.795	437
540.009	437
540.222	422
540.436	437
540.65	411
540.864	425
541.078	445
541.292	427
541.506	428
541.72	417
541.934	424
542.147	405
542.361	424
542.575	415
542.789	403
543.002	410
543.216	452
543.43	436
543.644	437
543.857	400
544.071	426
544.285	439
544.498	405
544.712	398
544.925	424
545.139	390
545.352	408
545.566	414
545.779	412
545.993	398
546.206	414
546.42	422
546.633	420
546.847	387
547.06	403
547.274	407
547.487	385
547.7	401
547.914	396
548.127	388
548.34	397
548.554	378
548.767	407
548.98	394
549.193	393
549.407	385
549.62	380
549.833	383
550.046	405
550.259	358
550.473	393
550.686	377
550.899	394
551.112	382
551.325	359
551.538	389
551.751	374
551.964	387
552.177	361
552.39	378
552.603	393
552.816	385
553.029	363
553.242	375
553.455	394
553.667	405
553.88	399
554.093	392
554.306	400
554.519	366
554.732	385
554.944	362
555.157	369
555.37	375
555.583	360
555.795	360
556.008	363
556.221	354
556.433	371
556.646	371
556.859	361
557.071	371
557.284	360
557.496	379
557.709	345
557.921	362
558.134	350
558.346	359
558.559	355
558.771	372
558.984	355
559.196	357
559.409	345
559.621	357
559.833	349
560.046	370
560.258	336
560.47	351
560.683	342
560.895	361
561.107	347
561.32	348
561.532	350
561.744	349
561.956	344
562.168	346
562.381	341
562.593	347
562.805	363
563.017	346
563.229	347
563.441	356
563.653	355
563.865	356
564.077	365
564.289	334
564.501	372
564.713	359
564.925	354
565.137	374
565.349	378
565.561	373
565.773	362
565.985	383
566.197	392
566.408	393
566.62	381
566.832	377
567.044	391
567.255	376
567.467	375
567.679	405
567.891	381
568.102	391
568.314	406
568.526	403
568.737	372
568.949	370
569.161	347
569.372	351
569.584	359
569.795	353
570.007	332
570.218	404
570.43	397
570.641	362
570.853	344
571.064	314
571.276	323
571.487	338
571.698	339
571.91	313
572.121	334
572.333	335
572.544	336
572.755	337
572.966	315
573.178	309
573.389	322
573.6	310
573.811	315
574.023	317
574.234	302
574.445	291
574.656	300
574.867	302
575.078	310
575.289	298
575.501	305
575.712	287
575.923	294
576.134	307
576.345	301
576.556	291
576.767	291
576.978	308
577.188	307
577.399	307
577.61	303
577.821	297
578.032	322
578.243	346
578.454	591
578.665	447
578.875	306
579.086	311
579.297	292
579.508	293
579.718	295
579.929	303
580.14	274
580.35	278
580.561	288
580.772	272
580.982	274
581.193	275
581.403	285
581.614	291
581.825	282
582.035	292
582.246	282
582.456	282
582.667	279
582.877	261
583.087	270
583.298	290
583.508	265
583.719	278
583.929	287
584.139	267
584.35	280
584.56	264
584.77	283
584.981	273
585.191	265
585.401	274
585.611	288
585.821	293
586.032	284
586.242	283
586.452	277
586.662	273
586.872	262
587.082	272
587.292	281
587.502	274
587.713	277
587.923	263
588.133	274
588.343	281
588.553	244
588.762	269
588.972	284
589.182	259
589.392	275
589.602	293
589.812	272
590.022	244
590.232	246
590.441	274
590.651	284
590.861	266
591.071	256
591.281	268
591.49	272
591.7	268
591.91	262
592.119	253
592.329	270
592.539	279
592.748	265
592.958	281
593.167	274
593.377	268
593.587	282
593.796	238
594.006	262
594.215	262
594.424	275
594.634	258
594.843	275
595.053	260
595.262	259
595.472	280
595.681	263
595.89	251
596.1	263
596.309	241
596.518	257
596.727	275
596.937	254
597.146	238
597.355	270
597.564	254
597.774	244
597.983	241
598.192	236
598.401	237
598.61	241
598.819	234
599.028	230
599.237	245
599.446	231
599.655	227
599.864	251
600.073	251
600.282	250
600.491	233
600.7	247
600.909	253
601.118	250
601.327	238
601.536	228
601.745	244
601.953	241
602.162	221
602.371	239
602.58	246
602.789	253
602.997	220
603.206	241
603.415	224
603.623	239
603.832	229
604.041	217
604.249	218
604.458	222
604.666	247
604.875	257
605.084	242
605.292	233
605.501	224
605.709	206
605.918	232
606.126	231
606.334	240
606.543	229
606.751	216
606.96	219
607.168	226
607.376	213
607.585	225
607.793	228
608.001	228
608.21	235
608.418	236
608.626	230
608.834	226
609.043	220
609.251	220
609.459	225
609.667	225
609.875	205
610.083	222
610.291	226
610.499	224
610.707	211
610.916	213
611.124	230
611.332	222
611.54	223
611.748	232
611.955	218
612.163	226
612.371	230
612.579	234
612.787	231
612.995	219
613.203	220
613.411	222
613.618	217
613.826	199
614.034	210
614.242	210
614.449	220
614.657	221
614.865	214
615.072	228
615.28	201
615.488	231
615.695	209
615.903	224
616.111	212
616.318	219
616.526	210
616.733	228
616.941	227
617.148	218
617.356	222
617.563	217
617.771	203
617.978	198
618.185	214
618.393	211
618.6	232
618.807	211
619.015	232
619.222	223
619.429	213
619.637	204
619.844	211
620.051	213
620.258	206
620.466	210
620.673	213
620.88	193
621.087	219
621.294	209
621.501	205
621.708	203
621.915	199
622.122	205
622.329	192
622.536	218
622.743	212
622.95	214
623.157	192
623.364	195
623.571	203
623.778	207
623.985	221
624.192	218
624.399	201
624.606	190
624.812	198
625.019	205
625.226	198
625.433	203
625.639	195
625.846	202
626.053	201
626.259	196
626.466	210
626.673	189
626.879	197
627.086	202
627.293	181
627.499	179
627.706	196
627.912	200
628.119	197
628.325	207
628.532	200
628.738	174
628.945	196
629.151	197
629.357	182
629.564	181
629.77	178
629.976	187
630.183	170
630.389	188
630.595	190
630.802	180
631.008	194
631.214	181
631.42	171
631.627	172
631.833	159
632.039	182
632.245	157
632.451	199
632.657	182
632.863	181
633.069	183
633.275	195
633.481	174
633.688	179
633.893	157
634.099	155
634.305	174
634.511	187
634.717	170
634.923	154
635.129	164
635.335	171
635.541	177
635.747	165
635.952	177
636.158	166
636.364	175
636.57	172
636.775	166
636.981	178
637.187	171
637.392	170
637.598	161
637.804	163
638.009	175
638.215	155
638.421	162
638.626	177
638.832	163
639.037	174
639.243	158
639.448	177
639.654	165
639.859	157
640.065	162
640.27	165
640.475	162
640.681	183
640.886	161
641.091	167
641.297	175
641.502	169
641.707	181
641.913	163
642.118	153
642.323	160
642.528	162
642.733	138
642.939	163
643.144	154
643.349	158
643.554	159
643.759	161
643.964	153
644.169	156
644.374	154
644.579	128
644.784	144
644.989	159
645.194	172
645.399	160
645.604	165
645.809	155
646.014	158
646.219	160
646.423	148
646.628	163
646.833	153
647.038	159
647.243	160
647.447	145
647.652	144
647.857	146
648.062	163
648.266	149
648.471	164
648.676	169
648.88	167
649.085	155
649.289	154
649.494	167
649.698	183
649.903	169
650.107	161
650.312	153
650.516	150
650.721	149
650.925	136
651.13	144
651.334	155
651.539	150
651.743	153
651.947	132
652.152	148
652.356	140
652.56	140
652.764	133
652.969	138
653.173	127
653.377	124
653.581	139
653.785	131
653.99	133
654.194	138
654.398	130
654.602	133
654.806	121
655.01	133
655.214	123
655.418	121
655.622	116
655.826	122
656.03	129
656.234	130
656.438	118
656.642	124
656.846	124
657.049	130
657.253	113
657.457	121
657.661	109
657.865	124
658.068	102
658.272	110
658.476	113
658.68	106
658.883	110
659.087	96
659.291	92
659.494	105
659.698	110
659.901	97
660.105	99
660.309	100
660.512	84
660.716	97
660.919	77
661.123	91
661.326	89
661.53	87
661.733	102
661.936	98
662.14	82
662.343	96
662.546	87
662.75	78
662.953	91
663.156	81
663.36	91
663.563	85
663.766	82
663.969	87
664.173	87
664.376	88
664.579	75
664.782	95
664.985	86
665.188	81
665.391	92
665.594	78
665.797	97
666	84
666.203	84
666.406	91
666.609	58
666.812	74
667.015	88
667.218	84
667.421	78
667.624	90
667.827	77
668.03	80
668.232	86
668.435	83
668.638	63
668.841	84
669.043	81
669.246	83
669.449	86
669.651	100
669.854	86
670.057	87
670.259	83
670.462	69
670.665	87
670.867	87
671.07	91
671.272	84
671.475	99
671.677	76
671.88	83
672.082	97
672.284	81
672.487	89
672.689	77
672.892	70
