Data from 1980.PennyLincolnUp.Lamp.En5.5.200Scan.071819.P1_HRD10591_16-36-58-956.txt Node
Date: Thu Jul 18 16:36:58 EDT 2019
User: cochatt
Spectrometer: HR+D1059
Trigger mode: 1
Integration Time (sec): 1.000000E-1
Scans to average: 1
Electric dark correction enabled: true
Nonlinearity correction enabled: false
Boxcar width: 0
XAxis mode: Wavelengths
Number of Pixels in Spectrum: 2048
>>>>>Begin Spectral Data<<<<<
223.165	-2.19
223.4	-2.19
223.635	-2.19
223.869	-15.19
224.104	-20.19
224.338	-6.19
224.573	-23.19
224.808	-8.19
225.042	-15.19
225.277	-13.19
225.511	4.81
225.746	1.81
225.98	11.81
226.215	6.81
226.449	21.81
226.683	16.81
226.918	16.81
227.152	22.81
227.387	28.81
227.621	42.81
227.856	43.81
228.09	58.81
228.324	61.81
228.559	66.81
228.793	69.81
229.027	82.81
229.262	106.81
229.496	124.81
229.73	129.81
229.964	149.81
230.199	125.81
230.433	113.81
230.667	125.81
230.901	110.81
231.136	119.81
231.37	107.81
231.604	111.81
231.838	107.81
232.072	116.81
232.306	119.81
232.541	118.81
232.775	120.81
233.009	104.81
233.243	111.81
233.477	106.81
233.711	127.81
233.945	120.81
234.179	113.81
234.413	115.81
234.647	121.81
234.881	111.81
235.115	114.81
235.349	125.81
235.583	119.81
235.817	121.81
236.051	120.81
236.285	108.81
236.519	117.81
236.753	121.81
236.987	159.81
237.221	184.81
237.455	229.81
237.689	193.81
237.922	147.81
238.156	129.81
238.39	124.81
238.624	127.81
238.858	117.81
239.091	122.81
239.325	131.81
239.559	127.81
239.793	129.81
240.027	122.81
240.26	143.81
240.494	155.81
240.728	141.81
240.961	160.81
241.195	130.81
241.429	145.81
241.662	145.81
241.896	136.81
242.13	124.81
242.363	122.81
242.597	138.81
242.83	135.81
243.064	121.81
243.298	150.81
243.531	139.81
243.765	147.81
243.998	143.81
244.232	137.81
244.465	134.81
244.699	145.81
244.932	153.81
245.166	139.81
245.399	139.81
245.633	139.81
245.866	140.81
246.099	136.81
246.333	152.81
246.566	144.81
246.8	160.81
247.033	151.81
247.266	147.81
247.5	165.81
247.733	178.81
247.966	153.81
248.2	159.81
248.433	163.81
248.666	178.81
248.899	185.81
249.133	192.81
249.366	211.81
249.599	198.81
249.832	209.81
250.066	197.81
250.299	176.81
250.532	176.81
250.765	213.81
250.998	218.81
251.231	217.81
251.465	209.81
251.698	222.81
251.931	211.81
252.164	187.81
252.397	197.81
252.63	208.81
252.863	216.81
253.096	220.81
253.329	252.81
253.562	229.81
253.795	236.81
254.028	224.81
254.261	220.81
254.494	246.81
254.727	263.81
254.96	292.81
255.193	279.81
255.426	249.81
255.659	229.81
255.892	232.81
256.124	231.81
256.357	242.81
256.59	222.81
256.823	206.81
257.056	226.81
257.289	196.81
257.521	218.81
257.754	201.81
257.987	204.81
258.22	217.81
258.452	223.81
258.685	207.81
258.918	204.81
259.151	215.81
259.383	228.81
259.616	205.81
259.849	204.81
260.081	233.81
260.314	263.81
260.547	244.81
260.779	242.81
261.012	224.81
261.244	249.81
261.477	220.81
261.71	216.81
261.942	216.81
262.175	235.81
262.407	210.81
262.64	212.81
262.872	210.81
263.105	204.81
263.337	210.81
263.57	211.81
263.802	197.81
264.035	205.81
264.267	194.81
264.499	209.81
264.732	197.81
264.964	212.81
265.197	185.81
265.429	188.81
265.661	194.81
265.894	186.81
266.126	204.81
266.358	186.81
266.591	210.81
266.823	230.81
267.055	214.81
267.287	214.81
267.52	226.81
267.752	219.81
267.984	226.81
268.216	222.81
268.448	218.81
268.681	239.81
268.913	211.81
269.145	251.81
269.377	271.81
269.609	264.81
269.841	262.81
270.073	256.81
270.306	287.81
270.538	315.81
270.77	322.81
271.002	305.81
271.234	284.81
271.466	295.81
271.698	320.81
271.93	305.81
272.162	296.81
272.394	303.81
272.626	302.81
272.858	283.81
273.09	242.81
273.322	244.81
273.553	259.81
273.785	273.81
274.017	253.81
274.249	236.81
274.481	247.81
274.713	249.81
274.945	246.81
275.176	274.81
275.408	269.81
275.64	255.81
275.872	244.81
276.104	254.81
276.335	252.81
276.567	245.81
276.799	269.81
277.031	306.81
277.262	305.81
277.494	304.81
277.726	277.81
277.957	273.81
278.189	277.81
278.421	260.81
278.652	260.81
278.884	269.81
279.115	254.81
279.347	244.81
279.579	248.81
279.81	251.81
280.042	241.81
280.273	260.81
280.505	234.81
280.736	228.81
280.968	265.81
281.199	262.81
281.431	255.81
281.662	231.81
281.894	236.81
282.125	251.81
282.356	253.81
282.588	294.81
282.819	291.81
283.051	255.81
283.282	256.81
283.513	251.81
283.745	229.81
283.976	259.81
284.207	272.81
284.439	274.81
284.67	275.81
284.901	248.81
285.132	265.81
285.364	265.81
285.595	254.81
285.826	242.81
286.057	252.81
286.288	258.81
286.52	255.81
286.751	255.81
286.982	256.81
287.213	239.81
287.444	262.81
287.675	266.81
287.906	288.81
288.138	265.81
288.369	287.81
288.6	276.81
288.831	283.81
289.062	255.81
289.293	266.81
289.524	265.81
289.755	263.81
289.986	265.81
290.217	262.81
290.448	258.81
290.679	244.81
290.91	260.81
291.141	255.81
291.371	259.81
291.602	256.81
291.833	253.81
292.064	273.81
292.295	252.81
292.526	280.81
292.757	276.81
292.987	244.81
293.218	275.81
293.449	263.81
293.68	273.81
293.91	252.81
294.141	266.81
294.372	272.81
294.603	260.81
294.833	254.81
295.064	248.81
295.295	288.81
295.525	246.81
295.756	252.81
295.987	281.81
296.217	292.81
296.448	308.81
296.679	288.81
296.909	266.81
297.14	254.81
297.37	269.81
297.601	252.81
297.831	265.81
298.062	275.81
298.292	278.81
298.523	272.81
298.753	265.81
298.984	267.81
299.214	267.81
299.445	257.81
299.675	281.81
299.905	281.81
300.136	281.81
300.366	275.81
300.597	282.81
300.827	280.81
301.057	295.81
301.288	291.81
301.518	274.81
301.748	293.81
301.979	289.81
302.209	288.81
302.439	299.81
302.669	295.81
302.9	274.81
303.13	282.81
303.36	311.81
303.59	282.81
303.82	303.81
304.051	318.81
304.281	271.81
304.511	295.81
304.741	312.81
304.971	294.81
305.201	291.81
305.431	294.81
305.661	296.81
305.891	283.81
306.121	301.81
306.352	291.81
306.582	309.81
306.812	308.81
307.042	305.81
307.272	293.81
307.502	279.81
307.731	301.81
307.961	312.81
308.191	290.81
308.421	303.81
308.651	307.81
308.881	297.81
309.111	306.81
309.341	316.81
309.571	310.81
309.8	326.81
310.03	336.81
310.26	333.81
310.49	344.81
310.72	346.81
310.949	362.81
311.179	356.81
311.409	327.81
311.639	328.81
311.868	344.81
312.098	343.81
312.328	373.81
312.557	374.81
312.787	395.81
313.017	389.81
313.246	354.81
313.476	328.81
313.706	339.81
313.935	376.81
314.165	348.81
314.394	369.81
314.624	360.81
314.853	359.81
315.083	331.81
315.312	341.81
315.542	337.81
315.771	347.81
316.001	316.81
316.23	347.81
316.46	322.81
316.689	339.81
316.919	343.81
317.148	345.81
317.377	376.81
317.607	346.81
317.836	340.81
318.065	337.81
318.295	347.81
318.524	349.81
318.753	328.81
318.983	327.81
319.212	364.81
319.441	346.81
319.67	346.81
319.9	362.81
320.129	364.81
320.358	348.81
320.587	337.81
320.816	367.81
321.046	348.81
321.275	352.81
321.504	361.81
321.733	376.81
321.962	374.81
322.191	396.81
322.42	405.81
322.649	403.81
322.878	433.81
323.108	431.81
323.337	456.81
323.566	484.81
323.795	508.81
324.024	561.81
324.253	696.81
324.482	983.81
324.71	1556.81
324.939	2164.81
325.168	1951.81
325.397	1000.81
325.626	668.81
325.855	549.81
326.084	523.81
326.313	463.81
326.542	480.81
326.77	561.81
326.999	624.81
327.228	869.81
327.457	1349.81
327.686	1668.81
327.914	1121.81
328.143	752.81
328.372	653.81
328.6	580.81
328.829	561.81
329.058	572.81
329.287	577.81
329.515	520.81
329.744	488.81
329.972	505.81
330.201	506.81
330.43	548.81
330.658	592.81
330.887	610.81
331.115	602.81
331.344	498.81
331.572	454.81
331.801	448.81
332.03	458.81
332.258	439.81
332.486	420.81
332.715	407.81
332.943	400.81
333.172	393.81
333.4	401.81
333.629	416.81
333.857	419.81
334.085	454.81
334.314	428.81
334.542	471.81
334.771	499.81
334.999	431.81
335.227	420.81
335.455	394.81
335.684	413.81
335.912	391.81
336.14	373.81
336.369	383.81
336.597	407.81
336.825	408.81
337.053	396.81
337.281	377.81
337.51	369.81
337.738	387.81
337.966	395.81
338.194	396.81
338.422	391.81
338.65	377.81
338.878	401.81
339.106	392.81
339.334	375.81
339.562	379.81
339.79	379.81
340.018	361.81
340.246	405.81
340.474	381.81
340.702	387.81
340.93	357.81
341.158	371.81
341.386	372.81
341.614	413.81
341.842	388.81
342.07	379.81
342.298	377.81
342.526	379.81
342.754	357.81
342.981	379.81
343.209	363.81
343.437	363.81
343.665	363.81
343.893	376.81
344.12	379.81
344.348	383.81
344.576	389.81
344.804	383.81
345.031	383.81
345.259	415.81
345.487	389.81
345.714	376.81
345.942	379.81
346.17	374.81
346.397	369.81
346.625	376.81
346.853	375.81
347.08	376.81
347.308	387.81
347.535	393.81
347.763	395.81
347.99	397.81
348.218	393.81
348.445	403.81
348.673	388.81
348.9	370.81
349.128	364.81
349.355	375.81
349.583	360.81
349.81	351.81
350.037	358.81
350.265	360.81
350.492	365.81
350.72	367.81
350.947	371.81
351.174	399.81
351.402	394.81
351.629	386.81
351.856	394.81
352.083	383.81
352.311	402.81
352.538	378.81
352.765	409.81
352.992	385.81
353.22	394.81
353.447	385.81
353.674	385.81
353.901	354.81
354.128	340.81
354.355	341.81
354.583	355.81
354.81	345.81
355.037	361.81
355.264	337.81
355.491	352.81
355.718	353.81
355.945	333.81
356.172	324.81
356.399	329.81
356.626	340.81
356.853	357.81
357.08	345.81
357.307	340.81
357.534	339.81
357.761	349.81
357.988	350.81
358.215	349.81
358.441	360.81
358.668	357.81
358.895	354.81
359.122	375.81
359.349	349.81
359.576	357.81
359.802	407.81
360.029	424.81
360.256	435.81
360.483	407.81
360.709	378.81
360.936	384.81
361.163	411.81
361.39	375.81
361.616	367.81
361.843	371.81
362.07	369.81
362.296	375.81
362.523	398.81
362.749	391.81
362.976	376.81
363.203	377.81
363.429	368.81
363.656	376.81
363.882	342.81
364.109	353.81
364.335	338.81
364.562	339.81
364.788	337.81
365.015	365.81
365.241	347.81
365.468	356.81
365.694	381.81
365.92	351.81
366.147	373.81
366.373	341.81
366.599	363.81
366.826	358.81
367.052	348.81
367.278	352.81
367.505	356.81
367.731	358.81
367.957	347.81
368.184	357.81
368.41	355.81
368.636	367.81
368.862	376.81
369.089	371.81
369.315	361.81
369.541	354.81
369.767	375.81
369.993	340.81
370.219	345.81
370.445	354.81
370.672	355.81
370.898	340.81
371.124	352.81
371.35	345.81
371.576	374.81
371.802	355.81
372.028	333.81
372.254	352.81
372.48	331.81
372.706	350.81
372.932	332.81
373.158	342.81
373.384	339.81
373.61	327.81
373.835	357.81
374.061	360.81
374.287	354.81
374.513	356.81
374.739	358.81
374.965	370.81
375.191	351.81
375.416	358.81
375.642	328.81
375.868	341.81
376.094	339.81
376.319	354.81
376.545	358.81
376.771	340.81
376.997	360.81
377.222	368.81
377.448	341.81
377.674	358.81
377.899	343.81
378.125	351.81
378.35	347.81
378.576	335.81
378.802	329.81
379.027	356.81
379.253	364.81
379.478	342.81
379.704	333.81
379.929	336.81
380.155	345.81
380.38	363.81
380.606	344.81
380.831	355.81
381.057	354.81
381.282	360.81
381.507	346.81
381.733	347.81
381.958	347.81
382.184	364.81
382.409	348.81
382.634	361.81
382.86	359.81
383.085	361.81
383.31	376.81
383.535	348.81
383.761	357.81
383.986	359.81
384.211	368.81
384.436	351.81
384.662	362.81
384.887	364.81
385.112	352.81
385.337	351.81
385.562	354.81
385.787	382.81
386.013	356.81
386.238	375.81
386.463	358.81
386.688	379.81
386.913	369.81
387.138	377.81
387.363	379.81
387.588	379.81
387.813	361.81
388.038	379.81
388.263	344.81
388.488	372.81
388.713	362.81
388.938	372.81
389.163	359.81
389.387	364.81
389.612	380.81
389.837	363.81
390.062	355.81
390.287	338.81
390.512	408.81
390.736	370.81
390.961	342.81
391.186	375.81
391.411	364.81
391.636	369.81
391.86	393.81
392.085	362.81
392.31	367.81
392.534	377.81
392.759	371.81
392.984	345.81
393.208	379.81
393.433	372.81
393.658	386.81
393.882	377.81
394.107	364.81
394.331	361.81
394.556	364.81
394.78	366.81
395.005	364.81
395.229	377.81
395.454	364.81
395.678	359.81
395.903	382.81
396.127	407.81
396.352	402.81
396.576	396.81
396.801	389.81
397.025	379.81
397.249	383.81
397.474	376.81
397.698	387.81
397.922	411.81
398.147	412.81
398.371	438.81
398.595	407.81
398.82	409.81
399.044	413.81
399.268	427.81
399.492	435.81
399.717	450.81
399.941	460.81
400.165	500.81
400.389	535.81
400.613	465.81
400.837	448.81
401.062	444.81
401.286	429.81
401.51	425.81
401.734	404.81
401.958	405.81
402.182	416.81
402.406	429.81
402.63	425.81
402.854	425.81
403.078	423.81
403.302	444.81
403.526	446.81
403.75	442.81
403.974	432.81
404.198	400.81
404.422	433.81
404.645	441.81
404.869	439.81
405.093	460.81
405.317	515.81
405.541	511.81
405.765	478.81
405.988	477.81
406.212	463.81
406.436	492.81
406.66	521.81
406.883	488.81
407.107	488.81
407.331	520.81
407.555	599.81
407.778	586.81
408.002	544.81
408.226	511.81
408.449	501.81
408.673	485.81
408.896	510.81
409.12	556.81
409.344	519.81
409.567	471.81
409.791	468.81
410.014	432.81
410.238	428.81
410.461	426.81
410.685	443.81
410.908	460.81
411.132	474.81
411.355	516.81
411.578	497.81
411.802	451.81
412.025	423.81
412.249	437.81
412.472	443.81
412.695	503.81
412.919	487.81
413.142	456.81
413.365	415.81
413.589	414.81
413.812	414.81
414.035	416.81
414.258	414.81
414.482	396.81
414.705	406.81
414.928	413.81
415.151	403.81
415.374	415.81
415.597	396.81
415.821	391.81
416.044	387.81
416.267	398.81
416.49	424.81
416.713	408.81
416.936	407.81
417.159	408.81
417.382	422.81
417.605	405.81
417.828	409.81
418.051	451.81
418.274	452.81
418.497	417.81
418.72	413.81
418.943	421.81
419.166	439.81
419.389	445.81
419.611	434.81
419.834	429.81
420.057	455.81
420.28	440.81
420.503	457.81
420.726	460.81
420.948	462.81
421.171	484.81
421.394	535.81
421.617	486.81
421.839	453.81
422.062	463.81
422.285	465.81
422.507	516.81
422.73	577.81
422.953	571.81
423.175	480.81
423.398	503.81
423.621	476.81
423.843	500.81
424.066	484.81
424.288	481.81
424.511	511.81
424.733	535.81
424.956	624.81
425.178	622.81
425.401	603.81
425.623	610.81
425.846	538.81
426.068	511.81
426.291	484.81
426.513	487.81
426.735	500.81
426.958	542.81
427.18	582.81
427.402	706.81
427.625	799.81
427.847	721.81
428.069	612.81
428.292	561.81
428.514	514.81
428.736	465.81
428.958	466.81
429.181	458.81
429.403	478.81
429.625	468.81
429.847	492.81
430.069	564.81
430.292	584.81
430.514	474.81
430.736	451.81
430.958	448.81
431.18	441.81
431.402	426.81
431.624	398.81
431.846	425.81
432.068	427.81
432.29	401.81
432.512	404.81
432.734	448.81
432.956	439.81
433.178	427.81
433.4	442.81
433.622	429.81
433.844	425.81
434.066	409.81
434.287	426.81
434.509	418.81
434.731	432.81
434.953	428.81
435.175	447.81
435.397	457.81
435.618	492.81
435.84	546.81
436.062	634.81
436.284	680.81
436.505	569.81
436.727	511.81
436.949	480.81
437.17	449.81
437.392	472.81
437.614	465.81
437.835	490.81
438.057	605.81
438.278	704.81
438.5	703.81
438.721	733.81
438.943	727.81
439.165	586.81
439.386	564.81
439.608	502.81
439.829	516.81
440.05	537.81
440.272	585.81
440.493	554.81
440.715	503.81
440.936	485.81
441.158	459.81
441.379	468.81
441.6	481.81
441.822	503.81
442.043	545.81
442.264	629.81
442.486	647.81
442.707	546.81
442.928	501.81
443.149	536.81
443.371	538.81
443.592	596.81
443.813	658.81
444.034	719.81
444.255	588.81
444.476	526.81
444.698	503.81
444.919	484.81
445.14	575.81
445.361	543.81
445.582	537.81
445.803	605.81
446.024	692.81
446.245	707.81
446.466	650.81
446.687	554.81
446.908	501.81
447.129	487.81
447.35	467.81
447.571	465.81
447.792	474.81
448.013	469.81
448.234	497.81
448.455	532.81
448.675	640.81
448.896	742.81
449.117	650.81
449.338	589.81
449.559	687.81
449.779	784.81
450	629.81
450.221	535.81
450.442	471.81
450.662	471.81
450.883	455.81
451.104	490.81
451.324	489.81
451.545	469.81
451.766	413.81
451.986	424.81
452.207	405.81
452.428	396.81
452.648	418.81
452.869	400.81
453.089	418.81
453.31	431.81
453.53	422.81
453.751	428.81
453.971	411.81
454.192	447.81
454.412	436.81
454.633	427.81
454.853	418.81
455.073	406.81
455.294	451.81
455.514	488.81
455.734	503.81
455.955	407.81
456.175	391.81
456.395	392.81
456.616	367.81
456.836	354.81
457.056	383.81
457.276	372.81
457.497	378.81
457.717	399.81
457.937	396.81
458.157	405.81
458.377	396.81
458.598	422.81
458.818	479.81
459.038	568.81
459.258	573.81
459.478	497.81
459.698	437.81
459.918	405.81
460.138	395.81
460.358	412.81
460.578	407.81
460.798	409.81
461.018	422.81
461.238	413.81
461.458	410.81
461.678	396.81
461.898	423.81
462.118	405.81
462.338	418.81
462.558	405.81
462.777	431.81
462.997	411.81
463.217	420.81
463.437	447.81
463.657	431.81
463.876	426.81
464.096	412.81
464.316	433.81
464.536	439.81
464.755	437.81
464.975	447.81
465.195	501.81
465.414	597.81
465.634	503.81
465.854	473.81
466.073	448.81
466.293	428.81
466.512	426.81
466.732	400.81
466.951	399.81
467.171	421.81
467.391	418.81
467.61	437.81
467.829	428.81
468.049	419.81
468.268	408.81
468.488	409.81
468.707	393.81
468.927	402.81
469.146	397.81
469.365	387.81
469.585	401.81
469.804	416.81
470.023	415.81
470.243	420.81
470.462	420.81
470.681	445.81
470.901	422.81
471.12	427.81
471.339	433.81
471.558	423.81
471.777	437.81
471.997	429.81
472.216	417.81
472.435	436.81
472.654	446.81
472.873	402.81
473.092	406.81
473.311	407.81
473.53	436.81
473.749	428.81
473.968	487.81
474.187	569.81
474.406	623.81
474.625	487.81
474.844	438.81
475.063	429.81
475.282	427.81
475.501	438.81
475.72	426.81
475.939	427.81
476.158	431.81
476.377	431.81
476.596	416.81
476.814	427.81
477.033	444.81
477.252	433.81
477.471	437.81
477.69	474.81
477.908	444.81
478.127	458.81
478.346	460.81
478.564	453.81
478.783	470.81
479.002	483.81
479.22	479.81
479.439	495.81
479.658	475.81
479.876	516.81
480.095	511.81
480.313	546.81
480.532	541.81
480.751	504.81
480.969	524.81
481.188	586.81
481.406	633.81
481.624	555.81
481.843	526.81
482.061	520.81
482.28	498.81
482.498	513.81
482.717	504.81
482.935	488.81
483.153	498.81
483.372	492.81
483.59	490.81
483.808	459.81
484.027	507.81
484.245	516.81
484.463	519.81
484.681	510.81
484.9	526.81
485.118	523.81
485.336	505.81
485.554	495.81
485.772	495.81
485.99	495.81
486.209	497.81
486.427	528.81
486.645	540.81
486.863	542.81
487.081	541.81
487.299	549.81
487.517	546.81
487.735	535.81
487.953	544.81
488.171	535.81
488.389	521.81
488.607	539.81
488.825	542.81
489.043	544.81
489.261	552.81
489.479	561.81
489.696	556.81
489.914	532.81
490.132	595.81
490.35	575.81
490.568	592.81
490.786	589.81
491.003	586.81
491.221	608.81
491.439	619.81
491.657	619.81
491.874	613.81
492.092	633.81
492.31	633.81
492.527	660.81
492.745	650.81
492.963	652.81
493.18	646.81
493.398	644.81
493.615	642.81
493.833	642.81
494.05	653.81
494.268	653.81
494.485	646.81
494.703	626.81
494.92	649.81
495.138	643.81
495.355	640.81
495.573	654.81
495.79	653.81
496.008	655.81
496.225	635.81
496.442	643.81
496.66	662.81
496.877	648.81
497.094	649.81
497.312	664.81
497.529	633.81
497.746	657.81
497.963	686.81
498.181	690.81
498.398	683.81
498.615	680.81
498.832	729.81
499.049	708.81
499.267	697.81
499.484	731.81
499.701	742.81
499.918	738.81
500.135	786.81
500.352	782.81
500.569	782.81
500.786	818.81
501.003	793.81
501.22	765.81
501.437	768.81
501.654	755.81
501.871	783.81
502.088	778.81
502.305	744.81
502.522	680.81
502.739	721.81
502.956	693.81
503.172	645.81
503.389	639.81
503.606	658.81
503.823	657.81
504.04	674.81
504.256	649.81
504.473	636.81
504.69	647.81
504.907	610.81
505.123	639.81
505.34	634.81
505.557	627.81
505.773	608.81
505.99	623.81
506.207	606.81
506.423	609.81
506.64	637.81
506.856	614.81
507.073	635.81
507.289	614.81
507.506	612.81
507.722	629.81
507.939	660.81
508.155	640.81
508.372	604.81
508.588	580.81
508.805	587.81
509.021	593.81
509.238	632.81
509.454	638.81
509.67	627.81
509.887	625.81
510.103	615.81
510.319	625.81
510.536	707.81
510.752	1229.81
510.968	1048.81
511.184	659.81
511.401	607.81
511.617	573.81
511.833	593.81
512.049	597.81
512.265	573.81
512.481	575.81
512.698	558.81
512.914	530.81
513.13	572.81
513.346	595.81
513.562	567.81
513.778	569.81
513.994	579.81
514.21	610.81
514.426	639.81
514.642	696.81
514.858	716.81
515.074	762.81
515.29	931.81
515.506	1378.81
515.721	1132.81
515.937	733.81
516.153	662.81
516.369	610.81
516.585	602.81
516.801	600.81
517.016	581.81
517.232	592.81
517.448	575.81
517.664	591.81
517.879	565.81
518.095	565.81
518.311	592.81
518.527	567.81
518.742	557.81
518.958	561.81
519.173	568.81
519.389	586.81
519.605	575.81
519.82	567.81
520.036	608.81
520.251	624.81
520.467	649.81
520.682	651.81
520.898	663.81
521.113	692.81
521.329	723.81
521.544	821.81
521.76	1071.81
521.975	1852.81
522.19	1822.81
522.406	953.81
522.621	701.81
522.836	637.81
523.052	594.81
523.267	575.81
523.482	554.81
523.698	543.81
523.913	540.81
524.128	543.81
524.343	515.81
524.559	510.81
524.774	505.81
524.989	504.81
525.204	539.81
525.419	516.81
525.634	485.81
525.849	481.81
526.064	476.81
526.28	483.81
526.495	477.81
526.71	463.81
526.925	464.81
527.14	489.81
527.355	470.81
527.57	458.81
527.785	440.81
527.999	455.81
528.214	448.81
528.429	444.81
528.644	463.81
528.859	460.81
529.074	458.81
529.289	499.81
529.503	571.81
529.718	545.81
529.933	509.81
530.148	473.81
530.363	458.81
530.577	461.81
530.792	452.81
531.007	437.81
531.221	440.81
531.436	450.81
531.651	450.81
531.865	426.81
532.08	437.81
532.295	441.81
532.509	441.81
532.724	451.81
532.938	412.81
533.153	424.81
533.367	415.81
533.582	424.81
533.796	419.81
534.011	424.81
534.225	422.81
534.44	440.81
534.654	417.81
534.868	431.81
535.083	417.81
535.297	440.81
535.511	443.81
535.726	458.81
535.94	424.81
536.154	428.81
536.369	420.81
536.583	406.81
536.797	420.81
537.011	418.81
537.225	416.81
537.44	418.81
537.654	431.81
537.868	423.81
538.082	396.81
538.296	418.81
538.51	418.81
538.724	418.81
538.938	399.81
539.153	412.81
539.367	435.81
539.581	421.81
539.795	442.81
540.009	413.81
540.222	423.81
540.436	421.81
540.65	431.81
540.864	433.81
541.078	441.81
541.292	438.81
541.506	436.81
541.72	409.81
541.934	411.81
542.147	408.81
542.361	406.81
542.575	409.81
542.789	430.81
543.002	405.81
543.216	417.81
543.43	401.81
543.644	408.81
543.857	429.81
544.071	424.81
544.285	418.81
544.498	414.81
544.712	403.81
544.925	395.81
545.139	388.81
545.352	384.81
545.566	396.81
545.779	414.81
545.993	396.81
546.206	416.81
546.42	410.81
546.633	397.81
546.847	408.81
547.06	389.81
547.274	405.81
547.487	378.81
547.7	398.81
547.914	394.81
548.127	407.81
548.34	389.81
548.554	387.81
548.767	379.81
548.98	391.81
549.193	380.81
549.407	384.81
549.62	389.81
549.833	389.81
550.046	359.81
550.259	387.81
550.473	397.81
550.686	391.81
550.899	387.81
551.112	385.81
551.325	400.81
551.538	376.81
551.751	356.81
551.964	375.81
552.177	373.81
552.39	398.81
552.603	379.81
552.816	397.81
553.029	378.81
553.242	404.81
553.455	394.81
553.667	397.81
553.88	407.81
554.093	396.81
554.306	410.81
554.519	393.81
554.732	393.81
554.944	375.81
555.157	379.81
555.37	374.81
555.583	383.81
555.795	372.81
556.008	379.81
556.221	366.81
556.433	365.81
556.646	372.81
556.859	356.81
557.071	360.81
557.284	331.81
557.496	351.81
557.709	344.81
557.921	351.81
558.134	365.81
558.346	365.81
558.559	360.81
558.771	354.81
558.984	334.81
559.196	355.81
559.409	343.81
559.621	330.81
559.833	348.81
560.046	341.81
560.258	330.81
560.47	340.81
560.683	346.81
560.895	347.81
561.107	370.81
561.32	342.81
561.532	352.81
561.744	339.81
561.956	345.81
562.168	339.81
562.381	356.81
562.593	348.81
562.805	357.81
563.017	344.81
563.229	363.81
563.441	354.81
563.653	342.81
563.865	347.81
564.077	352.81
564.289	353.81
564.501	340.81
564.713	360.81
564.925	353.81
565.137	377.81
565.349	381.81
565.561	355.81
565.773	359.81
565.985	367.81
566.197	359.81
566.408	381.81
566.62	375.81
566.832	383.81
567.044	388.81
567.255	394.81
567.467	385.81
567.679	379.81
567.891	411.81
568.102	382.81
568.314	390.81
568.526	391.81
568.737	389.81
568.949	384.81
569.161	359.81
569.372	375.81
569.584	346.81
569.795	343.81
570.007	347.81
570.218	418.81
570.43	378.81
570.641	331.81
570.853	338.81
571.064	339.81
571.276	332.81
571.487	340.81
571.698	311.81
571.91	293.81
572.121	333.81
572.333	323.81
572.544	315.81
572.755	308.81
572.966	312.81
573.178	297.81
573.389	328.81
573.6	313.81
573.811	304.81
574.023	301.81
574.234	311.81
574.445	305.81
574.656	299.81
574.867	299.81
575.078	307.81
575.289	311.81
575.501	296.81
575.712	280.81
575.923	294.81
576.134	295.81
576.345	307.81
576.556	298.81
576.767	286.81
576.978	311.81
577.188	298.81
577.399	278.81
577.61	274.81
577.821	299.81
578.032	307.81
578.243	328.81
578.454	591.81
578.665	435.81
578.875	311.81
579.086	297.81
579.297	286.81
579.508	285.81
579.718	292.81
579.929	288.81
580.14	281.81
580.35	272.81
580.561	291.81
580.772	279.81
580.982	291.81
581.193	280.81
581.403	270.81
581.614	269.81
581.825	306.81
582.035	276.81
582.246	274.81
582.456	268.81
582.667	289.81
582.877	271.81
583.087	276.81
583.298	272.81
583.508	275.81
583.719	270.81
583.929	276.81
584.139	259.81
584.35	277.81
584.56	273.81
584.77	273.81
584.981	276.81
585.191	269.81
585.401	265.81
585.611	273.81
585.821	272.81
586.032	267.81
586.242	275.81
586.452	247.81
586.662	257.81
586.872	289.81
587.082	273.81
587.292	244.81
587.502	260.81
587.713	263.81
587.923	268.81
588.133	260.81
588.343	264.81
588.553	265.81
588.762	256.81
588.972	256.81
589.182	276.81
589.392	253.81
589.602	275.81
589.812	263.81
590.022	267.81
590.232	273.81
590.441	272.81
590.651	268.81
590.861	270.81
591.071	260.81
591.281	252.81
591.49	272.81
591.7	265.81
591.91	272.81
592.119	264.81
592.329	271.81
592.539	265.81
592.748	258.81
592.958	261.81
593.167	267.81
593.377	292.81
593.587	273.81
593.796	276.81
594.006	257.81
594.215	261.81
594.424	253.81
594.634	256.81
594.843	268.81
595.053	268.81
595.262	273.81
595.472	263.81
595.681	267.81
595.89	267.81
596.1	248.81
596.309	250.81
596.518	268.81
596.727	243.81
596.937	250.81
597.146	241.81
597.355	248.81
597.564	241.81
597.774	247.81
597.983	239.81
598.192	255.81
598.401	246.81
598.61	216.81
598.819	239.81
599.028	243.81
599.237	247.81
599.446	246.81
599.655	250.81
599.864	245.81
600.073	245.81
600.282	246.81
600.491	248.81
600.7	218.81
600.909	233.81
601.118	233.81
601.327	226.81
601.536	233.81
601.745	240.81
601.953	238.81
602.162	228.81
602.371	248.81
602.58	228.81
602.789	245.81
602.997	239.81
603.206	204.81
603.415	232.81
603.623	234.81
603.832	235.81
604.041	228.81
604.249	225.81
604.458	218.81
604.666	232.81
604.875	232.81
605.084	229.81
605.292	243.81
605.501	231.81
605.709	231.81
605.918	215.81
606.126	211.81
606.334	220.81
606.543	225.81
606.751	223.81
606.96	231.81
607.168	224.81
607.376	239.81
607.585	233.81
607.793	226.81
608.001	217.81
608.21	204.81
608.418	211.81
608.626	211.81
608.834	217.81
609.043	228.81
609.251	215.81
609.459	218.81
609.667	228.81
609.875	226.81
610.083	226.81
610.291	234.81
610.499	227.81
610.707	217.81
610.916	224.81
611.124	225.81
611.332	221.81
611.54	221.81
611.748	242.81
611.955	234.81
612.163	204.81
612.371	215.81
612.579	214.81
612.787	216.81
612.995	224.81
613.203	219.81
613.411	212.81
613.618	227.81
613.826	197.81
614.034	212.81
614.242	216.81
614.449	218.81
614.657	227.81
614.865	236.81
615.072	219.81
615.28	215.81
615.488	220.81
615.695	210.81
615.903	231.81
616.111	222.81
616.318	234.81
616.526	211.81
616.733	224.81
616.941	207.81
617.148	188.81
617.356	215.81
617.563	208.81
617.771	225.81
617.978	206.81
618.185	202.81
618.393	209.81
618.6	201.81
618.807	212.81
619.015	214.81
619.222	202.81
619.429	210.81
619.637	205.81
619.844	197.81
620.051	205.81
620.258	210.81
620.466	216.81
620.673	210.81
620.88	199.81
621.087	205.81
621.294	194.81
621.501	211.81
621.708	208.81
621.915	191.81
622.122	196.81
622.329	194.81
622.536	206.81
622.743	202.81
622.95	213.81
623.157	207.81
623.364	201.81
623.571	200.81
623.778	194.81
623.985	210.81
624.192	201.81
624.399	188.81
624.606	190.81
624.812	186.81
625.019	207.81
625.226	185.81
625.433	196.81
625.639	211.81
625.846	191.81
626.053	197.81
626.259	206.81
626.466	206.81
626.673	199.81
626.879	183.81
627.086	193.81
627.293	192.81
627.499	202.81
627.706	185.81
627.912	193.81
628.119	193.81
628.325	180.81
628.532	188.81
628.738	192.81
628.945	189.81
629.151	182.81
629.357	182.81
629.564	184.81
629.77	196.81
629.976	188.81
630.183	195.81
630.389	179.81
630.595	184.81
630.802	179.81
631.008	170.81
631.214	176.81
631.42	185.81
631.627	186.81
631.833	166.81
632.039	177.81
632.245	191.81
632.451	187.81
632.657	180.81
632.863	182.81
633.069	161.81
633.275	167.81
633.481	165.81
633.688	179.81
633.893	180.81
634.099	171.81
634.305	168.81
634.511	163.81
634.717	175.81
634.923	163.81
635.129	167.81
635.335	166.81
635.541	182.81
635.747	169.81
635.952	170.81
636.158	172.81
636.364	161.81
636.57	152.81
636.775	169.81
636.981	170.81
637.187	160.81
637.392	192.81
637.598	172.81
637.804	168.81
638.009	162.81
638.215	179.81
638.421	161.81
638.626	167.81
638.832	156.81
639.037	147.81
639.243	171.81
639.448	169.81
639.654	168.81
639.859	149.81
640.065	165.81
640.27	161.81
640.475	156.81
640.681	147.81
640.886	156.81
641.091	161.81
641.297	175.81
641.502	162.81
641.707	168.81
641.913	163.81
642.118	161.81
642.323	168.81
642.528	154.81
642.733	166.81
642.939	163.81
643.144	157.81
643.349	160.81
643.554	150.81
643.759	154.81
643.964	148.81
644.169	165.81
644.374	165.81
644.579	161.81
644.784	155.81
644.989	180.81
645.194	160.81
645.399	158.81
645.604	163.81
645.809	155.81
646.014	145.81
646.219	157.81
646.423	149.81
646.628	157.81
646.833	176.81
647.038	145.81
647.243	154.81
647.447	161.81
647.652	156.81
647.857	159.81
648.062	156.81
648.266	150.81
648.471	145.81
648.676	148.81
648.88	169.81
649.085	159.81
649.289	157.81
649.494	156.81
649.698	165.81
649.903	183.81
650.107	151.81
650.312	165.81
650.516	162.81
650.721	144.81
650.925	141.81
651.13	151.81
651.334	139.81
651.539	147.81
651.743	135.81
651.947	140.81
652.152	132.81
652.356	134.81
652.56	156.81
652.764	128.81
652.969	139.81
653.173	124.81
653.377	139.81
653.581	131.81
653.785	142.81
653.99	142.81
654.194	133.81
654.398	125.81
654.602	131.81
654.806	134.81
655.01	140.81
655.214	119.81
655.418	127.81
655.622	119.81
655.826	126.81
656.03	135.81
656.234	123.81
656.438	132.81
656.642	110.81
656.846	117.81
657.049	99.81
657.253	111.81
657.457	113.81
657.661	112.81
657.865	120.81
658.068	98.81
658.272	104.81
658.476	107.81
658.68	88.81
658.883	101.81
659.087	100.81
659.291	85.81
659.494	88.81
659.698	77.81
659.901	112.81
660.105	82.81
660.309	103.81
660.512	94.81
660.716	99.81
660.919	98.81
661.123	85.81
661.326	107.81
661.53	90.81
661.733	98.81
661.936	86.81
662.14	84.81
662.343	86.81
662.546	86.81
662.75	90.81
662.953	82.81
663.156	100.81
663.36	92.81
663.563	96.81
663.766	77.81
663.969	76.81
664.173	77.81
664.376	99.81
664.579	90.81
664.782	100.81
664.985	84.81
665.188	72.81
665.391	82.81
665.594	86.81
665.797	81.81
666	87.81
666.203	95.81
666.406	81.81
666.609	91.81
666.812	93.81
667.015	89.81
667.218	88.81
667.421	85.81
667.624	79.81
667.827	76.81
668.03	81.81
668.232	74.81
668.435	94.81
668.638	73.81
668.841	88.81
669.043	91.81
669.246	72.81
669.449	82.81
669.651	72.81
669.854	67.81
670.057	66.81
670.259	82.81
670.462	77.81
670.665	85.81
670.867	91.81
671.07	80.81
671.272	83.81
671.475	71.81
671.677	78.81
671.88	78.81
672.082	78.81
672.284	87.81
672.487	88.81
672.689	76.81
672.892	79.81
