Data from 1980.PennyLincolnUp.Lamp.En5.5.200Scan.071819.P1_HRD10591_16-38-48-958.txt Node
Date: Thu Jul 18 16:38:48 EDT 2019
User: cochatt
Spectrometer: HR+D1059
Trigger mode: 1
Integration Time (sec): 1.000000E-1
Scans to average: 1
Electric dark correction enabled: true
Nonlinearity correction enabled: false
Boxcar width: 0
XAxis mode: Wavelengths
Number of Pixels in Spectrum: 2048
>>>>>Begin Spectral Data<<<<<
223.165	-10.81
223.4	-10.81
223.635	-10.81
223.869	-15.81
224.104	-17.81
224.338	-21.81
224.573	-20.81
224.808	-4.81
225.042	-12.81
225.277	1.19
225.511	-2.81
225.746	8.19
225.98	11.19
226.215	11.19
226.449	15.19
226.683	1.19
226.918	28.19
227.152	31.19
227.387	39.19
227.621	48.19
227.856	43.19
228.09	59.19
228.324	54.19
228.559	54.19
228.793	62.19
229.027	114.19
229.262	121.19
229.496	109.19
229.73	142.19
229.964	152.19
230.199	131.19
230.433	126.19
230.667	111.19
230.901	116.19
231.136	114.19
231.37	112.19
231.604	116.19
231.838	120.19
232.072	124.19
232.306	121.19
232.541	111.19
232.775	112.19
233.009	128.19
233.243	120.19
233.477	121.19
233.711	136.19
233.945	111.19
234.179	110.19
234.413	118.19
234.647	126.19
234.881	123.19
235.115	127.19
235.349	124.19
235.583	139.19
235.817	127.19
236.051	127.19
236.285	134.19
236.519	131.19
236.753	131.19
236.987	142.19
237.221	200.19
237.455	263.19
237.689	201.19
237.922	145.19
238.156	157.19
238.39	128.19
238.624	118.19
238.858	126.19
239.091	129.19
239.325	139.19
239.559	117.19
239.793	139.19
240.027	134.19
240.26	144.19
240.494	158.19
240.728	162.19
240.961	165.19
241.195	153.19
241.429	145.19
241.662	139.19
241.896	130.19
242.13	132.19
242.363	143.19
242.597	137.19
242.83	156.19
243.064	150.19
243.298	150.19
243.531	144.19
243.765	151.19
243.998	128.19
244.232	143.19
244.465	133.19
244.699	156.19
244.932	138.19
245.166	137.19
245.399	143.19
245.633	146.19
245.866	171.19
246.099	141.19
246.333	158.19
246.566	140.19
246.8	154.19
247.033	153.19
247.266	174.19
247.5	184.19
247.733	178.19
247.966	165.19
248.2	164.19
248.433	165.19
248.666	184.19
248.899	202.19
249.133	229.19
249.366	219.19
249.599	210.19
249.832	198.19
250.066	195.19
250.299	194.19
250.532	189.19
250.765	229.19
250.998	261.19
251.231	232.19
251.465	216.19
251.698	219.19
251.931	200.19
252.164	205.19
252.397	218.19
252.63	221.19
252.863	226.19
253.096	231.19
253.329	242.19
253.562	236.19
253.795	225.19
254.028	236.19
254.261	242.19
254.494	249.19
254.727	270.19
254.96	307.19
255.193	305.19
255.426	274.19
255.659	242.19
255.892	259.19
256.124	237.19
256.357	231.19
256.59	242.19
256.823	244.19
257.056	222.19
257.289	224.19
257.521	211.19
257.754	232.19
257.987	238.19
258.22	226.19
258.452	227.19
258.685	220.19
258.918	213.19
259.151	229.19
259.383	228.19
259.616	238.19
259.849	240.19
260.081	230.19
260.314	285.19
260.547	268.19
260.779	254.19
261.012	252.19
261.244	241.19
261.477	239.19
261.71	222.19
261.942	260.19
262.175	261.19
262.407	240.19
262.64	223.19
262.872	230.19
263.105	229.19
263.337	234.19
263.57	225.19
263.802	213.19
264.035	211.19
264.267	211.19
264.499	232.19
264.732	236.19
264.964	237.19
265.197	213.19
265.429	208.19
265.661	214.19
265.894	214.19
266.126	223.19
266.358	220.19
266.591	214.19
266.823	224.19
267.055	218.19
267.287	249.19
267.52	235.19
267.752	226.19
267.984	218.19
268.216	231.19
268.448	236.19
268.681	244.19
268.913	237.19
269.145	286.19
269.377	295.19
269.609	296.19
269.841	271.19
270.073	271.19
270.306	311.19
270.538	327.19
270.77	327.19
271.002	338.19
271.234	317.19
271.466	318.19
271.698	322.19
271.93	348.19
272.162	330.19
272.394	338.19
272.626	324.19
272.858	310.19
273.09	293.19
273.322	268.19
273.553	270.19
273.785	268.19
274.017	269.19
274.249	260.19
274.481	278.19
274.713	273.19
274.945	271.19
275.176	272.19
275.408	282.19
275.64	262.19
275.872	258.19
276.104	262.19
276.335	275.19
276.567	283.19
276.799	287.19
277.031	319.19
277.262	328.19
277.494	324.19
277.726	312.19
277.957	310.19
278.189	279.19
278.421	269.19
278.652	269.19
278.884	284.19
279.115	257.19
279.347	269.19
279.579	267.19
279.81	266.19
280.042	260.19
280.273	269.19
280.505	262.19
280.736	263.19
280.968	271.19
281.199	253.19
281.431	254.19
281.662	269.19
281.894	255.19
282.125	263.19
282.356	279.19
282.588	298.19
282.819	332.19
283.051	279.19
283.282	252.19
283.513	260.19
283.745	279.19
283.976	268.19
284.207	289.19
284.439	285.19
284.67	277.19
284.901	285.19
285.132	261.19
285.364	274.19
285.595	258.19
285.826	269.19
286.057	282.19
286.288	263.19
286.52	279.19
286.751	271.19
286.982	290.19
287.213	265.19
287.444	259.19
287.675	301.19
287.906	278.19
288.138	283.19
288.369	300.19
288.6	312.19
288.831	295.19
289.062	301.19
289.293	296.19
289.524	277.19
289.755	272.19
289.986	286.19
290.217	271.19
290.448	281.19
290.679	281.19
290.91	279.19
291.141	281.19
291.371	296.19
291.602	274.19
291.833	276.19
292.064	275.19
292.295	265.19
292.526	258.19
292.757	272.19
292.987	284.19
293.218	268.19
293.449	289.19
293.68	271.19
293.91	284.19
294.141	278.19
294.372	263.19
294.603	278.19
294.833	284.19
295.064	273.19
295.295	297.19
295.525	278.19
295.756	309.19
295.987	291.19
296.217	330.19
296.448	341.19
296.679	322.19
296.909	304.19
297.14	288.19
297.37	278.19
297.601	263.19
297.831	283.19
298.062	300.19
298.292	292.19
298.523	293.19
298.753	284.19
298.984	294.19
299.214	267.19
299.445	294.19
299.675	297.19
299.905	308.19
300.136	295.19
300.366	305.19
300.597	301.19
300.827	309.19
301.057	294.19
301.288	315.19
301.518	316.19
301.748	310.19
301.979	290.19
302.209	310.19
302.439	315.19
302.669	301.19
302.9	322.19
303.13	311.19
303.36	316.19
303.59	316.19
303.82	319.19
304.051	326.19
304.281	310.19
304.511	310.19
304.741	316.19
304.971	310.19
305.201	298.19
305.431	303.19
305.661	302.19
305.891	318.19
306.121	316.19
306.352	307.19
306.582	320.19
306.812	307.19
307.042	311.19
307.272	324.19
307.502	323.19
307.731	319.19
307.961	324.19
308.191	315.19
308.421	313.19
308.651	324.19
308.881	346.19
309.111	332.19
309.341	353.19
309.571	342.19
309.8	337.19
310.03	363.19
310.26	353.19
310.49	355.19
310.72	384.19
310.949	398.19
311.179	403.19
311.409	382.19
311.639	359.19
311.868	374.19
312.098	374.19
312.328	375.19
312.557	418.19
312.787	403.19
313.017	392.19
313.246	400.19
313.476	369.19
313.706	376.19
313.935	380.19
314.165	391.19
314.394	384.19
314.624	390.19
314.853	378.19
315.083	379.19
315.312	351.19
315.542	367.19
315.771	355.19
316.001	338.19
316.23	345.19
316.46	371.19
316.689	360.19
316.919	378.19
317.148	405.19
317.377	390.19
317.607	388.19
317.836	387.19
318.065	366.19
318.295	349.19
318.524	352.19
318.753	374.19
318.983	347.19
319.212	377.19
319.441	388.19
319.67	396.19
319.9	377.19
320.129	363.19
320.358	374.19
320.587	368.19
320.816	399.19
321.046	397.19
321.275	409.19
321.504	381.19
321.733	390.19
321.962	402.19
322.191	414.19
322.42	427.19
322.649	444.19
322.878	462.19
323.108	494.19
323.337	509.19
323.566	528.19
323.795	582.19
324.024	623.19
324.253	787.19
324.482	1091.19
324.71	1752.19
324.939	2461.19
325.168	2207.19
325.397	1141.19
325.626	758.19
325.855	609.19
326.084	565.19
326.313	547.19
326.542	543.19
326.77	588.19
326.999	730.19
327.228	985.19
327.457	1536.19
327.686	1874.19
327.914	1296.19
328.143	834.19
328.372	713.19
328.6	663.19
328.829	600.19
329.058	643.19
329.287	630.19
329.515	591.19
329.744	560.19
329.972	538.19
330.201	570.19
330.43	614.19
330.658	657.19
330.887	696.19
331.115	654.19
331.344	572.19
331.572	507.19
331.801	505.19
332.03	505.19
332.258	466.19
332.486	466.19
332.715	470.19
332.943	452.19
333.172	427.19
333.4	439.19
333.629	460.19
333.857	461.19
334.085	466.19
334.314	498.19
334.542	542.19
334.771	575.19
334.999	510.19
335.227	471.19
335.455	464.19
335.684	424.19
335.912	424.19
336.14	409.19
336.369	412.19
336.597	434.19
336.825	411.19
337.053	439.19
337.281	404.19
337.51	422.19
337.738	421.19
337.966	424.19
338.194	434.19
338.422	418.19
338.65	427.19
338.878	427.19
339.106	395.19
339.334	410.19
339.562	403.19
339.79	407.19
340.018	432.19
340.246	388.19
340.474	400.19
340.702	394.19
340.93	383.19
341.158	418.19
341.386	418.19
341.614	427.19
341.842	425.19
342.07	413.19
342.298	388.19
342.526	383.19
342.754	378.19
342.981	397.19
343.209	386.19
343.437	382.19
343.665	386.19
343.893	411.19
344.12	396.19
344.348	395.19
344.576	405.19
344.804	421.19
345.031	441.19
345.259	448.19
345.487	422.19
345.714	419.19
345.942	390.19
346.17	420.19
346.397	405.19
346.625	403.19
346.853	429.19
347.08	376.19
347.308	404.19
347.535	422.19
347.763	424.19
347.99	435.19
348.218	426.19
348.445	433.19
348.673	412.19
348.9	409.19
349.128	407.19
349.355	380.19
349.583	391.19
349.81	370.19
350.037	394.19
350.265	386.19
350.492	388.19
350.72	385.19
350.947	402.19
351.174	396.19
351.402	407.19
351.629	403.19
351.856	407.19
352.083	421.19
352.311	422.19
352.538	438.19
352.765	432.19
352.992	425.19
353.22	418.19
353.447	379.19
353.674	392.19
353.901	386.19
354.128	389.19
354.355	382.19
354.583	385.19
354.81	353.19
355.037	353.19
355.264	372.19
355.491	369.19
355.718	378.19
355.945	347.19
356.172	349.19
356.399	373.19
356.626	378.19
356.853	361.19
357.08	382.19
357.307	365.19
357.534	380.19
357.761	384.19
357.988	386.19
358.215	357.19
358.441	367.19
358.668	391.19
358.895	374.19
359.122	374.19
359.349	387.19
359.576	416.19
359.802	428.19
360.029	469.19
360.256	470.19
360.483	435.19
360.709	422.19
360.936	401.19
361.163	418.19
361.39	405.19
361.616	396.19
361.843	414.19
362.07	406.19
362.296	422.19
362.523	418.19
362.749	403.19
362.976	387.19
363.203	378.19
363.429	393.19
363.656	386.19
363.882	383.19
364.109	376.19
364.335	367.19
364.562	374.19
364.788	408.19
365.015	392.19
365.241	381.19
365.468	400.19
365.694	406.19
365.92	383.19
366.147	378.19
366.373	375.19
366.599	358.19
366.826	394.19
367.052	354.19
367.278	380.19
367.505	374.19
367.731	381.19
367.957	400.19
368.184	380.19
368.41	387.19
368.636	401.19
368.862	401.19
369.089	377.19
369.315	385.19
369.541	372.19
369.767	378.19
369.993	377.19
370.219	372.19
370.445	349.19
370.672	354.19
370.898	359.19
371.124	359.19
371.35	377.19
371.576	362.19
371.802	390.19
372.028	369.19
372.254	356.19
372.48	364.19
372.706	379.19
372.932	382.19
373.158	365.19
373.384	368.19
373.61	371.19
373.835	355.19
374.061	372.19
374.287	374.19
374.513	381.19
374.739	381.19
374.965	380.19
375.191	374.19
375.416	370.19
375.642	364.19
375.868	354.19
376.094	379.19
376.319	392.19
376.545	371.19
376.771	368.19
376.997	376.19
377.222	361.19
377.448	361.19
377.674	355.19
377.899	367.19
378.125	388.19
378.35	352.19
378.576	339.19
378.802	355.19
379.027	345.19
379.253	362.19
379.478	361.19
379.704	348.19
379.929	376.19
380.155	381.19
380.38	343.19
380.606	368.19
380.831	374.19
381.057	395.19
381.282	378.19
381.507	349.19
381.733	376.19
381.958	382.19
382.184	366.19
382.409	357.19
382.634	391.19
382.86	378.19
383.085	376.19
383.31	378.19
383.535	379.19
383.761	368.19
383.986	368.19
384.211	378.19
384.436	378.19
384.662	367.19
384.887	375.19
385.112	376.19
385.337	379.19
385.562	396.19
385.787	379.19
386.013	404.19
386.238	406.19
386.463	396.19
386.688	396.19
386.913	387.19
387.138	399.19
387.363	381.19
387.588	391.19
387.813	384.19
388.038	388.19
388.263	389.19
388.488	392.19
388.713	378.19
388.938	383.19
389.163	391.19
389.387	372.19
389.612	380.19
389.837	388.19
390.062	391.19
390.287	398.19
390.512	389.19
390.736	380.19
390.961	373.19
391.186	380.19
391.411	376.19
391.636	381.19
391.86	390.19
392.085	398.19
392.31	374.19
392.534	406.19
392.759	384.19
392.984	395.19
393.208	396.19
393.433	389.19
393.658	381.19
393.882	382.19
394.107	403.19
394.331	391.19
394.556	384.19
394.78	377.19
395.005	382.19
395.229	386.19
395.454	395.19
395.678	398.19
395.903	415.19
396.127	422.19
396.352	428.19
396.576	404.19
396.801	425.19
397.025	388.19
397.249	406.19
397.474	378.19
397.698	425.19
397.922	433.19
398.147	444.19
398.371	436.19
398.595	422.19
398.82	436.19
399.044	440.19
399.268	462.19
399.492	446.19
399.717	483.19
399.941	522.19
400.165	534.19
400.389	543.19
400.613	498.19
400.837	464.19
401.062	464.19
401.286	453.19
401.51	423.19
401.734	444.19
401.958	434.19
402.182	441.19
402.406	464.19
402.63	464.19
402.854	459.19
403.078	451.19
403.302	450.19
403.526	462.19
403.75	447.19
403.974	487.19
404.198	459.19
404.422	472.19
404.645	478.19
404.869	478.19
405.093	490.19
405.317	545.19
405.541	572.19
405.765	517.19
405.988	486.19
406.212	512.19
406.436	540.19
406.66	535.19
406.883	520.19
407.107	534.19
407.331	532.19
407.555	622.19
407.778	626.19
408.002	578.19
408.226	518.19
408.449	518.19
408.673	498.19
408.896	553.19
409.12	582.19
409.344	557.19
409.567	495.19
409.791	472.19
410.014	462.19
410.238	470.19
410.461	466.19
410.685	478.19
410.908	493.19
411.132	534.19
411.355	586.19
411.578	526.19
411.802	468.19
412.025	477.19
412.249	471.19
412.472	503.19
412.695	517.19
412.919	517.19
413.142	485.19
413.365	463.19
413.589	458.19
413.812	458.19
414.035	449.19
414.258	442.19
414.482	443.19
414.705	428.19
414.928	442.19
415.151	438.19
415.374	424.19
415.597	445.19
415.821	430.19
416.044	442.19
416.267	418.19
416.49	452.19
416.713	414.19
416.936	427.19
417.159	457.19
417.382	446.19
417.605	434.19
417.828	456.19
418.051	463.19
418.274	465.19
418.497	446.19
418.72	439.19
418.943	468.19
419.166	475.19
419.389	463.19
419.611	436.19
419.834	478.19
420.057	460.19
420.28	487.19
420.503	477.19
420.726	466.19
420.948	489.19
421.171	535.19
421.394	557.19
421.617	506.19
421.839	477.19
422.062	469.19
422.285	479.19
422.507	533.19
422.73	610.19
422.953	615.19
423.175	552.19
423.398	503.19
423.621	486.19
423.843	487.19
424.066	516.19
424.288	529.19
424.511	535.19
424.733	589.19
424.956	650.19
425.178	661.19
425.401	628.19
425.623	667.19
425.846	566.19
426.068	527.19
426.291	538.19
426.513	549.19
426.735	535.19
426.958	564.19
427.18	642.19
427.402	770.19
427.625	871.19
427.847	779.19
428.069	698.19
428.292	598.19
428.514	538.19
428.736	514.19
428.958	537.19
429.181	489.19
429.403	485.19
429.625	493.19
429.847	523.19
430.069	606.19
430.292	603.19
430.514	529.19
430.736	486.19
430.958	475.19
431.18	474.19
431.402	469.19
431.624	468.19
431.846	454.19
432.068	452.19
432.29	459.19
432.512	452.19
432.734	455.19
432.956	463.19
433.178	472.19
433.4	473.19
433.622	484.19
433.844	456.19
434.066	431.19
434.287	422.19
434.509	458.19
434.731	487.19
434.953	453.19
435.175	478.19
435.397	503.19
435.618	535.19
435.84	567.19
436.062	668.19
436.284	726.19
436.505	604.19
436.727	553.19
436.949	506.19
437.17	509.19
437.392	494.19
437.614	486.19
437.835	573.19
438.057	661.19
438.278	750.19
438.5	727.19
438.721	807.19
438.943	767.19
439.165	606.19
439.386	571.19
439.608	558.19
439.829	555.19
440.05	573.19
440.272	612.19
440.493	616.19
440.715	540.19
440.936	500.19
441.158	486.19
441.379	489.19
441.6	494.19
441.822	527.19
442.043	579.19
442.264	655.19
442.486	710.19
442.707	595.19
442.928	572.19
443.149	552.19
443.371	573.19
443.592	619.19
443.813	696.19
444.034	774.19
444.255	636.19
444.476	555.19
444.698	537.19
444.919	496.19
445.14	590.19
445.361	580.19
445.582	582.19
445.803	637.19
446.024	721.19
446.245	768.19
446.466	692.19
446.687	601.19
446.908	545.19
447.129	514.19
447.35	488.19
447.571	493.19
447.792	480.19
448.013	485.19
448.234	510.19
448.455	577.19
448.675	702.19
448.896	809.19
449.117	684.19
449.338	659.19
449.559	745.19
449.779	834.19
450	660.19
450.221	557.19
450.442	514.19
450.662	516.19
450.883	504.19
451.104	505.19
451.324	501.19
451.545	496.19
451.766	454.19
451.986	431.19
452.207	434.19
452.428	426.19
452.648	445.19
452.869	440.19
453.089	456.19
453.31	482.19
453.53	454.19
453.751	436.19
453.971	462.19
454.192	487.19
454.412	465.19
454.633	431.19
454.853	441.19
455.073	444.19
455.294	462.19
455.514	544.19
455.734	517.19
455.955	445.19
456.175	418.19
456.395	406.19
456.616	416.19
456.836	434.19
457.056	397.19
457.276	392.19
457.497	401.19
457.717	379.19
457.937	408.19
458.157	418.19
458.377	414.19
458.598	439.19
458.818	535.19
459.038	630.19
459.258	639.19
459.478	530.19
459.698	463.19
459.918	447.19
460.138	457.19
460.358	457.19
460.578	428.19
460.798	446.19
461.018	464.19
461.238	442.19
461.458	418.19
461.678	429.19
461.898	425.19
462.118	431.19
462.338	435.19
462.558	438.19
462.777	455.19
462.997	436.19
463.217	462.19
463.437	466.19
463.657	448.19
463.876	439.19
464.096	451.19
464.316	455.19
464.536	476.19
464.755	477.19
464.975	500.19
465.195	520.19
465.414	649.19
465.634	545.19
465.854	496.19
466.073	479.19
466.293	438.19
466.512	449.19
466.732	434.19
466.951	431.19
467.171	418.19
467.391	438.19
467.61	447.19
467.829	445.19
468.049	443.19
468.268	459.19
468.488	442.19
468.707	423.19
468.927	404.19
469.146	408.19
469.365	406.19
469.585	424.19
469.804	426.19
470.023	461.19
470.243	456.19
470.462	452.19
470.681	475.19
470.901	480.19
471.12	439.19
471.339	448.19
471.558	447.19
471.777	443.19
471.997	430.19
472.216	472.19
472.435	505.19
472.654	490.19
472.873	431.19
473.092	426.19
473.311	454.19
473.53	456.19
473.749	471.19
473.968	494.19
474.187	622.19
474.406	645.19
474.625	538.19
474.844	476.19
475.063	454.19
475.282	467.19
475.501	461.19
475.72	459.19
475.939	459.19
476.158	462.19
476.377	484.19
476.596	459.19
476.814	471.19
477.033	469.19
477.252	494.19
477.471	491.19
477.69	469.19
477.908	475.19
478.127	490.19
478.346	467.19
478.564	502.19
478.783	503.19
479.002	526.19
479.22	507.19
479.439	514.19
479.658	534.19
479.876	560.19
480.095	535.19
480.313	574.19
480.532	564.19
480.751	536.19
480.969	559.19
481.188	623.19
481.406	686.19
481.624	618.19
481.843	577.19
482.061	537.19
482.28	550.19
482.498	543.19
482.717	555.19
482.935	515.19
483.153	533.19
483.372	543.19
483.59	537.19
483.808	541.19
484.027	535.19
484.245	533.19
484.463	535.19
484.681	547.19
484.9	527.19
485.118	546.19
485.336	549.19
485.554	549.19
485.772	576.19
485.99	526.19
486.209	540.19
486.427	550.19
486.645	579.19
486.863	600.19
487.081	604.19
487.299	582.19
487.517	590.19
487.735	567.19
487.953	574.19
488.171	574.19
488.389	568.19
488.607	588.19
488.825	572.19
489.043	566.19
489.261	605.19
489.479	588.19
489.696	584.19
489.914	606.19
490.132	604.19
490.35	613.19
490.568	599.19
490.786	595.19
491.003	628.19
491.221	638.19
491.439	653.19
491.657	660.19
491.874	669.19
492.092	671.19
492.31	684.19
492.527	657.19
492.745	679.19
492.963	676.19
493.18	691.19
493.398	685.19
493.615	693.19
493.833	699.19
494.05	679.19
494.268	685.19
494.485	699.19
494.703	700.19
494.92	694.19
495.138	685.19
495.355	722.19
495.573	709.19
495.79	684.19
496.008	685.19
496.225	700.19
496.442	677.19
496.66	694.19
496.877	700.19
497.094	696.19
497.312	701.19
497.529	701.19
497.746	699.19
497.963	705.19
498.181	734.19
498.398	736.19
498.615	739.19
498.832	720.19
499.049	726.19
499.267	722.19
499.484	731.19
499.701	788.19
499.918	805.19
500.135	810.19
500.352	840.19
500.569	836.19
500.786	843.19
501.003	844.19
501.22	829.19
501.437	787.19
501.654	807.19
501.871	803.19
502.088	779.19
502.305	750.19
502.522	754.19
502.739	746.19
502.956	684.19
503.172	710.19
503.389	710.19
503.606	720.19
503.823	710.19
504.04	718.19
504.256	682.19
504.473	683.19
504.69	669.19
504.907	664.19
505.123	660.19
505.34	669.19
505.557	656.19
505.773	663.19
505.99	686.19
506.207	673.19
506.423	666.19
506.64	662.19
506.856	651.19
507.073	668.19
507.289	664.19
507.506	630.19
507.722	650.19
507.939	683.19
508.155	668.19
508.372	644.19
508.588	622.19
508.805	648.19
509.021	632.19
509.238	658.19
509.454	644.19
509.67	644.19
509.887	651.19
510.103	647.19
510.319	654.19
510.536	775.19
510.752	1370.19
510.968	1145.19
511.184	709.19
511.401	648.19
511.617	657.19
511.833	634.19
512.049	600.19
512.265	636.19
512.481	623.19
512.698	600.19
512.914	627.19
513.13	616.19
513.346	591.19
513.562	619.19
513.778	646.19
513.994	626.19
514.21	642.19
514.426	650.19
514.642	711.19
514.858	756.19
515.074	812.19
515.29	1007.19
515.506	1552.19
515.721	1258.19
515.937	804.19
516.153	702.19
516.369	674.19
516.585	658.19
516.801	608.19
517.016	622.19
517.232	626.19
517.448	607.19
517.664	605.19
517.879	608.19
518.095	626.19
518.311	618.19
518.527	594.19
518.742	623.19
518.958	592.19
519.173	616.19
519.389	608.19
519.605	594.19
519.82	638.19
520.036	620.19
520.251	636.19
520.467	715.19
520.682	706.19
520.898	708.19
521.113	748.19
521.329	784.19
521.544	906.19
521.76	1205.19
521.975	2089.19
522.19	2030.19
522.406	1020.19
522.621	733.19
522.836	679.19
523.052	614.19
523.267	607.19
523.482	596.19
523.698	575.19
523.913	560.19
524.128	582.19
524.343	532.19
524.559	528.19
524.774	535.19
524.989	527.19
525.204	547.19
525.419	543.19
525.634	553.19
525.849	524.19
526.064	524.19
526.28	498.19
526.495	510.19
526.71	492.19
526.925	516.19
527.14	503.19
527.355	482.19
527.57	492.19
527.785	491.19
527.999	504.19
528.214	484.19
528.429	477.19
528.644	501.19
528.859	486.19
529.074	492.19
529.289	525.19
529.503	622.19
529.718	618.19
529.933	548.19
530.148	504.19
530.363	488.19
530.577	473.19
530.792	479.19
531.007	461.19
531.221	486.19
531.436	438.19
531.651	491.19
531.865	482.19
532.08	473.19
532.295	463.19
532.509	464.19
532.724	439.19
532.938	457.19
533.153	463.19
533.367	455.19
533.582	460.19
533.796	478.19
534.011	453.19
534.225	433.19
534.44	453.19
534.654	453.19
534.868	463.19
535.083	455.19
535.297	450.19
535.511	453.19
535.726	473.19
535.94	475.19
536.154	463.19
536.369	468.19
536.583	436.19
536.797	439.19
537.011	438.19
537.225	462.19
537.44	425.19
537.654	427.19
537.868	438.19
538.082	449.19
538.296	471.19
538.51	443.19
538.724	451.19
538.938	426.19
539.153	427.19
539.367	465.19
539.581	454.19
539.795	444.19
540.009	453.19
540.222	456.19
540.436	447.19
540.65	441.19
540.864	439.19
541.078	429.19
541.292	449.19
541.506	444.19
541.72	455.19
541.934	439.19
542.147	437.19
542.361	452.19
542.575	421.19
542.789	434.19
543.002	423.19
543.216	450.19
543.43	452.19
543.644	446.19
543.857	444.19
544.071	414.19
544.285	439.19
544.498	452.19
544.712	423.19
544.925	425.19
545.139	421.19
545.352	413.19
545.566	416.19
545.779	431.19
545.993	445.19
546.206	420.19
546.42	429.19
546.633	429.19
546.847	430.19
547.06	399.19
547.274	410.19
547.487	406.19
547.7	404.19
547.914	410.19
548.127	419.19
548.34	381.19
548.554	406.19
548.767	405.19
548.98	413.19
549.193	414.19
549.407	419.19
549.62	398.19
549.833	408.19
550.046	394.19
550.259	413.19
550.473	382.19
550.686	414.19
550.899	414.19
551.112	399.19
551.325	424.19
551.538	401.19
551.751	380.19
551.964	392.19
552.177	390.19
552.39	373.19
552.603	393.19
552.816	400.19
553.029	407.19
553.242	402.19
553.455	424.19
553.667	435.19
553.88	424.19
554.093	429.19
554.306	405.19
554.519	406.19
554.732	391.19
554.944	386.19
555.157	401.19
555.37	391.19
555.583	395.19
555.795	407.19
556.008	390.19
556.221	388.19
556.433	383.19
556.646	380.19
556.859	388.19
557.071	372.19
557.284	362.19
557.496	356.19
557.709	399.19
557.921	362.19
558.134	362.19
558.346	359.19
558.559	347.19
558.771	384.19
558.984	366.19
559.196	357.19
559.409	362.19
559.621	372.19
559.833	341.19
560.046	356.19
560.258	386.19
560.47	374.19
560.683	348.19
560.895	382.19
561.107	342.19
561.32	362.19
561.532	379.19
561.744	374.19
561.956	366.19
562.168	345.19
562.381	364.19
562.593	368.19
562.805	350.19
563.017	358.19
563.229	362.19
563.441	358.19
563.653	379.19
563.865	362.19
564.077	371.19
564.289	378.19
564.501	366.19
564.713	382.19
564.925	373.19
565.137	379.19
565.349	378.19
565.561	381.19
565.773	388.19
565.985	389.19
566.197	392.19
566.408	390.19
566.62	387.19
566.832	403.19
567.044	416.19
567.255	397.19
567.467	429.19
567.679	407.19
567.891	406.19
568.102	409.19
568.314	420.19
568.526	403.19
568.737	388.19
568.949	394.19
569.161	384.19
569.372	371.19
569.584	380.19
569.795	373.19
570.007	388.19
570.218	421.19
570.43	400.19
570.641	368.19
570.853	361.19
571.064	360.19
571.276	335.19
571.487	338.19
571.698	354.19
571.91	331.19
572.121	331.19
572.333	346.19
572.544	320.19
572.755	340.19
572.966	330.19
573.178	319.19
573.389	341.19
573.6	326.19
573.811	336.19
574.023	336.19
574.234	304.19
574.445	346.19
574.656	325.19
574.867	322.19
575.078	320.19
575.289	318.19
575.501	334.19
575.712	315.19
575.923	314.19
576.134	303.19
576.345	322.19
576.556	308.19
576.767	303.19
576.978	327.19
577.188	307.19
577.399	312.19
577.61	308.19
577.821	304.19
578.032	318.19
578.243	363.19
578.454	632.19
578.665	459.19
578.875	320.19
579.086	331.19
579.297	303.19
579.508	303.19
579.718	316.19
579.929	284.19
580.14	303.19
580.35	281.19
580.561	289.19
580.772	297.19
580.982	297.19
581.193	288.19
581.403	289.19
581.614	282.19
581.825	290.19
582.035	289.19
582.246	287.19
582.456	301.19
582.667	298.19
582.877	269.19
583.087	290.19
583.298	279.19
583.508	294.19
583.719	300.19
583.929	306.19
584.139	296.19
584.35	286.19
584.56	293.19
584.77	268.19
584.981	297.19
585.191	308.19
585.401	301.19
585.611	278.19
585.821	272.19
586.032	278.19
586.242	266.19
586.452	278.19
586.662	291.19
586.872	270.19
587.082	267.19
587.292	284.19
587.502	276.19
587.713	303.19
587.923	277.19
588.133	271.19
588.343	263.19
588.553	288.19
588.762	278.19
588.972	292.19
589.182	267.19
589.392	270.19
589.602	289.19
589.812	280.19
590.022	291.19
590.232	280.19
590.441	274.19
590.651	276.19
590.861	287.19
591.071	272.19
591.281	269.19
591.49	259.19
591.7	275.19
591.91	281.19
592.119	261.19
592.329	276.19
592.539	281.19
592.748	276.19
592.958	297.19
593.167	277.19
593.377	271.19
593.587	292.19
593.796	280.19
594.006	271.19
594.215	268.19
594.424	257.19
594.634	269.19
594.843	268.19
595.053	277.19
595.262	275.19
595.472	273.19
595.681	261.19
595.89	278.19
596.1	278.19
596.309	267.19
596.518	278.19
596.727	262.19
596.937	252.19
597.146	278.19
597.355	265.19
597.564	260.19
597.774	246.19
597.983	267.19
598.192	243.19
598.401	268.19
598.61	250.19
598.819	251.19
599.028	267.19
599.237	264.19
599.446	243.19
599.655	262.19
599.864	245.19
600.073	256.19
600.282	248.19
600.491	227.19
600.7	245.19
600.909	251.19
601.118	237.19
601.327	224.19
601.536	247.19
601.745	249.19
601.953	240.19
602.162	226.19
602.371	246.19
602.58	233.19
602.789	230.19
602.997	229.19
603.206	254.19
603.415	258.19
603.623	240.19
603.832	231.19
604.041	223.19
604.249	227.19
604.458	244.19
604.666	224.19
604.875	233.19
605.084	231.19
605.292	231.19
605.501	239.19
605.709	215.19
605.918	236.19
606.126	235.19
606.334	223.19
606.543	234.19
606.751	229.19
606.96	249.19
607.168	243.19
607.376	235.19
607.585	220.19
607.793	229.19
608.001	239.19
608.21	260.19
608.418	252.19
608.626	253.19
608.834	216.19
609.043	222.19
609.251	241.19
609.459	234.19
609.667	235.19
609.875	224.19
610.083	228.19
610.291	236.19
610.499	222.19
610.707	216.19
610.916	212.19
611.124	238.19
611.332	252.19
611.54	246.19
611.748	245.19
611.955	239.19
612.163	222.19
612.371	234.19
612.579	234.19
612.787	240.19
612.995	234.19
613.203	239.19
613.411	228.19
613.618	231.19
613.826	232.19
614.034	237.19
614.242	234.19
614.449	210.19
614.657	235.19
614.865	220.19
615.072	222.19
615.28	211.19
615.488	233.19
615.695	233.19
615.903	237.19
616.111	208.19
616.318	210.19
616.526	206.19
616.733	225.19
616.941	208.19
617.148	219.19
617.356	216.19
617.563	229.19
617.771	230.19
617.978	210.19
618.185	227.19
618.393	237.19
618.6	216.19
618.807	214.19
619.015	216.19
619.222	215.19
619.429	229.19
619.637	217.19
619.844	224.19
620.051	218.19
620.258	214.19
620.466	204.19
620.673	207.19
620.88	205.19
621.087	220.19
621.294	219.19
621.501	223.19
621.708	215.19
621.915	210.19
622.122	202.19
622.329	208.19
622.536	227.19
622.743	208.19
622.95	220.19
623.157	204.19
623.364	226.19
623.571	202.19
623.778	200.19
623.985	214.19
624.192	209.19
624.399	204.19
624.606	215.19
624.812	219.19
625.019	215.19
625.226	219.19
625.433	199.19
625.639	205.19
625.846	200.19
626.053	197.19
626.259	196.19
626.466	204.19
626.673	202.19
626.879	205.19
627.086	204.19
627.293	198.19
627.499	200.19
627.706	200.19
627.912	188.19
628.119	202.19
628.325	207.19
628.532	194.19
628.738	186.19
628.945	189.19
629.151	194.19
629.357	186.19
629.564	200.19
629.77	208.19
629.976	198.19
630.183	190.19
630.389	178.19
630.595	192.19
630.802	185.19
631.008	178.19
631.214	178.19
631.42	197.19
631.627	181.19
631.833	196.19
632.039	174.19
632.245	178.19
632.451	190.19
632.657	185.19
632.863	186.19
633.069	189.19
633.275	199.19
633.481	178.19
633.688	190.19
633.893	165.19
634.099	175.19
634.305	179.19
634.511	180.19
634.717	180.19
634.923	168.19
635.129	175.19
635.335	165.19
635.541	173.19
635.747	190.19
635.952	183.19
636.158	170.19
636.364	179.19
636.57	196.19
636.775	179.19
636.981	184.19
637.187	183.19
637.392	179.19
637.598	186.19
637.804	166.19
638.009	175.19
638.215	178.19
638.421	163.19
638.626	164.19
638.832	171.19
639.037	174.19
639.243	170.19
639.448	184.19
639.654	167.19
639.859	174.19
640.065	164.19
640.27	174.19
640.475	161.19
640.681	152.19
640.886	178.19
641.091	163.19
641.297	162.19
641.502	166.19
641.707	169.19
641.913	187.19
642.118	154.19
642.323	174.19
642.528	166.19
642.733	173.19
642.939	152.19
643.144	165.19
643.349	156.19
643.554	165.19
643.759	159.19
643.964	154.19
644.169	170.19
644.374	154.19
644.579	156.19
644.784	152.19
644.989	164.19
645.194	176.19
645.399	156.19
645.604	144.19
645.809	160.19
646.014	149.19
646.219	161.19
646.423	151.19
646.628	157.19
646.833	152.19
647.038	166.19
647.243	165.19
647.447	172.19
647.652	147.19
647.857	156.19
648.062	153.19
648.266	145.19
648.471	163.19
648.676	155.19
648.88	160.19
649.085	176.19
649.289	166.19
649.494	178.19
649.698	180.19
649.903	188.19
650.107	171.19
650.312	160.19
650.516	156.19
650.721	151.19
650.925	149.19
651.13	156.19
651.334	142.19
651.539	149.19
651.743	149.19
651.947	148.19
652.152	145.19
652.356	143.19
652.56	133.19
652.764	128.19
652.969	144.19
653.173	148.19
653.377	130.19
653.581	132.19
653.785	134.19
653.99	137.19
654.194	140.19
654.398	142.19
654.602	153.19
654.806	131.19
655.01	141.19
655.214	143.19
655.418	141.19
655.622	135.19
655.826	141.19
656.03	141.19
656.234	126.19
656.438	127.19
656.642	137.19
656.846	115.19
657.049	135.19
657.253	132.19
657.457	132.19
657.661	107.19
657.865	125.19
658.068	114.19
658.272	104.19
658.476	123.19
658.68	103.19
658.883	101.19
659.087	101.19
659.291	101.19
659.494	105.19
659.698	92.19
659.901	92.19
660.105	86.19
660.309	102.19
660.512	99.19
660.716	96.19
660.919	100.19
661.123	96.19
661.326	80.19
661.53	90.19
661.733	97.19
661.936	87.19
662.14	75.19
662.343	99.19
662.546	83.19
662.75	83.19
662.953	85.19
663.156	91.19
663.36	83.19
663.563	77.19
663.766	79.19
663.969	86.19
664.173	85.19
664.376	81.19
664.579	98.19
664.782	76.19
664.985	90.19
665.188	88.19
665.391	92.19
665.594	90.19
665.797	77.19
666	87.19
666.203	68.19
666.406	77.19
666.609	105.19
666.812	77.19
667.015	79.19
667.218	75.19
667.421	92.19
667.624	92.19
667.827	83.19
668.03	89.19
668.232	80.19
668.435	82.19
668.638	89.19
668.841	95.19
669.043	84.19
669.246	103.19
669.449	100.19
669.651	92.19
669.854	99.19
670.057	93.19
670.259	85.19
670.462	85.19
670.665	93.19
670.867	92.19
671.07	85.19
671.272	92.19
671.475	85.19
671.677	73.19
671.88	85.19
672.082	88.19
672.284	92.19
672.487	75.19
672.689	90.19
672.892	94.19
