Data from 1980.PennyLincolnUp.Lamp.En5.5.200Scan.071819.P1_HRD10591_16-39-18-957.txt Node
Date: Thu Jul 18 16:39:18 EDT 2019
User: cochatt
Spectrometer: HR+D1059
Trigger mode: 1
Integration Time (sec): 1.000000E-1
Scans to average: 1
Electric dark correction enabled: true
Nonlinearity correction enabled: false
Boxcar width: 0
XAxis mode: Wavelengths
Number of Pixels in Spectrum: 2048
>>>>>Begin Spectral Data<<<<<
223.165	-5.38
223.4	-5.38
223.635	-5.38
223.869	-7.38
224.104	-22.38
224.338	-9.38
224.573	-5.38
224.808	-9.38
225.042	1.62
225.277	-15.38
225.511	-10.38
225.746	-8.38
225.98	3.62
226.215	8.62
226.449	16.62
226.683	22.62
226.918	23.62
227.152	16.62
227.387	32.62
227.621	25.62
227.856	54.62
228.09	37.62
228.324	40.62
228.559	43.62
228.793	67.62
229.027	112.62
229.262	113.62
229.496	128.62
229.73	140.62
229.964	163.62
230.199	129.62
230.433	118.62
230.667	118.62
230.901	120.62
231.136	124.62
231.37	130.62
231.604	114.62
231.838	119.62
232.072	115.62
232.306	108.62
232.541	117.62
232.775	118.62
233.009	124.62
233.243	126.62
233.477	119.62
233.711	121.62
233.945	108.62
234.179	119.62
234.413	125.62
234.647	121.62
234.881	114.62
235.115	108.62
235.349	127.62
235.583	140.62
235.817	140.62
236.051	124.62
236.285	134.62
236.519	128.62
236.753	135.62
236.987	159.62
237.221	182.62
237.455	269.62
237.689	211.62
237.922	177.62
238.156	133.62
238.39	149.62
238.624	138.62
238.858	124.62
239.091	119.62
239.325	125.62
239.559	135.62
239.793	132.62
240.027	136.62
240.26	151.62
240.494	169.62
240.728	161.62
240.961	170.62
241.195	148.62
241.429	139.62
241.662	132.62
241.896	147.62
242.13	134.62
242.363	122.62
242.597	130.62
242.83	140.62
243.064	137.62
243.298	145.62
243.531	142.62
243.765	157.62
243.998	143.62
244.232	149.62
244.465	147.62
244.699	141.62
244.932	147.62
245.166	162.62
245.399	158.62
245.633	147.62
245.866	145.62
246.099	148.62
246.333	153.62
246.566	148.62
246.8	154.62
247.033	166.62
247.266	165.62
247.5	168.62
247.733	177.62
247.966	182.62
248.2	172.62
248.433	172.62
248.666	177.62
248.899	178.62
249.133	202.62
249.366	242.62
249.599	234.62
249.832	211.62
250.066	174.62
250.299	195.62
250.532	210.62
250.765	201.62
250.998	234.62
251.231	244.62
251.465	236.62
251.698	217.62
251.931	223.62
252.164	217.62
252.397	202.62
252.63	210.62
252.863	211.62
253.096	233.62
253.329	259.62
253.562	237.62
253.795	226.62
254.028	225.62
254.261	238.62
254.494	243.62
254.727	277.62
254.96	321.62
255.193	308.62
255.426	264.62
255.659	258.62
255.892	245.62
256.124	235.62
256.357	259.62
256.59	242.62
256.823	228.62
257.056	218.62
257.289	219.62
257.521	218.62
257.754	223.62
257.987	216.62
258.22	208.62
258.452	206.62
258.685	216.62
258.918	213.62
259.151	239.62
259.383	245.62
259.616	233.62
259.849	241.62
260.081	235.62
260.314	264.62
260.547	262.62
260.779	269.62
261.012	256.62
261.244	250.62
261.477	239.62
261.71	231.62
261.942	254.62
262.175	255.62
262.407	230.62
262.64	228.62
262.872	225.62
263.105	230.62
263.337	236.62
263.57	222.62
263.802	227.62
264.035	216.62
264.267	207.62
264.499	218.62
264.732	214.62
264.964	223.62
265.197	237.62
265.429	209.62
265.661	218.62
265.894	235.62
266.126	226.62
266.358	226.62
266.591	220.62
266.823	226.62
267.055	228.62
267.287	250.62
267.52	221.62
267.752	232.62
267.984	238.62
268.216	236.62
268.448	231.62
268.681	239.62
268.913	251.62
269.145	285.62
269.377	275.62
269.609	279.62
269.841	280.62
270.073	287.62
270.306	306.62
270.538	348.62
270.77	333.62
271.002	324.62
271.234	324.62
271.466	337.62
271.698	346.62
271.93	320.62
272.162	331.62
272.394	327.62
272.626	316.62
272.858	319.62
273.09	297.62
273.322	267.62
273.553	282.62
273.785	254.62
274.017	274.62
274.249	286.62
274.481	285.62
274.713	297.62
274.945	285.62
275.176	293.62
275.408	267.62
275.64	278.62
275.872	270.62
276.104	284.62
276.335	285.62
276.567	291.62
276.799	320.62
277.031	339.62
277.262	333.62
277.494	331.62
277.726	318.62
277.957	283.62
278.189	284.62
278.421	291.62
278.652	295.62
278.884	282.62
279.115	270.62
279.347	258.62
279.579	269.62
279.81	290.62
280.042	277.62
280.273	277.62
280.505	274.62
280.736	264.62
280.968	259.62
281.199	254.62
281.431	262.62
281.662	283.62
281.894	265.62
282.125	277.62
282.356	300.62
282.588	301.62
282.819	318.62
283.051	289.62
283.282	270.62
283.513	275.62
283.745	279.62
283.976	265.62
284.207	283.62
284.439	279.62
284.67	276.62
284.901	272.62
285.132	275.62
285.364	262.62
285.595	273.62
285.826	281.62
286.057	262.62
286.288	275.62
286.52	271.62
286.751	272.62
286.982	276.62
287.213	289.62
287.444	285.62
287.675	284.62
287.906	288.62
288.138	291.62
288.369	291.62
288.6	306.62
288.831	284.62
289.062	300.62
289.293	283.62
289.524	277.62
289.755	306.62
289.986	284.62
290.217	285.62
290.448	282.62
290.679	288.62
290.91	274.62
291.141	284.62
291.371	270.62
291.602	283.62
291.833	273.62
292.064	267.62
292.295	279.62
292.526	279.62
292.757	246.62
292.987	290.62
293.218	279.62
293.449	290.62
293.68	277.62
293.91	287.62
294.141	285.62
294.372	285.62
294.603	280.62
294.833	287.62
295.064	290.62
295.295	299.62
295.525	276.62
295.756	293.62
295.987	282.62
296.217	315.62
296.448	326.62
296.679	315.62
296.909	285.62
297.14	275.62
297.37	303.62
297.601	285.62
297.831	296.62
298.062	298.62
298.292	289.62
298.523	295.62
298.753	294.62
298.984	310.62
299.214	302.62
299.445	296.62
299.675	296.62
299.905	302.62
300.136	311.62
300.366	305.62
300.597	302.62
300.827	315.62
301.057	316.62
301.288	331.62
301.518	311.62
301.748	313.62
301.979	316.62
302.209	312.62
302.439	302.62
302.669	307.62
302.9	312.62
303.13	310.62
303.36	310.62
303.59	336.62
303.82	330.62
304.051	324.62
304.281	345.62
304.511	314.62
304.741	308.62
304.971	305.62
305.201	301.62
305.431	320.62
305.661	324.62
305.891	318.62
306.121	329.62
306.352	317.62
306.582	322.62
306.812	328.62
307.042	314.62
307.272	331.62
307.502	330.62
307.731	331.62
307.961	333.62
308.191	330.62
308.421	340.62
308.651	337.62
308.881	341.62
309.111	348.62
309.341	328.62
309.571	350.62
309.8	370.62
310.03	387.62
310.26	393.62
310.49	392.62
310.72	396.62
310.949	426.62
311.179	402.62
311.409	396.62
311.639	381.62
311.868	395.62
312.098	394.62
312.328	394.62
312.557	427.62
312.787	434.62
313.017	411.62
313.246	380.62
313.476	357.62
313.706	379.62
313.935	387.62
314.165	402.62
314.394	395.62
314.624	417.62
314.853	403.62
315.083	387.62
315.312	377.62
315.542	362.62
315.771	377.62
316.001	369.62
316.23	370.62
316.46	378.62
316.689	372.62
316.919	352.62
317.148	366.62
317.377	410.62
317.607	389.62
317.836	364.62
318.065	375.62
318.295	377.62
318.524	391.62
318.753	377.62
318.983	363.62
319.212	381.62
319.441	387.62
319.67	387.62
319.9	385.62
320.129	381.62
320.358	375.62
320.587	409.62
320.816	389.62
321.046	404.62
321.275	422.62
321.504	411.62
321.733	401.62
321.962	424.62
322.191	439.62
322.42	440.62
322.649	489.62
322.878	467.62
323.108	501.62
323.337	547.62
323.566	550.62
323.795	590.62
324.024	652.62
324.253	799.62
324.482	1156.62
324.71	1770.62
324.939	2599.62
325.168	2255.62
325.397	1196.62
325.626	791.62
325.855	638.62
326.084	582.62
326.313	567.62
326.542	571.62
326.77	631.62
326.999	733.62
327.228	1001.62
327.457	1591.62
327.686	1983.62
327.914	1356.62
328.143	840.62
328.372	721.62
328.6	691.62
328.829	661.62
329.058	665.62
329.287	671.62
329.515	614.62
329.744	588.62
329.972	559.62
330.201	585.62
330.43	643.62
330.658	666.62
330.887	692.62
331.115	663.62
331.344	588.62
331.572	543.62
331.801	531.62
332.03	505.62
332.258	501.62
332.486	479.62
332.715	482.62
332.943	453.62
333.172	444.62
333.4	438.62
333.629	461.62
333.857	483.62
334.085	489.62
334.314	502.62
334.542	563.62
334.771	569.62
334.999	513.62
335.227	464.62
335.455	466.62
335.684	443.62
335.912	455.62
336.14	419.62
336.369	431.62
336.597	438.62
336.825	435.62
337.053	445.62
337.281	434.62
337.51	435.62
337.738	420.62
337.966	429.62
338.194	433.62
338.422	443.62
338.65	418.62
338.878	423.62
339.106	420.62
339.334	433.62
339.562	417.62
339.79	428.62
340.018	438.62
340.246	450.62
340.474	449.62
340.702	411.62
340.93	446.62
341.158	408.62
341.386	433.62
341.614	441.62
341.842	431.62
342.07	395.62
342.298	399.62
342.526	409.62
342.754	411.62
342.981	402.62
343.209	407.62
343.437	400.62
343.665	412.62
343.893	391.62
344.12	409.62
344.348	412.62
344.576	406.62
344.804	418.62
345.031	460.62
345.259	448.62
345.487	438.62
345.714	445.62
345.942	423.62
346.17	405.62
346.397	429.62
346.625	402.62
346.853	411.62
347.08	410.62
347.308	413.62
347.535	423.62
347.763	431.62
347.99	441.62
348.218	414.62
348.445	444.62
348.673	415.62
348.9	418.62
349.128	409.62
349.355	406.62
349.583	420.62
349.81	404.62
350.037	400.62
350.265	404.62
350.492	375.62
350.72	402.62
350.947	414.62
351.174	417.62
351.402	432.62
351.629	433.62
351.856	428.62
352.083	434.62
352.311	429.62
352.538	437.62
352.765	444.62
352.992	412.62
353.22	433.62
353.447	421.62
353.674	428.62
353.901	394.62
354.128	376.62
354.355	370.62
354.583	377.62
354.81	377.62
355.037	377.62
355.264	374.62
355.491	395.62
355.718	366.62
355.945	369.62
356.172	353.62
356.399	371.62
356.626	373.62
356.853	383.62
357.08	374.62
357.307	369.62
357.534	356.62
357.761	360.62
357.988	357.62
358.215	383.62
358.441	377.62
358.668	378.62
358.895	383.62
359.122	385.62
359.349	405.62
359.576	444.62
359.802	450.62
360.029	486.62
360.256	486.62
360.483	476.62
360.709	433.62
360.936	423.62
361.163	413.62
361.39	423.62
361.616	410.62
361.843	403.62
362.07	410.62
362.296	426.62
362.523	424.62
362.749	389.62
362.976	397.62
363.203	393.62
363.429	408.62
363.656	391.62
363.882	381.62
364.109	385.62
364.335	358.62
364.562	403.62
364.788	385.62
365.015	387.62
365.241	379.62
365.468	407.62
365.694	420.62
365.92	398.62
366.147	401.62
366.373	391.62
366.599	391.62
366.826	386.62
367.052	383.62
367.278	387.62
367.505	399.62
367.731	397.62
367.957	387.62
368.184	365.62
368.41	399.62
368.636	407.62
368.862	421.62
369.089	400.62
369.315	387.62
369.541	375.62
369.767	376.62
369.993	383.62
370.219	396.62
370.445	378.62
370.672	366.62
370.898	370.62
371.124	382.62
371.35	373.62
371.576	378.62
371.802	372.62
372.028	380.62
372.254	373.62
372.48	367.62
372.706	369.62
372.932	385.62
373.158	385.62
373.384	374.62
373.61	379.62
373.835	380.62
374.061	371.62
374.287	381.62
374.513	374.62
374.739	365.62
374.965	397.62
375.191	375.62
375.416	382.62
375.642	380.62
375.868	359.62
376.094	363.62
376.319	360.62
376.545	357.62
376.771	361.62
376.997	359.62
377.222	366.62
377.448	371.62
377.674	370.62
377.899	377.62
378.125	367.62
378.35	359.62
378.576	366.62
378.802	357.62
379.027	374.62
379.253	357.62
379.478	355.62
379.704	361.62
379.929	407.62
380.155	394.62
380.38	375.62
380.606	376.62
380.831	372.62
381.057	399.62
381.282	393.62
381.507	370.62
381.733	364.62
381.958	375.62
382.184	385.62
382.409	366.62
382.634	388.62
382.86	386.62
383.085	386.62
383.31	376.62
383.535	376.62
383.761	381.62
383.986	387.62
384.211	379.62
384.436	365.62
384.662	379.62
384.887	385.62
385.112	381.62
385.337	403.62
385.562	385.62
385.787	382.62
386.013	417.62
386.238	389.62
386.463	410.62
386.688	389.62
386.913	376.62
387.138	395.62
387.363	388.62
387.588	396.62
387.813	409.62
388.038	388.62
388.263	406.62
388.488	388.62
388.713	394.62
388.938	409.62
389.163	409.62
389.387	412.62
389.612	387.62
389.837	394.62
390.062	395.62
390.287	405.62
390.512	388.62
390.736	394.62
390.961	395.62
391.186	398.62
391.411	386.62
391.636	423.62
391.86	406.62
392.085	405.62
392.31	396.62
392.534	409.62
392.759	409.62
392.984	420.62
393.208	397.62
393.433	394.62
393.658	389.62
393.882	381.62
394.107	404.62
394.331	403.62
394.556	408.62
394.78	398.62
395.005	403.62
395.229	409.62
395.454	424.62
395.678	416.62
395.903	415.62
396.127	467.62
396.352	422.62
396.576	404.62
396.801	415.62
397.025	422.62
397.249	433.62
397.474	404.62
397.698	430.62
397.922	438.62
398.147	454.62
398.371	445.62
398.595	435.62
398.82	434.62
399.044	439.62
399.268	447.62
399.492	482.62
399.717	515.62
399.941	508.62
400.165	531.62
400.389	586.62
400.613	514.62
400.837	479.62
401.062	473.62
401.286	451.62
401.51	451.62
401.734	450.62
401.958	454.62
402.182	457.62
402.406	458.62
402.63	485.62
402.854	445.62
403.078	476.62
403.302	462.62
403.526	484.62
403.75	468.62
403.974	439.62
404.198	459.62
404.422	444.62
404.645	478.62
404.869	474.62
405.093	504.62
405.317	580.62
405.541	579.62
405.765	521.62
405.988	505.62
406.212	508.62
406.436	531.62
406.66	571.62
406.883	525.62
407.107	558.62
407.331	584.62
407.555	642.62
407.778	629.62
408.002	583.62
408.226	540.62
408.449	510.62
408.673	536.62
408.896	574.62
409.12	590.62
409.344	573.62
409.567	500.62
409.791	501.62
410.014	459.62
410.238	470.62
410.461	461.62
410.685	493.62
410.908	507.62
411.132	532.62
411.355	574.62
411.578	543.62
411.802	481.62
412.025	455.62
412.249	488.62
412.472	514.62
412.695	543.62
412.919	540.62
413.142	495.62
413.365	480.62
413.589	466.62
413.812	431.62
414.035	453.62
414.258	452.62
414.482	427.62
414.705	433.62
414.928	453.62
415.151	454.62
415.374	452.62
415.597	472.62
415.821	459.62
416.044	445.62
416.267	447.62
416.49	462.62
416.713	455.62
416.936	444.62
417.159	451.62
417.382	462.62
417.605	462.62
417.828	472.62
418.051	497.62
418.274	471.62
418.497	459.62
418.72	453.62
418.943	441.62
419.166	465.62
419.389	485.62
419.611	478.62
419.834	487.62
420.057	498.62
420.28	488.62
420.503	461.62
420.726	483.62
420.948	506.62
421.171	550.62
421.394	581.62
421.617	495.62
421.839	481.62
422.062	483.62
422.285	493.62
422.507	576.62
422.73	631.62
422.953	595.62
423.175	526.62
423.398	493.62
423.621	516.62
423.843	540.62
424.066	519.62
424.288	527.62
424.511	556.62
424.733	611.62
424.956	702.62
425.178	681.62
425.401	656.62
425.623	682.62
425.846	567.62
426.068	551.62
426.291	551.62
426.513	506.62
426.735	546.62
426.958	609.62
427.18	700.62
427.402	799.62
427.625	917.62
427.847	803.62
428.069	669.62
428.292	607.62
428.514	555.62
428.736	540.62
428.958	511.62
429.181	487.62
429.403	493.62
429.625	513.62
429.847	529.62
430.069	609.62
430.292	616.62
430.514	528.62
430.736	480.62
430.958	478.62
431.18	486.62
431.402	453.62
431.624	463.62
431.846	444.62
432.068	437.62
432.29	459.62
432.512	458.62
432.734	466.62
432.956	478.62
433.178	464.62
433.4	498.62
433.622	472.62
433.844	478.62
434.066	478.62
434.287	451.62
434.509	459.62
434.731	464.62
434.953	453.62
435.175	504.62
435.397	525.62
435.618	545.62
435.84	585.62
436.062	699.62
436.284	756.62
436.505	625.62
436.727	579.62
436.949	499.62
437.17	491.62
437.392	509.62
437.614	529.62
437.835	581.62
438.057	677.62
438.278	789.62
438.5	769.62
438.721	847.62
438.943	812.62
439.165	630.62
439.386	602.62
439.608	581.62
439.829	575.62
440.05	578.62
440.272	639.62
440.493	591.62
440.715	563.62
440.936	516.62
441.158	523.62
441.379	491.62
441.6	504.62
441.822	551.62
442.043	603.62
442.264	664.62
442.486	718.62
442.707	594.62
442.928	567.62
443.149	575.62
443.371	600.62
443.592	639.62
443.813	737.62
444.034	789.62
444.255	652.62
444.476	548.62
444.698	544.62
444.919	538.62
445.14	627.62
445.361	597.62
445.582	605.62
445.803	675.62
446.024	765.62
446.245	801.62
446.466	719.62
446.687	610.62
446.908	571.62
447.129	538.62
447.35	515.62
447.571	483.62
447.792	489.62
448.013	509.62
448.234	531.62
448.455	583.62
448.675	678.62
448.896	806.62
449.117	698.62
449.338	635.62
449.559	749.62
449.779	833.62
450	667.62
450.221	557.62
450.442	535.62
450.662	487.62
450.883	516.62
451.104	521.62
451.324	518.62
451.545	498.62
451.766	462.62
451.986	453.62
452.207	456.62
452.428	452.62
452.648	452.62
452.869	451.62
453.089	451.62
453.31	477.62
453.53	467.62
453.751	466.62
453.971	460.62
454.192	464.62
454.412	473.62
454.633	466.62
454.853	442.62
455.073	421.62
455.294	458.62
455.514	555.62
455.734	533.62
455.955	450.62
456.175	419.62
456.395	405.62
456.616	414.62
456.836	410.62
457.056	405.62
457.276	403.62
457.497	405.62
457.717	422.62
457.937	422.62
458.157	426.62
458.377	446.62
458.598	470.62
458.818	558.62
459.038	638.62
459.258	643.62
459.478	530.62
459.698	478.62
459.918	454.62
460.138	446.62
460.358	454.62
460.578	440.62
460.798	459.62
461.018	483.62
461.238	468.62
461.458	434.62
461.678	444.62
461.898	417.62
462.118	445.62
462.338	488.62
462.558	445.62
462.777	426.62
462.997	476.62
463.217	460.62
463.437	467.62
463.657	459.62
463.876	443.62
464.096	476.62
464.316	482.62
464.536	473.62
464.755	490.62
464.975	517.62
465.195	563.62
465.414	652.62
465.634	573.62
465.854	519.62
466.073	507.62
466.293	457.62
466.512	448.62
466.732	440.62
466.951	438.62
467.171	446.62
467.391	436.62
467.61	470.62
467.829	490.62
468.049	468.62
468.268	477.62
468.488	462.62
468.707	441.62
468.927	445.62
469.146	428.62
469.365	440.62
469.585	434.62
469.804	460.62
470.023	481.62
470.243	455.62
470.462	470.62
470.681	463.62
470.901	504.62
471.12	471.62
471.339	438.62
471.558	460.62
471.777	454.62
471.997	463.62
472.216	454.62
472.435	527.62
472.654	497.62
472.873	459.62
473.092	451.62
473.311	456.62
473.53	451.62
473.749	457.62
473.968	536.62
474.187	625.62
474.406	653.62
474.625	538.62
474.844	471.62
475.063	461.62
475.282	458.62
475.501	466.62
475.72	488.62
475.939	478.62
476.158	467.62
476.377	465.62
476.596	473.62
476.814	469.62
477.033	510.62
477.252	483.62
477.471	488.62
477.69	485.62
477.908	503.62
478.127	496.62
478.346	485.62
478.564	501.62
478.783	511.62
479.002	509.62
479.22	510.62
479.439	525.62
479.658	556.62
479.876	546.62
480.095	548.62
480.313	581.62
480.532	577.62
480.751	556.62
480.969	603.62
481.188	666.62
481.406	705.62
481.624	611.62
481.843	578.62
482.061	575.62
482.28	555.62
482.498	538.62
482.717	524.62
482.935	558.62
483.153	537.62
483.372	575.62
483.59	551.62
483.808	521.62
484.027	555.62
484.245	558.62
484.463	534.62
484.681	579.62
484.9	550.62
485.118	543.62
485.336	561.62
485.554	575.62
485.772	551.62
485.99	555.62
486.209	571.62
486.427	548.62
486.645	567.62
486.863	602.62
487.081	613.62
487.299	576.62
487.517	594.62
487.735	598.62
487.953	578.62
488.171	581.62
488.389	578.62
488.607	595.62
488.825	572.62
489.043	596.62
489.261	610.62
489.479	585.62
489.696	619.62
489.914	595.62
490.132	600.62
490.35	627.62
490.568	638.62
490.786	641.62
491.003	620.62
491.221	653.62
491.439	641.62
491.657	682.62
491.874	670.62
492.092	678.62
492.31	690.62
492.527	702.62
492.745	700.62
492.963	678.62
493.18	692.62
493.398	689.62
493.615	697.62
493.833	717.62
494.05	718.62
494.268	722.62
494.485	699.62
494.703	696.62
494.92	686.62
495.138	706.62
495.355	678.62
495.573	712.62
495.79	711.62
496.008	720.62
496.225	726.62
496.442	694.62
496.66	691.62
496.877	694.62
497.094	696.62
497.312	709.62
497.529	701.62
497.746	721.62
497.963	731.62
498.181	749.62
498.398	757.62
498.615	734.62
498.832	748.62
499.049	770.62
499.267	740.62
499.484	791.62
499.701	793.62
499.918	826.62
500.135	819.62
500.352	833.62
500.569	855.62
500.786	844.62
501.003	855.62
501.22	841.62
501.437	850.62
501.654	830.62
501.871	833.62
502.088	835.62
502.305	803.62
502.522	786.62
502.739	747.62
502.956	726.62
503.172	733.62
503.389	740.62
503.606	714.62
503.823	735.62
504.04	712.62
504.256	718.62
504.473	691.62
504.69	679.62
504.907	695.62
505.123	701.62
505.34	669.62
505.557	687.62
505.773	684.62
505.99	686.62
506.207	698.62
506.423	677.62
506.64	670.62
506.856	669.62
507.073	690.62
507.289	670.62
507.506	670.62
507.722	663.62
507.939	723.62
508.155	685.62
508.372	663.62
508.588	641.62
508.805	646.62
509.021	653.62
509.238	685.62
509.454	689.62
509.67	692.62
509.887	676.62
510.103	677.62
510.319	686.62
510.536	809.62
510.752	1390.62
510.968	1110.62
511.184	691.62
511.401	679.62
511.617	645.62
511.833	658.62
512.049	637.62
512.265	636.62
512.481	610.62
512.698	601.62
512.914	621.62
513.13	616.62
513.346	625.62
513.562	618.62
513.778	638.62
513.994	657.62
514.21	689.62
514.426	708.62
514.642	777.62
514.858	758.62
515.074	838.62
515.29	1031.62
515.506	1618.62
515.721	1281.62
515.937	829.62
516.153	718.62
516.369	691.62
516.585	662.62
516.801	629.62
517.016	654.62
517.232	641.62
517.448	645.62
517.664	655.62
517.879	625.62
518.095	632.62
518.311	612.62
518.527	623.62
518.742	605.62
518.958	649.62
519.173	628.62
519.389	629.62
519.605	615.62
519.82	618.62
520.036	655.62
520.251	658.62
520.467	715.62
520.682	727.62
520.898	704.62
521.113	804.62
521.329	814.62
521.544	984.62
521.76	1262.62
521.975	2194.62
522.19	2117.62
522.406	1105.62
522.621	777.62
522.836	668.62
523.052	665.62
523.267	650.62
523.482	618.62
523.698	598.62
523.913	620.62
524.128	583.62
524.343	575.62
524.559	572.62
524.774	542.62
524.989	552.62
525.204	553.62
525.419	557.62
525.634	537.62
525.849	534.62
526.064	517.62
526.28	517.62
526.495	506.62
526.71	507.62
526.925	527.62
527.14	513.62
527.355	505.62
527.57	494.62
527.785	484.62
527.999	506.62
528.214	489.62
528.429	500.62
528.644	509.62
528.859	502.62
529.074	502.62
529.289	527.62
529.503	631.62
529.718	617.62
529.933	561.62
530.148	513.62
530.363	503.62
530.577	498.62
530.792	471.62
531.007	473.62
531.221	484.62
531.436	479.62
531.651	450.62
531.865	461.62
532.08	474.62
532.295	475.62
532.509	468.62
532.724	474.62
532.938	459.62
533.153	483.62
533.367	481.62
533.582	484.62
533.796	450.62
534.011	455.62
534.225	444.62
534.44	455.62
534.654	443.62
534.868	451.62
535.083	455.62
535.297	457.62
535.511	456.62
535.726	486.62
535.94	473.62
536.154	463.62
536.369	476.62
536.583	461.62
536.797	451.62
537.011	454.62
537.225	456.62
537.44	456.62
537.654	449.62
537.868	439.62
538.082	448.62
538.296	451.62
538.51	454.62
538.724	453.62
538.938	452.62
539.153	447.62
539.367	468.62
539.581	458.62
539.795	455.62
540.009	437.62
540.222	452.62
540.436	453.62
540.65	459.62
540.864	448.62
541.078	469.62
541.292	474.62
541.506	455.62
541.72	436.62
541.934	451.62
542.147	453.62
542.361	455.62
542.575	450.62
542.789	436.62
543.002	438.62
543.216	450.62
543.43	428.62
543.644	451.62
543.857	434.62
544.071	447.62
544.285	468.62
544.498	443.62
544.712	441.62
544.925	421.62
545.139	439.62
545.352	432.62
545.566	428.62
545.779	408.62
545.993	425.62
546.206	424.62
546.42	445.62
546.633	412.62
546.847	413.62
547.06	415.62
547.274	429.62
547.487	402.62
547.7	393.62
547.914	414.62
548.127	410.62
548.34	418.62
548.554	419.62
548.767	410.62
548.98	400.62
549.193	403.62
549.407	403.62
549.62	431.62
549.833	409.62
550.046	425.62
550.259	419.62
550.473	417.62
550.686	397.62
550.899	409.62
551.112	409.62
551.325	412.62
551.538	391.62
551.751	405.62
551.964	399.62
552.177	388.62
552.39	390.62
552.603	425.62
552.816	412.62
553.029	407.62
553.242	399.62
553.455	410.62
553.667	449.62
553.88	433.62
554.093	426.62
554.306	425.62
554.519	418.62
554.732	418.62
554.944	413.62
555.157	391.62
555.37	380.62
555.583	389.62
555.795	391.62
556.008	396.62
556.221	382.62
556.433	386.62
556.646	386.62
556.859	390.62
557.071	390.62
557.284	391.62
557.496	381.62
557.709	381.62
557.921	382.62
558.134	389.62
558.346	372.62
558.559	359.62
558.771	372.62
558.984	381.62
559.196	360.62
559.409	369.62
559.621	343.62
559.833	344.62
560.046	366.62
560.258	389.62
560.47	363.62
560.683	377.62
560.895	376.62
561.107	382.62
561.32	378.62
561.532	386.62
561.744	382.62
561.956	365.62
562.168	370.62
562.381	379.62
562.593	380.62
562.805	366.62
563.017	360.62
563.229	380.62
563.441	377.62
563.653	379.62
563.865	362.62
564.077	372.62
564.289	385.62
564.501	374.62
564.713	381.62
564.925	399.62
565.137	390.62
565.349	400.62
565.561	386.62
565.773	373.62
565.985	383.62
566.197	398.62
566.408	414.62
566.62	425.62
566.832	426.62
567.044	435.62
567.255	404.62
567.467	415.62
567.679	424.62
567.891	424.62
568.102	434.62
568.314	398.62
568.526	406.62
568.737	406.62
568.949	385.62
569.161	387.62
569.372	397.62
569.584	399.62
569.795	370.62
570.007	357.62
570.218	425.62
570.43	399.62
570.641	361.62
570.853	376.62
571.064	359.62
571.276	361.62
571.487	350.62
571.698	344.62
571.91	354.62
572.121	331.62
572.333	340.62
572.544	353.62
572.755	330.62
572.966	347.62
573.178	328.62
573.389	332.62
573.6	338.62
573.811	330.62
574.023	330.62
574.234	335.62
574.445	317.62
574.656	331.62
574.867	329.62
575.078	308.62
575.289	326.62
575.501	334.62
575.712	323.62
575.923	313.62
576.134	315.62
576.345	302.62
576.556	322.62
576.767	317.62
576.978	317.62
577.188	313.62
577.399	298.62
577.61	309.62
577.821	306.62
578.032	332.62
578.243	389.62
578.454	647.62
578.665	440.62
578.875	342.62
579.086	317.62
579.297	301.62
579.508	286.62
579.718	295.62
579.929	293.62
580.14	302.62
580.35	300.62
580.561	301.62
580.772	302.62
580.982	314.62
581.193	302.62
581.403	308.62
581.614	293.62
581.825	276.62
582.035	308.62
582.246	294.62
582.456	290.62
582.667	293.62
582.877	296.62
583.087	290.62
583.298	291.62
583.508	272.62
583.719	290.62
583.929	303.62
584.139	291.62
584.35	271.62
584.56	285.62
584.77	295.62
584.981	294.62
585.191	304.62
585.401	294.62
585.611	297.62
585.821	297.62
586.032	297.62
586.242	292.62
586.452	267.62
586.662	282.62
586.872	288.62
587.082	298.62
587.292	277.62
587.502	279.62
587.713	277.62
587.923	266.62
588.133	283.62
588.343	282.62
588.553	267.62
588.762	277.62
588.972	284.62
589.182	285.62
589.392	276.62
589.602	276.62
589.812	292.62
590.022	284.62
590.232	280.62
590.441	293.62
590.651	277.62
590.861	270.62
591.071	275.62
591.281	291.62
591.49	285.62
591.7	289.62
591.91	290.62
592.119	272.62
592.329	291.62
592.539	285.62
592.748	282.62
592.958	292.62
593.167	269.62
593.377	288.62
593.587	294.62
593.796	307.62
594.006	298.62
594.215	300.62
594.424	289.62
594.634	269.62
594.843	275.62
595.053	281.62
595.262	278.62
595.472	253.62
595.681	267.62
595.89	276.62
596.1	277.62
596.309	286.62
596.518	281.62
596.727	259.62
596.937	282.62
597.146	257.62
597.355	262.62
597.564	249.62
597.774	264.62
597.983	260.62
598.192	247.62
598.401	280.62
598.61	268.62
598.819	276.62
599.028	254.62
599.237	247.62
599.446	250.62
599.655	263.62
599.864	250.62
600.073	265.62
600.282	246.62
600.491	260.62
600.7	272.62
600.909	241.62
601.118	243.62
601.327	241.62
601.536	242.62
601.745	249.62
601.953	240.62
602.162	260.62
602.371	263.62
602.58	254.62
602.789	252.62
602.997	244.62
603.206	243.62
603.415	246.62
603.623	237.62
603.832	257.62
604.041	243.62
604.249	245.62
604.458	234.62
604.666	237.62
604.875	239.62
605.084	241.62
605.292	232.62
605.501	223.62
605.709	247.62
605.918	249.62
606.126	245.62
606.334	222.62
606.543	235.62
606.751	240.62
606.96	236.62
607.168	234.62
607.376	226.62
607.585	230.62
607.793	244.62
608.001	244.62
608.21	246.62
608.418	242.62
608.626	235.62
608.834	227.62
609.043	236.62
609.251	233.62
609.459	231.62
609.667	241.62
609.875	235.62
610.083	251.62
610.291	217.62
610.499	229.62
610.707	250.62
610.916	244.62
611.124	248.62
611.332	245.62
611.54	250.62
611.748	238.62
611.955	231.62
612.163	228.62
612.371	229.62
612.579	248.62
612.787	230.62
612.995	234.62
613.203	232.62
613.411	226.62
613.618	241.62
613.826	243.62
614.034	238.62
614.242	253.62
614.449	240.62
614.657	239.62
614.865	237.62
615.072	251.62
615.28	230.62
615.488	228.62
615.695	217.62
615.903	203.62
616.111	219.62
616.318	232.62
616.526	222.62
616.733	228.62
616.941	228.62
617.148	226.62
617.356	231.62
617.563	209.62
617.771	222.62
617.978	213.62
618.185	240.62
618.393	235.62
618.6	230.62
618.807	230.62
619.015	233.62
619.222	217.62
619.429	216.62
619.637	222.62
619.844	228.62
620.051	226.62
620.258	203.62
620.466	217.62
620.673	220.62
620.88	225.62
621.087	221.62
621.294	207.62
621.501	224.62
621.708	211.62
621.915	207.62
622.122	225.62
622.329	206.62
622.536	223.62
622.743	201.62
622.95	212.62
623.157	204.62
623.364	209.62
623.571	201.62
623.778	210.62
623.985	204.62
624.192	209.62
624.399	209.62
624.606	217.62
624.812	200.62
625.019	208.62
625.226	210.62
625.433	197.62
625.639	192.62
625.846	202.62
626.053	218.62
626.259	206.62
626.466	199.62
626.673	188.62
626.879	199.62
627.086	201.62
627.293	202.62
627.499	221.62
627.706	211.62
627.912	207.62
628.119	198.62
628.325	194.62
628.532	195.62
628.738	213.62
628.945	202.62
629.151	202.62
629.357	186.62
629.564	200.62
629.77	206.62
629.976	198.62
630.183	187.62
630.389	194.62
630.595	183.62
630.802	186.62
631.008	185.62
631.214	188.62
631.42	201.62
631.627	195.62
631.833	193.62
632.039	191.62
632.245	177.62
632.451	188.62
632.657	183.62
632.863	194.62
633.069	196.62
633.275	177.62
633.481	196.62
633.688	187.62
633.893	195.62
634.099	183.62
634.305	172.62
634.511	179.62
634.717	186.62
634.923	163.62
635.129	182.62
635.335	180.62
635.541	165.62
635.747	194.62
635.952	177.62
636.158	170.62
636.364	177.62
636.57	181.62
636.775	174.62
636.981	183.62
637.187	185.62
637.392	167.62
637.598	181.62
637.804	165.62
638.009	191.62
638.215	177.62
638.421	179.62
638.626	174.62
638.832	169.62
639.037	172.62
639.243	172.62
639.448	183.62
639.654	193.62
639.859	166.62
640.065	194.62
640.27	163.62
640.475	171.62
640.681	154.62
640.886	180.62
641.091	165.62
641.297	182.62
641.502	161.62
641.707	163.62
641.913	167.62
642.118	170.62
642.323	173.62
642.528	179.62
642.733	173.62
642.939	169.62
643.144	158.62
643.349	173.62
643.554	174.62
643.759	164.62
643.964	188.62
644.169	184.62
644.374	163.62
644.579	180.62
644.784	154.62
644.989	169.62
645.194	162.62
645.399	167.62
645.604	154.62
645.809	158.62
646.014	174.62
646.219	158.62
646.423	171.62
646.628	165.62
646.833	164.62
647.038	143.62
647.243	174.62
647.447	164.62
647.652	155.62
647.857	161.62
648.062	171.62
648.266	166.62
648.471	174.62
648.676	167.62
648.88	162.62
649.085	163.62
649.289	154.62
649.494	178.62
649.698	195.62
649.903	171.62
650.107	178.62
650.312	155.62
650.516	155.62
650.721	158.62
650.925	153.62
651.13	145.62
651.334	157.62
651.539	158.62
651.743	151.62
651.947	133.62
652.152	141.62
652.356	145.62
652.56	139.62
652.764	140.62
652.969	145.62
653.173	153.62
653.377	142.62
653.581	151.62
653.785	147.62
653.99	138.62
654.194	139.62
654.398	124.62
654.602	138.62
654.806	126.62
655.01	136.62
655.214	147.62
655.418	149.62
655.622	126.62
655.826	139.62
656.03	132.62
656.234	133.62
656.438	133.62
656.642	152.62
656.846	136.62
657.049	114.62
657.253	129.62
657.457	132.62
657.661	108.62
657.865	117.62
658.068	130.62
658.272	106.62
658.476	83.62
658.68	109.62
658.883	109.62
659.087	108.62
659.291	114.62
659.494	106.62
659.698	97.62
659.901	95.62
660.105	103.62
660.309	101.62
660.512	93.62
660.716	100.62
660.919	95.62
661.123	93.62
661.326	97.62
661.53	101.62
661.733	99.62
661.936	92.62
662.14	96.62
662.343	92.62
662.546	70.62
662.75	92.62
662.953	89.62
663.156	86.62
663.36	82.62
663.563	93.62
663.766	80.62
663.969	93.62
664.173	83.62
664.376	100.62
664.579	83.62
664.782	78.62
664.985	90.62
665.188	87.62
665.391	87.62
665.594	91.62
665.797	85.62
666	85.62
666.203	87.62
666.406	92.62
666.609	79.62
666.812	93.62
667.015	84.62
667.218	91.62
667.421	84.62
667.624	90.62
667.827	80.62
668.03	85.62
668.232	88.62
668.435	73.62
668.638	75.62
668.841	78.62
669.043	88.62
669.246	81.62
669.449	87.62
669.651	99.62
669.854	95.62
670.057	73.62
670.259	99.62
670.462	92.62
670.665	78.62
670.867	89.62
671.07	90.62
671.272	79.62
671.475	91.62
671.677	83.62
671.88	88.62
672.082	79.62
672.284	88.62
672.487	79.62
672.689	85.62
672.892	84.62
