Data from 1980.PennyLincolnUp.Lamp.En5.5.200Scan.071819.P1_HRD10591_16-37-07-956.txt Node
Date: Thu Jul 18 16:37:07 EDT 2019
User: cochatt
Spectrometer: HR+D1059
Trigger mode: 1
Integration Time (sec): 1.000000E-1
Scans to average: 1
Electric dark correction enabled: true
Nonlinearity correction enabled: false
Boxcar width: 0
XAxis mode: Wavelengths
Number of Pixels in Spectrum: 2048
>>>>>Begin Spectral Data<<<<<
223.165	-6.5
223.4	-6.5
223.635	-6.5
223.869	-24.5
224.104	-9.5
224.338	-13.5
224.573	-15.5
224.808	-9.5
225.042	-1.5
225.277	-8.5
225.511	-9.5
225.746	-13.5
225.98	23.5
226.215	15.5
226.449	16.5
226.683	11.5
226.918	15.5
227.152	29.5
227.387	22.5
227.621	30.5
227.856	35.5
228.09	53.5
228.324	46.5
228.559	63.5
228.793	70.5
229.027	115.5
229.262	110.5
229.496	104.5
229.73	140.5
229.964	155.5
230.199	131.5
230.433	125.5
230.667	125.5
230.901	115.5
231.136	116.5
231.37	100.5
231.604	111.5
231.838	114.5
232.072	114.5
232.306	107.5
232.541	102.5
232.775	102.5
233.009	112.5
233.243	110.5
233.477	110.5
233.711	123.5
233.945	114.5
234.179	118.5
234.413	108.5
234.647	119.5
234.881	113.5
235.115	120.5
235.349	116.5
235.583	110.5
235.817	118.5
236.051	136.5
236.285	125.5
236.519	135.5
236.753	141.5
236.987	142.5
237.221	183.5
237.455	258.5
237.689	194.5
237.922	147.5
238.156	130.5
238.39	125.5
238.624	132.5
238.858	120.5
239.091	125.5
239.325	118.5
239.559	124.5
239.793	125.5
240.027	126.5
240.26	142.5
240.494	146.5
240.728	156.5
240.961	158.5
241.195	141.5
241.429	141.5
241.662	150.5
241.896	132.5
242.13	135.5
242.363	138.5
242.597	138.5
242.83	138.5
243.064	134.5
243.298	140.5
243.531	122.5
243.765	129.5
243.998	136.5
244.232	153.5
244.465	150.5
244.699	140.5
244.932	143.5
245.166	148.5
245.399	138.5
245.633	143.5
245.866	144.5
246.099	134.5
246.333	156.5
246.566	143.5
246.8	156.5
247.033	158.5
247.266	160.5
247.5	165.5
247.733	156.5
247.966	167.5
248.2	170.5
248.433	185.5
248.666	181.5
248.899	178.5
249.133	207.5
249.366	219.5
249.599	194.5
249.832	180.5
250.066	197.5
250.299	181.5
250.532	198.5
250.765	215.5
250.998	227.5
251.231	223.5
251.465	223.5
251.698	217.5
251.931	210.5
252.164	207.5
252.397	194.5
252.63	200.5
252.863	209.5
253.096	198.5
253.329	229.5
253.562	236.5
253.795	235.5
254.028	219.5
254.261	219.5
254.494	230.5
254.727	250.5
254.96	284.5
255.193	262.5
255.426	248.5
255.659	234.5
255.892	237.5
256.124	242.5
256.357	248.5
256.59	229.5
256.823	218.5
257.056	202.5
257.289	216.5
257.521	216.5
257.754	219.5
257.987	219.5
258.22	219.5
258.452	222.5
258.685	208.5
258.918	215.5
259.151	197.5
259.383	215.5
259.616	235.5
259.849	226.5
260.081	235.5
260.314	243.5
260.547	262.5
260.779	262.5
261.012	230.5
261.244	232.5
261.477	236.5
261.71	222.5
261.942	234.5
262.175	229.5
262.407	230.5
262.64	234.5
262.872	218.5
263.105	208.5
263.337	218.5
263.57	221.5
263.802	210.5
264.035	214.5
264.267	208.5
264.499	194.5
264.732	204.5
264.964	209.5
265.197	207.5
265.429	221.5
265.661	222.5
265.894	217.5
266.126	209.5
266.358	226.5
266.591	214.5
266.823	208.5
267.055	214.5
267.287	200.5
267.52	229.5
267.752	217.5
267.984	215.5
268.216	211.5
268.448	233.5
268.681	234.5
268.913	239.5
269.145	260.5
269.377	284.5
269.609	277.5
269.841	262.5
270.073	262.5
270.306	293.5
270.538	323.5
270.77	296.5
271.002	290.5
271.234	271.5
271.466	282.5
271.698	310.5
271.93	321.5
272.162	328.5
272.394	316.5
272.626	314.5
272.858	284.5
273.09	269.5
273.322	280.5
273.553	260.5
273.785	254.5
274.017	260.5
274.249	240.5
274.481	250.5
274.713	268.5
274.945	264.5
275.176	252.5
275.408	260.5
275.64	271.5
275.872	258.5
276.104	267.5
276.335	268.5
276.567	266.5
276.799	270.5
277.031	306.5
277.262	322.5
277.494	334.5
277.726	300.5
277.957	290.5
278.189	262.5
278.421	250.5
278.652	278.5
278.884	250.5
279.115	241.5
279.347	258.5
279.579	248.5
279.81	237.5
280.042	244.5
280.273	257.5
280.505	270.5
280.736	264.5
280.968	259.5
281.199	247.5
281.431	256.5
281.662	251.5
281.894	258.5
282.125	256.5
282.356	268.5
282.588	292.5
282.819	287.5
283.051	264.5
283.282	259.5
283.513	248.5
283.745	259.5
283.976	250.5
284.207	280.5
284.439	250.5
284.67	260.5
284.901	274.5
285.132	261.5
285.364	248.5
285.595	251.5
285.826	249.5
286.057	268.5
286.288	268.5
286.52	264.5
286.751	262.5
286.982	240.5
287.213	246.5
287.444	266.5
287.675	270.5
287.906	276.5
288.138	273.5
288.369	278.5
288.6	270.5
288.831	283.5
289.062	271.5
289.293	277.5
289.524	271.5
289.755	272.5
289.986	279.5
290.217	289.5
290.448	266.5
290.679	270.5
290.91	264.5
291.141	241.5
291.371	253.5
291.602	263.5
291.833	247.5
292.064	276.5
292.295	252.5
292.526	247.5
292.757	277.5
292.987	269.5
293.218	262.5
293.449	255.5
293.68	264.5
293.91	246.5
294.141	264.5
294.372	257.5
294.603	249.5
294.833	269.5
295.064	264.5
295.295	278.5
295.525	263.5
295.756	277.5
295.987	280.5
296.217	302.5
296.448	302.5
296.679	271.5
296.909	274.5
297.14	280.5
297.37	284.5
297.601	261.5
297.831	272.5
298.062	272.5
298.292	279.5
298.523	281.5
298.753	280.5
298.984	258.5
299.214	280.5
299.445	286.5
299.675	278.5
299.905	285.5
300.136	295.5
300.366	294.5
300.597	287.5
300.827	289.5
301.057	307.5
301.288	292.5
301.518	294.5
301.748	289.5
301.979	314.5
302.209	302.5
302.439	286.5
302.669	303.5
302.9	302.5
303.13	301.5
303.36	286.5
303.59	320.5
303.82	320.5
304.051	313.5
304.281	308.5
304.511	291.5
304.741	297.5
304.971	288.5
305.201	291.5
305.431	284.5
305.661	286.5
305.891	312.5
306.121	299.5
306.352	290.5
306.582	315.5
306.812	313.5
307.042	309.5
307.272	310.5
307.502	304.5
307.731	307.5
307.961	300.5
308.191	290.5
308.421	300.5
308.651	306.5
308.881	323.5
309.111	317.5
309.341	327.5
309.571	334.5
309.8	335.5
310.03	354.5
310.26	341.5
310.49	350.5
310.72	372.5
310.949	371.5
311.179	392.5
311.409	370.5
311.639	355.5
311.868	350.5
312.098	348.5
312.328	366.5
312.557	394.5
312.787	392.5
313.017	399.5
313.246	373.5
313.476	361.5
313.706	351.5
313.935	352.5
314.165	376.5
314.394	382.5
314.624	391.5
314.853	362.5
315.083	361.5
315.312	345.5
315.542	339.5
315.771	345.5
316.001	335.5
316.23	338.5
316.46	346.5
316.689	334.5
316.919	350.5
317.148	371.5
317.377	360.5
317.607	367.5
317.836	380.5
318.065	364.5
318.295	355.5
318.524	357.5
318.753	349.5
318.983	358.5
319.212	358.5
319.441	350.5
319.67	370.5
319.9	344.5
320.129	352.5
320.358	340.5
320.587	370.5
320.816	379.5
321.046	381.5
321.275	377.5
321.504	367.5
321.733	374.5
321.962	394.5
322.191	394.5
322.42	411.5
322.649	444.5
322.878	434.5
323.108	456.5
323.337	467.5
323.566	484.5
323.795	550.5
324.024	573.5
324.253	740.5
324.482	1026.5
324.71	1567.5
324.939	2280.5
325.168	1997.5
325.397	1056.5
325.626	692.5
325.855	568.5
326.084	538.5
326.313	502.5
326.542	515.5
326.77	557.5
326.999	657.5
327.228	893.5
327.457	1406.5
327.686	1734.5
327.914	1190.5
328.143	792.5
328.372	668.5
328.6	606.5
328.829	587.5
329.058	592.5
329.287	607.5
329.515	558.5
329.744	526.5
329.972	507.5
330.201	512.5
330.43	572.5
330.658	617.5
330.887	628.5
331.115	616.5
331.344	520.5
331.572	509.5
331.801	488.5
332.03	475.5
332.258	457.5
332.486	426.5
332.715	419.5
332.943	428.5
333.172	422.5
333.4	412.5
333.629	428.5
333.857	450.5
334.085	447.5
334.314	452.5
334.542	503.5
334.771	508.5
334.999	451.5
335.227	422.5
335.455	412.5
335.684	426.5
335.912	405.5
336.14	390.5
336.369	390.5
336.597	392.5
336.825	445.5
337.053	399.5
337.281	375.5
337.51	400.5
337.738	399.5
337.966	396.5
338.194	403.5
338.422	416.5
338.65	402.5
338.878	396.5
339.106	385.5
339.334	382.5
339.562	379.5
339.79	359.5
340.018	390.5
340.246	392.5
340.474	401.5
340.702	404.5
340.93	376.5
341.158	407.5
341.386	400.5
341.614	388.5
341.842	405.5
342.07	391.5
342.298	379.5
342.526	387.5
342.754	368.5
342.981	360.5
343.209	376.5
343.437	372.5
343.665	375.5
343.893	375.5
344.12	392.5
344.348	402.5
344.576	394.5
344.804	400.5
345.031	427.5
345.259	426.5
345.487	420.5
345.714	391.5
345.942	406.5
346.17	396.5
346.397	382.5
346.625	402.5
346.853	394.5
347.08	382.5
347.308	410.5
347.535	402.5
347.763	415.5
347.99	409.5
348.218	389.5
348.445	408.5
348.673	412.5
348.9	403.5
349.128	384.5
349.355	373.5
349.583	372.5
349.81	363.5
350.037	368.5
350.265	375.5
350.492	374.5
350.72	387.5
350.947	358.5
351.174	396.5
351.402	415.5
351.629	404.5
351.856	391.5
352.083	420.5
352.311	402.5
352.538	412.5
352.765	417.5
352.992	398.5
353.22	390.5
353.447	383.5
353.674	362.5
353.901	379.5
354.128	380.5
354.355	383.5
354.583	362.5
354.81	376.5
355.037	340.5
355.264	342.5
355.491	346.5
355.718	330.5
355.945	348.5
356.172	351.5
356.399	341.5
356.626	355.5
356.853	354.5
357.08	355.5
357.307	328.5
357.534	350.5
357.761	352.5
357.988	350.5
358.215	355.5
358.441	347.5
358.668	362.5
358.895	358.5
359.122	379.5
359.349	374.5
359.576	391.5
359.802	421.5
360.029	470.5
360.256	465.5
360.483	451.5
360.709	424.5
360.936	375.5
361.163	388.5
361.39	410.5
361.616	381.5
361.843	382.5
362.07	367.5
362.296	402.5
362.523	368.5
362.749	404.5
362.976	390.5
363.203	379.5
363.429	379.5
363.656	379.5
363.882	370.5
364.109	359.5
364.335	376.5
364.562	350.5
364.788	353.5
365.015	372.5
365.241	374.5
365.468	389.5
365.694	392.5
365.92	377.5
366.147	382.5
366.373	353.5
366.599	361.5
366.826	370.5
367.052	362.5
367.278	349.5
367.505	367.5
367.731	370.5
367.957	354.5
368.184	380.5
368.41	370.5
368.636	360.5
368.862	394.5
369.089	373.5
369.315	357.5
369.541	360.5
369.767	363.5
369.993	372.5
370.219	361.5
370.445	372.5
370.672	384.5
370.898	374.5
371.124	323.5
371.35	367.5
371.576	348.5
371.802	351.5
372.028	360.5
372.254	351.5
372.48	350.5
372.706	343.5
372.932	346.5
373.158	366.5
373.384	363.5
373.61	364.5
373.835	365.5
374.061	361.5
374.287	362.5
374.513	354.5
374.739	357.5
374.965	348.5
375.191	384.5
375.416	350.5
375.642	349.5
375.868	391.5
376.094	362.5
376.319	357.5
376.545	354.5
376.771	369.5
376.997	351.5
377.222	358.5
377.448	357.5
377.674	356.5
377.899	340.5
378.125	348.5
378.35	349.5
378.576	354.5
378.802	340.5
379.027	340.5
379.253	357.5
379.478	333.5
379.704	356.5
379.929	366.5
380.155	357.5
380.38	358.5
380.606	337.5
380.831	354.5
381.057	362.5
381.282	355.5
381.507	351.5
381.733	358.5
381.958	362.5
382.184	350.5
382.409	349.5
382.634	362.5
382.86	370.5
383.085	356.5
383.31	377.5
383.535	352.5
383.761	379.5
383.986	359.5
384.211	367.5
384.436	361.5
384.662	379.5
384.887	349.5
385.112	357.5
385.337	353.5
385.562	382.5
385.787	354.5
386.013	374.5
386.238	390.5
386.463	380.5
386.688	376.5
386.913	370.5
387.138	379.5
387.363	388.5
387.588	365.5
387.813	368.5
388.038	383.5
388.263	376.5
388.488	385.5
388.713	385.5
388.938	389.5
389.163	372.5
389.387	401.5
389.612	374.5
389.837	378.5
390.062	382.5
390.287	364.5
390.512	374.5
390.736	376.5
390.961	392.5
391.186	360.5
391.411	370.5
391.636	370.5
391.86	379.5
392.085	378.5
392.31	396.5
392.534	378.5
392.759	387.5
392.984	363.5
393.208	376.5
393.433	378.5
393.658	386.5
393.882	364.5
394.107	380.5
394.331	370.5
394.556	364.5
394.78	384.5
395.005	363.5
395.229	372.5
395.454	370.5
395.678	392.5
395.903	381.5
396.127	404.5
396.352	422.5
396.576	399.5
396.801	390.5
397.025	380.5
397.249	386.5
397.474	380.5
397.698	373.5
397.922	400.5
398.147	413.5
398.371	406.5
398.595	409.5
398.82	381.5
399.044	425.5
399.268	421.5
399.492	438.5
399.717	461.5
399.941	480.5
400.165	500.5
400.389	540.5
400.613	452.5
400.837	443.5
401.062	432.5
401.286	429.5
401.51	424.5
401.734	426.5
401.958	420.5
402.182	426.5
402.406	429.5
402.63	455.5
402.854	448.5
403.078	448.5
403.302	431.5
403.526	438.5
403.75	434.5
403.974	436.5
404.198	426.5
404.422	448.5
404.645	438.5
404.869	463.5
405.093	490.5
405.317	523.5
405.541	532.5
405.765	493.5
405.988	466.5
406.212	500.5
406.436	495.5
406.66	524.5
406.883	503.5
407.107	516.5
407.331	552.5
407.555	602.5
407.778	588.5
408.002	564.5
408.226	516.5
408.449	505.5
408.673	481.5
408.896	510.5
409.12	556.5
409.344	518.5
409.567	479.5
409.791	459.5
410.014	454.5
410.238	453.5
410.461	446.5
410.685	474.5
410.908	459.5
411.132	488.5
411.355	509.5
411.578	500.5
411.802	447.5
412.025	464.5
412.249	466.5
412.472	488.5
412.695	520.5
412.919	516.5
413.142	458.5
413.365	445.5
413.589	422.5
413.812	417.5
414.035	400.5
414.258	401.5
414.482	412.5
414.705	416.5
414.928	425.5
415.151	442.5
415.374	418.5
415.597	404.5
415.821	416.5
416.044	418.5
416.267	410.5
416.49	402.5
416.713	413.5
416.936	410.5
417.159	410.5
417.382	415.5
417.605	419.5
417.828	436.5
418.051	440.5
418.274	439.5
418.497	441.5
418.72	429.5
418.943	414.5
419.166	434.5
419.389	458.5
419.611	439.5
419.834	453.5
420.057	439.5
420.28	456.5
420.503	444.5
420.726	439.5
420.948	462.5
421.171	507.5
421.394	547.5
421.617	491.5
421.839	464.5
422.062	471.5
422.285	464.5
422.507	517.5
422.73	578.5
422.953	563.5
423.175	514.5
423.398	480.5
423.621	475.5
423.843	493.5
424.066	500.5
424.288	482.5
424.511	502.5
424.733	569.5
424.956	624.5
425.178	626.5
425.401	626.5
425.623	646.5
425.846	556.5
426.068	494.5
426.291	500.5
426.513	498.5
426.735	516.5
426.958	554.5
427.18	634.5
427.402	739.5
427.625	826.5
427.847	732.5
428.069	630.5
428.292	561.5
428.514	520.5
428.736	494.5
428.958	475.5
429.181	476.5
429.403	467.5
429.625	453.5
429.847	500.5
430.069	586.5
430.292	575.5
430.514	482.5
430.736	463.5
430.958	444.5
431.18	450.5
431.402	412.5
431.624	410.5
431.846	418.5
432.068	426.5
432.29	416.5
432.512	435.5
432.734	442.5
432.956	440.5
433.178	439.5
433.4	457.5
433.622	443.5
433.844	403.5
434.066	429.5
434.287	422.5
434.509	439.5
434.731	451.5
434.953	436.5
435.175	470.5
435.397	500.5
435.618	490.5
435.84	540.5
436.062	635.5
436.284	698.5
436.505	589.5
436.727	530.5
436.949	489.5
437.17	475.5
437.392	473.5
437.614	483.5
437.835	522.5
438.057	626.5
438.278	719.5
438.5	712.5
438.721	766.5
438.943	746.5
439.165	598.5
439.386	536.5
439.608	541.5
439.829	528.5
440.05	556.5
440.272	601.5
440.493	563.5
440.715	526.5
440.936	477.5
441.158	485.5
441.379	487.5
441.6	472.5
441.822	508.5
442.043	551.5
442.264	636.5
442.486	672.5
442.707	554.5
442.928	540.5
443.149	523.5
443.371	542.5
443.592	583.5
443.813	673.5
444.034	736.5
444.255	594.5
444.476	526.5
444.698	517.5
444.919	502.5
445.14	607.5
445.361	535.5
445.582	557.5
445.803	612.5
446.024	693.5
446.245	717.5
446.466	681.5
446.687	575.5
446.908	522.5
447.129	492.5
447.35	460.5
447.571	474.5
447.792	467.5
448.013	470.5
448.234	474.5
448.455	529.5
448.675	629.5
448.896	780.5
449.117	638.5
449.338	602.5
449.559	715.5
449.779	792.5
450	645.5
450.221	562.5
450.442	484.5
450.662	453.5
450.883	466.5
451.104	487.5
451.324	486.5
451.545	465.5
451.766	440.5
451.986	446.5
452.207	418.5
452.428	422.5
452.648	431.5
452.869	438.5
453.089	409.5
453.31	463.5
453.53	435.5
453.751	428.5
453.971	443.5
454.192	465.5
454.412	441.5
454.633	432.5
454.853	400.5
455.073	419.5
455.294	440.5
455.514	534.5
455.734	518.5
455.955	423.5
456.175	406.5
456.395	397.5
456.616	397.5
456.836	383.5
457.056	392.5
457.276	385.5
457.497	392.5
457.717	384.5
457.937	382.5
458.157	405.5
458.377	405.5
458.598	436.5
458.818	489.5
459.038	584.5
459.258	590.5
459.478	498.5
459.698	427.5
459.918	446.5
460.138	424.5
460.358	434.5
460.578	418.5
460.798	442.5
461.018	444.5
461.238	417.5
461.458	411.5
461.678	415.5
461.898	420.5
462.118	418.5
462.338	425.5
462.558	417.5
462.777	446.5
462.997	443.5
463.217	436.5
463.437	447.5
463.657	449.5
463.876	448.5
464.096	441.5
464.316	447.5
464.536	436.5
464.755	432.5
464.975	470.5
465.195	506.5
465.414	601.5
465.634	525.5
465.854	488.5
466.073	463.5
466.293	468.5
466.512	434.5
466.732	426.5
466.951	428.5
467.171	403.5
467.391	437.5
467.61	438.5
467.829	448.5
468.049	452.5
468.268	421.5
468.488	414.5
468.707	411.5
468.927	412.5
469.146	407.5
469.365	418.5
469.585	400.5
469.804	414.5
470.023	441.5
470.243	417.5
470.462	420.5
470.681	464.5
470.901	438.5
471.12	438.5
471.339	428.5
471.558	429.5
471.777	424.5
471.997	430.5
472.216	450.5
472.435	474.5
472.654	464.5
472.873	441.5
473.092	411.5
473.311	424.5
473.53	435.5
473.749	455.5
473.968	480.5
474.187	588.5
474.406	636.5
474.625	484.5
474.844	431.5
475.063	424.5
475.282	431.5
475.501	447.5
475.72	459.5
475.939	448.5
476.158	448.5
476.377	444.5
476.596	435.5
476.814	446.5
477.033	465.5
477.252	454.5
477.471	461.5
477.69	456.5
477.908	458.5
478.127	464.5
478.346	472.5
478.564	483.5
478.783	473.5
479.002	466.5
479.22	479.5
479.439	495.5
479.658	518.5
479.876	511.5
480.095	513.5
480.313	546.5
480.532	539.5
480.751	521.5
480.969	551.5
481.188	586.5
481.406	650.5
481.624	560.5
481.843	513.5
482.061	522.5
482.28	521.5
482.498	514.5
482.717	502.5
482.935	507.5
483.153	517.5
483.372	520.5
483.59	494.5
483.808	522.5
484.027	513.5
484.245	508.5
484.463	503.5
484.681	499.5
484.9	515.5
485.118	513.5
485.336	515.5
485.554	515.5
485.772	499.5
485.99	516.5
486.209	526.5
486.427	518.5
486.645	539.5
486.863	576.5
487.081	570.5
487.299	550.5
487.517	548.5
487.735	548.5
487.953	566.5
488.171	544.5
488.389	548.5
488.607	532.5
488.825	546.5
489.043	539.5
489.261	567.5
489.479	559.5
489.696	569.5
489.914	572.5
490.132	573.5
490.35	575.5
490.568	599.5
490.786	600.5
491.003	598.5
491.221	613.5
491.439	616.5
491.657	615.5
491.874	622.5
492.092	624.5
492.31	632.5
492.527	637.5
492.745	616.5
492.963	648.5
493.18	654.5
493.398	653.5
493.615	650.5
493.833	673.5
494.05	662.5
494.268	633.5
494.485	663.5
494.703	661.5
494.92	655.5
495.138	650.5
495.355	646.5
495.573	660.5
495.79	650.5
496.008	658.5
496.225	662.5
496.442	699.5
496.66	664.5
496.877	650.5
497.094	674.5
497.312	678.5
497.529	672.5
497.746	677.5
497.963	690.5
498.181	698.5
498.398	681.5
498.615	702.5
498.832	706.5
499.049	698.5
499.267	710.5
499.484	724.5
499.701	758.5
499.918	778.5
500.135	779.5
500.352	780.5
500.569	786.5
500.786	784.5
501.003	798.5
501.22	785.5
501.437	774.5
501.654	774.5
501.871	778.5
502.088	760.5
502.305	743.5
502.522	720.5
502.739	700.5
502.956	687.5
503.172	668.5
503.389	688.5
503.606	689.5
503.823	669.5
504.04	671.5
504.256	670.5
504.473	650.5
504.69	651.5
504.907	648.5
505.123	656.5
505.34	642.5
505.557	657.5
505.773	630.5
505.99	638.5
506.207	647.5
506.423	624.5
506.64	644.5
506.856	627.5
507.073	629.5
507.289	608.5
507.506	618.5
507.722	621.5
507.939	676.5
508.155	647.5
508.372	648.5
508.588	605.5
508.805	610.5
509.021	619.5
509.238	631.5
509.454	638.5
509.67	628.5
509.887	631.5
510.103	620.5
510.319	636.5
510.536	734.5
510.752	1255.5
510.968	1046.5
511.184	640.5
511.401	634.5
511.617	604.5
511.833	590.5
512.049	600.5
512.265	591.5
512.481	580.5
512.698	568.5
512.914	579.5
513.13	570.5
513.346	588.5
513.562	599.5
513.778	621.5
513.994	619.5
514.21	635.5
514.426	644.5
514.642	701.5
514.858	718.5
515.074	767.5
515.29	952.5
515.506	1456.5
515.721	1186.5
515.937	738.5
516.153	658.5
516.369	633.5
516.585	632.5
516.801	604.5
517.016	602.5
517.232	602.5
517.448	607.5
517.664	586.5
517.879	570.5
518.095	581.5
518.311	560.5
518.527	574.5
518.742	582.5
518.958	570.5
519.173	591.5
519.389	607.5
519.605	572.5
519.82	608.5
520.036	590.5
520.251	643.5
520.467	681.5
520.682	651.5
520.898	687.5
521.113	710.5
521.329	735.5
521.544	866.5
521.76	1143.5
521.975	1983.5
522.19	1945.5
522.406	1021.5
522.621	720.5
522.836	638.5
523.052	609.5
523.267	585.5
523.482	557.5
523.698	539.5
523.913	553.5
524.128	548.5
524.343	528.5
524.559	519.5
524.774	506.5
524.989	519.5
525.204	500.5
525.419	521.5
525.634	489.5
525.849	514.5
526.064	469.5
526.28	496.5
526.495	495.5
526.71	468.5
526.925	482.5
527.14	462.5
527.355	504.5
527.57	444.5
527.785	469.5
527.999	482.5
528.214	458.5
528.429	458.5
528.644	463.5
528.859	459.5
529.074	448.5
529.289	505.5
529.503	591.5
529.718	551.5
529.933	519.5
530.148	500.5
530.363	479.5
530.577	481.5
530.792	469.5
531.007	450.5
531.221	463.5
531.436	444.5
531.651	444.5
531.865	472.5
532.08	463.5
532.295	451.5
532.509	450.5
532.724	447.5
532.938	450.5
533.153	420.5
533.367	426.5
533.582	453.5
533.796	452.5
534.011	432.5
534.225	429.5
534.44	435.5
534.654	442.5
534.868	431.5
535.083	430.5
535.297	442.5
535.511	440.5
535.726	490.5
535.94	441.5
536.154	457.5
536.369	435.5
536.583	421.5
536.797	410.5
537.011	428.5
537.225	418.5
537.44	425.5
537.654	424.5
537.868	429.5
538.082	430.5
538.296	437.5
538.51	414.5
538.724	432.5
538.938	439.5
539.153	421.5
539.367	446.5
539.581	427.5
539.795	434.5
540.009	430.5
540.222	430.5
540.436	435.5
540.65	440.5
540.864	437.5
541.078	431.5
541.292	443.5
541.506	436.5
541.72	432.5
541.934	426.5
542.147	423.5
542.361	411.5
542.575	399.5
542.789	428.5
543.002	410.5
543.216	409.5
543.43	419.5
543.644	401.5
543.857	400.5
544.071	438.5
544.285	417.5
544.498	394.5
544.712	424.5
544.925	428.5
545.139	401.5
545.352	410.5
545.566	410.5
545.779	403.5
545.993	426.5
546.206	400.5
546.42	403.5
546.633	395.5
546.847	396.5
547.06	403.5
547.274	408.5
547.487	397.5
547.7	391.5
547.914	407.5
548.127	396.5
548.34	388.5
548.554	395.5
548.767	387.5
548.98	393.5
549.193	396.5
549.407	389.5
549.62	402.5
549.833	396.5
550.046	383.5
550.259	390.5
550.473	384.5
550.686	392.5
550.899	384.5
551.112	389.5
551.325	372.5
551.538	374.5
551.751	383.5
551.964	375.5
552.177	394.5
552.39	391.5
552.603	380.5
552.816	388.5
553.029	393.5
553.242	388.5
553.455	396.5
553.667	417.5
553.88	415.5
554.093	419.5
554.306	406.5
554.519	382.5
554.732	403.5
554.944	365.5
555.157	371.5
555.37	372.5
555.583	379.5
555.795	382.5
556.008	399.5
556.221	345.5
556.433	370.5
556.646	370.5
556.859	365.5
557.071	370.5
557.284	366.5
557.496	353.5
557.709	354.5
557.921	367.5
558.134	367.5
558.346	362.5
558.559	373.5
558.771	352.5
558.984	338.5
559.196	350.5
559.409	355.5
559.621	343.5
559.833	335.5
560.046	328.5
560.258	349.5
560.47	351.5
560.683	360.5
560.895	347.5
561.107	343.5
561.32	367.5
561.532	359.5
561.744	351.5
561.956	354.5
562.168	354.5
562.381	332.5
562.593	345.5
562.805	376.5
563.017	334.5
563.229	345.5
563.441	376.5
563.653	362.5
563.865	358.5
564.077	353.5
564.289	352.5
564.501	339.5
564.713	350.5
564.925	374.5
565.137	378.5
565.349	381.5
565.561	359.5
565.773	370.5
565.985	359.5
566.197	391.5
566.408	376.5
566.62	389.5
566.832	373.5
567.044	401.5
567.255	389.5
567.467	384.5
567.679	396.5
567.891	384.5
568.102	388.5
568.314	415.5
568.526	369.5
568.737	383.5
568.949	359.5
569.161	362.5
569.372	375.5
569.584	341.5
569.795	357.5
570.007	354.5
570.218	415.5
570.43	402.5
570.641	352.5
570.853	342.5
571.064	342.5
571.276	333.5
571.487	310.5
571.698	343.5
571.91	325.5
572.121	332.5
572.333	327.5
572.544	331.5
572.755	318.5
572.966	313.5
573.178	303.5
573.389	308.5
573.6	302.5
573.811	306.5
574.023	318.5
574.234	308.5
574.445	315.5
574.656	309.5
574.867	294.5
575.078	290.5
575.289	299.5
575.501	292.5
575.712	310.5
575.923	332.5
576.134	298.5
576.345	297.5
576.556	303.5
576.767	307.5
576.978	301.5
577.188	303.5
577.399	308.5
577.61	290.5
577.821	292.5
578.032	311.5
578.243	339.5
578.454	585.5
578.665	418.5
578.875	322.5
579.086	299.5
579.297	279.5
579.508	286.5
579.718	306.5
579.929	302.5
580.14	286.5
580.35	266.5
580.561	300.5
580.772	287.5
580.982	285.5
581.193	284.5
581.403	279.5
581.614	296.5
581.825	276.5
582.035	255.5
582.246	288.5
582.456	278.5
582.667	246.5
582.877	279.5
583.087	274.5
583.298	280.5
583.508	278.5
583.719	272.5
583.929	279.5
584.139	284.5
584.35	268.5
584.56	280.5
584.77	290.5
584.981	288.5
585.191	284.5
585.401	275.5
585.611	259.5
585.821	268.5
586.032	262.5
586.242	268.5
586.452	283.5
586.662	273.5
586.872	271.5
587.082	270.5
587.292	277.5
587.502	264.5
587.713	251.5
587.923	272.5
588.133	251.5
588.343	262.5
588.553	274.5
588.762	277.5
588.972	276.5
589.182	280.5
589.392	267.5
589.602	270.5
589.812	262.5
590.022	262.5
590.232	273.5
590.441	262.5
590.651	251.5
590.861	269.5
591.071	267.5
591.281	275.5
591.49	256.5
591.7	279.5
591.91	267.5
592.119	282.5
592.329	255.5
592.539	284.5
592.748	272.5
592.958	282.5
593.167	263.5
593.377	281.5
593.587	240.5
593.796	260.5
594.006	279.5
594.215	272.5
594.424	272.5
594.634	277.5
594.843	281.5
595.053	262.5
595.262	253.5
595.472	253.5
595.681	264.5
595.89	258.5
596.1	244.5
596.309	253.5
596.518	258.5
596.727	263.5
596.937	260.5
597.146	262.5
597.355	272.5
597.564	264.5
597.774	260.5
597.983	247.5
598.192	246.5
598.401	232.5
598.61	250.5
598.819	247.5
599.028	234.5
599.237	254.5
599.446	235.5
599.655	232.5
599.864	238.5
600.073	240.5
600.282	238.5
600.491	247.5
600.7	219.5
600.909	231.5
601.118	240.5
601.327	244.5
601.536	229.5
601.745	252.5
601.953	244.5
602.162	209.5
602.371	239.5
602.58	247.5
602.789	250.5
602.997	234.5
603.206	237.5
603.415	224.5
603.623	248.5
603.832	223.5
604.041	213.5
604.249	228.5
604.458	242.5
604.666	231.5
604.875	215.5
605.084	223.5
605.292	217.5
605.501	245.5
605.709	221.5
605.918	223.5
606.126	227.5
606.334	231.5
606.543	231.5
606.751	227.5
606.96	222.5
607.168	232.5
607.376	222.5
607.585	220.5
607.793	228.5
608.001	231.5
608.21	220.5
608.418	235.5
608.626	216.5
608.834	234.5
609.043	214.5
609.251	214.5
609.459	238.5
609.667	224.5
609.875	228.5
610.083	208.5
610.291	232.5
610.499	201.5
610.707	233.5
610.916	220.5
611.124	218.5
611.332	220.5
611.54	227.5
611.748	229.5
611.955	220.5
612.163	218.5
612.371	228.5
612.579	224.5
612.787	220.5
612.995	227.5
613.203	220.5
613.411	216.5
613.618	238.5
613.826	228.5
614.034	219.5
614.242	219.5
614.449	219.5
614.657	211.5
614.865	217.5
615.072	240.5
615.28	207.5
615.488	213.5
615.695	227.5
615.903	212.5
616.111	220.5
616.318	214.5
616.526	217.5
616.733	228.5
616.941	222.5
617.148	215.5
617.356	212.5
617.563	211.5
617.771	220.5
617.978	207.5
618.185	216.5
618.393	218.5
618.6	216.5
618.807	199.5
619.015	214.5
619.222	219.5
619.429	196.5
619.637	226.5
619.844	237.5
620.051	207.5
620.258	198.5
620.466	195.5
620.673	196.5
620.88	205.5
621.087	223.5
621.294	208.5
621.501	200.5
621.708	195.5
621.915	218.5
622.122	221.5
622.329	213.5
622.536	219.5
622.743	208.5
622.95	200.5
623.157	206.5
623.364	191.5
623.571	214.5
623.778	205.5
623.985	210.5
624.192	194.5
624.399	207.5
624.606	188.5
624.812	191.5
625.019	192.5
625.226	200.5
625.433	200.5
625.639	187.5
625.846	195.5
626.053	208.5
626.259	199.5
626.466	200.5
626.673	204.5
626.879	213.5
627.086	204.5
627.293	190.5
627.499	202.5
627.706	174.5
627.912	200.5
628.119	198.5
628.325	196.5
628.532	209.5
628.738	197.5
628.945	190.5
629.151	196.5
629.357	183.5
629.564	190.5
629.77	196.5
629.976	197.5
630.183	197.5
630.389	183.5
630.595	186.5
630.802	182.5
631.008	173.5
631.214	191.5
631.42	201.5
631.627	169.5
631.833	171.5
632.039	167.5
632.245	175.5
632.451	212.5
632.657	191.5
632.863	176.5
633.069	173.5
633.275	174.5
633.481	178.5
633.688	172.5
633.893	182.5
634.099	178.5
634.305	175.5
634.511	182.5
634.717	178.5
634.923	172.5
635.129	186.5
635.335	176.5
635.541	164.5
635.747	179.5
635.952	180.5
636.158	180.5
636.364	182.5
636.57	182.5
636.775	160.5
636.981	173.5
637.187	169.5
637.392	166.5
637.598	188.5
637.804	168.5
638.009	160.5
638.215	163.5
638.421	168.5
638.626	172.5
638.832	162.5
639.037	178.5
639.243	173.5
639.448	169.5
639.654	172.5
639.859	155.5
640.065	151.5
640.27	160.5
640.475	147.5
640.681	170.5
640.886	162.5
641.091	175.5
641.297	174.5
641.502	166.5
641.707	162.5
641.913	149.5
642.118	163.5
642.323	174.5
642.528	154.5
642.733	150.5
642.939	159.5
643.144	169.5
643.349	144.5
643.554	163.5
643.759	156.5
643.964	156.5
644.169	167.5
644.374	161.5
644.579	147.5
644.784	152.5
644.989	161.5
645.194	154.5
645.399	154.5
645.604	149.5
645.809	162.5
646.014	166.5
646.219	155.5
646.423	142.5
646.628	162.5
646.833	154.5
647.038	154.5
647.243	159.5
647.447	147.5
647.652	159.5
647.857	156.5
648.062	143.5
648.266	154.5
648.471	154.5
648.676	159.5
648.88	155.5
649.085	150.5
649.289	178.5
649.494	152.5
649.698	178.5
649.903	158.5
650.107	154.5
650.312	150.5
650.516	146.5
650.721	157.5
650.925	135.5
651.13	152.5
651.334	141.5
651.539	142.5
651.743	140.5
651.947	146.5
652.152	145.5
652.356	148.5
652.56	144.5
652.764	151.5
652.969	124.5
653.173	131.5
653.377	150.5
653.581	141.5
653.785	140.5
653.99	128.5
654.194	131.5
654.398	129.5
654.602	132.5
654.806	136.5
655.01	137.5
655.214	125.5
655.418	118.5
655.622	122.5
655.826	135.5
656.03	116.5
656.234	126.5
656.438	128.5
656.642	135.5
656.846	133.5
657.049	122.5
657.253	129.5
657.457	114.5
657.661	108.5
657.865	109.5
658.068	110.5
658.272	104.5
658.476	104.5
658.68	104.5
658.883	111.5
659.087	100.5
659.291	105.5
659.494	106.5
659.698	95.5
659.901	106.5
660.105	85.5
660.309	90.5
660.512	107.5
660.716	90.5
660.919	95.5
661.123	93.5
661.326	90.5
661.53	96.5
661.733	94.5
661.936	88.5
662.14	67.5
662.343	86.5
662.546	85.5
662.75	104.5
662.953	76.5
663.156	75.5
663.36	84.5
663.563	75.5
663.766	90.5
663.969	86.5
664.173	96.5
664.376	82.5
664.579	71.5
664.782	78.5
664.985	91.5
665.188	84.5
665.391	84.5
665.594	89.5
665.797	85.5
666	80.5
666.203	88.5
666.406	97.5
666.609	88.5
666.812	94.5
667.015	85.5
667.218	84.5
667.421	79.5
667.624	79.5
667.827	90.5
668.03	88.5
668.232	72.5
668.435	90.5
668.638	82.5
668.841	86.5
669.043	86.5
669.246	77.5
669.449	71.5
669.651	83.5
669.854	90.5
670.057	87.5
670.259	80.5
670.462	92.5
670.665	88.5
670.867	87.5
671.07	90.5
671.272	83.5
671.475	92.5
671.677	88.5
671.88	78.5
672.082	96.5
672.284	77.5
672.487	75.5
672.689	93.5
672.892	86.5
