Data from 1981.PennyLincolnUp.Lamp.En5.5.200Scan.071819.P1_HRD10591_16-43-42-960.txt Node
Date: Thu Jul 18 16:43:42 EDT 2019
User: cochatt
Spectrometer: HR+D1059
Trigger mode: 1
Integration Time (sec): 1.000000E-1
Scans to average: 1
Electric dark correction enabled: true
Nonlinearity correction enabled: false
Boxcar width: 0
XAxis mode: Wavelengths
Number of Pixels in Spectrum: 2048
>>>>>Begin Spectral Data<<<<<
223.165	-11.44
223.4	-11.44
223.635	-11.44
223.869	-8.44
224.104	-5.44
224.338	-8.44
224.573	-9.44
224.808	-21.44
225.042	-10.44
225.277	0.56
225.511	-7.44
225.746	-2.44
225.98	-10.44
226.215	10.56
226.449	-5.44
226.683	28.56
226.918	36.56
227.152	24.56
227.387	28.56
227.621	47.56
227.856	62.56
228.09	43.56
228.324	53.56
228.559	69.56
228.793	77.56
229.027	107.56
229.262	105.56
229.496	141.56
229.73	146.56
229.964	170.56
230.199	129.56
230.433	124.56
230.667	121.56
230.901	112.56
231.136	103.56
231.37	113.56
231.604	119.56
231.838	126.56
232.072	111.56
232.306	129.56
232.541	131.56
232.775	127.56
233.009	114.56
233.243	112.56
233.477	142.56
233.711	104.56
233.945	117.56
234.179	134.56
234.413	108.56
234.647	118.56
234.881	117.56
235.115	122.56
235.349	112.56
235.583	127.56
235.817	129.56
236.051	137.56
236.285	124.56
236.519	123.56
236.753	139.56
236.987	140.56
237.221	212.56
237.455	234.56
237.689	206.56
237.922	151.56
238.156	141.56
238.39	131.56
238.624	136.56
238.858	122.56
239.091	126.56
239.325	138.56
239.559	133.56
239.793	146.56
240.027	131.56
240.26	147.56
240.494	159.56
240.728	164.56
240.961	155.56
241.195	155.56
241.429	151.56
241.662	137.56
241.896	146.56
242.13	142.56
242.363	145.56
242.597	141.56
242.83	154.56
243.064	133.56
243.298	134.56
243.531	129.56
243.765	142.56
243.998	151.56
244.232	151.56
244.465	153.56
244.699	155.56
244.932	156.56
245.166	147.56
245.399	141.56
245.633	162.56
245.866	143.56
246.099	153.56
246.333	152.56
246.566	159.56
246.8	176.56
247.033	162.56
247.266	173.56
247.5	166.56
247.733	184.56
247.966	166.56
248.2	187.56
248.433	177.56
248.666	183.56
248.899	206.56
249.133	201.56
249.366	236.56
249.599	228.56
249.832	201.56
250.066	199.56
250.299	207.56
250.532	208.56
250.765	215.56
250.998	231.56
251.231	246.56
251.465	230.56
251.698	233.56
251.931	244.56
252.164	216.56
252.397	215.56
252.63	209.56
252.863	217.56
253.096	241.56
253.329	233.56
253.562	231.56
253.795	235.56
254.028	236.56
254.261	259.56
254.494	236.56
254.727	285.56
254.96	299.56
255.193	286.56
255.426	275.56
255.659	280.56
255.892	251.56
256.124	270.56
256.357	259.56
256.59	263.56
256.823	239.56
257.056	236.56
257.289	225.56
257.521	235.56
257.754	223.56
257.987	239.56
258.22	234.56
258.452	230.56
258.685	237.56
258.918	218.56
259.151	232.56
259.383	230.56
259.616	230.56
259.849	251.56
260.081	251.56
260.314	290.56
260.547	286.56
260.779	268.56
261.012	264.56
261.244	239.56
261.477	246.56
261.71	233.56
261.942	249.56
262.175	259.56
262.407	270.56
262.64	234.56
262.872	223.56
263.105	213.56
263.337	225.56
263.57	224.56
263.802	230.56
264.035	226.56
264.267	205.56
264.499	223.56
264.732	217.56
264.964	230.56
265.197	241.56
265.429	218.56
265.661	218.56
265.894	232.56
266.126	232.56
266.358	214.56
266.591	228.56
266.823	263.56
267.055	250.56
267.287	252.56
267.52	245.56
267.752	249.56
267.984	240.56
268.216	241.56
268.448	270.56
268.681	261.56
268.913	269.56
269.145	288.56
269.377	304.56
269.609	275.56
269.841	288.56
270.073	327.56
270.306	313.56
270.538	338.56
270.77	347.56
271.002	336.56
271.234	316.56
271.466	343.56
271.698	326.56
271.93	340.56
272.162	351.56
272.394	364.56
272.626	352.56
272.858	329.56
273.09	306.56
273.322	306.56
273.553	295.56
273.785	277.56
274.017	293.56
274.249	276.56
274.481	307.56
274.713	274.56
274.945	305.56
275.176	287.56
275.408	287.56
275.64	282.56
275.872	280.56
276.104	265.56
276.335	301.56
276.567	282.56
276.799	293.56
277.031	321.56
277.262	343.56
277.494	333.56
277.726	325.56
277.957	310.56
278.189	316.56
278.421	297.56
278.652	277.56
278.884	273.56
279.115	302.56
279.347	279.56
279.579	273.56
279.81	283.56
280.042	271.56
280.273	286.56
280.505	283.56
280.736	285.56
280.968	281.56
281.199	282.56
281.431	270.56
281.662	281.56
281.894	282.56
282.125	277.56
282.356	311.56
282.588	326.56
282.819	343.56
283.051	301.56
283.282	290.56
283.513	283.56
283.745	296.56
283.976	277.56
284.207	293.56
284.439	274.56
284.67	302.56
284.901	302.56
285.132	287.56
285.364	292.56
285.595	262.56
285.826	286.56
286.057	287.56
286.288	301.56
286.52	302.56
286.751	282.56
286.982	291.56
287.213	296.56
287.444	274.56
287.675	298.56
287.906	308.56
288.138	294.56
288.369	337.56
288.6	323.56
288.831	311.56
289.062	301.56
289.293	305.56
289.524	309.56
289.755	293.56
289.986	282.56
290.217	310.56
290.448	301.56
290.679	293.56
290.91	281.56
291.141	293.56
291.371	289.56
291.602	291.56
291.833	300.56
292.064	266.56
292.295	295.56
292.526	311.56
292.757	322.56
292.987	282.56
293.218	309.56
293.449	299.56
293.68	287.56
293.91	272.56
294.141	273.56
294.372	288.56
294.603	297.56
294.833	296.56
295.064	303.56
295.295	306.56
295.525	306.56
295.756	313.56
295.987	297.56
296.217	335.56
296.448	352.56
296.679	317.56
296.909	312.56
297.14	301.56
297.37	313.56
297.601	296.56
297.831	309.56
298.062	298.56
298.292	304.56
298.523	318.56
298.753	325.56
298.984	317.56
299.214	307.56
299.445	317.56
299.675	318.56
299.905	305.56
300.136	316.56
300.366	316.56
300.597	317.56
300.827	336.56
301.057	314.56
301.288	329.56
301.518	341.56
301.748	333.56
301.979	322.56
302.209	340.56
302.439	351.56
302.669	334.56
302.9	314.56
303.13	312.56
303.36	327.56
303.59	340.56
303.82	333.56
304.051	343.56
304.281	316.56
304.511	315.56
304.741	334.56
304.971	326.56
305.201	338.56
305.431	319.56
305.661	334.56
305.891	346.56
306.121	317.56
306.352	364.56
306.582	341.56
306.812	329.56
307.042	339.56
307.272	321.56
307.502	342.56
307.731	360.56
307.961	342.56
308.191	344.56
308.421	344.56
308.651	358.56
308.881	361.56
309.111	367.56
309.341	379.56
309.571	343.56
309.8	388.56
310.03	385.56
310.26	367.56
310.49	398.56
310.72	384.56
310.949	433.56
311.179	404.56
311.409	396.56
311.639	374.56
311.868	374.56
312.098	395.56
312.328	423.56
312.557	421.56
312.787	419.56
313.017	439.56
313.246	408.56
313.476	380.56
313.706	393.56
313.935	425.56
314.165	413.56
314.394	428.56
314.624	417.56
314.853	413.56
315.083	400.56
315.312	405.56
315.542	377.56
315.771	379.56
316.001	378.56
316.23	375.56
316.46	370.56
316.689	397.56
316.919	394.56
317.148	408.56
317.377	408.56
317.607	422.56
317.836	398.56
318.065	393.56
318.295	399.56
318.524	380.56
318.753	407.56
318.983	404.56
319.212	387.56
319.441	397.56
319.67	395.56
319.9	397.56
320.129	403.56
320.358	384.56
320.587	397.56
320.816	415.56
321.046	398.56
321.275	443.56
321.504	437.56
321.733	415.56
321.962	429.56
322.191	456.56
322.42	460.56
322.649	486.56
322.878	478.56
323.108	509.56
323.337	506.56
323.566	580.56
323.795	611.56
324.024	689.56
324.253	840.56
324.482	1233.56
324.71	1907.56
324.939	2574.56
325.168	2159.56
325.397	1142.56
325.626	761.56
325.855	646.56
326.084	587.56
326.313	576.56
326.542	583.56
326.77	623.56
326.999	774.56
327.228	1056.56
327.457	1615.56
327.686	1889.56
327.914	1255.56
328.143	843.56
328.372	711.56
328.6	672.56
328.829	641.56
329.058	633.56
329.287	672.56
329.515	629.56
329.744	586.56
329.972	563.56
330.201	582.56
330.43	625.56
330.658	635.56
330.887	684.56
331.115	663.56
331.344	583.56
331.572	512.56
331.801	520.56
332.03	527.56
332.258	512.56
332.486	467.56
332.715	445.56
332.943	465.56
333.172	455.56
333.4	461.56
333.629	453.56
333.857	482.56
334.085	504.56
334.314	507.56
334.542	532.56
334.771	557.56
334.999	503.56
335.227	478.56
335.455	477.56
335.684	455.56
335.912	448.56
336.14	450.56
336.369	446.56
336.597	465.56
336.825	443.56
337.053	441.56
337.281	421.56
337.51	413.56
337.738	446.56
337.966	443.56
338.194	477.56
338.422	455.56
338.65	443.56
338.878	438.56
339.106	443.56
339.334	425.56
339.562	425.56
339.79	417.56
340.018	431.56
340.246	443.56
340.474	441.56
340.702	440.56
340.93	438.56
341.158	427.56
341.386	425.56
341.614	432.56
341.842	422.56
342.07	414.56
342.298	432.56
342.526	396.56
342.754	403.56
342.981	394.56
343.209	409.56
343.437	416.56
343.665	423.56
343.893	419.56
344.12	417.56
344.348	426.56
344.576	444.56
344.804	436.56
345.031	435.56
345.259	449.56
345.487	425.56
345.714	422.56
345.942	409.56
346.17	410.56
346.397	418.56
346.625	404.56
346.853	430.56
347.08	404.56
347.308	415.56
347.535	435.56
347.763	444.56
347.99	403.56
348.218	449.56
348.445	428.56
348.673	449.56
348.9	421.56
349.128	405.56
349.355	399.56
349.583	390.56
349.81	411.56
350.037	417.56
350.265	383.56
350.492	387.56
350.72	396.56
350.947	384.56
351.174	408.56
351.402	423.56
351.629	435.56
351.856	426.56
352.083	437.56
352.311	444.56
352.538	443.56
352.765	417.56
352.992	397.56
353.22	410.56
353.447	427.56
353.674	403.56
353.901	378.56
354.128	409.56
354.355	379.56
354.583	377.56
354.81	370.56
355.037	366.56
355.264	371.56
355.491	370.56
355.718	374.56
355.945	389.56
356.172	364.56
356.399	362.56
356.626	367.56
356.853	364.56
357.08	359.56
357.307	384.56
357.534	388.56
357.761	349.56
357.988	385.56
358.215	370.56
358.441	377.56
358.668	383.56
358.895	399.56
359.122	381.56
359.349	387.56
359.576	393.56
359.802	443.56
360.029	463.56
360.256	492.56
360.483	433.56
360.709	418.56
360.936	409.56
361.163	407.56
361.39	393.56
361.616	436.56
361.843	399.56
362.07	410.56
362.296	435.56
362.523	407.56
362.749	390.56
362.976	403.56
363.203	390.56
363.429	394.56
363.656	380.56
363.882	404.56
364.109	386.56
364.335	367.56
364.562	375.56
364.788	358.56
365.015	363.56
365.241	379.56
365.468	392.56
365.694	383.56
365.92	380.56
366.147	382.56
366.373	380.56
366.599	359.56
366.826	376.56
367.052	347.56
367.278	379.56
367.505	382.56
367.731	371.56
367.957	368.56
368.184	365.56
368.41	379.56
368.636	377.56
368.862	374.56
369.089	378.56
369.315	393.56
369.541	384.56
369.767	364.56
369.993	360.56
370.219	359.56
370.445	369.56
370.672	351.56
370.898	384.56
371.124	355.56
371.35	362.56
371.576	357.56
371.802	360.56
372.028	374.56
372.254	373.56
372.48	361.56
372.706	380.56
372.932	366.56
373.158	366.56
373.384	370.56
373.61	370.56
373.835	362.56
374.061	353.56
374.287	383.56
374.513	375.56
374.739	358.56
374.965	369.56
375.191	359.56
375.416	379.56
375.642	379.56
375.868	358.56
376.094	353.56
376.319	351.56
376.545	351.56
376.771	350.56
376.997	358.56
377.222	348.56
377.448	365.56
377.674	350.56
377.899	357.56
378.125	356.56
378.35	347.56
378.576	356.56
378.802	358.56
379.027	367.56
379.253	360.56
379.478	339.56
379.704	349.56
379.929	354.56
380.155	352.56
380.38	341.56
380.606	356.56
380.831	358.56
381.057	358.56
381.282	365.56
381.507	355.56
381.733	350.56
381.958	346.56
382.184	346.56
382.409	358.56
382.634	361.56
382.86	370.56
383.085	353.56
383.31	365.56
383.535	370.56
383.761	367.56
383.986	375.56
384.211	350.56
384.436	377.56
384.662	373.56
384.887	363.56
385.112	352.56
385.337	375.56
385.562	375.56
385.787	373.56
386.013	368.56
386.238	367.56
386.463	373.56
386.688	375.56
386.913	369.56
387.138	361.56
387.363	378.56
387.588	369.56
387.813	381.56
388.038	369.56
388.263	374.56
388.488	369.56
388.713	366.56
388.938	376.56
389.163	361.56
389.387	360.56
389.612	354.56
389.837	384.56
390.062	381.56
390.287	388.56
390.512	357.56
390.736	371.56
390.961	382.56
391.186	377.56
391.411	372.56
391.636	385.56
391.86	370.56
392.085	361.56
392.31	385.56
392.534	379.56
392.759	359.56
392.984	364.56
393.208	361.56
393.433	362.56
393.658	345.56
393.882	345.56
394.107	363.56
394.331	354.56
394.556	365.56
394.78	369.56
395.005	372.56
395.229	373.56
395.454	370.56
395.678	392.56
395.903	403.56
396.127	407.56
396.352	395.56
396.576	401.56
396.801	389.56
397.025	374.56
397.249	375.56
397.474	387.56
397.698	374.56
397.922	393.56
398.147	393.56
398.371	401.56
398.595	392.56
398.82	390.56
399.044	398.56
399.268	423.56
399.492	417.56
399.717	431.56
399.941	476.56
400.165	517.56
400.389	511.56
400.613	457.56
400.837	432.56
401.062	413.56
401.286	406.56
401.51	411.56
401.734	399.56
401.958	412.56
402.182	425.56
402.406	411.56
402.63	410.56
402.854	427.56
403.078	434.56
403.302	417.56
403.526	422.56
403.75	416.56
403.974	402.56
404.198	404.56
404.422	425.56
404.645	423.56
404.869	440.56
405.093	486.56
405.317	504.56
405.541	521.56
405.765	487.56
405.988	464.56
406.212	447.56
406.436	463.56
406.66	491.56
406.883	473.56
407.107	486.56
407.331	541.56
407.555	544.56
407.778	568.56
408.002	523.56
408.226	466.56
408.449	474.56
408.673	471.56
408.896	496.56
409.12	539.56
409.344	513.56
409.567	463.56
409.791	453.56
410.014	426.56
410.238	423.56
410.461	414.56
410.685	429.56
410.908	432.56
411.132	471.56
411.355	511.56
411.578	485.56
411.802	439.56
412.025	426.56
412.249	455.56
412.472	453.56
412.695	470.56
412.919	483.56
413.142	447.56
413.365	422.56
413.589	409.56
413.812	386.56
414.035	404.56
414.258	397.56
414.482	401.56
414.705	393.56
414.928	412.56
415.151	373.56
415.374	394.56
415.597	383.56
415.821	400.56
416.044	391.56
416.267	409.56
416.49	403.56
416.713	413.56
416.936	389.56
417.159	381.56
417.382	395.56
417.605	410.56
417.828	414.56
418.051	426.56
418.274	408.56
418.497	406.56
418.72	424.56
418.943	409.56
419.166	390.56
419.389	415.56
419.611	437.56
419.834	420.56
420.057	415.56
420.28	444.56
420.503	424.56
420.726	415.56
420.948	450.56
421.171	483.56
421.394	500.56
421.617	449.56
421.839	423.56
422.062	437.56
422.285	434.56
422.507	501.56
422.73	571.56
422.953	555.56
423.175	470.56
423.398	417.56
423.621	434.56
423.843	479.56
424.066	456.56
424.288	450.56
424.511	488.56
424.733	535.56
424.956	586.56
425.178	587.56
425.401	570.56
425.623	593.56
425.846	515.56
426.068	471.56
426.291	481.56
426.513	480.56
426.735	484.56
426.958	512.56
427.18	586.56
427.402	720.56
427.625	785.56
427.847	709.56
428.069	607.56
428.292	527.56
428.514	474.56
428.736	459.56
428.958	457.56
429.181	460.56
429.403	450.56
429.625	457.56
429.847	488.56
430.069	533.56
430.292	537.56
430.514	444.56
430.736	431.56
430.958	435.56
431.18	427.56
431.402	414.56
431.624	410.56
431.846	386.56
432.068	387.56
432.29	407.56
432.512	408.56
432.734	419.56
432.956	414.56
433.178	408.56
433.4	418.56
433.622	402.56
433.844	407.56
434.066	401.56
434.287	396.56
434.509	426.56
434.731	422.56
434.953	417.56
435.175	441.56
435.397	471.56
435.618	482.56
435.84	504.56
436.062	582.56
436.284	651.56
436.505	551.56
436.727	489.56
436.949	452.56
437.17	440.56
437.392	449.56
437.614	460.56
437.835	494.56
438.057	588.56
438.278	665.56
438.5	682.56
438.721	699.56
438.943	690.56
439.165	535.56
439.386	511.56
439.608	492.56
439.829	512.56
440.05	519.56
440.272	585.56
440.493	526.56
440.715	469.56
440.936	467.56
441.158	425.56
441.379	433.56
441.6	454.56
441.822	460.56
442.043	509.56
442.264	591.56
442.486	647.56
442.707	546.56
442.928	496.56
443.149	506.56
443.371	536.56
443.592	569.56
443.813	637.56
444.034	687.56
444.255	548.56
444.476	487.56
444.698	472.56
444.919	470.56
445.14	570.56
445.361	533.56
445.582	544.56
445.803	585.56
446.024	711.56
446.245	706.56
446.466	639.56
446.687	534.56
446.908	467.56
447.129	447.56
447.35	465.56
447.571	449.56
447.792	424.56
448.013	441.56
448.234	468.56
448.455	509.56
448.675	617.56
448.896	697.56
449.117	593.56
449.338	606.56
449.559	652.56
449.779	750.56
450	634.56
450.221	485.56
450.442	459.56
450.662	438.56
450.883	437.56
451.104	438.56
451.324	436.56
451.545	435.56
451.766	447.56
451.986	391.56
452.207	420.56
452.428	381.56
452.648	405.56
452.869	406.56
453.089	407.56
453.31	415.56
453.53	422.56
453.751	386.56
453.971	408.56
454.192	425.56
454.412	424.56
454.633	400.56
454.853	381.56
455.073	379.56
455.294	429.56
455.514	493.56
455.734	486.56
455.955	395.56
456.175	387.56
456.395	379.56
456.616	356.56
456.836	373.56
457.056	349.56
457.276	360.56
457.497	383.56
457.717	374.56
457.937	393.56
458.157	374.56
458.377	362.56
458.598	411.56
458.818	475.56
459.038	558.56
459.258	555.56
459.478	465.56
459.698	437.56
459.918	394.56
460.138	405.56
460.358	389.56
460.578	398.56
460.798	395.56
461.018	397.56
461.238	401.56
461.458	379.56
461.678	384.56
461.898	373.56
462.118	381.56
462.338	403.56
462.558	404.56
462.777	390.56
462.997	405.56
463.217	413.56
463.437	401.56
463.657	405.56
463.876	405.56
464.096	448.56
464.316	418.56
464.536	417.56
464.755	412.56
464.975	425.56
465.195	480.56
465.414	559.56
465.634	495.56
465.854	449.56
466.073	427.56
466.293	399.56
466.512	387.56
466.732	409.56
466.951	392.56
467.171	385.56
467.391	395.56
467.61	395.56
467.829	414.56
468.049	387.56
468.268	400.56
468.488	396.56
468.707	395.56
468.927	394.56
469.146	383.56
469.365	381.56
469.585	400.56
469.804	386.56
470.023	402.56
470.243	412.56
470.462	409.56
470.681	435.56
470.901	427.56
471.12	394.56
471.339	403.56
471.558	401.56
471.777	406.56
471.997	408.56
472.216	393.56
472.435	438.56
472.654	441.56
472.873	404.56
473.092	400.56
473.311	402.56
473.53	403.56
473.749	425.56
473.968	461.56
474.187	570.56
474.406	605.56
474.625	473.56
474.844	429.56
475.063	423.56
475.282	408.56
475.501	402.56
475.72	409.56
475.939	399.56
476.158	430.56
476.377	416.56
476.596	413.56
476.814	424.56
477.033	422.56
477.252	409.56
477.471	432.56
477.69	411.56
477.908	425.56
478.127	438.56
478.346	429.56
478.564	435.56
478.783	438.56
479.002	424.56
479.22	447.56
479.439	462.56
479.658	465.56
479.876	480.56
480.095	467.56
480.313	487.56
480.532	467.56
480.751	480.56
480.969	503.56
481.188	567.56
481.406	579.56
481.624	519.56
481.843	493.56
482.061	463.56
482.28	454.56
482.498	463.56
482.717	467.56
482.935	463.56
483.153	456.56
483.372	473.56
483.59	460.56
483.808	465.56
484.027	460.56
484.245	490.56
484.463	460.56
484.681	482.56
484.9	473.56
485.118	473.56
485.336	457.56
485.554	504.56
485.772	458.56
485.99	486.56
486.209	483.56
486.427	515.56
486.645	483.56
486.863	513.56
487.081	511.56
487.299	505.56
487.517	525.56
487.735	505.56
487.953	487.56
488.171	497.56
488.389	509.56
488.607	503.56
488.825	512.56
489.043	531.56
489.261	511.56
489.479	498.56
489.696	501.56
489.914	509.56
490.132	506.56
490.35	529.56
490.568	538.56
490.786	538.56
491.003	557.56
491.221	544.56
491.439	555.56
491.657	559.56
491.874	559.56
492.092	570.56
492.31	581.56
492.527	582.56
492.745	587.56
492.963	587.56
493.18	585.56
493.398	588.56
493.615	602.56
493.833	589.56
494.05	577.56
494.268	584.56
494.485	595.56
494.703	579.56
494.92	593.56
495.138	607.56
495.355	600.56
495.573	602.56
495.79	600.56
496.008	608.56
496.225	614.56
496.442	589.56
496.66	608.56
496.877	603.56
497.094	583.56
497.312	593.56
497.529	613.56
497.746	614.56
497.963	619.56
498.181	611.56
498.398	630.56
498.615	622.56
498.832	667.56
499.049	657.56
499.267	633.56
499.484	673.56
499.701	675.56
499.918	661.56
500.135	721.56
500.352	690.56
500.569	734.56
500.786	721.56
501.003	724.56
501.22	701.56
501.437	712.56
501.654	733.56
501.871	733.56
502.088	713.56
502.305	669.56
502.522	639.56
502.739	622.56
502.956	613.56
503.172	611.56
503.389	608.56
503.606	617.56
503.823	630.56
504.04	612.56
504.256	578.56
504.473	614.56
504.69	578.56
504.907	576.56
505.123	579.56
505.34	589.56
505.557	590.56
505.773	607.56
505.99	568.56
506.207	566.56
506.423	598.56
506.64	573.56
506.856	556.56
507.073	571.56
507.289	581.56
507.506	591.56
507.722	579.56
507.939	588.56
508.155	587.56
508.372	567.56
508.588	538.56
508.805	553.56
509.021	550.56
509.238	562.56
509.454	585.56
509.67	573.56
509.887	573.56
510.103	576.56
510.319	585.56
510.536	658.56
510.752	1120.56
510.968	931.56
511.184	620.56
511.401	582.56
511.617	563.56
511.833	522.56
512.049	549.56
512.265	534.56
512.481	543.56
512.698	536.56
512.914	539.56
513.13	538.56
513.346	535.56
513.562	530.56
513.778	567.56
513.994	556.56
514.21	559.56
514.426	575.56
514.642	628.56
514.858	669.56
515.074	697.56
515.29	833.56
515.506	1252.56
515.721	1005.56
515.937	689.56
516.153	606.56
516.369	602.56
516.585	546.56
516.801	538.56
517.016	546.56
517.232	558.56
517.448	536.56
517.664	547.56
517.879	535.56
518.095	536.56
518.311	556.56
518.527	546.56
518.742	534.56
518.958	514.56
519.173	510.56
519.389	511.56
519.605	503.56
519.82	539.56
520.036	561.56
520.251	573.56
520.467	615.56
520.682	576.56
520.898	624.56
521.113	634.56
521.329	680.56
521.544	783.56
521.76	1018.56
521.975	1675.56
522.19	1608.56
522.406	879.56
522.621	627.56
522.836	593.56
523.052	548.56
523.267	559.56
523.482	496.56
523.698	493.56
523.913	505.56
524.128	504.56
524.343	504.56
524.559	486.56
524.774	445.56
524.989	467.56
525.204	491.56
525.419	510.56
525.634	468.56
525.849	440.56
526.064	452.56
526.28	455.56
526.495	443.56
526.71	432.56
526.925	433.56
527.14	450.56
527.355	433.56
527.57	415.56
527.785	438.56
527.999	427.56
528.214	432.56
528.429	415.56
528.644	414.56
528.859	420.56
529.074	463.56
529.289	456.56
529.503	547.56
529.718	505.56
529.933	457.56
530.148	444.56
530.363	459.56
530.577	430.56
530.792	419.56
531.007	427.56
531.221	411.56
531.436	438.56
531.651	415.56
531.865	412.56
532.08	414.56
532.295	417.56
532.509	397.56
532.724	385.56
532.938	397.56
533.153	401.56
533.367	401.56
533.582	392.56
533.796	388.56
534.011	429.56
534.225	405.56
534.44	400.56
534.654	405.56
534.868	401.56
535.083	395.56
535.297	392.56
535.511	396.56
535.726	407.56
535.94	428.56
536.154	404.56
536.369	393.56
536.583	405.56
536.797	391.56
537.011	382.56
537.225	387.56
537.44	376.56
537.654	387.56
537.868	390.56
538.082	385.56
538.296	398.56
538.51	388.56
538.724	407.56
538.938	409.56
539.153	402.56
539.367	392.56
539.581	413.56
539.795	395.56
540.009	393.56
540.222	396.56
540.436	391.56
540.65	388.56
540.864	392.56
541.078	422.56
541.292	376.56
541.506	383.56
541.72	381.56
541.934	376.56
542.147	378.56
542.361	400.56
542.575	377.56
542.789	383.56
543.002	370.56
543.216	407.56
543.43	383.56
543.644	397.56
543.857	369.56
544.071	395.56
544.285	384.56
544.498	389.56
544.712	376.56
544.925	367.56
545.139	368.56
545.352	362.56
545.566	368.56
545.779	383.56
545.993	369.56
546.206	375.56
546.42	367.56
546.633	387.56
546.847	373.56
547.06	366.56
547.274	349.56
547.487	374.56
547.7	368.56
547.914	353.56
548.127	374.56
548.34	363.56
548.554	360.56
548.767	375.56
548.98	347.56
549.193	360.56
549.407	362.56
549.62	368.56
549.833	360.56
550.046	367.56
550.259	341.56
550.473	363.56
550.686	360.56
550.899	369.56
551.112	357.56
551.325	347.56
551.538	348.56
551.751	350.56
551.964	357.56
552.177	333.56
552.39	350.56
552.603	351.56
552.816	353.56
553.029	335.56
553.242	334.56
553.455	355.56
553.667	373.56
553.88	378.56
554.093	385.56
554.306	364.56
554.519	372.56
554.732	355.56
554.944	342.56
555.157	358.56
555.37	360.56
555.583	334.56
555.795	336.56
556.008	349.56
556.221	321.56
556.433	334.56
556.646	328.56
556.859	321.56
557.071	321.56
557.284	325.56
557.496	333.56
557.709	305.56
557.921	336.56
558.134	319.56
558.346	321.56
558.559	324.56
558.771	321.56
558.984	323.56
559.196	306.56
559.409	326.56
559.621	330.56
559.833	312.56
560.046	321.56
560.258	295.56
560.47	318.56
560.683	323.56
560.895	302.56
561.107	306.56
561.32	330.56
561.532	297.56
561.744	315.56
561.956	331.56
562.168	323.56
562.381	324.56
562.593	328.56
562.805	311.56
563.017	318.56
563.229	322.56
563.441	311.56
563.653	298.56
563.865	294.56
564.077	309.56
564.289	316.56
564.501	305.56
564.713	343.56
564.925	333.56
565.137	330.56
565.349	320.56
565.561	327.56
565.773	331.56
565.985	326.56
566.197	343.56
566.408	343.56
566.62	354.56
566.832	354.56
567.044	355.56
567.255	368.56
567.467	359.56
567.679	378.56
567.891	348.56
568.102	339.56
568.314	367.56
568.526	358.56
568.737	359.56
568.949	336.56
569.161	349.56
569.372	321.56
569.584	330.56
569.795	303.56
570.007	327.56
570.218	363.56
570.43	361.56
570.641	303.56
570.853	287.56
571.064	304.56
571.276	311.56
571.487	305.56
571.698	289.56
571.91	280.56
572.121	295.56
572.333	290.56
572.544	281.56
572.755	285.56
572.966	272.56
573.178	296.56
573.389	283.56
573.6	276.56
573.811	281.56
574.023	281.56
574.234	265.56
574.445	279.56
574.656	266.56
574.867	284.56
575.078	276.56
575.289	274.56
575.501	285.56
575.712	272.56
575.923	278.56
576.134	287.56
576.345	272.56
576.556	272.56
576.767	277.56
576.978	268.56
577.188	281.56
577.399	272.56
577.61	267.56
577.821	267.56
578.032	281.56
578.243	310.56
578.454	499.56
578.665	403.56
578.875	273.56
579.086	297.56
579.297	275.56
579.508	258.56
579.718	274.56
579.929	256.56
580.14	265.56
580.35	251.56
580.561	259.56
580.772	259.56
580.982	267.56
581.193	249.56
581.403	266.56
581.614	248.56
581.825	258.56
582.035	256.56
582.246	253.56
582.456	239.56
582.667	249.56
582.877	249.56
583.087	239.56
583.298	254.56
583.508	259.56
583.719	240.56
583.929	253.56
584.139	256.56
584.35	237.56
584.56	241.56
584.77	250.56
584.981	262.56
585.191	255.56
585.401	234.56
585.611	241.56
585.821	262.56
586.032	270.56
586.242	241.56
586.452	259.56
586.662	235.56
586.872	238.56
587.082	249.56
587.292	245.56
587.502	260.56
587.713	246.56
587.923	230.56
588.133	239.56
588.343	240.56
588.553	241.56
588.762	249.56
588.972	233.56
589.182	245.56
589.392	248.56
589.602	249.56
589.812	254.56
590.022	254.56
590.232	254.56
590.441	247.56
590.651	262.56
590.861	237.56
591.071	241.56
591.281	254.56
591.49	244.56
591.7	243.56
591.91	245.56
592.119	247.56
592.329	247.56
592.539	239.56
592.748	267.56
592.958	253.56
593.167	253.56
593.377	226.56
593.587	247.56
593.796	255.56
594.006	232.56
594.215	245.56
594.424	227.56
594.634	239.56
594.843	231.56
595.053	240.56
595.262	240.56
595.472	237.56
595.681	229.56
595.89	227.56
596.1	233.56
596.309	222.56
596.518	232.56
596.727	241.56
596.937	230.56
597.146	227.56
597.355	229.56
597.564	230.56
597.774	225.56
597.983	217.56
598.192	208.56
598.401	238.56
598.61	211.56
598.819	201.56
599.028	228.56
599.237	226.56
599.446	234.56
599.655	223.56
599.864	228.56
600.073	232.56
600.282	233.56
600.491	230.56
600.7	222.56
600.909	227.56
601.118	221.56
601.327	219.56
601.536	213.56
601.745	211.56
601.953	227.56
602.162	216.56
602.371	218.56
602.58	208.56
602.789	213.56
602.997	202.56
603.206	232.56
603.415	210.56
603.623	205.56
603.832	214.56
604.041	210.56
604.249	213.56
604.458	213.56
604.666	217.56
604.875	211.56
605.084	216.56
605.292	209.56
605.501	202.56
605.709	218.56
605.918	195.56
606.126	201.56
606.334	216.56
606.543	217.56
606.751	210.56
606.96	219.56
607.168	196.56
607.376	201.56
607.585	209.56
607.793	202.56
608.001	212.56
608.21	195.56
608.418	209.56
608.626	218.56
608.834	227.56
609.043	209.56
609.251	205.56
609.459	206.56
609.667	199.56
609.875	201.56
610.083	215.56
610.291	218.56
610.499	222.56
610.707	212.56
610.916	205.56
611.124	219.56
611.332	214.56
611.54	207.56
611.748	209.56
611.955	197.56
612.163	201.56
612.371	199.56
612.579	221.56
612.787	213.56
612.995	219.56
613.203	213.56
613.411	199.56
613.618	187.56
613.826	198.56
614.034	205.56
614.242	202.56
614.449	204.56
614.657	191.56
614.865	194.56
615.072	212.56
615.28	193.56
615.488	208.56
615.695	219.56
615.903	190.56
616.111	211.56
616.318	206.56
616.526	189.56
616.733	193.56
616.941	200.56
617.148	199.56
617.356	207.56
617.563	204.56
617.771	186.56
617.978	213.56
618.185	209.56
618.393	199.56
618.6	189.56
618.807	185.56
619.015	187.56
619.222	199.56
619.429	184.56
619.637	201.56
619.844	198.56
620.051	199.56
620.258	177.56
620.466	194.56
620.673	179.56
620.88	204.56
621.087	199.56
621.294	207.56
621.501	183.56
621.708	188.56
621.915	185.56
622.122	179.56
622.329	201.56
622.536	198.56
622.743	188.56
622.95	202.56
623.157	218.56
623.364	204.56
623.571	190.56
623.778	191.56
623.985	196.56
624.192	183.56
624.399	181.56
624.606	189.56
624.812	174.56
625.019	183.56
625.226	188.56
625.433	188.56
625.639	169.56
625.846	181.56
626.053	175.56
626.259	188.56
626.466	174.56
626.673	183.56
626.879	188.56
627.086	193.56
627.293	179.56
627.499	169.56
627.706	174.56
627.912	175.56
628.119	162.56
628.325	187.56
628.532	165.56
628.738	177.56
628.945	172.56
629.151	177.56
629.357	163.56
629.564	184.56
629.77	157.56
629.976	176.56
630.183	171.56
630.389	180.56
630.595	179.56
630.802	172.56
631.008	176.56
631.214	174.56
631.42	166.56
631.627	188.56
631.833	173.56
632.039	172.56
632.245	170.56
632.451	166.56
632.657	162.56
632.863	160.56
633.069	189.56
633.275	154.56
633.481	159.56
633.688	172.56
633.893	161.56
634.099	160.56
634.305	175.56
634.511	167.56
634.717	172.56
634.923	174.56
635.129	159.56
635.335	167.56
635.541	166.56
635.747	143.56
635.952	159.56
636.158	171.56
636.364	148.56
636.57	159.56
636.775	164.56
636.981	155.56
637.187	161.56
637.392	162.56
637.598	161.56
637.804	162.56
638.009	168.56
638.215	170.56
638.421	155.56
638.626	153.56
638.832	151.56
639.037	165.56
639.243	159.56
639.448	157.56
639.654	154.56
639.859	163.56
640.065	149.56
640.27	150.56
640.475	154.56
640.681	150.56
640.886	149.56
641.091	145.56
641.297	140.56
641.502	143.56
641.707	169.56
641.913	149.56
642.118	149.56
642.323	161.56
642.528	156.56
642.733	133.56
642.939	140.56
643.144	151.56
643.349	150.56
643.554	169.56
643.759	157.56
643.964	152.56
644.169	137.56
644.374	147.56
644.579	159.56
644.784	148.56
644.989	166.56
645.194	144.56
645.399	152.56
645.604	173.56
645.809	153.56
646.014	148.56
646.219	144.56
646.423	141.56
646.628	138.56
646.833	153.56
647.038	146.56
647.243	143.56
647.447	165.56
647.652	157.56
647.857	154.56
648.062	147.56
648.266	145.56
648.471	153.56
648.676	148.56
648.88	170.56
649.085	146.56
649.289	147.56
649.494	161.56
649.698	161.56
649.903	169.56
650.107	155.56
650.312	146.56
650.516	145.56
650.721	146.56
650.925	146.56
651.13	140.56
651.334	152.56
651.539	131.56
651.743	133.56
651.947	133.56
652.152	126.56
652.356	144.56
652.56	129.56
652.764	134.56
652.969	133.56
653.173	126.56
653.377	135.56
653.581	140.56
653.785	131.56
653.99	129.56
654.194	125.56
654.398	139.56
654.602	131.56
654.806	129.56
655.01	138.56
655.214	140.56
655.418	144.56
655.622	127.56
655.826	130.56
656.03	129.56
656.234	132.56
656.438	137.56
656.642	130.56
656.846	100.56
657.049	120.56
657.253	113.56
657.457	121.56
657.661	110.56
657.865	111.56
658.068	107.56
658.272	104.56
658.476	100.56
658.68	110.56
658.883	109.56
659.087	99.56
659.291	101.56
659.494	96.56
659.698	89.56
659.901	100.56
660.105	95.56
660.309	99.56
660.512	112.56
660.716	88.56
660.919	88.56
661.123	91.56
661.326	98.56
661.53	95.56
661.733	96.56
661.936	90.56
662.14	89.56
662.343	98.56
662.546	97.56
662.75	83.56
662.953	89.56
663.156	91.56
663.36	87.56
663.563	86.56
663.766	91.56
663.969	87.56
664.173	87.56
664.376	88.56
664.579	94.56
664.782	89.56
664.985	89.56
665.188	89.56
665.391	91.56
665.594	82.56
665.797	86.56
666	84.56
666.203	86.56
666.406	81.56
666.609	91.56
666.812	83.56
667.015	99.56
667.218	90.56
667.421	86.56
667.624	79.56
667.827	74.56
668.03	91.56
668.232	76.56
668.435	75.56
668.638	83.56
668.841	85.56
669.043	80.56
669.246	86.56
669.449	92.56
669.651	82.56
669.854	71.56
670.057	79.56
670.259	88.56
670.462	81.56
670.665	91.56
670.867	89.56
671.07	94.56
671.272	83.56
671.475	90.56
671.677	85.56
671.88	83.56
672.082	101.56
672.284	91.56
672.487	98.56
672.689	108.56
672.892	77.56
