Data from 1981.PennyLincolnUp.Lamp.En5.5.200Scan.071819.P1_HRD10591_16-42-08-959.txt Node
Date: Thu Jul 18 16:42:08 EDT 2019
User: cochatt
Spectrometer: HR+D1059
Trigger mode: 1
Integration Time (sec): 1.000000E-1
Scans to average: 1
Electric dark correction enabled: true
Nonlinearity correction enabled: false
Boxcar width: 0
XAxis mode: Wavelengths
Number of Pixels in Spectrum: 2048
>>>>>Begin Spectral Data<<<<<
223.165	-19
223.4	-19
223.635	-19
223.869	-7
224.104	-19
224.338	-8
224.573	-8
224.808	-16
225.042	-26
225.277	-8
225.511	-2
225.746	1
225.98	11
226.215	-2
226.449	18
226.683	14
226.918	34
227.152	37
227.387	19
227.621	20
227.856	44
228.09	53
228.324	52
228.559	52
228.793	53
229.027	86
229.262	99
229.496	125
229.73	140
229.964	154
230.199	124
230.433	119
230.667	102
230.901	122
231.136	108
231.37	120
231.604	114
231.838	93
232.072	93
232.306	110
232.541	107
232.775	105
233.009	125
233.243	115
233.477	106
233.711	118
233.945	122
234.179	121
234.413	126
234.647	93
234.881	110
235.115	116
235.349	106
235.583	126
235.817	124
236.051	124
236.285	123
236.519	134
236.753	121
236.987	148
237.221	190
237.455	251
237.689	202
237.922	148
238.156	134
238.39	139
238.624	127
238.858	121
239.091	118
239.325	131
239.559	131
239.793	114
240.027	132
240.26	141
240.494	154
240.728	144
240.961	162
241.195	149
241.429	134
241.662	127
241.896	121
242.13	126
242.363	126
242.597	125
242.83	150
243.064	132
243.298	136
243.531	132
243.765	135
243.998	143
244.232	132
244.465	122
244.699	134
244.932	135
245.166	139
245.399	140
245.633	153
245.866	141
246.099	138
246.333	154
246.566	158
246.8	162
247.033	172
247.266	154
247.5	165
247.733	158
247.966	173
248.2	170
248.433	180
248.666	182
248.899	192
249.133	198
249.366	205
249.599	201
249.832	185
250.066	174
250.299	177
250.532	194
250.765	202
250.998	244
251.231	225
251.465	220
251.698	192
251.931	212
252.164	214
252.397	194
252.63	202
252.863	198
253.096	221
253.329	230
253.562	225
253.795	230
254.028	240
254.261	232
254.494	245
254.727	274
254.96	299
255.193	293
255.426	252
255.659	256
255.892	233
256.124	240
256.357	229
256.59	225
256.823	209
257.056	217
257.289	209
257.521	224
257.754	216
257.987	218
258.22	218
258.452	214
258.685	216
258.918	218
259.151	203
259.383	206
259.616	232
259.849	232
260.081	244
260.314	277
260.547	269
260.779	259
261.012	249
261.244	234
261.477	219
261.71	227
261.942	232
262.175	233
262.407	240
262.64	222
262.872	224
263.105	216
263.337	217
263.57	222
263.802	215
264.035	203
264.267	216
264.499	213
264.732	221
264.964	216
265.197	227
265.429	219
265.661	205
265.894	216
266.126	200
266.358	221
266.591	217
266.823	217
267.055	217
267.287	230
267.52	230
267.752	242
267.984	232
268.216	227
268.448	243
268.681	226
268.913	225
269.145	261
269.377	284
269.609	289
269.841	272
270.073	285
270.306	291
270.538	310
270.77	323
271.002	323
271.234	314
271.466	302
271.698	348
271.93	344
272.162	334
272.394	331
272.626	304
272.858	291
273.09	294
273.322	297
273.553	278
273.785	280
274.017	279
274.249	267
274.481	277
274.713	281
274.945	296
275.176	280
275.408	274
275.64	290
275.872	276
276.104	276
276.335	265
276.567	283
276.799	292
277.031	327
277.262	311
277.494	336
277.726	308
277.957	312
278.189	292
278.421	296
278.652	281
278.884	269
279.115	269
279.347	262
279.579	260
279.81	277
280.042	267
280.273	278
280.505	274
280.736	257
280.968	276
281.199	265
281.431	273
281.662	261
281.894	264
282.125	272
282.356	285
282.588	314
282.819	309
283.051	295
283.282	276
283.513	308
283.745	277
283.976	270
284.207	289
284.439	284
284.67	292
284.901	280
285.132	260
285.364	262
285.595	278
285.826	280
286.057	274
286.288	287
286.52	297
286.751	271
286.982	297
287.213	288
287.444	280
287.675	292
287.906	280
288.138	313
288.369	322
288.6	320
288.831	292
289.062	301
289.293	297
289.524	292
289.755	273
289.986	298
290.217	288
290.448	289
290.679	315
290.91	295
291.141	270
291.371	287
291.602	268
291.833	305
292.064	292
292.295	276
292.526	305
292.757	273
292.987	291
293.218	293
293.449	286
293.68	289
293.91	287
294.141	281
294.372	298
294.603	286
294.833	288
295.064	295
295.295	287
295.525	277
295.756	311
295.987	304
296.217	338
296.448	331
296.679	294
296.909	291
297.14	306
297.37	310
297.601	295
297.831	312
298.062	295
298.292	297
298.523	310
298.753	320
298.984	302
299.214	318
299.445	312
299.675	300
299.905	297
300.136	317
300.366	304
300.597	310
300.827	321
301.057	323
301.288	322
301.518	317
301.748	331
301.979	324
302.209	327
302.439	325
302.669	324
302.9	315
303.13	321
303.36	315
303.59	307
303.82	338
304.051	342
304.281	317
304.511	316
304.741	327
304.971	318
305.201	316
305.431	317
305.661	315
305.891	301
306.121	339
306.352	354
306.582	347
306.812	335
307.042	318
307.272	336
307.502	328
307.731	330
307.961	343
308.191	329
308.421	315
308.651	328
308.881	317
309.111	329
309.341	343
309.571	366
309.8	351
310.03	385
310.26	377
310.49	373
310.72	414
310.949	408
311.179	405
311.409	378
311.639	383
311.868	386
312.098	376
312.328	395
312.557	424
312.787	412
313.017	397
313.246	389
313.476	381
313.706	384
313.935	369
314.165	404
314.394	417
314.624	393
314.853	392
315.083	370
315.312	373
315.542	373
315.771	375
316.001	370
316.23	368
316.46	366
316.689	376
316.919	390
317.148	400
317.377	396
317.607	383
317.836	404
318.065	386
318.295	371
318.524	391
318.753	383
318.983	386
319.212	384
319.441	392
319.67	384
319.9	399
320.129	392
320.358	398
320.587	396
320.816	381
321.046	413
321.275	400
321.504	389
321.733	420
321.962	402
322.191	445
322.42	462
322.649	455
322.878	473
323.108	490
323.337	511
323.566	538
323.795	597
324.024	640
324.253	796
324.482	1116
324.71	1784
324.939	2428
325.168	2014
325.397	1065
325.626	712
325.855	593
326.084	540
326.313	544
326.542	540
326.77	628
326.999	737
327.228	1050
327.457	1515
327.686	1798
327.914	1178
328.143	788
328.372	662
328.6	628
328.829	588
329.058	616
329.287	637
329.515	586
329.744	534
329.972	528
330.201	566
330.43	607
330.658	637
330.887	642
331.115	610
331.344	534
331.572	504
331.801	519
332.03	496
332.258	482
332.486	462
332.715	446
332.943	452
333.172	478
333.4	441
333.629	449
333.857	474
334.085	482
334.314	474
334.542	540
334.771	526
334.999	490
335.227	459
335.455	455
335.684	432
335.912	450
336.14	432
336.369	447
336.597	453
336.825	457
337.053	440
337.281	429
337.51	408
337.738	440
337.966	400
338.194	416
338.422	421
338.65	437
338.878	421
339.106	422
339.334	420
339.562	407
339.79	405
340.018	405
340.246	423
340.474	431
340.702	435
340.93	419
341.158	401
341.386	434
341.614	437
341.842	422
342.07	396
342.298	408
342.526	402
342.754	404
342.981	384
343.209	404
343.437	395
343.665	402
343.893	396
344.12	413
344.348	413
344.576	416
344.804	425
345.031	412
345.259	434
345.487	424
345.714	408
345.942	414
346.17	408
346.397	381
346.625	403
346.853	414
347.08	403
347.308	403
347.535	428
347.763	413
347.99	427
348.218	418
348.445	415
348.673	424
348.9	395
349.128	391
349.355	398
349.583	390
349.81	391
350.037	390
350.265	408
350.492	385
350.72	407
350.947	402
351.174	426
351.402	421
351.629	410
351.856	416
352.083	418
352.311	442
352.538	429
352.765	423
352.992	412
353.22	397
353.447	416
353.674	399
353.901	393
354.128	390
354.355	373
354.583	369
354.81	360
355.037	359
355.264	384
355.491	363
355.718	360
355.945	377
356.172	364
356.399	376
356.626	359
356.853	364
357.08	338
357.307	383
357.534	376
357.761	364
357.988	358
358.215	377
358.441	376
358.668	384
358.895	381
359.122	381
359.349	381
359.576	399
359.802	448
360.029	433
360.256	454
360.483	446
360.709	416
360.936	411
361.163	409
361.39	395
361.616	408
361.843	390
362.07	386
362.296	401
362.523	382
362.749	388
362.976	392
363.203	387
363.429	372
363.656	388
363.882	376
364.109	365
364.335	364
364.562	374
364.788	379
365.015	383
365.241	363
365.468	374
365.694	390
365.92	379
366.147	362
366.373	359
366.599	374
366.826	381
367.052	352
367.278	359
367.505	340
367.731	358
367.957	382
368.184	368
368.41	374
368.636	376
368.862	380
369.089	362
369.315	369
369.541	365
369.767	359
369.993	361
370.219	375
370.445	362
370.672	354
370.898	369
371.124	344
371.35	354
371.576	355
371.802	361
372.028	347
372.254	354
372.48	359
372.706	365
372.932	346
373.158	358
373.384	358
373.61	375
373.835	346
374.061	354
374.287	345
374.513	361
374.739	352
374.965	362
375.191	349
375.416	380
375.642	358
375.868	349
376.094	355
376.319	370
376.545	349
376.771	342
376.997	356
377.222	338
377.448	362
377.674	343
377.899	354
378.125	330
378.35	337
378.576	358
378.802	334
379.027	336
379.253	355
379.478	341
379.704	343
379.929	330
380.155	344
380.38	347
380.606	362
380.831	364
381.057	359
381.282	332
381.507	354
381.733	347
381.958	364
382.184	358
382.409	341
382.634	338
382.86	368
383.085	368
383.31	357
383.535	378
383.761	338
383.986	359
384.211	359
384.436	355
384.662	355
384.887	369
385.112	359
385.337	376
385.562	368
385.787	356
386.013	364
386.238	399
386.463	380
386.688	362
386.913	363
387.138	354
387.363	377
387.588	353
387.813	357
388.038	377
388.263	375
388.488	363
388.713	364
388.938	353
389.163	361
389.387	364
389.612	365
389.837	359
390.062	375
390.287	386
390.512	376
390.736	378
390.961	374
391.186	358
391.411	360
391.636	359
391.86	369
392.085	350
392.31	359
392.534	373
392.759	365
392.984	368
393.208	356
393.433	349
393.658	358
393.882	372
394.107	344
394.331	364
394.556	361
394.78	369
395.005	368
395.229	359
395.454	378
395.678	372
395.903	376
396.127	406
396.352	374
396.576	384
396.801	380
397.025	386
397.249	382
397.474	390
397.698	374
397.922	408
398.147	386
398.371	384
398.595	387
398.82	396
399.044	413
399.268	407
399.492	437
399.717	424
399.941	485
400.165	496
400.389	493
400.613	439
400.837	416
401.062	444
401.286	406
401.51	391
401.734	413
401.958	402
402.182	419
402.406	410
402.63	404
402.854	414
403.078	429
403.302	408
403.526	418
403.75	433
403.974	413
404.198	428
404.422	427
404.645	421
404.869	433
405.093	451
405.317	482
405.541	518
405.765	472
405.988	457
406.212	446
406.436	473
406.66	478
406.883	471
407.107	502
407.331	507
407.555	584
407.778	554
408.002	483
408.226	464
408.449	462
408.673	464
408.896	486
409.12	517
409.344	510
409.567	450
409.791	441
410.014	437
410.238	422
410.461	423
410.685	440
410.908	456
411.132	469
411.355	492
411.578	493
411.802	442
412.025	420
412.249	435
412.472	448
412.695	477
412.919	465
413.142	432
413.365	430
413.589	438
413.812	408
414.035	392
414.258	401
414.482	408
414.705	413
414.928	397
415.151	380
415.374	395
415.597	402
415.821	410
416.044	407
416.267	389
416.49	406
416.713	406
416.936	386
417.159	388
417.382	404
417.605	396
417.828	418
418.051	413
418.274	418
418.497	400
418.72	398
418.943	371
419.166	412
419.389	429
419.611	436
419.834	424
420.057	406
420.28	424
420.503	422
420.726	424
420.948	446
421.171	480
421.394	486
421.617	452
421.839	419
422.062	436
422.285	446
422.507	475
422.73	546
422.953	546
423.175	472
423.398	451
423.621	436
423.843	458
424.066	456
424.288	459
424.511	480
424.733	522
424.956	610
425.178	586
425.401	588
425.623	586
425.846	498
426.068	456
426.291	451
426.513	444
426.735	474
426.958	501
427.18	584
427.402	676
427.625	764
427.847	685
428.069	565
428.292	512
428.514	477
428.736	447
428.958	426
429.181	420
429.403	423
429.625	447
429.847	473
430.069	504
430.292	526
430.514	447
430.736	428
430.958	408
431.18	401
431.402	404
431.624	389
431.846	378
432.068	395
432.29	395
432.512	388
432.734	416
432.956	394
433.178	420
433.4	412
433.622	422
433.844	409
434.066	382
434.287	388
434.509	376
434.731	402
434.953	411
435.175	438
435.397	440
435.618	448
435.84	512
436.062	588
436.284	633
436.505	523
436.727	485
436.949	455
437.17	419
437.392	434
437.614	446
437.835	492
438.057	572
438.278	650
438.5	645
438.721	703
438.943	672
439.165	573
439.386	482
439.608	466
439.829	462
440.05	504
440.272	544
440.493	529
440.715	467
440.936	439
441.158	425
441.379	428
441.6	445
441.822	448
442.043	489
442.264	598
442.486	621
442.707	522
442.928	477
443.149	467
443.371	488
443.592	535
443.813	640
444.034	664
444.255	550
444.476	491
444.698	459
444.919	459
445.14	560
445.361	530
445.582	508
445.803	583
446.024	658
446.245	676
446.466	618
446.687	504
446.908	488
447.129	444
447.35	418
447.571	444
447.792	434
448.013	430
448.234	460
448.455	518
448.675	608
448.896	686
449.117	594
449.338	571
449.559	634
449.779	731
450	596
450.221	496
450.442	452
450.662	445
450.883	416
451.104	440
451.324	440
451.545	413
451.766	394
451.986	399
452.207	380
452.428	386
452.648	380
452.869	391
453.089	383
453.31	396
453.53	385
453.751	378
453.971	407
454.192	410
454.412	388
454.633	378
454.853	379
455.073	390
455.294	412
455.514	456
455.734	444
455.955	394
456.175	370
456.395	365
456.616	340
456.836	361
457.056	349
457.276	363
457.497	362
457.717	356
457.937	377
458.157	362
458.377	374
458.598	398
458.818	444
459.038	540
459.258	554
459.478	441
459.698	422
459.918	404
460.138	402
460.358	382
460.578	382
460.798	372
461.018	397
461.238	372
461.458	377
461.678	400
461.898	369
462.118	392
462.338	393
462.558	401
462.777	387
462.997	386
463.217	413
463.437	412
463.657	409
463.876	391
464.096	406
464.316	407
464.536	402
464.755	407
464.975	396
465.195	476
465.414	524
465.634	471
465.854	427
466.073	408
466.293	429
466.512	385
466.732	399
466.951	389
467.171	374
467.391	399
467.61	396
467.829	404
468.049	409
468.268	381
468.488	385
468.707	369
468.927	389
469.146	377
469.365	362
469.585	379
469.804	376
470.023	407
470.243	366
470.462	392
470.681	416
470.901	417
471.12	370
471.339	375
471.558	388
471.777	396
471.997	393
472.216	404
472.435	402
472.654	414
472.873	382
473.092	403
473.311	377
473.53	408
473.749	397
473.968	451
474.187	548
474.406	564
474.625	461
474.844	420
475.063	416
475.282	401
475.501	384
475.72	413
475.939	412
476.158	406
476.377	420
476.596	408
476.814	394
477.033	413
477.252	414
477.471	403
477.69	434
477.908	429
478.127	421
478.346	434
478.564	430
478.783	440
479.002	422
479.22	426
479.439	438
479.658	459
479.876	483
480.095	485
480.313	507
480.532	483
480.751	489
480.969	477
481.188	543
481.406	566
481.624	486
481.843	482
482.061	463
482.28	451
482.498	460
482.717	475
482.935	449
483.153	458
483.372	452
483.59	442
483.808	456
484.027	469
484.245	448
484.463	458
484.681	472
484.9	481
485.118	470
485.336	457
485.554	463
485.772	464
485.99	478
486.209	481
486.427	473
486.645	487
486.863	507
487.081	504
487.299	484
487.517	496
487.735	467
487.953	497
488.171	507
488.389	508
488.607	524
488.825	470
489.043	501
489.261	532
489.479	511
489.696	518
489.914	503
490.132	499
490.35	519
490.568	514
490.786	524
491.003	546
491.221	557
491.439	542
491.657	523
491.874	557
492.092	552
492.31	576
492.527	566
492.745	573
492.963	583
493.18	581
493.398	575
493.615	575
493.833	580
494.05	604
494.268	578
494.485	582
494.703	563
494.92	586
495.138	590
495.355	566
495.573	603
495.79	571
496.008	614
496.225	591
496.442	577
496.66	589
496.877	562
497.094	606
497.312	584
497.529	581
497.746	601
497.963	620
498.181	652
498.398	651
498.615	631
498.832	633
499.049	649
499.267	647
499.484	665
499.701	669
499.918	680
500.135	697
500.352	698
500.569	714
500.786	709
501.003	712
501.22	716
501.437	690
501.654	688
501.871	742
502.088	693
502.305	661
502.522	659
502.739	648
502.956	606
503.172	598
503.389	609
503.606	599
503.823	605
504.04	603
504.256	601
504.473	575
504.69	574
504.907	579
505.123	590
505.34	578
505.557	561
505.773	552
505.99	554
506.207	586
506.423	555
506.64	587
506.856	542
507.073	562
507.289	557
507.506	536
507.722	567
507.939	588
508.155	610
508.372	541
508.588	532
508.805	552
509.021	537
509.238	570
509.454	576
509.67	550
509.887	551
510.103	568
510.319	582
510.536	661
510.752	1094
510.968	877
511.184	604
511.401	565
511.617	521
511.833	526
512.049	539
512.265	532
512.481	512
512.698	522
512.914	524
513.13	525
513.346	506
513.562	517
513.778	534
513.994	535
514.21	551
514.426	548
514.642	618
514.858	634
515.074	681
515.29	839
515.506	1237
515.721	995
515.937	652
516.153	596
516.369	532
516.585	551
516.801	544
517.016	523
517.232	529
517.448	531
517.664	539
517.879	520
518.095	517
518.311	524
518.527	524
518.742	513
518.958	497
519.173	534
519.389	515
519.605	534
519.82	550
520.036	566
520.251	554
520.467	604
520.682	575
520.898	596
521.113	603
521.329	672
521.544	777
521.76	1028
521.975	1675
522.19	1596
522.406	850
522.621	639
522.836	568
523.052	535
523.267	518
523.482	490
523.698	500
523.913	486
524.128	465
524.343	452
524.559	459
524.774	459
524.989	458
525.204	472
525.419	466
525.634	465
525.849	435
526.064	423
526.28	434
526.495	456
526.71	416
526.925	417
527.14	418
527.355	404
527.57	405
527.785	416
527.999	431
528.214	398
528.429	430
528.644	419
528.859	423
529.074	432
529.289	438
529.503	563
529.718	514
529.933	460
530.148	429
530.363	429
530.577	408
530.792	416
531.007	411
531.221	419
531.436	400
531.651	412
531.865	381
532.08	418
532.295	414
532.509	408
532.724	387
532.938	401
533.153	407
533.367	389
533.582	394
533.796	386
534.011	392
534.225	376
534.44	380
534.654	406
534.868	395
535.083	395
535.297	388
535.511	395
535.726	407
535.94	388
536.154	399
536.369	386
536.583	400
536.797	399
537.011	404
537.225	378
537.44	372
537.654	380
537.868	379
538.082	388
538.296	390
538.51	375
538.724	384
538.938	385
539.153	390
539.367	417
539.581	385
539.795	378
540.009	378
540.222	397
540.436	384
540.65	361
540.864	391
541.078	395
541.292	385
541.506	384
541.72	386
541.934	375
542.147	387
542.361	379
542.575	378
542.789	387
543.002	394
543.216	376
543.43	361
543.644	361
543.857	377
544.071	382
544.285	374
544.498	377
544.712	383
544.925	361
545.139	386
545.352	388
545.566	377
545.779	365
545.993	365
546.206	376
546.42	361
546.633	372
546.847	357
547.06	353
547.274	347
547.487	357
547.7	360
547.914	344
548.127	352
548.34	355
548.554	341
548.767	382
548.98	332
549.193	377
549.407	353
549.62	350
549.833	334
550.046	347
550.259	350
550.473	357
550.686	345
550.899	341
551.112	344
551.325	343
551.538	346
551.751	349
551.964	361
552.177	356
552.39	354
552.603	325
552.816	334
553.029	334
553.242	361
553.455	359
553.667	386
553.88	358
554.093	376
554.306	365
554.519	366
554.732	376
554.944	349
555.157	331
555.37	347
555.583	349
555.795	345
556.008	334
556.221	355
556.433	338
556.646	331
556.859	322
557.071	333
557.284	341
557.496	317
557.709	317
557.921	326
558.134	314
558.346	320
558.559	326
558.771	320
558.984	305
559.196	310
559.409	334
559.621	322
559.833	321
560.046	291
560.258	317
560.47	322
560.683	315
560.895	308
561.107	309
561.32	323
561.532	324
561.744	310
561.956	316
562.168	309
562.381	312
562.593	315
562.805	322
563.017	324
563.229	322
563.441	314
563.653	309
563.865	312
564.077	314
564.289	331
564.501	309
564.713	325
564.925	329
565.137	327
565.349	334
565.561	346
565.773	318
565.985	323
566.197	337
566.408	326
566.62	353
566.832	332
567.044	361
567.255	352
567.467	369
567.679	346
567.891	357
568.102	349
568.314	343
568.526	340
568.737	357
568.949	338
569.161	362
569.372	311
569.584	313
569.795	321
570.007	329
570.218	371
570.43	342
570.641	312
570.853	301
571.064	298
571.276	316
571.487	297
571.698	296
571.91	288
572.121	290
572.333	277
572.544	286
572.755	268
572.966	299
573.178	272
573.389	283
573.6	282
573.811	295
574.023	288
574.234	290
574.445	272
574.656	288
574.867	261
575.078	282
575.289	272
575.501	292
575.712	244
575.923	263
576.134	264
576.345	267
576.556	276
576.767	265
576.978	268
577.188	275
577.399	285
577.61	291
577.821	262
578.032	271
578.243	312
578.454	530
578.665	380
578.875	277
579.086	269
579.297	253
579.508	258
579.718	240
579.929	260
580.14	244
580.35	254
580.561	252
580.772	248
580.982	261
581.193	249
581.403	247
581.614	276
581.825	259
582.035	223
582.246	254
582.456	259
582.667	252
582.877	257
583.087	231
583.298	243
583.508	255
583.719	257
583.929	255
584.139	252
584.35	238
584.56	241
584.77	247
584.981	243
585.191	238
585.401	238
585.611	254
585.821	247
586.032	238
586.242	256
586.452	237
586.662	228
586.872	228
587.082	249
587.292	252
587.502	256
587.713	241
587.923	241
588.133	250
588.343	235
588.553	236
588.762	228
588.972	261
589.182	253
589.392	240
589.602	250
589.812	259
590.022	245
590.232	234
590.441	218
590.651	235
590.861	240
591.071	223
591.281	231
591.49	233
591.7	242
591.91	229
592.119	240
592.329	240
592.539	231
592.748	244
592.958	235
593.167	236
593.377	253
593.587	261
593.796	250
594.006	242
594.215	233
594.424	248
594.634	247
594.843	247
595.053	234
595.262	246
595.472	226
595.681	229
595.89	229
596.1	230
596.309	225
596.518	242
596.727	230
596.937	224
597.146	228
597.355	219
597.564	238
597.774	216
597.983	205
598.192	221
598.401	222
598.61	231
598.819	230
599.028	233
599.237	219
599.446	220
599.655	208
599.864	220
600.073	205
600.282	212
600.491	210
600.7	216
600.909	219
601.118	234
601.327	208
601.536	215
601.745	210
601.953	209
602.162	215
602.371	205
602.58	201
602.789	209
602.997	212
603.206	220
603.415	212
603.623	213
603.832	204
604.041	201
604.249	212
604.458	198
604.666	205
604.875	198
605.084	190
605.292	197
605.501	221
605.709	206
605.918	209
606.126	212
606.334	206
606.543	189
606.751	199
606.96	179
607.168	216
607.376	199
607.585	222
607.793	204
608.001	191
608.21	218
608.418	210
608.626	184
608.834	199
609.043	206
609.251	197
609.459	195
609.667	202
609.875	205
610.083	198
610.291	198
610.499	180
610.707	186
610.916	199
611.124	210
611.332	210
611.54	202
611.748	205
611.955	210
612.163	209
612.371	210
612.579	207
612.787	200
612.995	181
613.203	211
613.411	211
613.618	187
613.826	194
614.034	197
614.242	206
614.449	198
614.657	193
614.865	189
615.072	201
615.28	185
615.488	194
615.695	195
615.903	196
616.111	179
616.318	200
616.526	190
616.733	208
616.941	173
617.148	184
617.356	204
617.563	198
617.771	189
617.978	189
618.185	199
618.393	192
618.6	181
618.807	202
619.015	188
619.222	189
619.429	202
619.637	189
619.844	214
620.051	190
620.258	174
620.466	200
620.673	185
620.88	181
621.087	193
621.294	182
621.501	177
621.708	178
621.915	199
622.122	194
622.329	193
622.536	169
622.743	171
622.95	191
623.157	177
623.364	194
623.571	184
623.778	183
623.985	192
624.192	190
624.399	189
624.606	208
624.812	179
625.019	180
625.226	194
625.433	188
625.639	184
625.846	190
626.053	170
626.259	183
626.466	178
626.673	171
626.879	184
627.086	172
627.293	167
627.499	170
627.706	180
627.912	164
628.119	176
628.325	186
628.532	177
628.738	186
628.945	182
629.151	179
629.357	178
629.564	149
629.77	165
629.976	167
630.183	156
630.389	157
630.595	148
630.802	162
631.008	170
631.214	160
631.42	165
631.627	159
631.833	185
632.039	160
632.245	174
632.451	157
632.657	174
632.863	164
633.069	160
633.275	169
633.481	151
633.688	182
633.893	188
634.099	170
634.305	169
634.511	167
634.717	155
634.923	157
635.129	150
635.335	168
635.541	160
635.747	149
635.952	166
636.158	161
636.364	158
636.57	174
636.775	170
636.981	158
637.187	167
637.392	168
637.598	152
637.804	165
638.009	164
638.215	149
638.421	148
638.626	136
638.832	156
639.037	158
639.243	152
639.448	156
639.654	162
639.859	148
640.065	135
640.27	163
640.475	130
640.681	155
640.886	172
641.091	156
641.297	154
641.502	138
641.707	150
641.913	146
642.118	154
642.323	152
642.528	154
642.733	164
642.939	142
643.144	160
643.349	130
643.554	151
643.759	151
643.964	144
644.169	143
644.374	133
644.579	151
644.784	161
644.989	160
645.194	159
645.399	153
645.604	145
645.809	144
646.014	148
646.219	152
646.423	141
646.628	150
646.833	138
647.038	143
647.243	155
647.447	153
647.652	161
647.857	125
648.062	145
648.266	137
648.471	145
648.676	145
648.88	145
649.085	139
649.289	162
649.494	157
649.698	162
649.903	163
650.107	162
650.312	144
650.516	150
650.721	154
650.925	125
651.13	150
651.334	148
651.539	145
651.743	138
651.947	122
652.152	126
652.356	148
652.56	119
652.764	123
652.969	135
653.173	136
653.377	123
653.581	127
653.785	134
653.99	108
654.194	136
654.398	125
654.602	133
654.806	115
655.01	124
655.214	136
655.418	142
655.622	127
655.826	124
656.03	125
656.234	122
656.438	107
656.642	114
656.846	121
657.049	126
657.253	106
657.457	120
657.661	124
657.865	115
658.068	115
658.272	112
658.476	106
658.68	105
658.883	104
659.087	97
659.291	106
659.494	101
659.698	104
659.901	100
660.105	90
660.309	99
660.512	102
660.716	99
660.919	92
661.123	94
661.326	86
661.53	76
661.733	88
661.936	71
662.14	95
662.343	80
662.546	83
662.75	92
662.953	100
663.156	82
663.36	88
663.563	76
663.766	90
663.969	81
664.173	79
664.376	84
664.579	84
664.782	77
664.985	74
665.188	84
665.391	74
665.594	90
665.797	85
666	84
666.203	66
666.406	83
666.609	83
666.812	84
667.015	83
667.218	87
667.421	86
667.624	77
667.827	80
668.03	90
668.232	67
668.435	88
668.638	93
668.841	97
669.043	77
669.246	77
669.449	80
669.651	92
669.854	68
670.057	88
670.259	88
670.462	86
670.665	81
670.867	82
671.07	81
671.272	89
671.475	87
671.677	70
671.88	69
672.082	80
672.284	82
672.487	95
672.689	69
672.892	77
