Data from 1981.PennyLincolnUp.Lamp.En5.5.200Scan.071819.P1_HRD10591_16-42-04-959.txt Node
Date: Thu Jul 18 16:42:04 EDT 2019
User: cochatt
Spectrometer: HR+D1059
Trigger mode: 1
Integration Time (sec): 1.000000E-1
Scans to average: 1
Electric dark correction enabled: true
Nonlinearity correction enabled: false
Boxcar width: 0
XAxis mode: Wavelengths
Number of Pixels in Spectrum: 2048
>>>>>Begin Spectral Data<<<<<
223.165	-2.56
223.4	-2.56
223.635	-2.56
223.869	-5.56
224.104	-14.56
224.338	-18.56
224.573	-17.56
224.808	-11.56
225.042	-26.56
225.277	-8.56
225.511	2.44
225.746	2.44
225.98	-3.56
226.215	12.44
226.449	17.44
226.683	13.44
226.918	32.44
227.152	28.44
227.387	30.44
227.621	46.44
227.856	40.44
228.09	48.44
228.324	51.44
228.559	62.44
228.793	65.44
229.027	85.44
229.262	107.44
229.496	119.44
229.73	144.44
229.964	161.44
230.199	138.44
230.433	109.44
230.667	122.44
230.901	123.44
231.136	110.44
231.37	112.44
231.604	106.44
231.838	122.44
232.072	107.44
232.306	112.44
232.541	114.44
232.775	126.44
233.009	109.44
233.243	107.44
233.477	120.44
233.711	122.44
233.945	123.44
234.179	118.44
234.413	105.44
234.647	106.44
234.881	115.44
235.115	118.44
235.349	118.44
235.583	119.44
235.817	129.44
236.051	141.44
236.285	132.44
236.519	120.44
236.753	138.44
236.987	150.44
237.221	176.44
237.455	224.44
237.689	185.44
237.922	156.44
238.156	122.44
238.39	138.44
238.624	127.44
238.858	124.44
239.091	125.44
239.325	122.44
239.559	136.44
239.793	124.44
240.027	127.44
240.26	152.44
240.494	150.44
240.728	136.44
240.961	139.44
241.195	138.44
241.429	150.44
241.662	140.44
241.896	136.44
242.13	127.44
242.363	137.44
242.597	134.44
242.83	125.44
243.064	144.44
243.298	136.44
243.531	146.44
243.765	143.44
243.998	144.44
244.232	134.44
244.465	160.44
244.699	138.44
244.932	142.44
245.166	138.44
245.399	144.44
245.633	146.44
245.866	135.44
246.099	140.44
246.333	149.44
246.566	148.44
246.8	153.44
247.033	141.44
247.266	137.44
247.5	170.44
247.733	171.44
247.966	168.44
248.2	162.44
248.433	162.44
248.666	171.44
248.899	202.44
249.133	199.44
249.366	224.44
249.599	205.44
249.832	203.44
250.066	192.44
250.299	190.44
250.532	197.44
250.765	204.44
250.998	224.44
251.231	230.44
251.465	223.44
251.698	190.44
251.931	213.44
252.164	194.44
252.397	204.44
252.63	210.44
252.863	206.44
253.096	219.44
253.329	229.44
253.562	222.44
253.795	230.44
254.028	233.44
254.261	213.44
254.494	225.44
254.727	278.44
254.96	264.44
255.193	284.44
255.426	246.44
255.659	237.44
255.892	230.44
256.124	241.44
256.357	236.44
256.59	213.44
256.823	233.44
257.056	230.44
257.289	208.44
257.521	227.44
257.754	208.44
257.987	205.44
258.22	213.44
258.452	205.44
258.685	209.44
258.918	221.44
259.151	220.44
259.383	225.44
259.616	228.44
259.849	242.44
260.081	242.44
260.314	259.44
260.547	273.44
260.779	240.44
261.012	242.44
261.244	234.44
261.477	237.44
261.71	228.44
261.942	247.44
262.175	258.44
262.407	243.44
262.64	233.44
262.872	211.44
263.105	213.44
263.337	224.44
263.57	229.44
263.802	220.44
264.035	204.44
264.267	214.44
264.499	214.44
264.732	219.44
264.964	213.44
265.197	213.44
265.429	217.44
265.661	197.44
265.894	207.44
266.126	226.44
266.358	209.44
266.591	238.44
266.823	229.44
267.055	227.44
267.287	237.44
267.52	213.44
267.752	213.44
267.984	219.44
268.216	243.44
268.448	245.44
268.681	247.44
268.913	239.44
269.145	268.44
269.377	265.44
269.609	287.44
269.841	284.44
270.073	283.44
270.306	296.44
270.538	316.44
270.77	326.44
271.002	312.44
271.234	317.44
271.466	315.44
271.698	326.44
271.93	328.44
272.162	322.44
272.394	332.44
272.626	320.44
272.858	292.44
273.09	284.44
273.322	285.44
273.553	301.44
273.785	279.44
274.017	268.44
274.249	262.44
274.481	285.44
274.713	260.44
274.945	256.44
275.176	269.44
275.408	268.44
275.64	267.44
275.872	260.44
276.104	267.44
276.335	288.44
276.567	284.44
276.799	287.44
277.031	307.44
277.262	326.44
277.494	309.44
277.726	312.44
277.957	289.44
278.189	286.44
278.421	272.44
278.652	262.44
278.884	270.44
279.115	289.44
279.347	275.44
279.579	261.44
279.81	269.44
280.042	269.44
280.273	280.44
280.505	283.44
280.736	266.44
280.968	267.44
281.199	265.44
281.431	269.44
281.662	256.44
281.894	262.44
282.125	284.44
282.356	308.44
282.588	304.44
282.819	304.44
283.051	286.44
283.282	264.44
283.513	269.44
283.745	275.44
283.976	276.44
284.207	264.44
284.439	274.44
284.67	290.44
284.901	268.44
285.132	283.44
285.364	280.44
285.595	277.44
285.826	274.44
286.057	274.44
286.288	279.44
286.52	282.44
286.751	266.44
286.982	279.44
287.213	282.44
287.444	283.44
287.675	275.44
287.906	312.44
288.138	287.44
288.369	284.44
288.6	295.44
288.831	294.44
289.062	286.44
289.293	296.44
289.524	267.44
289.755	295.44
289.986	276.44
290.217	288.44
290.448	275.44
290.679	272.44
290.91	281.44
291.141	292.44
291.371	280.44
291.602	259.44
291.833	264.44
292.064	265.44
292.295	290.44
292.526	264.44
292.757	278.44
292.987	290.44
293.218	297.44
293.449	288.44
293.68	292.44
293.91	295.44
294.141	284.44
294.372	280.44
294.603	274.44
294.833	301.44
295.064	292.44
295.295	285.44
295.525	269.44
295.756	301.44
295.987	291.44
296.217	312.44
296.448	341.44
296.679	298.44
296.909	293.44
297.14	290.44
297.37	297.44
297.601	296.44
297.831	301.44
298.062	284.44
298.292	290.44
298.523	299.44
298.753	304.44
298.984	300.44
299.214	316.44
299.445	289.44
299.675	283.44
299.905	298.44
300.136	299.44
300.366	300.44
300.597	310.44
300.827	314.44
301.057	327.44
301.288	322.44
301.518	326.44
301.748	337.44
301.979	310.44
302.209	317.44
302.439	309.44
302.669	324.44
302.9	313.44
303.13	308.44
303.36	317.44
303.59	330.44
303.82	342.44
304.051	342.44
304.281	332.44
304.511	326.44
304.741	294.44
304.971	318.44
305.201	318.44
305.431	324.44
305.661	330.44
305.891	312.44
306.121	321.44
306.352	338.44
306.582	326.44
306.812	327.44
307.042	342.44
307.272	321.44
307.502	333.44
307.731	350.44
307.961	340.44
308.191	342.44
308.421	347.44
308.651	332.44
308.881	328.44
309.111	364.44
309.341	332.44
309.571	334.44
309.8	356.44
310.03	374.44
310.26	400.44
310.49	367.44
310.72	386.44
310.949	402.44
311.179	413.44
311.409	402.44
311.639	382.44
311.868	384.44
312.098	362.44
312.328	384.44
312.557	384.44
312.787	425.44
313.017	421.44
313.246	401.44
313.476	378.44
313.706	389.44
313.935	378.44
314.165	397.44
314.394	408.44
314.624	404.44
314.853	392.44
315.083	394.44
315.312	378.44
315.542	360.44
315.771	363.44
316.001	356.44
316.23	375.44
316.46	360.44
316.689	386.44
316.919	398.44
317.148	386.44
317.377	386.44
317.607	405.44
317.836	383.44
318.065	377.44
318.295	376.44
318.524	367.44
318.753	391.44
318.983	393.44
319.212	374.44
319.441	395.44
319.67	406.44
319.9	386.44
320.129	378.44
320.358	366.44
320.587	367.44
320.816	398.44
321.046	419.44
321.275	410.44
321.504	383.44
321.733	394.44
321.962	405.44
322.191	421.44
322.42	447.44
322.649	453.44
322.878	454.44
323.108	474.44
323.337	518.44
323.566	534.44
323.795	566.44
324.024	670.44
324.253	798.44
324.482	1123.44
324.71	1739.44
324.939	2426.44
325.168	2050.44
325.397	1080.44
325.626	714.44
325.855	600.44
326.084	575.44
326.313	545.44
326.542	559.44
326.77	624.44
326.999	739.44
327.228	1016.44
327.457	1538.44
327.686	1768.44
327.914	1202.44
328.143	804.44
328.372	692.44
328.6	631.44
328.829	611.44
329.058	624.44
329.287	627.44
329.515	578.44
329.744	543.44
329.972	525.44
330.201	538.44
330.43	590.44
330.658	620.44
330.887	646.44
331.115	612.44
331.344	555.44
331.572	539.44
331.801	500.44
332.03	480.44
332.258	460.44
332.486	445.44
332.715	444.44
332.943	449.44
333.172	448.44
333.4	452.44
333.629	454.44
333.857	466.44
334.085	483.44
334.314	493.44
334.542	518.44
334.771	522.44
334.999	486.44
335.227	445.44
335.455	440.44
335.684	443.44
335.912	416.44
336.14	425.44
336.369	427.44
336.597	437.44
336.825	436.44
337.053	412.44
337.281	409.44
337.51	423.44
337.738	411.44
337.966	419.44
338.194	425.44
338.422	427.44
338.65	399.44
338.878	389.44
339.106	429.44
339.334	426.44
339.562	403.44
339.79	391.44
340.018	413.44
340.246	402.44
340.474	413.44
340.702	430.44
340.93	410.44
341.158	395.44
341.386	398.44
341.614	425.44
341.842	406.44
342.07	413.44
342.298	400.44
342.526	408.44
342.754	383.44
342.981	385.44
343.209	387.44
343.437	413.44
343.665	388.44
343.893	412.44
344.12	412.44
344.348	410.44
344.576	399.44
344.804	411.44
345.031	416.44
345.259	425.44
345.487	431.44
345.714	436.44
345.942	409.44
346.17	402.44
346.397	386.44
346.625	401.44
346.853	405.44
347.08	413.44
347.308	418.44
347.535	411.44
347.763	410.44
347.99	412.44
348.218	411.44
348.445	429.44
348.673	416.44
348.9	388.44
349.128	398.44
349.355	382.44
349.583	395.44
349.81	381.44
350.037	380.44
350.265	362.44
350.492	368.44
350.72	396.44
350.947	393.44
351.174	408.44
351.402	400.44
351.629	398.44
351.856	404.44
352.083	390.44
352.311	397.44
352.538	403.44
352.765	406.44
352.992	407.44
353.22	401.44
353.447	392.44
353.674	386.44
353.901	382.44
354.128	362.44
354.355	353.44
354.583	364.44
354.81	357.44
355.037	352.44
355.264	351.44
355.491	360.44
355.718	365.44
355.945	369.44
356.172	340.44
356.399	358.44
356.626	346.44
356.853	380.44
357.08	350.44
357.307	350.44
357.534	361.44
357.761	348.44
357.988	350.44
358.215	364.44
358.441	354.44
358.668	364.44
358.895	372.44
359.122	366.44
359.349	370.44
359.576	403.44
359.802	411.44
360.029	460.44
360.256	464.44
360.483	418.44
360.709	407.44
360.936	385.44
361.163	398.44
361.39	407.44
361.616	399.44
361.843	369.44
362.07	388.44
362.296	399.44
362.523	388.44
362.749	377.44
362.976	387.44
363.203	396.44
363.429	372.44
363.656	348.44
363.882	373.44
364.109	362.44
364.335	372.44
364.562	358.44
364.788	350.44
365.015	344.44
365.241	359.44
365.468	373.44
365.694	380.44
365.92	377.44
366.147	363.44
366.373	353.44
366.599	345.44
366.826	344.44
367.052	363.44
367.278	333.44
367.505	364.44
367.731	368.44
367.957	359.44
368.184	356.44
368.41	365.44
368.636	381.44
368.862	373.44
369.089	373.44
369.315	373.44
369.541	353.44
369.767	362.44
369.993	348.44
370.219	336.44
370.445	355.44
370.672	365.44
370.898	326.44
371.124	345.44
371.35	338.44
371.576	347.44
371.802	359.44
372.028	356.44
372.254	341.44
372.48	327.44
372.706	346.44
372.932	344.44
373.158	351.44
373.384	365.44
373.61	353.44
373.835	350.44
374.061	351.44
374.287	359.44
374.513	339.44
374.739	357.44
374.965	361.44
375.191	366.44
375.416	361.44
375.642	355.44
375.868	353.44
376.094	354.44
376.319	358.44
376.545	357.44
376.771	343.44
376.997	348.44
377.222	357.44
377.448	328.44
377.674	342.44
377.899	329.44
378.125	342.44
378.35	338.44
378.576	351.44
378.802	335.44
379.027	326.44
379.253	341.44
379.478	327.44
379.704	333.44
379.929	333.44
380.155	352.44
380.38	345.44
380.606	351.44
380.831	332.44
381.057	364.44
381.282	344.44
381.507	342.44
381.733	340.44
381.958	353.44
382.184	333.44
382.409	330.44
382.634	369.44
382.86	336.44
383.085	349.44
383.31	347.44
383.535	328.44
383.761	346.44
383.986	329.44
384.211	359.44
384.436	357.44
384.662	331.44
384.887	350.44
385.112	356.44
385.337	345.44
385.562	358.44
385.787	355.44
386.013	377.44
386.238	350.44
386.463	369.44
386.688	366.44
386.913	346.44
387.138	381.44
387.363	365.44
387.588	363.44
387.813	382.44
388.038	373.44
388.263	340.44
388.488	338.44
388.713	355.44
388.938	346.44
389.163	372.44
389.387	362.44
389.612	348.44
389.837	363.44
390.062	369.44
390.287	343.44
390.512	364.44
390.736	371.44
390.961	358.44
391.186	358.44
391.411	361.44
391.636	364.44
391.86	374.44
392.085	352.44
392.31	361.44
392.534	372.44
392.759	382.44
392.984	358.44
393.208	347.44
393.433	370.44
393.658	342.44
393.882	362.44
394.107	359.44
394.331	373.44
394.556	348.44
394.78	363.44
395.005	360.44
395.229	347.44
395.454	355.44
395.678	359.44
395.903	376.44
396.127	372.44
396.352	393.44
396.576	365.44
396.801	364.44
397.025	381.44
397.249	394.44
397.474	361.44
397.698	359.44
397.922	375.44
398.147	410.44
398.371	397.44
398.595	375.44
398.82	386.44
399.044	394.44
399.268	415.44
399.492	428.44
399.717	429.44
399.941	441.44
400.165	489.44
400.389	482.44
400.613	445.44
400.837	444.44
401.062	397.44
401.286	403.44
401.51	404.44
401.734	395.44
401.958	388.44
402.182	394.44
402.406	421.44
402.63	413.44
402.854	401.44
403.078	400.44
403.302	419.44
403.526	413.44
403.75	416.44
403.974	403.44
404.198	400.44
404.422	434.44
404.645	440.44
404.869	405.44
405.093	445.44
405.317	478.44
405.541	508.44
405.765	479.44
405.988	444.44
406.212	466.44
406.436	469.44
406.66	461.44
406.883	440.44
407.107	482.44
407.331	491.44
407.555	556.44
407.778	556.44
408.002	503.44
408.226	483.44
408.449	460.44
408.673	468.44
408.896	463.44
409.12	524.44
409.344	469.44
409.567	426.44
409.791	421.44
410.014	414.44
410.238	415.44
410.461	397.44
410.685	433.44
410.908	441.44
411.132	475.44
411.355	481.44
411.578	476.44
411.802	425.44
412.025	423.44
412.249	404.44
412.472	422.44
412.695	472.44
412.919	463.44
413.142	444.44
413.365	399.44
413.589	417.44
413.812	415.44
414.035	380.44
414.258	384.44
414.482	376.44
414.705	373.44
414.928	370.44
415.151	390.44
415.374	365.44
415.597	364.44
415.821	395.44
416.044	394.44
416.267	390.44
416.49	389.44
416.713	406.44
416.936	384.44
417.159	393.44
417.382	378.44
417.605	388.44
417.828	408.44
418.051	416.44
418.274	407.44
418.497	388.44
418.72	393.44
418.943	357.44
419.166	394.44
419.389	418.44
419.611	410.44
419.834	413.44
420.057	409.44
420.28	413.44
420.503	405.44
420.726	406.44
420.948	443.44
421.171	473.44
421.394	482.44
421.617	429.44
421.839	429.44
422.062	414.44
422.285	424.44
422.507	484.44
422.73	529.44
422.953	529.44
423.175	453.44
423.398	439.44
423.621	442.44
423.843	454.44
424.066	444.44
424.288	448.44
424.511	452.44
424.733	498.44
424.956	596.44
425.178	562.44
425.401	564.44
425.623	597.44
425.846	483.44
426.068	458.44
426.291	455.44
426.513	451.44
426.735	469.44
426.958	490.44
427.18	576.44
427.402	670.44
427.625	760.44
427.847	660.44
428.069	556.44
428.292	511.44
428.514	453.44
428.736	450.44
428.958	434.44
429.181	412.44
429.403	406.44
429.625	437.44
429.847	477.44
430.069	517.44
430.292	515.44
430.514	438.44
430.736	420.44
430.958	410.44
431.18	383.44
431.402	387.44
431.624	398.44
431.846	374.44
432.068	390.44
432.29	365.44
432.512	382.44
432.734	398.44
432.956	395.44
433.178	408.44
433.4	412.44
433.622	390.44
433.844	395.44
434.066	392.44
434.287	382.44
434.509	400.44
434.731	396.44
434.953	396.44
435.175	415.44
435.397	431.44
435.618	459.44
435.84	525.44
436.062	589.44
436.284	619.44
436.505	542.44
436.727	483.44
436.949	436.44
437.17	426.44
437.392	404.44
437.614	454.44
437.835	471.44
438.057	593.44
438.278	648.44
438.5	665.44
438.721	688.44
438.943	670.44
439.165	524.44
439.386	483.44
439.608	473.44
439.829	460.44
440.05	504.44
440.272	540.44
440.493	528.44
440.715	469.44
440.936	439.44
441.158	434.44
441.379	448.44
441.6	432.44
441.822	435.44
442.043	477.44
442.264	598.44
442.486	601.44
442.707	508.44
442.928	494.44
443.149	472.44
443.371	506.44
443.592	548.44
443.813	596.44
444.034	655.44
444.255	548.44
444.476	470.44
444.698	473.44
444.919	444.44
445.14	599.44
445.361	497.44
445.582	502.44
445.803	555.44
446.024	656.44
446.245	659.44
446.466	595.44
446.687	523.44
446.908	462.44
447.129	448.44
447.35	433.44
447.571	425.44
447.792	427.44
448.013	439.44
448.234	442.44
448.455	485.44
448.675	614.44
448.896	680.44
449.117	597.44
449.338	564.44
449.559	644.44
449.779	697.44
450	556.44
450.221	489.44
450.442	434.44
450.662	414.44
450.883	449.44
451.104	445.44
451.324	439.44
451.545	424.44
451.766	383.44
451.986	382.44
452.207	390.44
452.428	371.44
452.648	372.44
452.869	399.44
453.089	374.44
453.31	381.44
453.53	377.44
453.751	382.44
453.971	385.44
454.192	395.44
454.412	400.44
454.633	376.44
454.853	380.44
455.073	382.44
455.294	410.44
455.514	461.44
455.734	461.44
455.955	401.44
456.175	379.44
456.395	366.44
456.616	357.44
456.836	346.44
457.056	361.44
457.276	354.44
457.497	347.44
457.717	368.44
457.937	375.44
458.157	373.44
458.377	368.44
458.598	386.44
458.818	454.44
459.038	518.44
459.258	530.44
459.478	458.44
459.698	415.44
459.918	395.44
460.138	366.44
460.358	391.44
460.578	377.44
460.798	386.44
461.018	380.44
461.238	372.44
461.458	374.44
461.678	366.44
461.898	380.44
462.118	371.44
462.338	404.44
462.558	386.44
462.777	390.44
462.997	392.44
463.217	399.44
463.437	396.44
463.657	381.44
463.876	370.44
464.096	404.44
464.316	392.44
464.536	428.44
464.755	414.44
464.975	420.44
465.195	471.44
465.414	541.44
465.634	470.44
465.854	434.44
466.073	403.44
466.293	414.44
466.512	377.44
466.732	372.44
466.951	377.44
467.171	389.44
467.391	372.44
467.61	380.44
467.829	393.44
468.049	396.44
468.268	378.44
468.488	372.44
468.707	368.44
468.927	357.44
469.146	372.44
469.365	372.44
469.585	366.44
469.804	376.44
470.023	384.44
470.243	386.44
470.462	396.44
470.681	401.44
470.901	411.44
471.12	408.44
471.339	380.44
471.558	402.44
471.777	384.44
471.997	391.44
472.216	378.44
472.435	413.44
472.654	394.44
472.873	391.44
473.092	402.44
473.311	392.44
473.53	395.44
473.749	387.44
473.968	445.44
474.187	527.44
474.406	573.44
474.625	447.44
474.844	421.44
475.063	398.44
475.282	409.44
475.501	395.44
475.72	406.44
475.939	410.44
476.158	408.44
476.377	412.44
476.596	402.44
476.814	415.44
477.033	430.44
477.252	406.44
477.471	401.44
477.69	396.44
477.908	411.44
478.127	436.44
478.346	402.44
478.564	392.44
478.783	405.44
479.002	429.44
479.22	441.44
479.439	448.44
479.658	458.44
479.876	458.44
480.095	499.44
480.313	483.44
480.532	466.44
480.751	471.44
480.969	480.44
481.188	545.44
481.406	553.44
481.624	531.44
481.843	474.44
482.061	450.44
482.28	469.44
482.498	459.44
482.717	440.44
482.935	459.44
483.153	456.44
483.372	455.44
483.59	459.44
483.808	444.44
484.027	450.44
484.245	454.44
484.463	481.44
484.681	483.44
484.9	444.44
485.118	443.44
485.336	458.44
485.554	456.44
485.772	455.44
485.99	462.44
486.209	462.44
486.427	466.44
486.645	477.44
486.863	509.44
487.081	504.44
487.299	475.44
487.517	493.44
487.735	482.44
487.953	491.44
488.171	509.44
488.389	493.44
488.607	487.44
488.825	495.44
489.043	497.44
489.261	510.44
489.479	478.44
489.696	458.44
489.914	492.44
490.132	507.44
490.35	484.44
490.568	501.44
490.786	523.44
491.003	520.44
491.221	538.44
491.439	534.44
491.657	517.44
491.874	555.44
492.092	552.44
492.31	551.44
492.527	552.44
492.745	557.44
492.963	576.44
493.18	551.44
493.398	573.44
493.615	570.44
493.833	594.44
494.05	572.44
494.268	572.44
494.485	550.44
494.703	554.44
494.92	583.44
495.138	562.44
495.355	585.44
495.573	601.44
495.79	578.44
496.008	568.44
496.225	579.44
496.442	574.44
496.66	560.44
496.877	568.44
497.094	582.44
497.312	579.44
497.529	587.44
497.746	601.44
497.963	591.44
498.181	642.44
498.398	612.44
498.615	627.44
498.832	638.44
499.049	633.44
499.267	658.44
499.484	648.44
499.701	621.44
499.918	683.44
500.135	697.44
500.352	678.44
500.569	698.44
500.786	712.44
501.003	690.44
501.22	716.44
501.437	698.44
501.654	706.44
501.871	711.44
502.088	681.44
502.305	654.44
502.522	629.44
502.739	619.44
502.956	621.44
503.172	604.44
503.389	583.44
503.606	611.44
503.823	597.44
504.04	605.44
504.256	573.44
504.473	563.44
504.69	552.44
504.907	576.44
505.123	567.44
505.34	564.44
505.557	563.44
505.773	556.44
505.99	574.44
506.207	549.44
506.423	547.44
506.64	572.44
506.856	557.44
507.073	576.44
507.289	572.44
507.506	549.44
507.722	551.44
507.939	568.44
508.155	562.44
508.372	555.44
508.588	536.44
508.805	568.44
509.021	568.44
509.238	566.44
509.454	573.44
509.67	549.44
509.887	534.44
510.103	551.44
510.319	579.44
510.536	659.44
510.752	1115.44
510.968	844.44
511.184	570.44
511.401	546.44
511.617	530.44
511.833	529.44
512.049	532.44
512.265	533.44
512.481	530.44
512.698	512.44
512.914	516.44
513.13	490.44
513.346	504.44
513.562	522.44
513.778	544.44
513.994	545.44
514.21	532.44
514.426	546.44
514.642	620.44
514.858	681.44
515.074	711.44
515.29	847.44
515.506	1272.44
515.721	1008.44
515.937	655.44
516.153	578.44
516.369	556.44
516.585	537.44
516.801	534.44
517.016	537.44
517.232	517.44
517.448	533.44
517.664	513.44
517.879	530.44
518.095	532.44
518.311	514.44
518.527	496.44
518.742	513.44
518.958	513.44
519.173	530.44
519.389	507.44
519.605	500.44
519.82	512.44
520.036	520.44
520.251	567.44
520.467	579.44
520.682	600.44
520.898	615.44
521.113	632.44
521.329	677.44
521.544	762.44
521.76	992.44
521.975	1664.44
522.19	1585.44
522.406	866.44
522.621	648.44
522.836	564.44
523.052	540.44
523.267	504.44
523.482	485.44
523.698	501.44
523.913	478.44
524.128	484.44
524.343	464.44
524.559	449.44
524.774	432.44
524.989	464.44
525.204	435.44
525.419	459.44
525.634	435.44
525.849	429.44
526.064	427.44
526.28	435.44
526.495	414.44
526.71	420.44
526.925	421.44
527.14	410.44
527.355	398.44
527.57	385.44
527.785	406.44
527.999	420.44
528.214	411.44
528.429	391.44
528.644	418.44
528.859	441.44
529.074	430.44
529.289	442.44
529.503	532.44
529.718	517.44
529.933	450.44
530.148	434.44
530.363	406.44
530.577	411.44
530.792	419.44
531.007	413.44
531.221	410.44
531.436	430.44
531.651	412.44
531.865	414.44
532.08	391.44
532.295	400.44
532.509	399.44
532.724	390.44
532.938	388.44
533.153	388.44
533.367	393.44
533.582	397.44
533.796	385.44
534.011	372.44
534.225	382.44
534.44	379.44
534.654	392.44
534.868	386.44
535.083	397.44
535.297	388.44
535.511	398.44
535.726	391.44
535.94	390.44
536.154	391.44
536.369	391.44
536.583	391.44
536.797	383.44
537.011	364.44
537.225	368.44
537.44	376.44
537.654	362.44
537.868	360.44
538.082	382.44
538.296	386.44
538.51	363.44
538.724	369.44
538.938	374.44
539.153	391.44
539.367	414.44
539.581	396.44
539.795	372.44
540.009	388.44
540.222	387.44
540.436	378.44
540.65	386.44
540.864	395.44
541.078	394.44
541.292	378.44
541.506	380.44
541.72	381.44
541.934	376.44
542.147	374.44
542.361	374.44
542.575	359.44
542.789	366.44
543.002	366.44
543.216	357.44
543.43	390.44
543.644	369.44
543.857	368.44
544.071	383.44
544.285	382.44
544.498	375.44
544.712	374.44
544.925	347.44
545.139	336.44
545.352	366.44
545.566	370.44
545.779	357.44
545.993	356.44
546.206	368.44
546.42	361.44
546.633	357.44
546.847	350.44
547.06	362.44
547.274	331.44
547.487	362.44
547.7	379.44
547.914	344.44
548.127	342.44
548.34	353.44
548.554	360.44
548.767	339.44
548.98	346.44
549.193	329.44
549.407	330.44
549.62	358.44
549.833	337.44
550.046	339.44
550.259	340.44
550.473	334.44
550.686	330.44
550.899	337.44
551.112	346.44
551.325	352.44
551.538	346.44
551.751	338.44
551.964	338.44
552.177	341.44
552.39	332.44
552.603	344.44
552.816	350.44
553.029	345.44
553.242	339.44
553.455	338.44
553.667	373.44
553.88	380.44
554.093	356.44
554.306	352.44
554.519	365.44
554.732	336.44
554.944	342.44
555.157	347.44
555.37	340.44
555.583	320.44
555.795	318.44
556.008	325.44
556.221	338.44
556.433	340.44
556.646	328.44
556.859	309.44
557.071	329.44
557.284	327.44
557.496	306.44
557.709	324.44
557.921	331.44
558.134	322.44
558.346	330.44
558.559	302.44
558.771	300.44
558.984	314.44
559.196	317.44
559.409	282.44
559.621	310.44
559.833	304.44
560.046	287.44
560.258	312.44
560.47	304.44
560.683	311.44
560.895	313.44
561.107	316.44
561.32	308.44
561.532	319.44
561.744	314.44
561.956	317.44
562.168	317.44
562.381	302.44
562.593	307.44
562.805	328.44
563.017	310.44
563.229	315.44
563.441	308.44
563.653	320.44
563.865	317.44
564.077	326.44
564.289	314.44
564.501	313.44
564.713	319.44
564.925	290.44
565.137	340.44
565.349	318.44
565.561	334.44
565.773	313.44
565.985	305.44
566.197	337.44
566.408	337.44
566.62	332.44
566.832	347.44
567.044	339.44
567.255	361.44
567.467	334.44
567.679	343.44
567.891	361.44
568.102	341.44
568.314	339.44
568.526	347.44
568.737	337.44
568.949	322.44
569.161	308.44
569.372	329.44
569.584	300.44
569.795	320.44
570.007	329.44
570.218	363.44
570.43	343.44
570.641	306.44
570.853	295.44
571.064	300.44
571.276	277.44
571.487	294.44
571.698	286.44
571.91	270.44
572.121	281.44
572.333	276.44
572.544	288.44
572.755	275.44
572.966	274.44
573.178	266.44
573.389	267.44
573.6	265.44
573.811	288.44
574.023	267.44
574.234	283.44
574.445	278.44
574.656	277.44
574.867	265.44
575.078	266.44
575.289	251.44
575.501	262.44
575.712	266.44
575.923	285.44
576.134	263.44
576.345	275.44
576.556	243.44
576.767	261.44
576.978	265.44
577.188	254.44
577.399	275.44
577.61	261.44
577.821	261.44
578.032	268.44
578.243	324.44
578.454	503.44
578.665	402.44
578.875	280.44
579.086	266.44
579.297	254.44
579.508	252.44
579.718	286.44
579.929	260.44
580.14	262.44
580.35	251.44
580.561	264.44
580.772	257.44
580.982	257.44
581.193	245.44
581.403	237.44
581.614	250.44
581.825	253.44
582.035	237.44
582.246	265.44
582.456	256.44
582.667	228.44
582.877	237.44
583.087	251.44
583.298	243.44
583.508	246.44
583.719	249.44
583.929	250.44
584.139	246.44
584.35	246.44
584.56	241.44
584.77	236.44
584.981	229.44
585.191	231.44
585.401	247.44
585.611	235.44
585.821	258.44
586.032	248.44
586.242	236.44
586.452	222.44
586.662	230.44
586.872	231.44
587.082	246.44
587.292	226.44
587.502	248.44
587.713	234.44
587.923	228.44
588.133	231.44
588.343	234.44
588.553	258.44
588.762	254.44
588.972	256.44
589.182	262.44
589.392	253.44
589.602	244.44
589.812	256.44
590.022	243.44
590.232	232.44
590.441	252.44
590.651	236.44
590.861	229.44
591.071	236.44
591.281	240.44
591.49	237.44
591.7	230.44
591.91	241.44
592.119	244.44
592.329	230.44
592.539	252.44
592.748	244.44
592.958	236.44
593.167	242.44
593.377	240.44
593.587	230.44
593.796	254.44
594.006	256.44
594.215	252.44
594.424	241.44
594.634	256.44
594.843	231.44
595.053	247.44
595.262	236.44
595.472	225.44
595.681	219.44
595.89	244.44
596.1	230.44
596.309	224.44
596.518	212.44
596.727	223.44
596.937	221.44
597.146	234.44
597.355	229.44
597.564	218.44
597.774	228.44
597.983	206.44
598.192	213.44
598.401	221.44
598.61	223.44
598.819	211.44
599.028	209.44
599.237	230.44
599.446	215.44
599.655	225.44
599.864	218.44
600.073	207.44
600.282	217.44
600.491	220.44
600.7	225.44
600.909	213.44
601.118	203.44
601.327	186.44
601.536	207.44
601.745	210.44
601.953	214.44
602.162	218.44
602.371	213.44
602.58	206.44
602.789	197.44
602.997	206.44
603.206	210.44
603.415	207.44
603.623	189.44
603.832	191.44
604.041	205.44
604.249	206.44
604.458	214.44
604.666	192.44
604.875	210.44
605.084	197.44
605.292	195.44
605.501	205.44
605.709	186.44
605.918	198.44
606.126	200.44
606.334	217.44
606.543	195.44
606.751	208.44
606.96	198.44
607.168	205.44
607.376	207.44
607.585	198.44
607.793	215.44
608.001	203.44
608.21	210.44
608.418	203.44
608.626	206.44
608.834	202.44
609.043	196.44
609.251	190.44
609.459	190.44
609.667	211.44
609.875	196.44
610.083	205.44
610.291	207.44
610.499	196.44
610.707	199.44
610.916	205.44
611.124	227.44
611.332	194.44
611.54	206.44
611.748	204.44
611.955	191.44
612.163	205.44
612.371	198.44
612.579	210.44
612.787	184.44
612.995	198.44
613.203	208.44
613.411	201.44
613.618	194.44
613.826	205.44
614.034	199.44
614.242	186.44
614.449	202.44
614.657	200.44
614.865	178.44
615.072	191.44
615.28	190.44
615.488	183.44
615.695	201.44
615.903	202.44
616.111	201.44
616.318	208.44
616.526	191.44
616.733	189.44
616.941	196.44
617.148	209.44
617.356	176.44
617.563	208.44
617.771	208.44
617.978	179.44
618.185	187.44
618.393	192.44
618.6	181.44
618.807	192.44
619.015	206.44
619.222	184.44
619.429	178.44
619.637	183.44
619.844	187.44
620.051	175.44
620.258	180.44
620.466	196.44
620.673	190.44
620.88	169.44
621.087	195.44
621.294	178.44
621.501	177.44
621.708	178.44
621.915	189.44
622.122	185.44
622.329	186.44
622.536	192.44
622.743	178.44
622.95	181.44
623.157	163.44
623.364	199.44
623.571	181.44
623.778	164.44
623.985	187.44
624.192	184.44
624.399	170.44
624.606	186.44
624.812	177.44
625.019	182.44
625.226	182.44
625.433	194.44
625.639	186.44
625.846	185.44
626.053	176.44
626.259	175.44
626.466	189.44
626.673	162.44
626.879	160.44
627.086	178.44
627.293	176.44
627.499	165.44
627.706	178.44
627.912	162.44
628.119	182.44
628.325	168.44
628.532	156.44
628.738	170.44
628.945	177.44
629.151	152.44
629.357	169.44
629.564	158.44
629.77	168.44
629.976	164.44
630.183	163.44
630.389	142.44
630.595	160.44
630.802	174.44
631.008	174.44
631.214	166.44
631.42	161.44
631.627	161.44
631.833	168.44
632.039	160.44
632.245	161.44
632.451	157.44
632.657	146.44
632.863	162.44
633.069	143.44
633.275	158.44
633.481	151.44
633.688	142.44
633.893	174.44
634.099	165.44
634.305	178.44
634.511	154.44
634.717	152.44
634.923	145.44
635.129	154.44
635.335	156.44
635.541	141.44
635.747	153.44
635.952	152.44
636.158	151.44
636.364	158.44
636.57	165.44
636.775	171.44
636.981	156.44
637.187	156.44
637.392	162.44
637.598	156.44
637.804	152.44
638.009	149.44
638.215	141.44
638.421	150.44
638.626	152.44
638.832	154.44
639.037	161.44
639.243	147.44
639.448	155.44
639.654	168.44
639.859	162.44
640.065	153.44
640.27	144.44
640.475	145.44
640.681	157.44
640.886	159.44
641.091	138.44
641.297	144.44
641.502	145.44
641.707	137.44
641.913	140.44
642.118	140.44
642.323	163.44
642.528	156.44
642.733	139.44
642.939	142.44
643.144	150.44
643.349	144.44
643.554	157.44
643.759	150.44
643.964	129.44
644.169	140.44
644.374	134.44
644.579	137.44
644.784	132.44
644.989	150.44
645.194	138.44
645.399	131.44
645.604	151.44
645.809	149.44
646.014	139.44
646.219	142.44
646.423	155.44
646.628	156.44
646.833	148.44
647.038	152.44
647.243	154.44
647.447	137.44
647.652	148.44
647.857	134.44
648.062	146.44
648.266	139.44
648.471	156.44
648.676	146.44
648.88	132.44
649.085	146.44
649.289	159.44
649.494	157.44
649.698	172.44
649.903	156.44
650.107	147.44
650.312	144.44
650.516	138.44
650.721	143.44
650.925	122.44
651.13	117.44
651.334	124.44
651.539	124.44
651.743	121.44
651.947	134.44
652.152	126.44
652.356	117.44
652.56	140.44
652.764	130.44
652.969	126.44
653.173	126.44
653.377	128.44
653.581	128.44
653.785	129.44
653.99	132.44
654.194	131.44
654.398	119.44
654.602	118.44
654.806	120.44
655.01	137.44
655.214	128.44
655.418	117.44
655.622	115.44
655.826	133.44
656.03	115.44
656.234	116.44
656.438	130.44
656.642	106.44
656.846	109.44
657.049	124.44
657.253	116.44
657.457	116.44
657.661	102.44
657.865	93.44
658.068	101.44
658.272	97.44
658.476	105.44
658.68	88.44
658.883	103.44
659.087	91.44
659.291	104.44
659.494	95.44
659.698	75.44
659.901	89.44
660.105	91.44
660.309	99.44
660.512	86.44
660.716	96.44
660.919	88.44
661.123	89.44
661.326	82.44
661.53	92.44
661.733	88.44
661.936	80.44
662.14	82.44
662.343	91.44
662.546	80.44
662.75	77.44
662.953	72.44
663.156	76.44
663.36	88.44
663.563	94.44
663.766	91.44
663.969	82.44
664.173	88.44
664.376	72.44
664.579	78.44
664.782	77.44
664.985	78.44
665.188	86.44
665.391	85.44
665.594	79.44
665.797	87.44
666	80.44
666.203	77.44
666.406	88.44
666.609	98.44
666.812	87.44
667.015	76.44
667.218	86.44
667.421	74.44
667.624	77.44
667.827	75.44
668.03	73.44
668.232	72.44
668.435	84.44
668.638	77.44
668.841	81.44
669.043	75.44
669.246	65.44
669.449	89.44
669.651	90.44
669.854	76.44
670.057	69.44
670.259	83.44
670.462	77.44
670.665	88.44
670.867	84.44
671.07	88.44
671.272	86.44
671.475	88.44
671.677	87.44
671.88	91.44
672.082	79.44
672.284	86.44
672.487	90.44
672.689	89.44
672.892	81.44
