Data from 1982.PennyLincolnUp.Lamp.En5.5.200Scan.071819.P1_HRD10591_16-45-20-961.txt Node
Date: Thu Jul 18 16:45:20 EDT 2019
User: cochatt
Spectrometer: HR+D1059
Trigger mode: 1
Integration Time (sec): 1.000000E-1
Scans to average: 1
Electric dark correction enabled: true
Nonlinearity correction enabled: false
Boxcar width: 0
XAxis mode: Wavelengths
Number of Pixels in Spectrum: 2048
>>>>>Begin Spectral Data<<<<<
223.165	-22.06
223.4	-22.06
223.635	-22.06
223.869	-21.06
224.104	-12.06
224.338	-14.06
224.573	-12.06
224.808	-17.06
225.042	-3.06
225.277	-12.06
225.511	-12.06
225.746	2.94
225.98	3.94
226.215	20.94
226.449	16.94
226.683	11.94
226.918	31.94
227.152	36.94
227.387	32.94
227.621	31.94
227.856	31.94
228.09	43.94
228.324	42.94
228.559	49.94
228.793	63.94
229.027	93.94
229.262	67.94
229.496	94.94
229.73	105.94
229.964	114.94
230.199	100.94
230.433	94.94
230.667	114.94
230.901	98.94
231.136	110.94
231.37	92.94
231.604	80.94
231.838	98.94
232.072	106.94
232.306	88.94
232.541	100.94
232.775	110.94
233.009	110.94
233.243	93.94
233.477	104.94
233.711	102.94
233.945	107.94
234.179	108.94
234.413	107.94
234.647	106.94
234.881	116.94
235.115	98.94
235.349	90.94
235.583	103.94
235.817	100.94
236.051	101.94
236.285	104.94
236.519	104.94
236.753	119.94
236.987	124.94
237.221	148.94
237.455	158.94
237.689	124.94
237.922	118.94
238.156	107.94
238.39	99.94
238.624	119.94
238.858	105.94
239.091	103.94
239.325	120.94
239.559	98.94
239.793	111.94
240.027	96.94
240.26	113.94
240.494	122.94
240.728	111.94
240.961	109.94
241.195	112.94
241.429	120.94
241.662	115.94
241.896	107.94
242.13	91.94
242.363	103.94
242.597	111.94
242.83	115.94
243.064	110.94
243.298	98.94
243.531	116.94
243.765	103.94
243.998	114.94
244.232	107.94
244.465	114.94
244.699	96.94
244.932	130.94
245.166	120.94
245.399	116.94
245.633	114.94
245.866	115.94
246.099	112.94
246.333	118.94
246.566	117.94
246.8	133.94
247.033	126.94
247.266	124.94
247.5	128.94
247.733	131.94
247.966	138.94
248.2	138.94
248.433	128.94
248.666	132.94
248.899	142.94
249.133	154.94
249.366	161.94
249.599	160.94
249.832	153.94
250.066	132.94
250.299	140.94
250.532	153.94
250.765	153.94
250.998	156.94
251.231	163.94
251.465	152.94
251.698	138.94
251.931	160.94
252.164	146.94
252.397	152.94
252.63	152.94
252.863	159.94
253.096	155.94
253.329	182.94
253.562	176.94
253.795	166.94
254.028	160.94
254.261	151.94
254.494	156.94
254.727	191.94
254.96	217.94
255.193	208.94
255.426	191.94
255.659	178.94
255.892	165.94
256.124	170.94
256.357	160.94
256.59	177.94
256.823	154.94
257.056	160.94
257.289	161.94
257.521	159.94
257.754	175.94
257.987	162.94
258.22	160.94
258.452	152.94
258.685	148.94
258.918	158.94
259.151	152.94
259.383	162.94
259.616	163.94
259.849	170.94
260.081	182.94
260.314	184.94
260.547	190.94
260.779	182.94
261.012	171.94
261.244	168.94
261.477	182.94
261.71	170.94
261.942	154.94
262.175	156.94
262.407	155.94
262.64	165.94
262.872	170.94
263.105	158.94
263.337	158.94
263.57	162.94
263.802	174.94
264.035	171.94
264.267	150.94
264.499	172.94
264.732	154.94
264.964	166.94
265.197	161.94
265.429	166.94
265.661	161.94
265.894	152.94
266.126	170.94
266.358	161.94
266.591	168.94
266.823	162.94
267.055	177.94
267.287	171.94
267.52	167.94
267.752	175.94
267.984	165.94
268.216	182.94
268.448	168.94
268.681	175.94
268.913	186.94
269.145	184.94
269.377	182.94
269.609	184.94
269.841	208.94
270.073	202.94
270.306	213.94
270.538	255.94
270.77	247.94
271.002	223.94
271.234	209.94
271.466	243.94
271.698	225.94
271.93	226.94
272.162	228.94
272.394	213.94
272.626	222.94
272.858	202.94
273.09	209.94
273.322	194.94
273.553	187.94
273.785	194.94
274.017	194.94
274.249	212.94
274.481	207.94
274.713	192.94
274.945	206.94
275.176	191.94
275.408	209.94
275.64	215.94
275.872	181.94
276.104	187.94
276.335	187.94
276.567	217.94
276.799	215.94
277.031	217.94
277.262	246.94
277.494	232.94
277.726	213.94
277.957	219.94
278.189	190.94
278.421	208.94
278.652	200.94
278.884	191.94
279.115	209.94
279.347	201.94
279.579	211.94
279.81	211.94
280.042	208.94
280.273	186.94
280.505	201.94
280.736	209.94
280.968	208.94
281.199	189.94
281.431	192.94
281.662	203.94
281.894	186.94
282.125	202.94
282.356	202.94
282.588	204.94
282.819	218.94
283.051	203.94
283.282	190.94
283.513	200.94
283.745	201.94
283.976	202.94
284.207	218.94
284.439	210.94
284.67	193.94
284.901	191.94
285.132	197.94
285.364	192.94
285.595	192.94
285.826	193.94
286.057	196.94
286.288	212.94
286.52	211.94
286.751	209.94
286.982	227.94
287.213	191.94
287.444	218.94
287.675	212.94
287.906	207.94
288.138	208.94
288.369	224.94
288.6	226.94
288.831	203.94
289.062	216.94
289.293	190.94
289.524	211.94
289.755	195.94
289.986	203.94
290.217	217.94
290.448	212.94
290.679	212.94
290.91	213.94
291.141	212.94
291.371	193.94
291.602	212.94
291.833	200.94
292.064	209.94
292.295	207.94
292.526	218.94
292.757	215.94
292.987	208.94
293.218	227.94
293.449	216.94
293.68	225.94
293.91	209.94
294.141	194.94
294.372	204.94
294.603	202.94
294.833	215.94
295.064	212.94
295.295	209.94
295.525	210.94
295.756	226.94
295.987	209.94
296.217	231.94
296.448	246.94
296.679	234.94
296.909	224.94
297.14	208.94
297.37	221.94
297.601	198.94
297.831	224.94
298.062	208.94
298.292	203.94
298.523	225.94
298.753	218.94
298.984	219.94
299.214	214.94
299.445	210.94
299.675	219.94
299.905	229.94
300.136	216.94
300.366	219.94
300.597	215.94
300.827	231.94
301.057	229.94
301.288	238.94
301.518	226.94
301.748	228.94
301.979	242.94
302.209	218.94
302.439	224.94
302.669	218.94
302.9	250.94
303.13	230.94
303.36	234.94
303.59	226.94
303.82	232.94
304.051	243.94
304.281	228.94
304.511	214.94
304.741	217.94
304.971	225.94
305.201	236.94
305.431	226.94
305.661	238.94
305.891	231.94
306.121	215.94
306.352	225.94
306.582	233.94
306.812	234.94
307.042	228.94
307.272	229.94
307.502	232.94
307.731	235.94
307.961	226.94
308.191	235.94
308.421	236.94
308.651	242.94
308.881	260.94
309.111	244.94
309.341	254.94
309.571	262.94
309.8	251.94
310.03	263.94
310.26	261.94
310.49	264.94
310.72	289.94
310.949	286.94
311.179	283.94
311.409	265.94
311.639	259.94
311.868	284.94
312.098	262.94
312.328	268.94
312.557	311.94
312.787	264.94
313.017	283.94
313.246	267.94
313.476	259.94
313.706	276.94
313.935	287.94
314.165	288.94
314.394	293.94
314.624	280.94
314.853	283.94
315.083	293.94
315.312	259.94
315.542	285.94
315.771	273.94
316.001	284.94
316.23	265.94
316.46	278.94
316.689	263.94
316.919	273.94
317.148	276.94
317.377	304.94
317.607	279.94
317.836	280.94
318.065	270.94
318.295	281.94
318.524	288.94
318.753	262.94
318.983	263.94
319.212	278.94
319.441	284.94
319.67	283.94
319.9	270.94
320.129	260.94
320.358	268.94
320.587	289.94
320.816	284.94
321.046	307.94
321.275	296.94
321.504	292.94
321.733	267.94
321.962	297.94
322.191	293.94
322.42	307.94
322.649	326.94
322.878	322.94
323.108	316.94
323.337	343.94
323.566	360.94
323.795	400.94
324.024	458.94
324.253	542.94
324.482	770.94
324.71	1152.94
324.939	1476.94
325.168	1198.94
325.397	654.94
325.626	467.94
325.855	388.94
326.084	375.94
326.313	352.94
326.542	355.94
326.77	418.94
326.999	483.94
327.228	688.94
327.457	967.94
327.686	1070.94
327.914	712.94
328.143	480.94
328.372	446.94
328.6	410.94
328.829	393.94
329.058	397.94
329.287	391.94
329.515	372.94
329.744	362.94
329.972	358.94
330.201	379.94
330.43	394.94
330.658	388.94
330.887	416.94
331.115	390.94
331.344	370.94
331.572	345.94
331.801	340.94
332.03	338.94
332.258	336.94
332.486	327.94
332.715	298.94
332.943	297.94
333.172	315.94
333.4	326.94
333.629	338.94
333.857	328.94
334.085	328.94
334.314	360.94
334.542	357.94
334.771	352.94
334.999	335.94
335.227	323.94
335.455	320.94
335.684	314.94
335.912	305.94
336.14	307.94
336.369	312.94
336.597	314.94
336.825	310.94
337.053	287.94
337.281	295.94
337.51	287.94
337.738	302.94
337.966	284.94
338.194	310.94
338.422	312.94
338.65	294.94
338.878	296.94
339.106	292.94
339.334	303.94
339.562	295.94
339.79	293.94
340.018	298.94
340.246	288.94
340.474	291.94
340.702	294.94
340.93	294.94
341.158	294.94
341.386	288.94
341.614	302.94
341.842	312.94
342.07	319.94
342.298	272.94
342.526	294.94
342.754	269.94
342.981	281.94
343.209	306.94
343.437	304.94
343.665	295.94
343.893	297.94
344.12	292.94
344.348	294.94
344.576	295.94
344.804	298.94
345.031	298.94
345.259	296.94
345.487	294.94
345.714	296.94
345.942	294.94
346.17	298.94
346.397	292.94
346.625	272.94
346.853	296.94
347.08	302.94
347.308	303.94
347.535	298.94
347.763	319.94
347.99	291.94
348.218	312.94
348.445	287.94
348.673	297.94
348.9	290.94
349.128	288.94
349.355	279.94
349.583	259.94
349.81	275.94
350.037	279.94
350.265	285.94
350.492	285.94
350.72	284.94
350.947	279.94
351.174	274.94
351.402	282.94
351.629	290.94
351.856	302.94
352.083	294.94
352.311	297.94
352.538	313.94
352.765	316.94
352.992	292.94
353.22	286.94
353.447	294.94
353.674	281.94
353.901	294.94
354.128	270.94
354.355	258.94
354.583	280.94
354.81	276.94
355.037	270.94
355.264	263.94
355.491	271.94
355.718	240.94
355.945	272.94
356.172	263.94
356.399	282.94
356.626	258.94
356.853	254.94
357.08	246.94
357.307	252.94
357.534	255.94
357.761	265.94
357.988	264.94
358.215	236.94
358.441	266.94
358.668	262.94
358.895	260.94
359.122	282.94
359.349	264.94
359.576	268.94
359.802	302.94
360.029	339.94
360.256	315.94
360.483	286.94
360.709	275.94
360.936	302.94
361.163	281.94
361.39	285.94
361.616	288.94
361.843	273.94
362.07	264.94
362.296	290.94
362.523	274.94
362.749	283.94
362.976	285.94
363.203	281.94
363.429	273.94
363.656	265.94
363.882	266.94
364.109	259.94
364.335	280.94
364.562	258.94
364.788	288.94
365.015	261.94
365.241	278.94
365.468	270.94
365.694	289.94
365.92	267.94
366.147	268.94
366.373	264.94
366.599	249.94
366.826	264.94
367.052	277.94
367.278	274.94
367.505	269.94
367.731	258.94
367.957	266.94
368.184	269.94
368.41	272.94
368.636	264.94
368.862	275.94
369.089	270.94
369.315	278.94
369.541	263.94
369.767	279.94
369.993	281.94
370.219	259.94
370.445	269.94
370.672	262.94
370.898	267.94
371.124	262.94
371.35	259.94
371.576	259.94
371.802	257.94
372.028	254.94
372.254	264.94
372.48	266.94
372.706	261.94
372.932	252.94
373.158	262.94
373.384	296.94
373.61	270.94
373.835	267.94
374.061	258.94
374.287	274.94
374.513	274.94
374.739	254.94
374.965	266.94
375.191	250.94
375.416	296.94
375.642	268.94
375.868	253.94
376.094	276.94
376.319	264.94
376.545	244.94
376.771	259.94
376.997	260.94
377.222	247.94
377.448	246.94
377.674	268.94
377.899	267.94
378.125	259.94
378.35	265.94
378.576	243.94
378.802	266.94
379.027	260.94
379.253	269.94
379.478	260.94
379.704	274.94
379.929	268.94
380.155	261.94
380.38	274.94
380.606	262.94
380.831	254.94
381.057	268.94
381.282	262.94
381.507	269.94
381.733	272.94
381.958	239.94
382.184	246.94
382.409	259.94
382.634	279.94
382.86	252.94
383.085	255.94
383.31	262.94
383.535	267.94
383.761	262.94
383.986	252.94
384.211	266.94
384.436	278.94
384.662	276.94
384.887	273.94
385.112	269.94
385.337	277.94
385.562	259.94
385.787	285.94
386.013	297.94
386.238	274.94
386.463	280.94
386.688	256.94
386.913	275.94
387.138	280.94
387.363	259.94
387.588	267.94
387.813	251.94
388.038	281.94
388.263	268.94
388.488	264.94
388.713	275.94
388.938	268.94
389.163	266.94
389.387	265.94
389.612	281.94
389.837	274.94
390.062	273.94
390.287	283.94
390.512	259.94
390.736	266.94
390.961	271.94
391.186	254.94
391.411	290.94
391.636	275.94
391.86	266.94
392.085	274.94
392.31	272.94
392.534	286.94
392.759	278.94
392.984	260.94
393.208	284.94
393.433	280.94
393.658	273.94
393.882	264.94
394.107	248.94
394.331	264.94
394.556	270.94
394.78	289.94
395.005	267.94
395.229	276.94
395.454	290.94
395.678	282.94
395.903	286.94
396.127	289.94
396.352	299.94
396.576	270.94
396.801	281.94
397.025	277.94
397.249	271.94
397.474	277.94
397.698	276.94
397.922	280.94
398.147	287.94
398.371	297.94
398.595	298.94
398.82	318.94
399.044	314.94
399.268	309.94
399.492	318.94
399.717	325.94
399.941	345.94
400.165	355.94
400.389	350.94
400.613	314.94
400.837	300.94
401.062	304.94
401.286	306.94
401.51	292.94
401.734	299.94
401.958	304.94
402.182	311.94
402.406	329.94
402.63	289.94
402.854	281.94
403.078	297.94
403.302	296.94
403.526	292.94
403.75	306.94
403.974	304.94
404.198	306.94
404.422	306.94
404.645	299.94
404.869	324.94
405.093	328.94
405.317	367.94
405.541	370.94
405.765	338.94
405.988	307.94
406.212	336.94
406.436	336.94
406.66	336.94
406.883	326.94
407.107	352.94
407.331	374.94
407.555	396.94
407.778	411.94
408.002	357.94
408.226	336.94
408.449	337.94
408.673	320.94
408.896	355.94
409.12	389.94
409.344	355.94
409.567	328.94
409.791	310.94
410.014	311.94
410.238	318.94
410.461	330.94
410.685	316.94
410.908	329.94
411.132	313.94
411.355	350.94
411.578	341.94
411.802	310.94
412.025	328.94
412.249	285.94
412.472	331.94
412.695	342.94
412.919	359.94
413.142	321.94
413.365	306.94
413.589	286.94
413.812	289.94
414.035	296.94
414.258	293.94
414.482	293.94
414.705	273.94
414.928	285.94
415.151	288.94
415.374	302.94
415.597	287.94
415.821	294.94
416.044	283.94
416.267	286.94
416.49	290.94
416.713	292.94
416.936	302.94
417.159	303.94
417.382	295.94
417.605	295.94
417.828	304.94
418.051	296.94
418.274	310.94
418.497	306.94
418.72	310.94
418.943	302.94
419.166	298.94
419.389	308.94
419.611	307.94
419.834	311.94
420.057	304.94
420.28	299.94
420.503	302.94
420.726	299.94
420.948	298.94
421.171	329.94
421.394	323.94
421.617	311.94
421.839	306.94
422.062	299.94
422.285	320.94
422.507	366.94
422.73	376.94
422.953	359.94
423.175	328.94
423.398	325.94
423.621	320.94
423.843	323.94
424.066	318.94
424.288	306.94
424.511	343.94
424.733	378.94
424.956	412.94
425.178	412.94
425.401	405.94
425.623	402.94
425.846	339.94
426.068	329.94
426.291	320.94
426.513	334.94
426.735	345.94
426.958	367.94
427.18	407.94
427.402	483.94
427.625	518.94
427.847	456.94
428.069	387.94
428.292	371.94
428.514	347.94
428.736	336.94
428.958	313.94
429.181	307.94
429.403	306.94
429.625	328.94
429.847	347.94
430.069	372.94
430.292	357.94
430.514	325.94
430.736	300.94
430.958	318.94
431.18	311.94
431.402	298.94
431.624	294.94
431.846	297.94
432.068	288.94
432.29	296.94
432.512	293.94
432.734	295.94
432.956	291.94
433.178	279.94
433.4	315.94
433.622	292.94
433.844	286.94
434.066	287.94
434.287	272.94
434.509	277.94
434.731	306.94
434.953	321.94
435.175	312.94
435.397	326.94
435.618	325.94
435.84	350.94
436.062	407.94
436.284	454.94
436.505	373.94
436.727	326.94
436.949	311.94
437.17	327.94
437.392	313.94
437.614	322.94
437.835	339.94
438.057	406.94
438.278	449.94
438.5	457.94
438.721	471.94
438.943	458.94
439.165	394.94
439.386	344.94
439.608	339.94
439.829	333.94
440.05	347.94
440.272	387.94
440.493	350.94
440.715	318.94
440.936	310.94
441.158	310.94
441.379	320.94
441.6	319.94
441.822	322.94
442.043	347.94
442.264	404.94
442.486	432.94
442.707	372.94
442.928	339.94
443.149	349.94
443.371	369.94
443.592	378.94
443.813	424.94
444.034	454.94
444.255	395.94
444.476	341.94
444.698	330.94
444.919	328.94
445.14	420.94
445.361	375.94
445.582	358.94
445.803	402.94
446.024	452.94
446.245	455.94
446.466	452.94
446.687	346.94
446.908	306.94
447.129	328.94
447.35	326.94
447.571	303.94
447.792	329.94
448.013	320.94
448.234	338.94
448.455	354.94
448.675	408.94
448.896	459.94
449.117	409.94
449.338	393.94
449.559	453.94
449.779	507.94
450	400.94
450.221	349.94
450.442	330.94
450.662	300.94
450.883	330.94
451.104	313.94
451.324	311.94
451.545	299.94
451.766	287.94
451.986	282.94
452.207	289.94
452.428	284.94
452.648	272.94
452.869	279.94
453.089	272.94
453.31	292.94
453.53	279.94
453.751	281.94
453.971	292.94
454.192	294.94
454.412	276.94
454.633	296.94
454.853	281.94
455.073	280.94
455.294	302.94
455.514	330.94
455.734	320.94
455.955	283.94
456.175	259.94
456.395	268.94
456.616	273.94
456.836	252.94
457.056	263.94
457.276	247.94
457.497	252.94
457.717	275.94
457.937	279.94
458.157	267.94
458.377	263.94
458.598	286.94
458.818	338.94
459.038	362.94
459.258	368.94
459.478	314.94
459.698	295.94
459.918	303.94
460.138	291.94
460.358	278.94
460.578	288.94
460.798	286.94
461.018	299.94
461.238	306.94
461.458	291.94
461.678	291.94
461.898	291.94
462.118	289.94
462.338	292.94
462.558	316.94
462.777	293.94
462.997	304.94
463.217	306.94
463.437	319.94
463.657	319.94
463.876	308.94
464.096	308.94
464.316	302.94
464.536	309.94
464.755	306.94
464.975	314.94
465.195	346.94
465.414	370.94
465.634	349.94
465.854	314.94
466.073	297.94
466.293	295.94
466.512	275.94
466.732	281.94
466.951	282.94
467.171	272.94
467.391	271.94
467.61	288.94
467.829	289.94
468.049	288.94
468.268	261.94
468.488	282.94
468.707	285.94
468.927	277.94
469.146	268.94
469.365	278.94
469.585	274.94
469.804	280.94
470.023	288.94
470.243	300.94
470.462	293.94
470.681	310.94
470.901	284.94
471.12	297.94
471.339	291.94
471.558	279.94
471.777	296.94
471.997	282.94
472.216	292.94
472.435	306.94
472.654	304.94
472.873	289.94
473.092	284.94
473.311	272.94
473.53	290.94
473.749	302.94
473.968	346.94
474.187	394.94
474.406	395.94
474.625	316.94
474.844	307.94
475.063	265.94
475.282	290.94
475.501	283.94
475.72	291.94
475.939	308.94
476.158	302.94
476.377	313.94
476.596	274.94
476.814	304.94
477.033	304.94
477.252	306.94
477.471	307.94
477.69	286.94
477.908	302.94
478.127	314.94
478.346	311.94
478.564	312.94
478.783	296.94
479.002	315.94
479.22	318.94
479.439	328.94
479.658	322.94
479.876	351.94
480.095	316.94
480.313	364.94
480.532	352.94
480.751	350.94
480.969	352.94
481.188	373.94
481.406	390.94
481.624	348.94
481.843	328.94
482.061	327.94
482.28	343.94
482.498	344.94
482.717	312.94
482.935	328.94
483.153	317.94
483.372	336.94
483.59	349.94
483.808	315.94
484.027	307.94
484.245	327.94
484.463	320.94
484.681	326.94
484.9	319.94
485.118	357.94
485.336	347.94
485.554	349.94
485.772	331.94
485.99	335.94
486.209	341.94
486.427	344.94
486.645	355.94
486.863	366.94
487.081	366.94
487.299	362.94
487.517	356.94
487.735	356.94
487.953	367.94
488.171	345.94
488.389	328.94
488.607	361.94
488.825	341.94
489.043	339.94
489.261	356.94
489.479	374.94
489.696	359.94
489.914	352.94
490.132	357.94
490.35	377.94
490.568	382.94
490.786	366.94
491.003	382.94
491.221	414.94
491.439	396.94
491.657	403.94
491.874	400.94
492.092	413.94
492.31	401.94
492.527	396.94
492.745	390.94
492.963	387.94
493.18	409.94
493.398	412.94
493.615	420.94
493.833	413.94
494.05	379.94
494.268	407.94
494.485	392.94
494.703	410.94
494.92	419.94
495.138	414.94
495.355	414.94
495.573	423.94
495.79	410.94
496.008	420.94
496.225	411.94
496.442	392.94
496.66	421.94
496.877	403.94
497.094	407.94
497.312	407.94
497.529	420.94
497.746	440.94
497.963	424.94
498.181	444.94
498.398	433.94
498.615	447.94
498.832	454.94
499.049	453.94
499.267	456.94
499.484	461.94
499.701	487.94
499.918	507.94
500.135	495.94
500.352	503.94
500.569	507.94
500.786	512.94
501.003	514.94
501.22	498.94
501.437	514.94
501.654	495.94
501.871	478.94
502.088	512.94
502.305	461.94
502.522	448.94
502.739	476.94
502.956	411.94
503.172	425.94
503.389	428.94
503.606	418.94
503.823	422.94
504.04	440.94
504.256	410.94
504.473	406.94
504.69	405.94
504.907	424.94
505.123	407.94
505.34	388.94
505.557	402.94
505.773	422.94
505.99	383.94
506.207	403.94
506.423	395.94
506.64	398.94
506.856	421.94
507.073	396.94
507.289	401.94
507.506	388.94
507.722	396.94
507.939	406.94
508.155	400.94
508.372	395.94
508.588	388.94
508.805	371.94
509.021	377.94
509.238	393.94
509.454	386.94
509.67	405.94
509.887	392.94
510.103	396.94
510.319	389.94
510.536	468.94
510.752	723.94
510.968	584.94
511.184	402.94
511.401	374.94
511.617	376.94
511.833	384.94
512.049	357.94
512.265	368.94
512.481	357.94
512.698	355.94
512.914	380.94
513.13	370.94
513.346	372.94
513.562	351.94
513.778	366.94
513.994	374.94
514.21	370.94
514.426	394.94
514.642	403.94
514.858	421.94
515.074	458.94
515.29	551.94
515.506	793.94
515.721	602.94
515.937	447.94
516.153	400.94
516.369	396.94
516.585	372.94
516.801	355.94
517.016	373.94
517.232	362.94
517.448	370.94
517.664	376.94
517.879	368.94
518.095	368.94
518.311	370.94
518.527	352.94
518.742	353.94
518.958	341.94
519.173	362.94
519.389	366.94
519.605	359.94
519.82	390.94
520.036	371.94
520.251	386.94
520.467	429.94
520.682	402.94
520.898	417.94
521.113	439.94
521.329	464.94
521.544	501.94
521.76	645.94
521.975	1041.94
522.19	947.94
522.406	546.94
522.621	422.94
522.836	387.94
523.052	370.94
523.267	351.94
523.482	345.94
523.698	344.94
523.913	331.94
524.128	349.94
524.343	350.94
524.559	330.94
524.774	318.94
524.989	335.94
525.204	333.94
525.419	328.94
525.634	334.94
525.849	286.94
526.064	315.94
526.28	306.94
526.495	299.94
526.71	316.94
526.925	333.94
527.14	305.94
527.355	306.94
527.57	297.94
527.785	313.94
527.999	328.94
528.214	320.94
528.429	290.94
528.644	297.94
528.859	304.94
529.074	324.94
529.289	330.94
529.503	379.94
529.718	370.94
529.933	332.94
530.148	299.94
530.363	322.94
530.577	294.94
530.792	291.94
531.007	300.94
531.221	284.94
531.436	309.94
531.651	281.94
531.865	315.94
532.08	293.94
532.295	292.94
532.509	294.94
532.724	283.94
532.938	272.94
533.153	292.94
533.367	303.94
533.582	318.94
533.796	282.94
534.011	293.94
534.225	277.94
534.44	273.94
534.654	290.94
534.868	285.94
535.083	287.94
535.297	275.94
535.511	299.94
535.726	294.94
535.94	283.94
536.154	288.94
536.369	284.94
536.583	288.94
536.797	292.94
537.011	277.94
537.225	277.94
537.44	263.94
537.654	281.94
537.868	268.94
538.082	282.94
538.296	288.94
538.51	290.94
538.724	279.94
538.938	293.94
539.153	266.94
539.367	295.94
539.581	281.94
539.795	264.94
540.009	275.94
540.222	279.94
540.436	278.94
540.65	274.94
540.864	275.94
541.078	282.94
541.292	282.94
541.506	281.94
541.72	302.94
541.934	273.94
542.147	274.94
542.361	280.94
542.575	268.94
542.789	281.94
543.002	282.94
543.216	282.94
543.43	292.94
543.644	281.94
543.857	279.94
544.071	272.94
544.285	288.94
544.498	266.94
544.712	282.94
544.925	275.94
545.139	277.94
545.352	260.94
545.566	270.94
545.779	260.94
545.993	280.94
546.206	272.94
546.42	270.94
546.633	264.94
546.847	261.94
547.06	259.94
547.274	264.94
547.487	263.94
547.7	254.94
547.914	265.94
548.127	267.94
548.34	261.94
548.554	266.94
548.767	281.94
548.98	264.94
549.193	254.94
549.407	272.94
549.62	269.94
549.833	255.94
550.046	251.94
550.259	263.94
550.473	262.94
550.686	267.94
550.899	271.94
551.112	259.94
551.325	230.94
551.538	255.94
551.751	263.94
551.964	262.94
552.177	259.94
552.39	266.94
552.603	258.94
552.816	277.94
553.029	257.94
553.242	253.94
553.455	265.94
553.667	271.94
553.88	280.94
554.093	270.94
554.306	252.94
554.519	275.94
554.732	259.94
554.944	250.94
555.157	254.94
555.37	246.94
555.583	252.94
555.795	264.94
556.008	240.94
556.221	228.94
556.433	256.94
556.646	242.94
556.859	247.94
557.071	247.94
557.284	246.94
557.496	232.94
557.709	244.94
557.921	224.94
558.134	232.94
558.346	230.94
558.559	231.94
558.771	243.94
558.984	250.94
559.196	254.94
559.409	241.94
559.621	232.94
559.833	239.94
560.046	226.94
560.258	254.94
560.47	227.94
560.683	238.94
560.895	233.94
561.107	228.94
561.32	232.94
561.532	240.94
561.744	240.94
561.956	230.94
562.168	254.94
562.381	231.94
562.593	240.94
562.805	231.94
563.017	247.94
563.229	256.94
563.441	238.94
563.653	239.94
563.865	261.94
564.077	246.94
564.289	256.94
564.501	258.94
564.713	237.94
564.925	232.94
565.137	254.94
565.349	254.94
565.561	238.94
565.773	268.94
565.985	234.94
566.197	266.94
566.408	258.94
566.62	276.94
566.832	292.94
567.044	256.94
567.255	273.94
567.467	277.94
567.679	265.94
567.891	279.94
568.102	260.94
568.314	267.94
568.526	262.94
568.737	268.94
568.949	233.94
569.161	249.94
569.372	235.94
569.584	222.94
569.795	220.94
570.007	233.94
570.218	265.94
570.43	264.94
570.641	235.94
570.853	219.94
571.064	223.94
571.276	230.94
571.487	224.94
571.698	226.94
571.91	235.94
572.121	218.94
572.333	215.94
572.544	217.94
572.755	217.94
572.966	213.94
573.178	206.94
573.389	215.94
573.6	243.94
573.811	218.94
574.023	221.94
574.234	209.94
574.445	233.94
574.656	206.94
574.867	222.94
575.078	213.94
575.289	209.94
575.501	204.94
575.712	199.94
575.923	204.94
576.134	216.94
576.345	217.94
576.556	207.94
576.767	214.94
576.978	198.94
577.188	221.94
577.399	204.94
577.61	204.94
577.821	214.94
578.032	205.94
578.243	228.94
578.454	374.94
578.665	279.94
578.875	220.94
579.086	210.94
579.297	187.94
579.508	204.94
579.718	202.94
579.929	193.94
580.14	203.94
580.35	188.94
580.561	201.94
580.772	190.94
580.982	195.94
581.193	204.94
581.403	194.94
581.614	207.94
581.825	195.94
582.035	203.94
582.246	198.94
582.456	206.94
582.667	205.94
582.877	202.94
583.087	203.94
583.298	190.94
583.508	193.94
583.719	195.94
583.929	198.94
584.139	208.94
584.35	194.94
584.56	194.94
584.77	171.94
584.981	192.94
585.191	186.94
585.401	186.94
585.611	185.94
585.821	190.94
586.032	192.94
586.242	198.94
586.452	203.94
586.662	196.94
586.872	191.94
587.082	190.94
587.292	185.94
587.502	182.94
587.713	185.94
587.923	196.94
588.133	209.94
588.343	190.94
588.553	172.94
588.762	183.94
588.972	192.94
589.182	195.94
589.392	203.94
589.602	201.94
589.812	203.94
590.022	197.94
590.232	193.94
590.441	188.94
590.651	187.94
590.861	190.94
591.071	183.94
591.281	189.94
591.49	182.94
591.7	181.94
591.91	176.94
592.119	194.94
592.329	184.94
592.539	199.94
592.748	199.94
592.958	192.94
593.167	194.94
593.377	194.94
593.587	193.94
593.796	168.94
594.006	182.94
594.215	180.94
594.424	184.94
594.634	196.94
594.843	186.94
595.053	185.94
595.262	201.94
595.472	193.94
595.681	175.94
595.89	195.94
596.1	174.94
596.309	190.94
596.518	182.94
596.727	168.94
596.937	185.94
597.146	180.94
597.355	174.94
597.564	172.94
597.774	174.94
597.983	174.94
598.192	188.94
598.401	169.94
598.61	183.94
598.819	183.94
599.028	176.94
599.237	180.94
599.446	174.94
599.655	174.94
599.864	167.94
600.073	174.94
600.282	166.94
600.491	174.94
600.7	170.94
600.909	172.94
601.118	165.94
601.327	170.94
601.536	173.94
601.745	162.94
601.953	193.94
602.162	154.94
602.371	172.94
602.58	170.94
602.789	192.94
602.997	162.94
603.206	156.94
603.415	176.94
603.623	175.94
603.832	187.94
604.041	172.94
604.249	163.94
604.458	159.94
604.666	169.94
604.875	179.94
605.084	178.94
605.292	160.94
605.501	173.94
605.709	168.94
605.918	181.94
606.126	168.94
606.334	164.94
606.543	166.94
606.751	165.94
606.96	172.94
607.168	154.94
607.376	147.94
607.585	167.94
607.793	160.94
608.001	169.94
608.21	163.94
608.418	177.94
608.626	162.94
608.834	172.94
609.043	162.94
609.251	157.94
609.459	165.94
609.667	162.94
609.875	163.94
610.083	178.94
610.291	164.94
610.499	153.94
610.707	163.94
610.916	186.94
611.124	177.94
611.332	166.94
611.54	179.94
611.748	176.94
611.955	171.94
612.163	174.94
612.371	174.94
612.579	157.94
612.787	160.94
612.995	164.94
613.203	171.94
613.411	164.94
613.618	160.94
613.826	163.94
614.034	172.94
614.242	149.94
614.449	174.94
614.657	159.94
614.865	156.94
615.072	167.94
615.28	154.94
615.488	151.94
615.695	177.94
615.903	183.94
616.111	166.94
616.318	156.94
616.526	154.94
616.733	160.94
616.941	157.94
617.148	170.94
617.356	168.94
617.563	174.94
617.771	163.94
617.978	151.94
618.185	159.94
618.393	167.94
618.6	154.94
618.807	166.94
619.015	170.94
619.222	168.94
619.429	176.94
619.637	157.94
619.844	167.94
620.051	169.94
620.258	164.94
620.466	151.94
620.673	135.94
620.88	156.94
621.087	160.94
621.294	155.94
621.501	158.94
621.708	156.94
621.915	158.94
622.122	157.94
622.329	141.94
622.536	163.94
622.743	167.94
622.95	158.94
623.157	141.94
623.364	158.94
623.571	151.94
623.778	153.94
623.985	163.94
624.192	152.94
624.399	164.94
624.606	159.94
624.812	162.94
625.019	142.94
625.226	139.94
625.433	155.94
625.639	159.94
625.846	143.94
626.053	134.94
626.259	136.94
626.466	142.94
626.673	141.94
626.879	144.94
627.086	144.94
627.293	143.94
627.499	133.94
627.706	148.94
627.912	140.94
628.119	159.94
628.325	149.94
628.532	141.94
628.738	135.94
628.945	123.94
629.151	144.94
629.357	156.94
629.564	132.94
629.77	134.94
629.976	138.94
630.183	147.94
630.389	154.94
630.595	125.94
630.802	139.94
631.008	136.94
631.214	139.94
631.42	144.94
631.627	147.94
631.833	136.94
632.039	130.94
632.245	131.94
632.451	129.94
632.657	139.94
632.863	133.94
633.069	143.94
633.275	141.94
633.481	144.94
633.688	134.94
633.893	136.94
634.099	137.94
634.305	131.94
634.511	134.94
634.717	133.94
634.923	148.94
635.129	134.94
635.335	130.94
635.541	125.94
635.747	136.94
635.952	135.94
636.158	145.94
636.364	145.94
636.57	135.94
636.775	137.94
636.981	119.94
637.187	134.94
637.392	143.94
637.598	126.94
637.804	139.94
638.009	133.94
638.215	129.94
638.421	130.94
638.626	121.94
638.832	125.94
639.037	128.94
639.243	135.94
639.448	139.94
639.654	136.94
639.859	140.94
640.065	139.94
640.27	131.94
640.475	129.94
640.681	138.94
640.886	126.94
641.091	123.94
641.297	122.94
641.502	139.94
641.707	136.94
641.913	134.94
642.118	128.94
642.323	136.94
642.528	131.94
642.733	129.94
642.939	130.94
643.144	131.94
643.349	133.94
643.554	131.94
643.759	121.94
643.964	121.94
644.169	127.94
644.374	127.94
644.579	140.94
644.784	124.94
644.989	121.94
645.194	118.94
645.399	126.94
645.604	130.94
645.809	115.94
646.014	122.94
646.219	134.94
646.423	116.94
646.628	122.94
646.833	129.94
647.038	117.94
647.243	121.94
647.447	118.94
647.652	114.94
647.857	134.94
648.062	137.94
648.266	126.94
648.471	120.94
648.676	134.94
648.88	123.94
649.085	138.94
649.289	143.94
649.494	137.94
649.698	134.94
649.903	129.94
650.107	128.94
650.312	116.94
650.516	121.94
650.721	132.94
650.925	119.94
651.13	128.94
651.334	115.94
651.539	120.94
651.743	114.94
651.947	120.94
652.152	107.94
652.356	138.94
652.56	119.94
652.764	119.94
652.969	101.94
653.173	104.94
653.377	100.94
653.581	104.94
653.785	113.94
653.99	105.94
654.194	121.94
654.398	115.94
654.602	119.94
654.806	114.94
655.01	124.94
655.214	105.94
655.418	115.94
655.622	113.94
655.826	114.94
656.03	114.94
656.234	119.94
656.438	114.94
656.642	105.94
656.846	126.94
657.049	108.94
657.253	99.94
657.457	124.94
657.661	107.94
657.865	99.94
658.068	104.94
658.272	89.94
658.476	103.94
658.68	106.94
658.883	94.94
659.087	102.94
659.291	92.94
659.494	88.94
659.698	87.94
659.901	91.94
660.105	92.94
660.309	93.94
660.512	92.94
660.716	101.94
660.919	83.94
661.123	79.94
661.326	79.94
661.53	92.94
661.733	82.94
661.936	83.94
662.14	88.94
662.343	79.94
662.546	84.94
662.75	80.94
662.953	79.94
663.156	77.94
663.36	79.94
663.563	80.94
663.766	80.94
663.969	87.94
664.173	81.94
664.376	72.94
664.579	83.94
664.782	91.94
664.985	85.94
665.188	79.94
665.391	76.94
665.594	76.94
665.797	91.94
666	87.94
666.203	76.94
666.406	81.94
666.609	83.94
666.812	92.94
667.015	81.94
667.218	78.94
667.421	68.94
667.624	76.94
667.827	72.94
668.03	72.94
668.232	91.94
668.435	76.94
668.638	77.94
668.841	84.94
669.043	74.94
669.246	86.94
669.449	75.94
669.651	75.94
669.854	96.94
670.057	95.94
670.259	92.94
670.462	75.94
670.665	83.94
670.867	90.94
671.07	82.94
671.272	96.94
671.475	87.94
671.677	76.94
671.88	83.94
672.082	79.94
672.284	79.94
672.487	80.94
672.689	75.94
672.892	68.94
