Data from 1982.PennyLincolnUp.Lamp.En5.5.200Scan.071819.P1_HRD10591_16-45-24-961.txt Node
Date: Thu Jul 18 16:45:24 EDT 2019
User: cochatt
Spectrometer: HR+D1059
Trigger mode: 1
Integration Time (sec): 1.000000E-1
Scans to average: 1
Electric dark correction enabled: true
Nonlinearity correction enabled: false
Boxcar width: 0
XAxis mode: Wavelengths
Number of Pixels in Spectrum: 2048
>>>>>Begin Spectral Data<<<<<
223.165	-8.25
223.4	-8.25
223.635	-8.25
223.869	-28.25
224.104	-12.25
224.338	-3.25
224.573	-14.25
224.808	-6.25
225.042	-3.25
225.277	-8.25
225.511	-20.25
225.746	2.75
225.98	6.75
226.215	13.75
226.449	31.75
226.683	10.75
226.918	12.75
227.152	25.75
227.387	41.75
227.621	24.75
227.856	53.75
228.09	35.75
228.324	40.75
228.559	52.75
228.793	55.75
229.027	82.75
229.262	78.75
229.496	94.75
229.73	92.75
229.964	125.75
230.199	115.75
230.433	105.75
230.667	91.75
230.901	80.75
231.136	94.75
231.37	100.75
231.604	102.75
231.838	104.75
232.072	92.75
232.306	106.75
232.541	98.75
232.775	107.75
233.009	91.75
233.243	106.75
233.477	84.75
233.711	89.75
233.945	107.75
234.179	99.75
234.413	95.75
234.647	94.75
234.881	97.75
235.115	101.75
235.349	103.75
235.583	111.75
235.817	111.75
236.051	106.75
236.285	112.75
236.519	109.75
236.753	100.75
236.987	126.75
237.221	130.75
237.455	169.75
237.689	146.75
237.922	126.75
238.156	124.75
238.39	115.75
238.624	112.75
238.858	106.75
239.091	82.75
239.325	105.75
239.559	101.75
239.793	105.75
240.027	121.75
240.26	120.75
240.494	117.75
240.728	114.75
240.961	115.75
241.195	101.75
241.429	109.75
241.662	93.75
241.896	104.75
242.13	98.75
242.363	107.75
242.597	107.75
242.83	115.75
243.064	118.75
243.298	112.75
243.531	123.75
243.765	115.75
243.998	118.75
244.232	101.75
244.465	126.75
244.699	116.75
244.932	97.75
245.166	120.75
245.399	106.75
245.633	114.75
245.866	119.75
246.099	125.75
246.333	97.75
246.566	110.75
246.8	115.75
247.033	105.75
247.266	128.75
247.5	132.75
247.733	132.75
247.966	146.75
248.2	126.75
248.433	148.75
248.666	131.75
248.899	134.75
249.133	147.75
249.366	136.75
249.599	158.75
249.832	134.75
250.066	148.75
250.299	146.75
250.532	159.75
250.765	168.75
250.998	162.75
251.231	160.75
251.465	164.75
251.698	151.75
251.931	154.75
252.164	152.75
252.397	152.75
252.63	161.75
252.863	156.75
253.096	151.75
253.329	172.75
253.562	169.75
253.795	163.75
254.028	182.75
254.261	152.75
254.494	174.75
254.727	183.75
254.96	202.75
255.193	191.75
255.426	177.75
255.659	168.75
255.892	178.75
256.124	162.75
256.357	155.75
256.59	156.75
256.823	176.75
257.056	157.75
257.289	154.75
257.521	162.75
257.754	176.75
257.987	155.75
258.22	170.75
258.452	152.75
258.685	159.75
258.918	158.75
259.151	178.75
259.383	162.75
259.616	154.75
259.849	175.75
260.081	164.75
260.314	196.75
260.547	180.75
260.779	189.75
261.012	193.75
261.244	137.75
261.477	154.75
261.71	155.75
261.942	171.75
262.175	166.75
262.407	177.75
262.64	162.75
262.872	160.75
263.105	165.75
263.337	147.75
263.57	156.75
263.802	166.75
264.035	157.75
264.267	156.75
264.499	154.75
264.732	161.75
264.964	154.75
265.197	156.75
265.429	155.75
265.661	143.75
265.894	160.75
266.126	143.75
266.358	161.75
266.591	154.75
266.823	162.75
267.055	162.75
267.287	169.75
267.52	181.75
267.752	153.75
267.984	172.75
268.216	158.75
268.448	180.75
268.681	171.75
268.913	152.75
269.145	191.75
269.377	198.75
269.609	202.75
269.841	182.75
270.073	196.75
270.306	218.75
270.538	228.75
270.77	216.75
271.002	217.75
271.234	210.75
271.466	243.75
271.698	220.75
271.93	217.75
272.162	220.75
272.394	215.75
272.626	216.75
272.858	193.75
273.09	195.75
273.322	213.75
273.553	199.75
273.785	193.75
274.017	194.75
274.249	178.75
274.481	187.75
274.713	176.75
274.945	213.75
275.176	197.75
275.408	203.75
275.64	188.75
275.872	195.75
276.104	179.75
276.335	198.75
276.567	199.75
276.799	186.75
277.031	226.75
277.262	227.75
277.494	221.75
277.726	211.75
277.957	208.75
278.189	215.75
278.421	210.75
278.652	210.75
278.884	176.75
279.115	183.75
279.347	200.75
279.579	203.75
279.81	192.75
280.042	207.75
280.273	174.75
280.505	174.75
280.736	184.75
280.968	187.75
281.199	182.75
281.431	191.75
281.662	183.75
281.894	184.75
282.125	206.75
282.356	206.75
282.588	225.75
282.819	215.75
283.051	186.75
283.282	204.75
283.513	198.75
283.745	196.75
283.976	204.75
284.207	201.75
284.439	196.75
284.67	194.75
284.901	194.75
285.132	187.75
285.364	198.75
285.595	204.75
285.826	191.75
286.057	201.75
286.288	202.75
286.52	211.75
286.751	192.75
286.982	215.75
287.213	207.75
287.444	204.75
287.675	203.75
287.906	204.75
288.138	188.75
288.369	201.75
288.6	217.75
288.831	233.75
289.062	212.75
289.293	204.75
289.524	184.75
289.755	220.75
289.986	207.75
290.217	195.75
290.448	202.75
290.679	198.75
290.91	215.75
291.141	211.75
291.371	213.75
291.602	198.75
291.833	209.75
292.064	191.75
292.295	209.75
292.526	198.75
292.757	186.75
292.987	194.75
293.218	213.75
293.449	218.75
293.68	216.75
293.91	196.75
294.141	194.75
294.372	223.75
294.603	204.75
294.833	208.75
295.064	198.75
295.295	203.75
295.525	200.75
295.756	224.75
295.987	218.75
296.217	217.75
296.448	226.75
296.679	224.75
296.909	194.75
297.14	203.75
297.37	202.75
297.601	196.75
297.831	215.75
298.062	204.75
298.292	219.75
298.523	216.75
298.753	210.75
298.984	213.75
299.214	213.75
299.445	212.75
299.675	219.75
299.905	227.75
300.136	216.75
300.366	212.75
300.597	214.75
300.827	218.75
301.057	208.75
301.288	232.75
301.518	235.75
301.748	214.75
301.979	214.75
302.209	215.75
302.439	229.75
302.669	240.75
302.9	236.75
303.13	219.75
303.36	223.75
303.59	240.75
303.82	232.75
304.051	240.75
304.281	220.75
304.511	232.75
304.741	238.75
304.971	220.75
305.201	226.75
305.431	226.75
305.661	223.75
305.891	219.75
306.121	236.75
306.352	238.75
306.582	215.75
306.812	203.75
307.042	223.75
307.272	224.75
307.502	233.75
307.731	240.75
307.961	246.75
308.191	230.75
308.421	262.75
308.651	231.75
308.881	230.75
309.111	241.75
309.341	238.75
309.571	246.75
309.8	242.75
310.03	250.75
310.26	271.75
310.49	261.75
310.72	267.75
310.949	275.75
311.179	272.75
311.409	259.75
311.639	263.75
311.868	255.75
312.098	255.75
312.328	267.75
312.557	278.75
312.787	289.75
313.017	285.75
313.246	279.75
313.476	266.75
313.706	270.75
313.935	268.75
314.165	265.75
314.394	271.75
314.624	263.75
314.853	270.75
315.083	247.75
315.312	288.75
315.542	263.75
315.771	263.75
316.001	241.75
316.23	268.75
316.46	244.75
316.689	258.75
316.919	268.75
317.148	266.75
317.377	267.75
317.607	269.75
317.836	260.75
318.065	247.75
318.295	248.75
318.524	272.75
318.753	272.75
318.983	278.75
319.212	258.75
319.441	260.75
319.67	277.75
319.9	270.75
320.129	274.75
320.358	281.75
320.587	277.75
320.816	280.75
321.046	283.75
321.275	254.75
321.504	286.75
321.733	282.75
321.962	288.75
322.191	296.75
322.42	303.75
322.649	311.75
322.878	315.75
323.108	316.75
323.337	343.75
323.566	326.75
323.795	387.75
324.024	406.75
324.253	506.75
324.482	762.75
324.71	1102.75
324.939	1459.75
325.168	1186.75
325.397	631.75
325.626	438.75
325.855	382.75
326.084	375.75
326.313	354.75
326.542	347.75
326.77	401.75
326.999	489.75
327.228	672.75
327.457	970.75
327.686	1048.75
327.914	718.75
328.143	504.75
328.372	427.75
328.6	393.75
328.829	406.75
329.058	395.75
329.287	390.75
329.515	363.75
329.744	353.75
329.972	355.75
330.201	349.75
330.43	388.75
330.658	388.75
330.887	419.75
331.115	386.75
331.344	340.75
331.572	341.75
331.801	314.75
332.03	350.75
332.258	331.75
332.486	315.75
332.715	308.75
332.943	296.75
333.172	299.75
333.4	312.75
333.629	306.75
333.857	322.75
334.085	333.75
334.314	323.75
334.542	327.75
334.771	332.75
334.999	323.75
335.227	336.75
335.455	304.75
335.684	304.75
335.912	318.75
336.14	307.75
336.369	270.75
336.597	296.75
336.825	300.75
337.053	305.75
337.281	288.75
337.51	298.75
337.738	302.75
337.966	290.75
338.194	310.75
338.422	289.75
338.65	307.75
338.878	286.75
339.106	269.75
339.334	291.75
339.562	290.75
339.79	284.75
340.018	288.75
340.246	299.75
340.474	289.75
340.702	280.75
340.93	271.75
341.158	280.75
341.386	292.75
341.614	290.75
341.842	298.75
342.07	287.75
342.298	272.75
342.526	292.75
342.754	286.75
342.981	268.75
343.209	286.75
343.437	292.75
343.665	295.75
343.893	290.75
344.12	289.75
344.348	280.75
344.576	293.75
344.804	298.75
345.031	302.75
345.259	308.75
345.487	279.75
345.714	297.75
345.942	291.75
346.17	270.75
346.397	289.75
346.625	286.75
346.853	267.75
347.08	267.75
347.308	263.75
347.535	283.75
347.763	278.75
347.99	296.75
348.218	291.75
348.445	287.75
348.673	267.75
348.9	265.75
349.128	268.75
349.355	267.75
349.583	275.75
349.81	268.75
350.037	287.75
350.265	259.75
350.492	260.75
350.72	285.75
350.947	280.75
351.174	276.75
351.402	285.75
351.629	299.75
351.856	292.75
352.083	299.75
352.311	282.75
352.538	306.75
352.765	272.75
352.992	273.75
353.22	303.75
353.447	297.75
353.674	270.75
353.901	269.75
354.128	259.75
354.355	252.75
354.583	256.75
354.81	254.75
355.037	260.75
355.264	258.75
355.491	240.75
355.718	259.75
355.945	272.75
356.172	258.75
356.399	244.75
356.626	273.75
356.853	246.75
357.08	250.75
357.307	238.75
357.534	264.75
357.761	265.75
357.988	264.75
358.215	268.75
358.441	259.75
358.668	259.75
358.895	255.75
359.122	283.75
359.349	278.75
359.576	292.75
359.802	276.75
360.029	308.75
360.256	313.75
360.483	307.75
360.709	290.75
360.936	288.75
361.163	278.75
361.39	283.75
361.616	274.75
361.843	267.75
362.07	289.75
362.296	274.75
362.523	278.75
362.749	276.75
362.976	272.75
363.203	248.75
363.429	249.75
363.656	252.75
363.882	268.75
364.109	268.75
364.335	253.75
364.562	263.75
364.788	251.75
365.015	272.75
365.241	269.75
365.468	254.75
365.694	265.75
365.92	278.75
366.147	244.75
366.373	263.75
366.599	253.75
366.826	254.75
367.052	260.75
367.278	258.75
367.505	257.75
367.731	266.75
367.957	253.75
368.184	256.75
368.41	274.75
368.636	267.75
368.862	279.75
369.089	260.75
369.315	246.75
369.541	243.75
369.767	260.75
369.993	264.75
370.219	260.75
370.445	235.75
370.672	255.75
370.898	254.75
371.124	260.75
371.35	260.75
371.576	251.75
371.802	247.75
372.028	241.75
372.254	233.75
372.48	233.75
372.706	262.75
372.932	248.75
373.158	235.75
373.384	264.75
373.61	273.75
373.835	248.75
374.061	262.75
374.287	234.75
374.513	250.75
374.739	253.75
374.965	258.75
375.191	253.75
375.416	253.75
375.642	259.75
375.868	247.75
376.094	263.75
376.319	248.75
376.545	241.75
376.771	260.75
376.997	250.75
377.222	261.75
377.448	238.75
377.674	238.75
377.899	261.75
378.125	238.75
378.35	223.75
378.576	264.75
378.802	266.75
379.027	244.75
379.253	248.75
379.478	253.75
379.704	231.75
379.929	246.75
380.155	259.75
380.38	249.75
380.606	243.75
380.831	243.75
381.057	261.75
381.282	245.75
381.507	256.75
381.733	241.75
381.958	255.75
382.184	259.75
382.409	230.75
382.634	252.75
382.86	252.75
383.085	245.75
383.31	244.75
383.535	250.75
383.761	250.75
383.986	234.75
384.211	250.75
384.436	252.75
384.662	245.75
384.887	244.75
385.112	254.75
385.337	255.75
385.562	266.75
385.787	246.75
386.013	283.75
386.238	268.75
386.463	265.75
386.688	260.75
386.913	250.75
387.138	238.75
387.363	245.75
387.588	252.75
387.813	264.75
388.038	266.75
388.263	271.75
388.488	266.75
388.713	258.75
388.938	287.75
389.163	259.75
389.387	253.75
389.612	262.75
389.837	259.75
390.062	246.75
390.287	257.75
390.512	271.75
390.736	255.75
390.961	261.75
391.186	245.75
391.411	244.75
391.636	273.75
391.86	275.75
392.085	258.75
392.31	264.75
392.534	269.75
392.759	274.75
392.984	266.75
393.208	271.75
393.433	272.75
393.658	281.75
393.882	254.75
394.107	246.75
394.331	266.75
394.556	247.75
394.78	252.75
395.005	249.75
395.229	249.75
395.454	271.75
395.678	279.75
395.903	274.75
396.127	287.75
396.352	275.75
396.576	254.75
396.801	272.75
397.025	269.75
397.249	279.75
397.474	279.75
397.698	288.75
397.922	296.75
398.147	290.75
398.371	276.75
398.595	300.75
398.82	286.75
399.044	287.75
399.268	296.75
399.492	308.75
399.717	315.75
399.941	328.75
400.165	328.75
400.389	330.75
400.613	329.75
400.837	332.75
401.062	302.75
401.286	291.75
401.51	279.75
401.734	293.75
401.958	282.75
402.182	297.75
402.406	286.75
402.63	291.75
402.854	290.75
403.078	300.75
403.302	303.75
403.526	310.75
403.75	284.75
403.974	298.75
404.198	296.75
404.422	278.75
404.645	299.75
404.869	294.75
405.093	327.75
405.317	353.75
405.541	340.75
405.765	334.75
405.988	324.75
406.212	332.75
406.436	337.75
406.66	343.75
406.883	348.75
407.107	341.75
407.331	358.75
407.555	392.75
407.778	372.75
408.002	356.75
408.226	332.75
408.449	319.75
408.673	328.75
408.896	340.75
409.12	360.75
409.344	352.75
409.567	313.75
409.791	300.75
410.014	315.75
410.238	287.75
410.461	291.75
410.685	317.75
410.908	299.75
411.132	327.75
411.355	335.75
411.578	319.75
411.802	320.75
412.025	316.75
412.249	298.75
412.472	323.75
412.695	326.75
412.919	326.75
413.142	309.75
413.365	292.75
413.589	278.75
413.812	278.75
414.035	285.75
414.258	288.75
414.482	269.75
414.705	279.75
414.928	273.75
415.151	283.75
415.374	275.75
415.597	267.75
415.821	275.75
416.044	290.75
416.267	278.75
416.49	267.75
416.713	274.75
416.936	282.75
417.159	283.75
417.382	296.75
417.605	290.75
417.828	289.75
418.051	300.75
418.274	286.75
418.497	285.75
418.72	277.75
418.943	279.75
419.166	287.75
419.389	293.75
419.611	308.75
419.834	281.75
420.057	292.75
420.28	287.75
420.503	287.75
420.726	315.75
420.948	312.75
421.171	339.75
421.394	318.75
421.617	312.75
421.839	288.75
422.062	308.75
422.285	318.75
422.507	342.75
422.73	370.75
422.953	366.75
423.175	334.75
423.398	275.75
423.621	273.75
423.843	315.75
424.066	327.75
424.288	333.75
424.511	323.75
424.733	368.75
424.956	394.75
425.178	372.75
425.401	376.75
425.623	405.75
425.846	337.75
426.068	323.75
426.291	319.75
426.513	336.75
426.735	330.75
426.958	344.75
427.18	408.75
427.402	464.75
427.625	511.75
427.847	444.75
428.069	410.75
428.292	338.75
428.514	321.75
428.736	325.75
428.958	294.75
429.181	302.75
429.403	305.75
429.625	309.75
429.847	331.75
430.069	371.75
430.292	348.75
430.514	302.75
430.736	291.75
430.958	302.75
431.18	290.75
431.402	287.75
431.624	271.75
431.846	274.75
432.068	275.75
432.29	266.75
432.512	298.75
432.734	280.75
432.956	299.75
433.178	290.75
433.4	296.75
433.622	288.75
433.844	289.75
434.066	273.75
434.287	271.75
434.509	287.75
434.731	289.75
434.953	308.75
435.175	299.75
435.397	307.75
435.618	331.75
435.84	354.75
436.062	399.75
436.284	422.75
436.505	371.75
436.727	312.75
436.949	299.75
437.17	306.75
437.392	279.75
437.614	292.75
437.835	352.75
438.057	389.75
438.278	423.75
438.5	465.75
438.721	455.75
438.943	440.75
439.165	363.75
439.386	336.75
439.608	330.75
439.829	318.75
440.05	356.75
440.272	359.75
440.493	345.75
440.715	305.75
440.936	307.75
441.158	313.75
441.379	282.75
441.6	307.75
441.822	318.75
442.043	337.75
442.264	379.75
442.486	402.75
442.707	330.75
442.928	333.75
443.149	342.75
443.371	339.75
443.592	368.75
443.813	424.75
444.034	448.75
444.255	380.75
444.476	345.75
444.698	316.75
444.919	316.75
445.14	397.75
445.361	373.75
445.582	355.75
445.803	388.75
446.024	438.75
446.245	461.75
446.466	402.75
446.687	339.75
446.908	330.75
447.129	318.75
447.35	297.75
447.571	300.75
447.792	317.75
448.013	298.75
448.234	311.75
448.455	356.75
448.675	417.75
448.896	434.75
449.117	402.75
449.338	379.75
449.559	436.75
449.779	472.75
450	396.75
450.221	326.75
450.442	304.75
450.662	300.75
450.883	308.75
451.104	321.75
451.324	297.75
451.545	287.75
451.766	280.75
451.986	265.75
452.207	278.75
452.428	276.75
452.648	264.75
452.869	249.75
453.089	284.75
453.31	287.75
453.53	281.75
453.751	280.75
453.971	285.75
454.192	265.75
454.412	295.75
454.633	264.75
454.853	271.75
455.073	262.75
455.294	284.75
455.514	336.75
455.734	319.75
455.955	278.75
456.175	270.75
456.395	272.75
456.616	243.75
456.836	254.75
457.056	254.75
457.276	254.75
457.497	274.75
457.717	247.75
457.937	270.75
458.157	260.75
458.377	259.75
458.598	276.75
458.818	313.75
459.038	361.75
459.258	351.75
459.478	321.75
459.698	274.75
459.918	289.75
460.138	276.75
460.358	286.75
460.578	271.75
460.798	283.75
461.018	277.75
461.238	276.75
461.458	275.75
461.678	259.75
461.898	273.75
462.118	277.75
462.338	284.75
462.558	287.75
462.777	292.75
462.997	293.75
463.217	282.75
463.437	288.75
463.657	288.75
463.876	285.75
464.096	290.75
464.316	278.75
464.536	292.75
464.755	305.75
464.975	294.75
465.195	336.75
465.414	356.75
465.634	346.75
465.854	297.75
466.073	275.75
466.293	282.75
466.512	271.75
466.732	258.75
466.951	282.75
467.171	292.75
467.391	278.75
467.61	299.75
467.829	268.75
468.049	277.75
468.268	290.75
468.488	290.75
468.707	262.75
468.927	278.75
469.146	269.75
469.365	272.75
469.585	268.75
469.804	266.75
470.023	287.75
470.243	270.75
470.462	302.75
470.681	298.75
470.901	290.75
471.12	288.75
471.339	278.75
471.558	268.75
471.777	282.75
471.997	271.75
472.216	262.75
472.435	299.75
472.654	290.75
472.873	274.75
473.092	286.75
473.311	280.75
473.53	281.75
473.749	285.75
473.968	325.75
474.187	382.75
474.406	404.75
474.625	329.75
474.844	288.75
475.063	282.75
475.282	292.75
475.501	293.75
475.72	289.75
475.939	279.75
476.158	290.75
476.377	287.75
476.596	286.75
476.814	274.75
477.033	307.75
477.252	323.75
477.471	299.75
477.69	292.75
477.908	285.75
478.127	299.75
478.346	305.75
478.564	304.75
478.783	289.75
479.002	316.75
479.22	306.75
479.439	322.75
479.658	333.75
479.876	329.75
480.095	324.75
480.313	346.75
480.532	335.75
480.751	325.75
480.969	306.75
481.188	361.75
481.406	384.75
481.624	346.75
481.843	322.75
482.061	329.75
482.28	323.75
482.498	329.75
482.717	333.75
482.935	321.75
483.153	313.75
483.372	307.75
483.59	313.75
483.808	320.75
484.027	341.75
484.245	315.75
484.463	324.75
484.681	342.75
484.9	324.75
485.118	339.75
485.336	336.75
485.554	334.75
485.772	308.75
485.99	325.75
486.209	327.75
486.427	334.75
486.645	327.75
486.863	345.75
487.081	333.75
487.299	353.75
487.517	347.75
487.735	338.75
487.953	340.75
488.171	346.75
488.389	345.75
488.607	336.75
488.825	342.75
489.043	343.75
489.261	347.75
489.479	343.75
489.696	352.75
489.914	349.75
490.132	356.75
490.35	361.75
490.568	349.75
490.786	374.75
491.003	366.75
491.221	382.75
491.439	372.75
491.657	399.75
491.874	383.75
492.092	388.75
492.31	383.75
492.527	381.75
492.745	407.75
492.963	382.75
493.18	375.75
493.398	397.75
493.615	401.75
493.833	416.75
494.05	400.75
494.268	419.75
494.485	399.75
494.703	386.75
494.92	397.75
495.138	393.75
495.355	411.75
495.573	387.75
495.79	389.75
496.008	410.75
496.225	402.75
496.442	394.75
496.66	411.75
496.877	401.75
497.094	401.75
497.312	414.75
497.529	406.75
497.746	411.75
497.963	415.75
498.181	437.75
498.398	414.75
498.615	440.75
498.832	420.75
499.049	436.75
499.267	436.75
499.484	458.75
499.701	468.75
499.918	457.75
500.135	490.75
500.352	487.75
500.569	496.75
500.786	522.75
501.003	514.75
501.22	487.75
501.437	504.75
501.654	482.75
501.871	485.75
502.088	459.75
502.305	435.75
502.522	430.75
502.739	431.75
502.956	416.75
503.172	430.75
503.389	414.75
503.606	417.75
503.823	401.75
504.04	411.75
504.256	398.75
504.473	402.75
504.69	382.75
504.907	402.75
505.123	390.75
505.34	378.75
505.557	371.75
505.773	405.75
505.99	376.75
506.207	409.75
506.423	392.75
506.64	394.75
506.856	389.75
507.073	368.75
507.289	399.75
507.506	384.75
507.722	385.75
507.939	392.75
508.155	376.75
508.372	382.75
508.588	383.75
508.805	375.75
509.021	382.75
509.238	377.75
509.454	404.75
509.67	373.75
509.887	385.75
510.103	389.75
510.319	400.75
510.536	450.75
510.752	724.75
510.968	576.75
511.184	396.75
511.401	373.75
511.617	375.75
511.833	359.75
512.049	348.75
512.265	371.75
512.481	371.75
512.698	364.75
512.914	361.75
513.13	375.75
513.346	347.75
513.562	357.75
513.778	361.75
513.994	353.75
514.21	361.75
514.426	374.75
514.642	421.75
514.858	422.75
515.074	436.75
515.29	544.75
515.506	756.75
515.721	619.75
515.937	437.75
516.153	402.75
516.369	372.75
516.585	359.75
516.801	378.75
517.016	372.75
517.232	354.75
517.448	358.75
517.664	361.75
517.879	359.75
518.095	369.75
518.311	366.75
518.527	349.75
518.742	362.75
518.958	367.75
519.173	350.75
519.389	338.75
519.605	370.75
519.82	359.75
520.036	376.75
520.251	378.75
520.467	386.75
520.682	390.75
520.898	400.75
521.113	425.75
521.329	449.75
521.544	494.75
521.76	622.75
521.975	1049.75
522.19	932.75
522.406	538.75
522.621	420.75
522.836	386.75
523.052	356.75
523.267	352.75
523.482	356.75
523.698	327.75
523.913	343.75
524.128	337.75
524.343	318.75
524.559	322.75
524.774	311.75
524.989	310.75
525.204	318.75
525.419	307.75
525.634	298.75
525.849	290.75
526.064	303.75
526.28	311.75
526.495	291.75
526.71	302.75
526.925	306.75
527.14	315.75
527.355	301.75
527.57	287.75
527.785	309.75
527.999	286.75
528.214	302.75
528.429	280.75
528.644	289.75
528.859	298.75
529.074	295.75
529.289	314.75
529.503	348.75
529.718	344.75
529.933	313.75
530.148	302.75
530.363	311.75
530.577	292.75
530.792	287.75
531.007	303.75
531.221	294.75
531.436	299.75
531.651	285.75
531.865	290.75
532.08	279.75
532.295	277.75
532.509	265.75
532.724	272.75
532.938	282.75
533.153	277.75
533.367	283.75
533.582	268.75
533.796	268.75
534.011	290.75
534.225	267.75
534.44	272.75
534.654	296.75
534.868	279.75
535.083	274.75
535.297	276.75
535.511	283.75
535.726	291.75
535.94	271.75
536.154	274.75
536.369	258.75
536.583	272.75
536.797	268.75
537.011	276.75
537.225	262.75
537.44	280.75
537.654	272.75
537.868	284.75
538.082	272.75
538.296	267.75
538.51	276.75
538.724	289.75
538.938	289.75
539.153	283.75
539.367	291.75
539.581	284.75
539.795	278.75
540.009	275.75
540.222	264.75
540.436	282.75
540.65	250.75
540.864	278.75
541.078	275.75
541.292	265.75
541.506	281.75
541.72	272.75
541.934	266.75
542.147	282.75
542.361	277.75
542.575	274.75
542.789	286.75
543.002	274.75
543.216	272.75
543.43	267.75
543.644	279.75
543.857	273.75
544.071	286.75
544.285	274.75
544.498	270.75
544.712	260.75
544.925	265.75
545.139	276.75
545.352	264.75
545.566	266.75
545.779	264.75
545.993	267.75
546.206	301.75
546.42	269.75
546.633	260.75
546.847	263.75
547.06	267.75
547.274	279.75
547.487	275.75
547.7	271.75
547.914	265.75
548.127	252.75
548.34	252.75
548.554	262.75
548.767	251.75
548.98	263.75
549.193	252.75
549.407	265.75
549.62	268.75
549.833	232.75
550.046	256.75
550.259	246.75
550.473	260.75
550.686	256.75
550.899	267.75
551.112	242.75
551.325	262.75
551.538	246.75
551.751	255.75
551.964	242.75
552.177	236.75
552.39	239.75
552.603	232.75
552.816	247.75
553.029	269.75
553.242	270.75
553.455	244.75
553.667	266.75
553.88	271.75
554.093	263.75
554.306	261.75
554.519	242.75
554.732	258.75
554.944	267.75
555.157	243.75
555.37	241.75
555.583	257.75
555.795	223.75
556.008	234.75
556.221	240.75
556.433	233.75
556.646	232.75
556.859	228.75
557.071	242.75
557.284	242.75
557.496	222.75
557.709	224.75
557.921	243.75
558.134	233.75
558.346	253.75
558.559	236.75
558.771	234.75
558.984	234.75
559.196	226.75
559.409	235.75
559.621	234.75
559.833	228.75
560.046	224.75
560.258	244.75
560.47	231.75
560.683	234.75
560.895	230.75
561.107	230.75
561.32	230.75
561.532	220.75
561.744	212.75
561.956	220.75
562.168	228.75
562.381	249.75
562.593	225.75
562.805	227.75
563.017	234.75
563.229	222.75
563.441	216.75
563.653	231.75
563.865	232.75
564.077	230.75
564.289	235.75
564.501	231.75
564.713	246.75
564.925	223.75
565.137	234.75
565.349	246.75
565.561	242.75
565.773	238.75
565.985	259.75
566.197	242.75
566.408	254.75
566.62	257.75
566.832	239.75
567.044	257.75
567.255	259.75
567.467	258.75
567.679	269.75
567.891	272.75
568.102	268.75
568.314	249.75
568.526	256.75
568.737	254.75
568.949	236.75
569.161	256.75
569.372	222.75
569.584	239.75
569.795	222.75
570.007	234.75
570.218	255.75
570.43	244.75
570.641	215.75
570.853	227.75
571.064	240.75
571.276	230.75
571.487	204.75
571.698	210.75
571.91	197.75
572.121	210.75
572.333	222.75
572.544	204.75
572.755	206.75
572.966	200.75
573.178	209.75
573.389	209.75
573.6	209.75
573.811	218.75
574.023	189.75
574.234	194.75
574.445	188.75
574.656	207.75
574.867	217.75
575.078	188.75
575.289	184.75
575.501	191.75
575.712	194.75
575.923	217.75
576.134	195.75
576.345	184.75
576.556	207.75
576.767	201.75
576.978	206.75
577.188	211.75
577.399	216.75
577.61	191.75
577.821	209.75
578.032	199.75
578.243	241.75
578.454	347.75
578.665	274.75
578.875	212.75
579.086	204.75
579.297	198.75
579.508	194.75
579.718	192.75
579.929	194.75
580.14	182.75
580.35	178.75
580.561	197.75
580.772	202.75
580.982	199.75
581.193	180.75
581.403	195.75
581.614	184.75
581.825	204.75
582.035	191.75
582.246	188.75
582.456	174.75
582.667	182.75
582.877	179.75
583.087	187.75
583.298	188.75
583.508	190.75
583.719	194.75
583.929	200.75
584.139	197.75
584.35	186.75
584.56	177.75
584.77	195.75
584.981	190.75
585.191	197.75
585.401	188.75
585.611	175.75
585.821	187.75
586.032	190.75
586.242	194.75
586.452	194.75
586.662	191.75
586.872	191.75
587.082	196.75
587.292	189.75
587.502	202.75
587.713	190.75
587.923	177.75
588.133	191.75
588.343	196.75
588.553	178.75
588.762	187.75
588.972	172.75
589.182	199.75
589.392	193.75
589.602	186.75
589.812	188.75
590.022	186.75
590.232	185.75
590.441	182.75
590.651	180.75
590.861	190.75
591.071	188.75
591.281	172.75
591.49	164.75
591.7	183.75
591.91	184.75
592.119	167.75
592.329	176.75
592.539	206.75
592.748	186.75
592.958	174.75
593.167	171.75
593.377	188.75
593.587	171.75
593.796	201.75
594.006	187.75
594.215	186.75
594.424	171.75
594.634	181.75
594.843	176.75
595.053	187.75
595.262	176.75
595.472	169.75
595.681	178.75
595.89	189.75
596.1	181.75
596.309	186.75
596.518	166.75
596.727	190.75
596.937	169.75
597.146	159.75
597.355	171.75
597.564	166.75
597.774	176.75
597.983	167.75
598.192	175.75
598.401	164.75
598.61	162.75
598.819	196.75
599.028	180.75
599.237	168.75
599.446	166.75
599.655	175.75
599.864	159.75
600.073	163.75
600.282	165.75
600.491	179.75
600.7	156.75
600.909	171.75
601.118	163.75
601.327	162.75
601.536	174.75
601.745	170.75
601.953	185.75
602.162	175.75
602.371	153.75
602.58	170.75
602.789	175.75
602.997	169.75
603.206	178.75
603.415	168.75
603.623	161.75
603.832	183.75
604.041	166.75
604.249	151.75
604.458	153.75
604.666	150.75
604.875	163.75
605.084	154.75
605.292	189.75
605.501	150.75
605.709	152.75
605.918	159.75
606.126	184.75
606.334	160.75
606.543	162.75
606.751	179.75
606.96	163.75
607.168	159.75
607.376	163.75
607.585	147.75
607.793	172.75
608.001	158.75
608.21	148.75
608.418	160.75
608.626	171.75
608.834	174.75
609.043	158.75
609.251	163.75
609.459	163.75
609.667	158.75
609.875	163.75
610.083	155.75
610.291	159.75
610.499	145.75
610.707	161.75
610.916	169.75
611.124	163.75
611.332	167.75
611.54	164.75
611.748	169.75
611.955	155.75
612.163	170.75
612.371	161.75
612.579	156.75
612.787	159.75
612.995	167.75
613.203	156.75
613.411	146.75
613.618	145.75
613.826	154.75
614.034	168.75
614.242	147.75
614.449	163.75
614.657	167.75
614.865	160.75
615.072	148.75
615.28	161.75
615.488	131.75
615.695	168.75
615.903	166.75
616.111	143.75
616.318	145.75
616.526	158.75
616.733	157.75
616.941	152.75
617.148	151.75
617.356	156.75
617.563	158.75
617.771	150.75
617.978	144.75
618.185	166.75
618.393	147.75
618.6	163.75
618.807	147.75
619.015	144.75
619.222	168.75
619.429	172.75
619.637	161.75
619.844	136.75
620.051	158.75
620.258	144.75
620.466	148.75
620.673	160.75
620.88	164.75
621.087	153.75
621.294	148.75
621.501	153.75
621.708	159.75
621.915	141.75
622.122	152.75
622.329	160.75
622.536	161.75
622.743	167.75
622.95	133.75
623.157	144.75
623.364	141.75
623.571	135.75
623.778	144.75
623.985	156.75
624.192	150.75
624.399	140.75
624.606	136.75
624.812	134.75
625.019	157.75
625.226	122.75
625.433	134.75
625.639	134.75
625.846	145.75
626.053	148.75
626.259	136.75
626.466	168.75
626.673	156.75
626.879	148.75
627.086	149.75
627.293	150.75
627.499	139.75
627.706	144.75
627.912	134.75
628.119	136.75
628.325	141.75
628.532	150.75
628.738	157.75
628.945	137.75
629.151	138.75
629.357	151.75
629.564	144.75
629.77	148.75
629.976	131.75
630.183	126.75
630.389	139.75
630.595	134.75
630.802	140.75
631.008	129.75
631.214	137.75
631.42	137.75
631.627	141.75
631.833	141.75
632.039	146.75
632.245	135.75
632.451	136.75
632.657	138.75
632.863	141.75
633.069	129.75
633.275	123.75
633.481	129.75
633.688	138.75
633.893	151.75
634.099	119.75
634.305	129.75
634.511	128.75
634.717	136.75
634.923	123.75
635.129	126.75
635.335	128.75
635.541	120.75
635.747	140.75
635.952	132.75
636.158	144.75
636.364	128.75
636.57	141.75
636.775	129.75
636.981	141.75
637.187	141.75
637.392	133.75
637.598	129.75
637.804	133.75
638.009	124.75
638.215	132.75
638.421	141.75
638.626	124.75
638.832	126.75
639.037	137.75
639.243	127.75
639.448	120.75
639.654	132.75
639.859	110.75
640.065	111.75
640.27	126.75
640.475	135.75
640.681	138.75
640.886	130.75
641.091	119.75
641.297	130.75
641.502	144.75
641.707	116.75
641.913	134.75
642.118	126.75
642.323	121.75
642.528	125.75
642.733	139.75
642.939	121.75
643.144	122.75
643.349	135.75
643.554	123.75
643.759	122.75
643.964	126.75
644.169	130.75
644.374	121.75
644.579	123.75
644.784	124.75
644.989	128.75
645.194	139.75
645.399	134.75
645.604	115.75
645.809	107.75
646.014	126.75
646.219	114.75
646.423	110.75
646.628	119.75
646.833	127.75
647.038	124.75
647.243	118.75
647.447	128.75
647.652	118.75
647.857	117.75
648.062	123.75
648.266	129.75
648.471	113.75
648.676	126.75
648.88	125.75
649.085	133.75
649.289	130.75
649.494	120.75
649.698	146.75
649.903	140.75
650.107	119.75
650.312	130.75
650.516	124.75
650.721	117.75
650.925	116.75
651.13	123.75
651.334	120.75
651.539	110.75
651.743	112.75
651.947	116.75
652.152	122.75
652.356	116.75
652.56	107.75
652.764	124.75
652.969	114.75
653.173	115.75
653.377	126.75
653.581	104.75
653.785	110.75
653.99	99.75
654.194	114.75
654.398	107.75
654.602	110.75
654.806	113.75
655.01	124.75
655.214	110.75
655.418	120.75
655.622	113.75
655.826	117.75
656.03	114.75
656.234	112.75
656.438	100.75
656.642	123.75
656.846	116.75
657.049	101.75
657.253	106.75
657.457	109.75
657.661	87.75
657.865	94.75
658.068	108.75
658.272	83.75
658.476	91.75
658.68	83.75
658.883	90.75
659.087	84.75
659.291	103.75
659.494	98.75
659.698	93.75
659.901	93.75
660.105	96.75
660.309	78.75
660.512	89.75
660.716	90.75
660.919	95.75
661.123	110.75
661.326	88.75
661.53	94.75
661.733	86.75
661.936	96.75
662.14	76.75
662.343	83.75
662.546	70.75
662.75	82.75
662.953	91.75
663.156	92.75
663.36	83.75
663.563	82.75
663.766	84.75
663.969	71.75
664.173	75.75
664.376	91.75
664.579	71.75
664.782	92.75
664.985	84.75
665.188	80.75
665.391	79.75
665.594	79.75
665.797	66.75
666	85.75
666.203	84.75
666.406	71.75
666.609	88.75
666.812	82.75
667.015	67.75
667.218	79.75
667.421	96.75
667.624	91.75
667.827	77.75
668.03	76.75
668.232	78.75
668.435	90.75
668.638	84.75
668.841	92.75
669.043	88.75
669.246	82.75
669.449	78.75
669.651	79.75
669.854	79.75
670.057	68.75
670.259	68.75
670.462	79.75
670.665	79.75
670.867	72.75
671.07	84.75
671.272	96.75
671.475	82.75
671.677	87.75
671.88	90.75
672.082	79.75
672.284	86.75
672.487	91.75
672.689	66.75
672.892	77.75
