Data from 1982.PennyLincolnUp.Lamp.En5.5.200Scan.071819.P1_HRD10591_16-45-30-961.txt Node
Date: Thu Jul 18 16:45:30 EDT 2019
User: cochatt
Spectrometer: HR+D1059
Trigger mode: 1
Integration Time (sec): 1.000000E-1
Scans to average: 1
Electric dark correction enabled: true
Nonlinearity correction enabled: false
Boxcar width: 0
XAxis mode: Wavelengths
Number of Pixels in Spectrum: 2048
>>>>>Begin Spectral Data<<<<<
223.165	-13.5
223.4	-13.5
223.635	-13.5
223.869	-6.5
224.104	-16.5
224.338	-0.5
224.573	-7.5
224.808	-10.5
225.042	-7.5
225.277	-15.5
225.511	-1.5
225.746	3.5
225.98	2.5
226.215	10.5
226.449	17.5
226.683	9.5
226.918	17.5
227.152	18.5
227.387	30.5
227.621	53.5
227.856	53.5
228.09	37.5
228.324	54.5
228.559	50.5
228.793	51.5
229.027	98.5
229.262	107.5
229.496	104.5
229.73	101.5
229.964	122.5
230.199	97.5
230.433	101.5
230.667	94.5
230.901	103.5
231.136	96.5
231.37	86.5
231.604	109.5
231.838	101.5
232.072	106.5
232.306	101.5
232.541	76.5
232.775	98.5
233.009	97.5
233.243	97.5
233.477	94.5
233.711	105.5
233.945	105.5
234.179	99.5
234.413	99.5
234.647	117.5
234.881	100.5
235.115	111.5
235.349	106.5
235.583	89.5
235.817	116.5
236.051	109.5
236.285	114.5
236.519	103.5
236.753	115.5
236.987	123.5
237.221	142.5
237.455	162.5
237.689	163.5
237.922	111.5
238.156	93.5
238.39	111.5
238.624	106.5
238.858	105.5
239.091	106.5
239.325	109.5
239.559	122.5
239.793	97.5
240.027	117.5
240.26	111.5
240.494	128.5
240.728	117.5
240.961	109.5
241.195	125.5
241.429	121.5
241.662	107.5
241.896	114.5
242.13	110.5
242.363	113.5
242.597	110.5
242.83	95.5
243.064	111.5
243.298	125.5
243.531	110.5
243.765	117.5
243.998	129.5
244.232	129.5
244.465	126.5
244.699	110.5
244.932	117.5
245.166	117.5
245.399	109.5
245.633	123.5
245.866	132.5
246.099	129.5
246.333	126.5
246.566	115.5
246.8	121.5
247.033	121.5
247.266	132.5
247.5	124.5
247.733	140.5
247.966	143.5
248.2	129.5
248.433	140.5
248.666	146.5
248.899	143.5
249.133	143.5
249.366	167.5
249.599	135.5
249.832	164.5
250.066	133.5
250.299	163.5
250.532	154.5
250.765	166.5
250.998	155.5
251.231	183.5
251.465	172.5
251.698	159.5
251.931	149.5
252.164	161.5
252.397	148.5
252.63	166.5
252.863	143.5
253.096	152.5
253.329	181.5
253.562	173.5
253.795	167.5
254.028	162.5
254.261	164.5
254.494	171.5
254.727	201.5
254.96	207.5
255.193	196.5
255.426	183.5
255.659	173.5
255.892	179.5
256.124	177.5
256.357	179.5
256.59	167.5
256.823	170.5
257.056	155.5
257.289	156.5
257.521	163.5
257.754	165.5
257.987	162.5
258.22	156.5
258.452	161.5
258.685	163.5
258.918	165.5
259.151	170.5
259.383	171.5
259.616	180.5
259.849	168.5
260.081	170.5
260.314	189.5
260.547	179.5
260.779	181.5
261.012	191.5
261.244	185.5
261.477	163.5
261.71	179.5
261.942	186.5
262.175	167.5
262.407	171.5
262.64	169.5
262.872	171.5
263.105	160.5
263.337	168.5
263.57	146.5
263.802	162.5
264.035	172.5
264.267	161.5
264.499	165.5
264.732	170.5
264.964	166.5
265.197	162.5
265.429	159.5
265.661	170.5
265.894	153.5
266.126	167.5
266.358	151.5
266.591	170.5
266.823	189.5
267.055	177.5
267.287	172.5
267.52	169.5
267.752	173.5
267.984	181.5
268.216	161.5
268.448	179.5
268.681	191.5
268.913	200.5
269.145	194.5
269.377	198.5
269.609	206.5
269.841	199.5
270.073	218.5
270.306	227.5
270.538	219.5
270.77	223.5
271.002	231.5
271.234	215.5
271.466	215.5
271.698	214.5
271.93	220.5
272.162	241.5
272.394	230.5
272.626	196.5
272.858	206.5
273.09	223.5
273.322	204.5
273.553	191.5
273.785	204.5
274.017	195.5
274.249	201.5
274.481	205.5
274.713	194.5
274.945	215.5
275.176	199.5
275.408	179.5
275.64	217.5
275.872	187.5
276.104	198.5
276.335	203.5
276.567	197.5
276.799	215.5
277.031	224.5
277.262	225.5
277.494	227.5
277.726	222.5
277.957	210.5
278.189	208.5
278.421	193.5
278.652	206.5
278.884	209.5
279.115	187.5
279.347	195.5
279.579	190.5
279.81	198.5
280.042	195.5
280.273	202.5
280.505	180.5
280.736	205.5
280.968	196.5
281.199	210.5
281.431	209.5
281.662	197.5
281.894	209.5
282.125	192.5
282.356	205.5
282.588	219.5
282.819	217.5
283.051	213.5
283.282	201.5
283.513	197.5
283.745	197.5
283.976	203.5
284.207	200.5
284.439	221.5
284.67	213.5
284.901	206.5
285.132	201.5
285.364	210.5
285.595	206.5
285.826	199.5
286.057	230.5
286.288	208.5
286.52	208.5
286.751	199.5
286.982	228.5
287.213	200.5
287.444	226.5
287.675	210.5
287.906	228.5
288.138	211.5
288.369	213.5
288.6	222.5
288.831	220.5
289.062	207.5
289.293	214.5
289.524	204.5
289.755	205.5
289.986	215.5
290.217	210.5
290.448	205.5
290.679	226.5
290.91	218.5
291.141	202.5
291.371	222.5
291.602	207.5
291.833	213.5
292.064	213.5
292.295	204.5
292.526	204.5
292.757	214.5
292.987	198.5
293.218	219.5
293.449	201.5
293.68	201.5
293.91	207.5
294.141	213.5
294.372	217.5
294.603	197.5
294.833	214.5
295.064	225.5
295.295	211.5
295.525	207.5
295.756	212.5
295.987	223.5
296.217	236.5
296.448	230.5
296.679	231.5
296.909	218.5
297.14	222.5
297.37	210.5
297.601	225.5
297.831	219.5
298.062	226.5
298.292	207.5
298.523	209.5
298.753	221.5
298.984	220.5
299.214	225.5
299.445	222.5
299.675	213.5
299.905	235.5
300.136	220.5
300.366	219.5
300.597	223.5
300.827	224.5
301.057	239.5
301.288	233.5
301.518	224.5
301.748	238.5
301.979	230.5
302.209	242.5
302.439	239.5
302.669	222.5
302.9	226.5
303.13	234.5
303.36	233.5
303.59	233.5
303.82	243.5
304.051	253.5
304.281	240.5
304.511	227.5
304.741	237.5
304.971	225.5
305.201	235.5
305.431	245.5
305.661	249.5
305.891	231.5
306.121	227.5
306.352	230.5
306.582	246.5
306.812	239.5
307.042	233.5
307.272	229.5
307.502	234.5
307.731	229.5
307.961	243.5
308.191	249.5
308.421	239.5
308.651	229.5
308.881	233.5
309.111	243.5
309.341	234.5
309.571	259.5
309.8	260.5
310.03	256.5
310.26	260.5
310.49	249.5
310.72	261.5
310.949	263.5
311.179	278.5
311.409	261.5
311.639	259.5
311.868	250.5
312.098	277.5
312.328	269.5
312.557	281.5
312.787	269.5
313.017	291.5
313.246	270.5
313.476	257.5
313.706	258.5
313.935	291.5
314.165	283.5
314.394	277.5
314.624	287.5
314.853	255.5
315.083	279.5
315.312	271.5
315.542	264.5
315.771	271.5
316.001	260.5
316.23	258.5
316.46	264.5
316.689	259.5
316.919	283.5
317.148	253.5
317.377	277.5
317.607	297.5
317.836	282.5
318.065	262.5
318.295	264.5
318.524	278.5
318.753	267.5
318.983	265.5
319.212	276.5
319.441	265.5
319.67	284.5
319.9	278.5
320.129	258.5
320.358	251.5
320.587	266.5
320.816	278.5
321.046	291.5
321.275	295.5
321.504	289.5
321.733	284.5
321.962	294.5
322.191	305.5
322.42	313.5
322.649	326.5
322.878	322.5
323.108	334.5
323.337	347.5
323.566	381.5
323.795	390.5
324.024	438.5
324.253	552.5
324.482	806.5
324.71	1167.5
324.939	1493.5
325.168	1233.5
325.397	651.5
325.626	469.5
325.855	387.5
326.084	360.5
326.313	373.5
326.542	365.5
326.77	422.5
326.999	521.5
327.228	693.5
327.457	948.5
327.686	1081.5
327.914	721.5
328.143	472.5
328.372	451.5
328.6	428.5
328.829	404.5
329.058	418.5
329.287	417.5
329.515	383.5
329.744	375.5
329.972	363.5
330.201	383.5
330.43	393.5
330.658	416.5
330.887	437.5
331.115	398.5
331.344	359.5
331.572	340.5
331.801	351.5
332.03	345.5
332.258	330.5
332.486	313.5
332.715	305.5
332.943	314.5
333.172	333.5
333.4	317.5
333.629	322.5
333.857	343.5
334.085	323.5
334.314	327.5
334.542	356.5
334.771	368.5
334.999	338.5
335.227	309.5
335.455	306.5
335.684	325.5
335.912	298.5
336.14	339.5
336.369	312.5
336.597	295.5
336.825	316.5
337.053	311.5
337.281	309.5
337.51	300.5
337.738	306.5
337.966	318.5
338.194	331.5
338.422	300.5
338.65	303.5
338.878	286.5
339.106	267.5
339.334	267.5
339.562	287.5
339.79	316.5
340.018	286.5
340.246	289.5
340.474	303.5
340.702	300.5
340.93	281.5
341.158	292.5
341.386	284.5
341.614	292.5
341.842	305.5
342.07	292.5
342.298	297.5
342.526	290.5
342.754	269.5
342.981	275.5
343.209	277.5
343.437	276.5
343.665	289.5
343.893	306.5
344.12	285.5
344.348	295.5
344.576	286.5
344.804	286.5
345.031	305.5
345.259	311.5
345.487	275.5
345.714	292.5
345.942	290.5
346.17	303.5
346.397	289.5
346.625	295.5
346.853	292.5
347.08	308.5
347.308	293.5
347.535	298.5
347.763	284.5
347.99	289.5
348.218	307.5
348.445	286.5
348.673	282.5
348.9	296.5
349.128	297.5
349.355	283.5
349.583	282.5
349.81	286.5
350.037	285.5
350.265	299.5
350.492	284.5
350.72	269.5
350.947	283.5
351.174	290.5
351.402	308.5
351.629	305.5
351.856	286.5
352.083	313.5
352.311	289.5
352.538	295.5
352.765	292.5
352.992	285.5
353.22	294.5
353.447	279.5
353.674	281.5
353.901	262.5
354.128	282.5
354.355	275.5
354.583	256.5
354.81	282.5
355.037	252.5
355.264	255.5
355.491	256.5
355.718	256.5
355.945	254.5
356.172	262.5
356.399	262.5
356.626	251.5
356.853	256.5
357.08	253.5
357.307	266.5
357.534	241.5
357.761	269.5
357.988	259.5
358.215	266.5
358.441	252.5
358.668	268.5
358.895	269.5
359.122	262.5
359.349	264.5
359.576	285.5
359.802	314.5
360.029	314.5
360.256	325.5
360.483	303.5
360.709	280.5
360.936	293.5
361.163	302.5
361.39	285.5
361.616	291.5
361.843	288.5
362.07	285.5
362.296	277.5
362.523	284.5
362.749	298.5
362.976	277.5
363.203	275.5
363.429	266.5
363.656	257.5
363.882	269.5
364.109	279.5
364.335	275.5
364.562	266.5
364.788	286.5
365.015	264.5
365.241	254.5
365.468	275.5
365.694	273.5
365.92	277.5
366.147	274.5
366.373	269.5
366.599	266.5
366.826	272.5
367.052	269.5
367.278	257.5
367.505	289.5
367.731	265.5
367.957	282.5
368.184	257.5
368.41	279.5
368.636	287.5
368.862	275.5
369.089	286.5
369.315	275.5
369.541	268.5
369.767	245.5
369.993	266.5
370.219	258.5
370.445	269.5
370.672	257.5
370.898	261.5
371.124	249.5
371.35	257.5
371.576	277.5
371.802	261.5
372.028	266.5
372.254	247.5
372.48	261.5
372.706	252.5
372.932	261.5
373.158	266.5
373.384	280.5
373.61	277.5
373.835	263.5
374.061	253.5
374.287	274.5
374.513	245.5
374.739	261.5
374.965	265.5
375.191	267.5
375.416	261.5
375.642	273.5
375.868	266.5
376.094	272.5
376.319	292.5
376.545	271.5
376.771	266.5
376.997	263.5
377.222	255.5
377.448	275.5
377.674	250.5
377.899	251.5
378.125	259.5
378.35	267.5
378.576	268.5
378.802	257.5
379.027	237.5
379.253	263.5
379.478	255.5
379.704	246.5
379.929	274.5
380.155	268.5
380.38	269.5
380.606	270.5
380.831	253.5
381.057	260.5
381.282	263.5
381.507	252.5
381.733	264.5
381.958	286.5
382.184	258.5
382.409	264.5
382.634	270.5
382.86	260.5
383.085	258.5
383.31	266.5
383.535	259.5
383.761	266.5
383.986	266.5
384.211	268.5
384.436	284.5
384.662	272.5
384.887	269.5
385.112	268.5
385.337	259.5
385.562	269.5
385.787	270.5
386.013	296.5
386.238	283.5
386.463	261.5
386.688	254.5
386.913	262.5
387.138	268.5
387.363	290.5
387.588	257.5
387.813	255.5
388.038	289.5
388.263	261.5
388.488	261.5
388.713	274.5
388.938	284.5
389.163	275.5
389.387	265.5
389.612	285.5
389.837	270.5
390.062	265.5
390.287	280.5
390.512	267.5
390.736	273.5
390.961	284.5
391.186	246.5
391.411	274.5
391.636	270.5
391.86	279.5
392.085	283.5
392.31	277.5
392.534	271.5
392.759	287.5
392.984	269.5
393.208	287.5
393.433	273.5
393.658	281.5
393.882	252.5
394.107	258.5
394.331	250.5
394.556	242.5
394.78	291.5
395.005	266.5
395.229	262.5
395.454	262.5
395.678	276.5
395.903	298.5
396.127	283.5
396.352	287.5
396.576	278.5
396.801	280.5
397.025	277.5
397.249	283.5
397.474	290.5
397.698	276.5
397.922	309.5
398.147	289.5
398.371	309.5
398.595	303.5
398.82	284.5
399.044	303.5
399.268	305.5
399.492	325.5
399.717	327.5
399.941	349.5
400.165	335.5
400.389	365.5
400.613	341.5
400.837	325.5
401.062	293.5
401.286	295.5
401.51	301.5
401.734	308.5
401.958	293.5
402.182	320.5
402.406	309.5
402.63	309.5
402.854	293.5
403.078	293.5
403.302	282.5
403.526	304.5
403.75	293.5
403.974	302.5
404.198	309.5
404.422	307.5
404.645	308.5
404.869	307.5
405.093	338.5
405.317	351.5
405.541	361.5
405.765	319.5
405.988	324.5
406.212	333.5
406.436	342.5
406.66	360.5
406.883	359.5
407.107	333.5
407.331	391.5
407.555	407.5
407.778	415.5
408.002	372.5
408.226	348.5
408.449	343.5
408.673	331.5
408.896	343.5
409.12	383.5
409.344	350.5
409.567	323.5
409.791	299.5
410.014	309.5
410.238	301.5
410.461	297.5
410.685	306.5
410.908	323.5
411.132	356.5
411.355	352.5
411.578	344.5
411.802	328.5
412.025	297.5
412.249	310.5
412.472	318.5
412.695	345.5
412.919	345.5
413.142	310.5
413.365	301.5
413.589	299.5
413.812	290.5
414.035	281.5
414.258	283.5
414.482	288.5
414.705	296.5
414.928	283.5
415.151	281.5
415.374	302.5
415.597	294.5
415.821	279.5
416.044	283.5
416.267	302.5
416.49	291.5
416.713	279.5
416.936	300.5
417.159	279.5
417.382	301.5
417.605	294.5
417.828	289.5
418.051	313.5
418.274	305.5
418.497	306.5
418.72	297.5
418.943	289.5
419.166	295.5
419.389	308.5
419.611	294.5
419.834	309.5
420.057	321.5
420.28	314.5
420.503	297.5
420.726	310.5
420.948	299.5
421.171	315.5
421.394	341.5
421.617	322.5
421.839	301.5
422.062	306.5
422.285	314.5
422.507	350.5
422.73	367.5
422.953	359.5
423.175	344.5
423.398	321.5
423.621	319.5
423.843	327.5
424.066	340.5
424.288	319.5
424.511	325.5
424.733	353.5
424.956	403.5
425.178	393.5
425.401	387.5
425.623	411.5
425.846	345.5
426.068	324.5
426.291	330.5
426.513	331.5
426.735	343.5
426.958	359.5
427.18	403.5
427.402	475.5
427.625	543.5
427.847	468.5
428.069	414.5
428.292	367.5
428.514	313.5
428.736	331.5
428.958	300.5
429.181	313.5
429.403	307.5
429.625	313.5
429.847	337.5
430.069	373.5
430.292	371.5
430.514	325.5
430.736	299.5
430.958	323.5
431.18	282.5
431.402	297.5
431.624	295.5
431.846	300.5
432.068	291.5
432.29	300.5
432.512	287.5
432.734	297.5
432.956	295.5
433.178	301.5
433.4	300.5
433.622	296.5
433.844	291.5
434.066	284.5
434.287	297.5
434.509	293.5
434.731	294.5
434.953	303.5
435.175	299.5
435.397	321.5
435.618	321.5
435.84	372.5
436.062	423.5
436.284	439.5
436.505	374.5
436.727	343.5
436.949	313.5
437.17	305.5
437.392	321.5
437.614	323.5
437.835	349.5
438.057	406.5
438.278	460.5
438.5	469.5
438.721	489.5
438.943	460.5
439.165	356.5
439.386	349.5
439.608	357.5
439.829	363.5
440.05	367.5
440.272	373.5
440.493	374.5
440.715	331.5
440.936	319.5
441.158	300.5
441.379	300.5
441.6	307.5
441.822	339.5
442.043	355.5
442.264	405.5
442.486	417.5
442.707	358.5
442.928	319.5
443.149	331.5
443.371	349.5
443.592	370.5
443.813	448.5
444.034	430.5
444.255	389.5
444.476	347.5
444.698	331.5
444.919	335.5
445.14	437.5
445.361	389.5
445.582	355.5
445.803	398.5
446.024	441.5
446.245	468.5
446.466	419.5
446.687	342.5
446.908	333.5
447.129	299.5
447.35	305.5
447.571	317.5
447.792	302.5
448.013	327.5
448.234	330.5
448.455	348.5
448.675	409.5
448.896	474.5
449.117	388.5
449.338	412.5
449.559	447.5
449.779	497.5
450	397.5
450.221	334.5
450.442	315.5
450.662	307.5
450.883	315.5
451.104	330.5
451.324	319.5
451.545	281.5
451.766	297.5
451.986	262.5
452.207	277.5
452.428	268.5
452.648	278.5
452.869	296.5
453.089	305.5
453.31	300.5
453.53	296.5
453.751	282.5
453.971	277.5
454.192	297.5
454.412	282.5
454.633	286.5
454.853	280.5
455.073	285.5
455.294	296.5
455.514	346.5
455.734	324.5
455.955	281.5
456.175	261.5
456.395	273.5
456.616	253.5
456.836	273.5
457.056	266.5
457.276	255.5
457.497	272.5
457.717	251.5
457.937	247.5
458.157	246.5
458.377	275.5
458.598	270.5
458.818	323.5
459.038	370.5
459.258	376.5
459.478	314.5
459.698	302.5
459.918	268.5
460.138	288.5
460.358	267.5
460.578	280.5
460.798	307.5
461.018	298.5
461.238	285.5
461.458	295.5
461.678	277.5
461.898	302.5
462.118	280.5
462.338	295.5
462.558	287.5
462.777	325.5
462.997	291.5
463.217	296.5
463.437	311.5
463.657	304.5
463.876	305.5
464.096	295.5
464.316	287.5
464.536	325.5
464.755	297.5
464.975	307.5
465.195	343.5
465.414	374.5
465.634	334.5
465.854	317.5
466.073	302.5
466.293	289.5
466.512	292.5
466.732	287.5
466.951	259.5
467.171	277.5
467.391	282.5
467.61	287.5
467.829	285.5
468.049	278.5
468.268	285.5
468.488	290.5
468.707	273.5
468.927	260.5
469.146	281.5
469.365	274.5
469.585	287.5
469.804	280.5
470.023	286.5
470.243	286.5
470.462	293.5
470.681	318.5
470.901	300.5
471.12	271.5
471.339	277.5
471.558	274.5
471.777	284.5
471.997	297.5
472.216	282.5
472.435	309.5
472.654	300.5
472.873	299.5
473.092	291.5
473.311	295.5
473.53	299.5
473.749	284.5
473.968	325.5
474.187	385.5
474.406	396.5
474.625	318.5
474.844	283.5
475.063	276.5
475.282	299.5
475.501	289.5
475.72	294.5
475.939	309.5
476.158	301.5
476.377	280.5
476.596	275.5
476.814	307.5
477.033	292.5
477.252	298.5
477.471	289.5
477.69	299.5
477.908	309.5
478.127	296.5
478.346	297.5
478.564	311.5
478.783	313.5
479.002	326.5
479.22	319.5
479.439	349.5
479.658	335.5
479.876	327.5
480.095	332.5
480.313	338.5
480.532	341.5
480.751	331.5
480.969	330.5
481.188	382.5
481.406	385.5
481.624	343.5
481.843	348.5
482.061	339.5
482.28	327.5
482.498	323.5
482.717	315.5
482.935	327.5
483.153	305.5
483.372	324.5
483.59	319.5
483.808	325.5
484.027	335.5
484.245	329.5
484.463	338.5
484.681	335.5
484.9	328.5
485.118	343.5
485.336	335.5
485.554	335.5
485.772	336.5
485.99	338.5
486.209	340.5
486.427	347.5
486.645	327.5
486.863	355.5
487.081	343.5
487.299	361.5
487.517	346.5
487.735	349.5
487.953	351.5
488.171	358.5
488.389	361.5
488.607	364.5
488.825	347.5
489.043	373.5
489.261	357.5
489.479	346.5
489.696	353.5
489.914	363.5
490.132	363.5
490.35	360.5
490.568	376.5
490.786	374.5
491.003	375.5
491.221	387.5
491.439	385.5
491.657	405.5
491.874	404.5
492.092	404.5
492.31	414.5
492.527	415.5
492.745	407.5
492.963	404.5
493.18	405.5
493.398	392.5
493.615	394.5
493.833	415.5
494.05	409.5
494.268	414.5
494.485	414.5
494.703	406.5
494.92	398.5
495.138	407.5
495.355	417.5
495.573	412.5
495.79	415.5
496.008	431.5
496.225	410.5
496.442	418.5
496.66	407.5
496.877	406.5
497.094	426.5
497.312	423.5
497.529	399.5
497.746	424.5
497.963	419.5
498.181	444.5
498.398	441.5
498.615	450.5
498.832	457.5
499.049	431.5
499.267	458.5
499.484	479.5
499.701	478.5
499.918	494.5
500.135	493.5
500.352	515.5
500.569	506.5
500.786	525.5
501.003	500.5
501.22	515.5
501.437	509.5
501.654	495.5
501.871	499.5
502.088	493.5
502.305	465.5
502.522	458.5
502.739	439.5
502.956	446.5
503.172	443.5
503.389	424.5
503.606	430.5
503.823	435.5
504.04	425.5
504.256	409.5
504.473	394.5
504.69	410.5
504.907	417.5
505.123	403.5
505.34	383.5
505.557	403.5
505.773	396.5
505.99	391.5
506.207	385.5
506.423	426.5
506.64	410.5
506.856	405.5
507.073	433.5
507.289	409.5
507.506	390.5
507.722	406.5
507.939	394.5
508.155	392.5
508.372	378.5
508.588	349.5
508.805	385.5
509.021	373.5
509.238	389.5
509.454	396.5
509.67	371.5
509.887	385.5
510.103	395.5
510.319	388.5
510.536	457.5
510.752	759.5
510.968	588.5
511.184	406.5
511.401	369.5
511.617	381.5
511.833	370.5
512.049	367.5
512.265	365.5
512.481	365.5
512.698	375.5
512.914	361.5
513.13	363.5
513.346	356.5
513.562	372.5
513.778	374.5
513.994	358.5
514.21	373.5
514.426	396.5
514.642	419.5
514.858	413.5
515.074	468.5
515.29	554.5
515.506	805.5
515.721	628.5
515.937	459.5
516.153	393.5
516.369	399.5
516.585	378.5
516.801	392.5
517.016	385.5
517.232	354.5
517.448	355.5
517.664	388.5
517.879	386.5
518.095	376.5
518.311	364.5
518.527	377.5
518.742	369.5
518.958	365.5
519.173	366.5
519.389	362.5
519.605	367.5
519.82	362.5
520.036	375.5
520.251	381.5
520.467	411.5
520.682	408.5
520.898	404.5
521.113	439.5
521.329	459.5
521.544	517.5
521.76	667.5
521.975	1068.5
522.19	961.5
522.406	533.5
522.621	438.5
522.836	366.5
523.052	363.5
523.267	361.5
523.482	358.5
523.698	344.5
523.913	361.5
524.128	327.5
524.343	335.5
524.559	348.5
524.774	311.5
524.989	320.5
525.204	327.5
525.419	312.5
525.634	319.5
525.849	321.5
526.064	301.5
526.28	324.5
526.495	314.5
526.71	285.5
526.925	307.5
527.14	313.5
527.355	298.5
527.57	293.5
527.785	300.5
527.999	299.5
528.214	308.5
528.429	305.5
528.644	305.5
528.859	306.5
529.074	311.5
529.289	324.5
529.503	382.5
529.718	329.5
529.933	333.5
530.148	308.5
530.363	318.5
530.577	305.5
530.792	296.5
531.007	298.5
531.221	291.5
531.436	278.5
531.651	279.5
531.865	293.5
532.08	288.5
532.295	274.5
532.509	285.5
532.724	277.5
532.938	314.5
533.153	301.5
533.367	293.5
533.582	273.5
533.796	264.5
534.011	269.5
534.225	280.5
534.44	290.5
534.654	299.5
534.868	284.5
535.083	286.5
535.297	294.5
535.511	308.5
535.726	301.5
535.94	294.5
536.154	283.5
536.369	289.5
536.583	284.5
536.797	279.5
537.011	287.5
537.225	291.5
537.44	274.5
537.654	286.5
537.868	269.5
538.082	271.5
538.296	286.5
538.51	279.5
538.724	280.5
538.938	288.5
539.153	268.5
539.367	282.5
539.581	295.5
539.795	299.5
540.009	279.5
540.222	282.5
540.436	270.5
540.65	294.5
540.864	278.5
541.078	295.5
541.292	282.5
541.506	287.5
541.72	277.5
541.934	267.5
542.147	286.5
542.361	274.5
542.575	285.5
542.789	281.5
543.002	270.5
543.216	279.5
543.43	277.5
543.644	295.5
543.857	280.5
544.071	276.5
544.285	261.5
544.498	267.5
544.712	276.5
544.925	285.5
545.139	269.5
545.352	277.5
545.566	272.5
545.779	285.5
545.993	272.5
546.206	280.5
546.42	293.5
546.633	266.5
546.847	258.5
547.06	287.5
547.274	259.5
547.487	291.5
547.7	262.5
547.914	255.5
548.127	261.5
548.34	250.5
548.554	263.5
548.767	274.5
548.98	265.5
549.193	267.5
549.407	269.5
549.62	258.5
549.833	277.5
550.046	264.5
550.259	272.5
550.473	250.5
550.686	245.5
550.899	249.5
551.112	261.5
551.325	259.5
551.538	259.5
551.751	257.5
551.964	270.5
552.177	258.5
552.39	244.5
552.603	246.5
552.816	266.5
553.029	244.5
553.242	253.5
553.455	258.5
553.667	258.5
553.88	275.5
554.093	257.5
554.306	250.5
554.519	267.5
554.732	270.5
554.944	259.5
555.157	269.5
555.37	257.5
555.583	262.5
555.795	238.5
556.008	259.5
556.221	250.5
556.433	242.5
556.646	211.5
556.859	261.5
557.071	246.5
557.284	243.5
557.496	270.5
557.709	241.5
557.921	231.5
558.134	245.5
558.346	254.5
558.559	230.5
558.771	223.5
558.984	226.5
559.196	238.5
559.409	230.5
559.621	248.5
559.833	252.5
560.046	243.5
560.258	249.5
560.47	257.5
560.683	253.5
560.895	231.5
561.107	230.5
561.32	229.5
561.532	236.5
561.744	230.5
561.956	246.5
562.168	228.5
562.381	245.5
562.593	249.5
562.805	251.5
563.017	229.5
563.229	233.5
563.441	243.5
563.653	261.5
563.865	245.5
564.077	247.5
564.289	248.5
564.501	234.5
564.713	248.5
564.925	255.5
565.137	265.5
565.349	261.5
565.561	257.5
565.773	240.5
565.985	232.5
566.197	249.5
566.408	270.5
566.62	256.5
566.832	271.5
567.044	286.5
567.255	286.5
567.467	297.5
567.679	265.5
567.891	253.5
568.102	276.5
568.314	264.5
568.526	268.5
568.737	261.5
568.949	269.5
569.161	244.5
569.372	252.5
569.584	228.5
569.795	237.5
570.007	245.5
570.218	282.5
570.43	268.5
570.641	239.5
570.853	248.5
571.064	232.5
571.276	234.5
571.487	222.5
571.698	237.5
571.91	214.5
572.121	224.5
572.333	221.5
572.544	221.5
572.755	207.5
572.966	206.5
573.178	222.5
573.389	213.5
573.6	215.5
573.811	218.5
574.023	212.5
574.234	204.5
574.445	200.5
574.656	216.5
574.867	202.5
575.078	196.5
575.289	204.5
575.501	221.5
575.712	195.5
575.923	213.5
576.134	193.5
576.345	217.5
576.556	197.5
576.767	198.5
576.978	216.5
577.188	212.5
577.399	206.5
577.61	210.5
577.821	198.5
578.032	220.5
578.243	233.5
578.454	351.5
578.665	275.5
578.875	217.5
579.086	207.5
579.297	198.5
579.508	207.5
579.718	183.5
579.929	195.5
580.14	193.5
580.35	194.5
580.561	197.5
580.772	215.5
580.982	210.5
581.193	196.5
581.403	219.5
581.614	195.5
581.825	182.5
582.035	192.5
582.246	195.5
582.456	187.5
582.667	206.5
582.877	190.5
583.087	199.5
583.298	197.5
583.508	207.5
583.719	201.5
583.929	208.5
584.139	189.5
584.35	198.5
584.56	197.5
584.77	183.5
584.981	200.5
585.191	184.5
585.401	194.5
585.611	202.5
585.821	191.5
586.032	206.5
586.242	183.5
586.452	195.5
586.662	188.5
586.872	192.5
587.082	180.5
587.292	186.5
587.502	183.5
587.713	186.5
587.923	183.5
588.133	179.5
588.343	195.5
588.553	202.5
588.762	196.5
588.972	183.5
589.182	188.5
589.392	216.5
589.602	212.5
589.812	199.5
590.022	204.5
590.232	200.5
590.441	199.5
590.651	186.5
590.861	198.5
591.071	188.5
591.281	197.5
591.49	199.5
591.7	184.5
591.91	187.5
592.119	185.5
592.329	194.5
592.539	188.5
592.748	195.5
592.958	185.5
593.167	172.5
593.377	189.5
593.587	197.5
593.796	202.5
594.006	186.5
594.215	187.5
594.424	183.5
594.634	187.5
594.843	190.5
595.053	197.5
595.262	191.5
595.472	179.5
595.681	207.5
595.89	184.5
596.1	177.5
596.309	174.5
596.518	179.5
596.727	191.5
596.937	191.5
597.146	187.5
597.355	189.5
597.564	164.5
597.774	183.5
597.983	185.5
598.192	185.5
598.401	184.5
598.61	184.5
598.819	156.5
599.028	161.5
599.237	186.5
599.446	169.5
599.655	185.5
599.864	189.5
600.073	161.5
600.282	177.5
600.491	178.5
600.7	163.5
600.909	164.5
601.118	166.5
601.327	191.5
601.536	173.5
601.745	177.5
601.953	177.5
602.162	165.5
602.371	175.5
602.58	167.5
602.789	188.5
602.997	165.5
603.206	163.5
603.415	167.5
603.623	174.5
603.832	181.5
604.041	180.5
604.249	170.5
604.458	179.5
604.666	169.5
604.875	161.5
605.084	152.5
605.292	163.5
605.501	189.5
605.709	169.5
605.918	173.5
606.126	177.5
606.334	199.5
606.543	173.5
606.751	159.5
606.96	169.5
607.168	166.5
607.376	169.5
607.585	172.5
607.793	163.5
608.001	163.5
608.21	174.5
608.418	152.5
608.626	166.5
608.834	157.5
609.043	159.5
609.251	179.5
609.459	170.5
609.667	160.5
609.875	159.5
610.083	164.5
610.291	172.5
610.499	171.5
610.707	160.5
610.916	164.5
611.124	168.5
611.332	172.5
611.54	160.5
611.748	167.5
611.955	175.5
612.163	155.5
612.371	156.5
612.579	167.5
612.787	182.5
612.995	164.5
613.203	185.5
613.411	161.5
613.618	155.5
613.826	150.5
614.034	159.5
614.242	162.5
614.449	149.5
614.657	173.5
614.865	166.5
615.072	162.5
615.28	161.5
615.488	155.5
615.695	155.5
615.903	170.5
616.111	161.5
616.318	164.5
616.526	182.5
616.733	177.5
616.941	166.5
617.148	141.5
617.356	153.5
617.563	159.5
617.771	148.5
617.978	168.5
618.185	165.5
618.393	177.5
618.6	167.5
618.807	151.5
619.015	154.5
619.222	164.5
619.429	142.5
619.637	149.5
619.844	161.5
620.051	155.5
620.258	163.5
620.466	171.5
620.673	159.5
620.88	165.5
621.087	161.5
621.294	141.5
621.501	157.5
621.708	140.5
621.915	152.5
622.122	159.5
622.329	127.5
622.536	147.5
622.743	161.5
622.95	153.5
623.157	138.5
623.364	146.5
623.571	157.5
623.778	161.5
623.985	158.5
624.192	168.5
624.399	143.5
624.606	155.5
624.812	144.5
625.019	166.5
625.226	153.5
625.433	160.5
625.639	144.5
625.846	151.5
626.053	143.5
626.259	163.5
626.466	153.5
626.673	153.5
626.879	149.5
627.086	137.5
627.293	153.5
627.499	152.5
627.706	150.5
627.912	157.5
628.119	153.5
628.325	152.5
628.532	152.5
628.738	142.5
628.945	129.5
629.151	127.5
629.357	139.5
629.564	136.5
629.77	149.5
629.976	149.5
630.183	131.5
630.389	150.5
630.595	159.5
630.802	150.5
631.008	140.5
631.214	133.5
631.42	152.5
631.627	141.5
631.833	125.5
632.039	156.5
632.245	157.5
632.451	137.5
632.657	145.5
632.863	132.5
633.069	130.5
633.275	133.5
633.481	130.5
633.688	133.5
633.893	127.5
634.099	120.5
634.305	140.5
634.511	139.5
634.717	133.5
634.923	130.5
635.129	141.5
635.335	142.5
635.541	141.5
635.747	135.5
635.952	119.5
636.158	153.5
636.364	125.5
636.57	124.5
636.775	138.5
636.981	141.5
637.187	136.5
637.392	139.5
637.598	141.5
637.804	142.5
638.009	150.5
638.215	140.5
638.421	135.5
638.626	120.5
638.832	123.5
639.037	125.5
639.243	126.5
639.448	142.5
639.654	133.5
639.859	135.5
640.065	130.5
640.27	141.5
640.475	136.5
640.681	141.5
640.886	133.5
641.091	120.5
641.297	133.5
641.502	137.5
641.707	133.5
641.913	126.5
642.118	123.5
642.323	135.5
642.528	134.5
642.733	150.5
642.939	119.5
643.144	128.5
643.349	136.5
643.554	141.5
643.759	115.5
643.964	127.5
644.169	120.5
644.374	119.5
644.579	129.5
644.784	124.5
644.989	127.5
645.194	140.5
645.399	124.5
645.604	140.5
645.809	134.5
646.014	129.5
646.219	128.5
646.423	125.5
646.628	134.5
646.833	124.5
647.038	119.5
647.243	125.5
647.447	133.5
647.652	118.5
647.857	126.5
648.062	113.5
648.266	135.5
648.471	142.5
648.676	121.5
648.88	128.5
649.085	135.5
649.289	127.5
649.494	134.5
649.698	139.5
649.903	142.5
650.107	126.5
650.312	125.5
650.516	132.5
650.721	133.5
650.925	128.5
651.13	117.5
651.334	120.5
651.539	117.5
651.743	117.5
651.947	118.5
652.152	108.5
652.356	109.5
652.56	116.5
652.764	125.5
652.969	114.5
653.173	118.5
653.377	107.5
653.581	121.5
653.785	108.5
653.99	107.5
654.194	125.5
654.398	121.5
654.602	101.5
654.806	116.5
655.01	126.5
655.214	110.5
655.418	127.5
655.622	108.5
655.826	109.5
656.03	105.5
656.234	115.5
656.438	117.5
656.642	114.5
656.846	123.5
657.049	106.5
657.253	121.5
657.457	107.5
657.661	94.5
657.865	100.5
658.068	110.5
658.272	88.5
658.476	92.5
658.68	111.5
658.883	103.5
659.087	94.5
659.291	87.5
659.494	95.5
659.698	98.5
659.901	87.5
660.105	85.5
660.309	94.5
660.512	81.5
660.716	88.5
660.919	88.5
661.123	85.5
661.326	100.5
661.53	95.5
661.733	87.5
661.936	89.5
662.14	81.5
662.343	78.5
662.546	77.5
662.75	78.5
662.953	74.5
663.156	91.5
663.36	88.5
663.563	85.5
663.766	87.5
663.969	87.5
664.173	83.5
664.376	81.5
664.579	69.5
664.782	90.5
664.985	78.5
665.188	85.5
665.391	75.5
665.594	83.5
665.797	85.5
666	92.5
666.203	87.5
666.406	60.5
666.609	84.5
666.812	88.5
667.015	93.5
667.218	85.5
667.421	101.5
667.624	82.5
667.827	91.5
668.03	90.5
668.232	73.5
668.435	85.5
668.638	93.5
668.841	79.5
669.043	93.5
669.246	80.5
669.449	73.5
669.651	86.5
669.854	87.5
670.057	93.5
670.259	84.5
670.462	92.5
670.665	87.5
670.867	77.5
671.07	76.5
671.272	73.5
671.475	98.5
671.677	78.5
671.88	85.5
672.082	96.5
672.284	97.5
672.487	79.5
672.689	83.5
672.892	90.5
