Data from 1982.PennyLincolnUp.Lamp.En5.5.200Scan.071819.P1_HRD10591_16-44-58-961.txt Node
Date: Thu Jul 18 16:44:58 EDT 2019
User: cochatt
Spectrometer: HR+D1059
Trigger mode: 1
Integration Time (sec): 1.000000E-1
Scans to average: 1
Electric dark correction enabled: true
Nonlinearity correction enabled: false
Boxcar width: 0
XAxis mode: Wavelengths
Number of Pixels in Spectrum: 2048
>>>>>Begin Spectral Data<<<<<
223.165	-19.25
223.4	-19.25
223.635	-19.25
223.869	-17.25
224.104	-21.25
224.338	-23.25
224.573	-11.25
224.808	-9.25
225.042	-18.25
225.277	-2.25
225.511	-0.25
225.746	3.75
225.98	12.75
226.215	8.75
226.449	25.75
226.683	20.75
226.918	20.75
227.152	29.75
227.387	14.75
227.621	29.75
227.856	44.75
228.09	52.75
228.324	47.75
228.559	54.75
228.793	61.75
229.027	92.75
229.262	83.75
229.496	107.75
229.73	105.75
229.964	108.75
230.199	116.75
230.433	90.75
230.667	90.75
230.901	104.75
231.136	88.75
231.37	93.75
231.604	102.75
231.838	102.75
232.072	106.75
232.306	99.75
232.541	100.75
232.775	99.75
233.009	99.75
233.243	88.75
233.477	113.75
233.711	104.75
233.945	95.75
234.179	93.75
234.413	104.75
234.647	82.75
234.881	92.75
235.115	98.75
235.349	98.75
235.583	103.75
235.817	94.75
236.051	100.75
236.285	106.75
236.519	97.75
236.753	117.75
236.987	114.75
237.221	133.75
237.455	158.75
237.689	134.75
237.922	126.75
238.156	108.75
238.39	92.75
238.624	92.75
238.858	114.75
239.091	113.75
239.325	103.75
239.559	109.75
239.793	99.75
240.027	104.75
240.26	111.75
240.494	119.75
240.728	108.75
240.961	119.75
241.195	108.75
241.429	110.75
241.662	124.75
241.896	109.75
242.13	89.75
242.363	109.75
242.597	111.75
242.83	108.75
243.064	110.75
243.298	105.75
243.531	108.75
243.765	106.75
243.998	111.75
244.232	108.75
244.465	95.75
244.699	114.75
244.932	120.75
245.166	118.75
245.399	110.75
245.633	108.75
245.866	103.75
246.099	125.75
246.333	118.75
246.566	122.75
246.8	127.75
247.033	130.75
247.266	130.75
247.5	134.75
247.733	128.75
247.966	122.75
248.2	127.75
248.433	125.75
248.666	135.75
248.899	135.75
249.133	129.75
249.366	151.75
249.599	142.75
249.832	136.75
250.066	142.75
250.299	130.75
250.532	137.75
250.765	142.75
250.998	151.75
251.231	153.75
251.465	151.75
251.698	167.75
251.931	144.75
252.164	155.75
252.397	136.75
252.63	140.75
252.863	144.75
253.096	151.75
253.329	176.75
253.562	162.75
253.795	148.75
254.028	158.75
254.261	155.75
254.494	160.75
254.727	180.75
254.96	186.75
255.193	174.75
255.426	194.75
255.659	172.75
255.892	176.75
256.124	170.75
256.357	168.75
256.59	154.75
256.823	168.75
257.056	141.75
257.289	160.75
257.521	158.75
257.754	144.75
257.987	165.75
258.22	155.75
258.452	150.75
258.685	158.75
258.918	154.75
259.151	158.75
259.383	161.75
259.616	154.75
259.849	158.75
260.081	168.75
260.314	170.75
260.547	167.75
260.779	168.75
261.012	165.75
261.244	146.75
261.477	165.75
261.71	165.75
261.942	172.75
262.175	162.75
262.407	164.75
262.64	148.75
262.872	152.75
263.105	150.75
263.337	163.75
263.57	137.75
263.802	147.75
264.035	154.75
264.267	152.75
264.499	151.75
264.732	168.75
264.964	162.75
265.197	166.75
265.429	156.75
265.661	167.75
265.894	154.75
266.126	151.75
266.358	174.75
266.591	141.75
266.823	161.75
267.055	156.75
267.287	152.75
267.52	167.75
267.752	165.75
267.984	154.75
268.216	165.75
268.448	160.75
268.681	168.75
268.913	172.75
269.145	197.75
269.377	180.75
269.609	191.75
269.841	192.75
270.073	197.75
270.306	202.75
270.538	212.75
270.77	214.75
271.002	199.75
271.234	187.75
271.466	200.75
271.698	209.75
271.93	210.75
272.162	215.75
272.394	201.75
272.626	190.75
272.858	207.75
273.09	190.75
273.322	183.75
273.553	192.75
273.785	198.75
274.017	173.75
274.249	182.75
274.481	171.75
274.713	192.75
274.945	189.75
275.176	189.75
275.408	181.75
275.64	176.75
275.872	188.75
276.104	182.75
276.335	178.75
276.567	199.75
276.799	211.75
277.031	191.75
277.262	201.75
277.494	209.75
277.726	192.75
277.957	202.75
278.189	197.75
278.421	189.75
278.652	201.75
278.884	189.75
279.115	199.75
279.347	184.75
279.579	205.75
279.81	190.75
280.042	182.75
280.273	185.75
280.505	197.75
280.736	187.75
280.968	196.75
281.199	183.75
281.431	179.75
281.662	184.75
281.894	191.75
282.125	183.75
282.356	195.75
282.588	196.75
282.819	191.75
283.051	204.75
283.282	180.75
283.513	186.75
283.745	172.75
283.976	191.75
284.207	185.75
284.439	196.75
284.67	187.75
284.901	198.75
285.132	188.75
285.364	186.75
285.595	197.75
285.826	204.75
286.057	189.75
286.288	182.75
286.52	211.75
286.751	203.75
286.982	193.75
287.213	194.75
287.444	203.75
287.675	198.75
287.906	206.75
288.138	193.75
288.369	184.75
288.6	200.75
288.831	205.75
289.062	211.75
289.293	205.75
289.524	192.75
289.755	224.75
289.986	197.75
290.217	198.75
290.448	198.75
290.679	194.75
290.91	186.75
291.141	192.75
291.371	202.75
291.602	183.75
291.833	201.75
292.064	190.75
292.295	189.75
292.526	208.75
292.757	199.75
292.987	186.75
293.218	203.75
293.449	187.75
293.68	200.75
293.91	200.75
294.141	221.75
294.372	186.75
294.603	191.75
294.833	188.75
295.064	192.75
295.295	198.75
295.525	197.75
295.756	200.75
295.987	215.75
296.217	214.75
296.448	228.75
296.679	216.75
296.909	209.75
297.14	212.75
297.37	201.75
297.601	211.75
297.831	214.75
298.062	203.75
298.292	207.75
298.523	194.75
298.753	219.75
298.984	210.75
299.214	199.75
299.445	202.75
299.675	220.75
299.905	205.75
300.136	213.75
300.366	207.75
300.597	210.75
300.827	216.75
301.057	226.75
301.288	214.75
301.518	200.75
301.748	214.75
301.979	216.75
302.209	228.75
302.439	226.75
302.669	208.75
302.9	205.75
303.13	232.75
303.36	226.75
303.59	214.75
303.82	218.75
304.051	215.75
304.281	221.75
304.511	227.75
304.741	224.75
304.971	224.75
305.201	212.75
305.431	220.75
305.661	234.75
305.891	218.75
306.121	228.75
306.352	218.75
306.582	220.75
306.812	216.75
307.042	230.75
307.272	223.75
307.502	215.75
307.731	227.75
307.961	214.75
308.191	215.75
308.421	216.75
308.651	231.75
308.881	217.75
309.111	219.75
309.341	213.75
309.571	228.75
309.8	260.75
310.03	238.75
310.26	243.75
310.49	237.75
310.72	237.75
310.949	259.75
311.179	272.75
311.409	230.75
311.639	258.75
311.868	249.75
312.098	254.75
312.328	251.75
312.557	251.75
312.787	270.75
313.017	249.75
313.246	270.75
313.476	243.75
313.706	260.75
313.935	240.75
314.165	245.75
314.394	241.75
314.624	247.75
314.853	265.75
315.083	246.75
315.312	253.75
315.542	249.75
315.771	243.75
316.001	240.75
316.23	250.75
316.46	239.75
316.689	262.75
316.919	278.75
317.148	276.75
317.377	263.75
317.607	261.75
317.836	243.75
318.065	254.75
318.295	250.75
318.524	251.75
318.753	244.75
318.983	262.75
319.212	252.75
319.441	259.75
319.67	258.75
319.9	245.75
320.129	256.75
320.358	260.75
320.587	253.75
320.816	264.75
321.046	274.75
321.275	277.75
321.504	271.75
321.733	273.75
321.962	256.75
322.191	281.75
322.42	282.75
322.649	307.75
322.878	308.75
323.108	295.75
323.337	315.75
323.566	325.75
323.795	340.75
324.024	385.75
324.253	487.75
324.482	668.75
324.71	980.75
324.939	1272.75
325.168	1028.75
325.397	550.75
325.626	384.75
325.855	355.75
326.084	318.75
326.313	315.75
326.542	323.75
326.77	335.75
326.999	437.75
327.228	570.75
327.457	821.75
327.686	908.75
327.914	615.75
328.143	422.75
328.372	374.75
328.6	361.75
328.829	380.75
329.058	354.75
329.287	355.75
329.515	340.75
329.744	323.75
329.972	324.75
330.201	327.75
330.43	318.75
330.658	373.75
330.887	376.75
331.115	350.75
331.344	320.75
331.572	315.75
331.801	316.75
332.03	323.75
332.258	295.75
332.486	274.75
332.715	286.75
332.943	294.75
333.172	293.75
333.4	294.75
333.629	282.75
333.857	299.75
334.085	307.75
334.314	320.75
334.542	313.75
334.771	312.75
334.999	299.75
335.227	288.75
335.455	293.75
335.684	288.75
335.912	286.75
336.14	294.75
336.369	294.75
336.597	299.75
336.825	291.75
337.053	277.75
337.281	273.75
337.51	287.75
337.738	268.75
337.966	287.75
338.194	297.75
338.422	288.75
338.65	278.75
338.878	277.75
339.106	272.75
339.334	276.75
339.562	272.75
339.79	282.75
340.018	286.75
340.246	278.75
340.474	275.75
340.702	276.75
340.93	263.75
341.158	289.75
341.386	262.75
341.614	259.75
341.842	289.75
342.07	272.75
342.298	283.75
342.526	279.75
342.754	258.75
342.981	258.75
343.209	262.75
343.437	248.75
343.665	270.75
343.893	282.75
344.12	276.75
344.348	283.75
344.576	293.75
344.804	291.75
345.031	285.75
345.259	280.75
345.487	295.75
345.714	275.75
345.942	272.75
346.17	290.75
346.397	259.75
346.625	276.75
346.853	278.75
347.08	271.75
347.308	265.75
347.535	269.75
347.763	275.75
347.99	281.75
348.218	263.75
348.445	262.75
348.673	262.75
348.9	273.75
349.128	272.75
349.355	260.75
349.583	272.75
349.81	270.75
350.037	244.75
350.265	268.75
350.492	254.75
350.72	249.75
350.947	256.75
351.174	256.75
351.402	269.75
351.629	260.75
351.856	260.75
352.083	271.75
352.311	280.75
352.538	267.75
352.765	300.75
352.992	263.75
353.22	261.75
353.447	269.75
353.674	278.75
353.901	264.75
354.128	252.75
354.355	246.75
354.583	248.75
354.81	252.75
355.037	262.75
355.264	226.75
355.491	243.75
355.718	258.75
355.945	240.75
356.172	239.75
356.399	263.75
356.626	237.75
356.853	242.75
357.08	234.75
357.307	242.75
357.534	247.75
357.761	243.75
357.988	237.75
358.215	236.75
358.441	243.75
358.668	236.75
358.895	250.75
359.122	268.75
359.349	254.75
359.576	264.75
359.802	280.75
360.029	292.75
360.256	293.75
360.483	273.75
360.709	266.75
360.936	256.75
361.163	272.75
361.39	261.75
361.616	270.75
361.843	262.75
362.07	262.75
362.296	235.75
362.523	253.75
362.749	277.75
362.976	259.75
363.203	260.75
363.429	253.75
363.656	242.75
363.882	240.75
364.109	254.75
364.335	248.75
364.562	265.75
364.788	258.75
365.015	250.75
365.241	254.75
365.468	251.75
365.694	254.75
365.92	251.75
366.147	264.75
366.373	262.75
366.599	247.75
366.826	258.75
367.052	236.75
367.278	232.75
367.505	254.75
367.731	245.75
367.957	243.75
368.184	249.75
368.41	253.75
368.636	245.75
368.862	262.75
369.089	258.75
369.315	243.75
369.541	243.75
369.767	254.75
369.993	252.75
370.219	252.75
370.445	237.75
370.672	242.75
370.898	250.75
371.124	258.75
371.35	248.75
371.576	248.75
371.802	238.75
372.028	265.75
372.254	235.75
372.48	244.75
372.706	265.75
372.932	243.75
373.158	250.75
373.384	250.75
373.61	259.75
373.835	264.75
374.061	254.75
374.287	257.75
374.513	245.75
374.739	240.75
374.965	249.75
375.191	250.75
375.416	259.75
375.642	242.75
375.868	243.75
376.094	254.75
376.319	242.75
376.545	246.75
376.771	260.75
376.997	252.75
377.222	231.75
377.448	245.75
377.674	260.75
377.899	238.75
378.125	240.75
378.35	244.75
378.576	239.75
378.802	246.75
379.027	239.75
379.253	268.75
379.478	232.75
379.704	261.75
379.929	247.75
380.155	238.75
380.38	250.75
380.606	239.75
380.831	242.75
381.057	254.75
381.282	246.75
381.507	242.75
381.733	246.75
381.958	256.75
382.184	245.75
382.409	260.75
382.634	253.75
382.86	246.75
383.085	254.75
383.31	238.75
383.535	252.75
383.761	249.75
383.986	259.75
384.211	260.75
384.436	247.75
384.662	266.75
384.887	256.75
385.112	259.75
385.337	256.75
385.562	266.75
385.787	264.75
386.013	271.75
386.238	265.75
386.463	269.75
386.688	280.75
386.913	276.75
387.138	261.75
387.363	288.75
387.588	268.75
387.813	280.75
388.038	241.75
388.263	277.75
388.488	272.75
388.713	269.75
388.938	259.75
389.163	256.75
389.387	263.75
389.612	254.75
389.837	258.75
390.062	252.75
390.287	269.75
390.512	266.75
390.736	251.75
390.961	266.75
391.186	269.75
391.411	246.75
391.636	276.75
391.86	270.75
392.085	267.75
392.31	247.75
392.534	264.75
392.759	264.75
392.984	270.75
393.208	262.75
393.433	273.75
393.658	243.75
393.882	267.75
394.107	247.75
394.331	256.75
394.556	271.75
394.78	258.75
395.005	258.75
395.229	271.75
395.454	253.75
395.678	282.75
395.903	266.75
396.127	273.75
396.352	282.75
396.576	271.75
396.801	276.75
397.025	252.75
397.249	268.75
397.474	269.75
397.698	270.75
397.922	278.75
398.147	301.75
398.371	285.75
398.595	272.75
398.82	267.75
399.044	277.75
399.268	303.75
399.492	296.75
399.717	323.75
399.941	324.75
400.165	324.75
400.389	355.75
400.613	319.75
400.837	300.75
401.062	290.75
401.286	279.75
401.51	282.75
401.734	268.75
401.958	290.75
402.182	288.75
402.406	276.75
402.63	292.75
402.854	269.75
403.078	284.75
403.302	264.75
403.526	298.75
403.75	306.75
403.974	300.75
404.198	289.75
404.422	292.75
404.645	288.75
404.869	295.75
405.093	320.75
405.317	344.75
405.541	353.75
405.765	312.75
405.988	300.75
406.212	314.75
406.436	324.75
406.66	325.75
406.883	327.75
407.107	335.75
407.331	352.75
407.555	383.75
407.778	378.75
408.002	355.75
408.226	330.75
408.449	332.75
408.673	301.75
408.896	326.75
409.12	340.75
409.344	341.75
409.567	298.75
409.791	312.75
410.014	278.75
410.238	283.75
410.461	291.75
410.685	297.75
410.908	290.75
411.132	322.75
411.355	344.75
411.578	313.75
411.802	303.75
412.025	286.75
412.249	296.75
412.472	310.75
412.695	331.75
412.919	323.75
413.142	311.75
413.365	283.75
413.589	286.75
413.812	275.75
414.035	286.75
414.258	279.75
414.482	266.75
414.705	284.75
414.928	270.75
415.151	268.75
415.374	302.75
415.597	262.75
415.821	268.75
416.044	268.75
416.267	286.75
416.49	281.75
416.713	272.75
416.936	284.75
417.159	302.75
417.382	273.75
417.605	272.75
417.828	289.75
418.051	280.75
418.274	300.75
418.497	275.75
418.72	268.75
418.943	277.75
419.166	280.75
419.389	272.75
419.611	290.75
419.834	296.75
420.057	293.75
420.28	285.75
420.503	297.75
420.726	281.75
420.948	292.75
421.171	317.75
421.394	313.75
421.617	290.75
421.839	281.75
422.062	304.75
422.285	312.75
422.507	330.75
422.73	368.75
422.953	347.75
423.175	312.75
423.398	301.75
423.621	317.75
423.843	310.75
424.066	309.75
424.288	300.75
424.511	330.75
424.733	356.75
424.956	395.75
425.178	382.75
425.401	379.75
425.623	370.75
425.846	335.75
426.068	310.75
426.291	323.75
426.513	317.75
426.735	328.75
426.958	321.75
427.18	396.75
427.402	451.75
427.625	511.75
427.847	437.75
428.069	352.75
428.292	322.75
428.514	306.75
428.736	291.75
428.958	303.75
429.181	285.75
429.403	286.75
429.625	282.75
429.847	300.75
430.069	333.75
430.292	326.75
430.514	324.75
430.736	284.75
430.958	290.75
431.18	289.75
431.402	276.75
431.624	289.75
431.846	278.75
432.068	257.75
432.29	285.75
432.512	282.75
432.734	307.75
432.956	275.75
433.178	281.75
433.4	283.75
433.622	286.75
433.844	256.75
434.066	269.75
434.287	294.75
434.509	281.75
434.731	281.75
434.953	276.75
435.175	286.75
435.397	299.75
435.618	315.75
435.84	342.75
436.062	397.75
436.284	420.75
436.505	350.75
436.727	308.75
436.949	295.75
437.17	298.75
437.392	283.75
437.614	307.75
437.835	351.75
438.057	372.75
438.278	420.75
438.5	426.75
438.721	455.75
438.943	425.75
439.165	352.75
439.386	327.75
439.608	332.75
439.829	322.75
440.05	328.75
440.272	358.75
440.493	331.75
440.715	325.75
440.936	303.75
441.158	297.75
441.379	299.75
441.6	307.75
441.822	312.75
442.043	338.75
442.264	387.75
442.486	374.75
442.707	342.75
442.928	312.75
443.149	308.75
443.371	343.75
443.592	370.75
443.813	397.75
444.034	432.75
444.255	367.75
444.476	336.75
444.698	298.75
444.919	313.75
445.14	391.75
445.361	351.75
445.582	334.75
445.803	392.75
446.024	426.75
446.245	410.75
446.466	405.75
446.687	326.75
446.908	313.75
447.129	299.75
447.35	290.75
447.571	283.75
447.792	287.75
448.013	297.75
448.234	310.75
448.455	328.75
448.675	407.75
448.896	430.75
449.117	391.75
449.338	384.75
449.559	438.75
449.779	453.75
450	380.75
450.221	330.75
450.442	298.75
450.662	311.75
450.883	298.75
451.104	282.75
451.324	270.75
451.545	272.75
451.766	274.75
451.986	265.75
452.207	253.75
452.428	258.75
452.648	254.75
452.869	249.75
453.089	272.75
453.31	280.75
453.53	279.75
453.751	267.75
453.971	284.75
454.192	269.75
454.412	267.75
454.633	266.75
454.853	250.75
455.073	263.75
455.294	288.75
455.514	318.75
455.734	308.75
455.955	252.75
456.175	267.75
456.395	267.75
456.616	247.75
456.836	250.75
457.056	254.75
457.276	249.75
457.497	257.75
457.717	243.75
457.937	246.75
458.157	269.75
458.377	263.75
458.598	257.75
458.818	296.75
459.038	341.75
459.258	345.75
459.478	295.75
459.698	251.75
459.918	272.75
460.138	278.75
460.358	269.75
460.578	269.75
460.798	271.75
461.018	276.75
461.238	271.75
461.458	272.75
461.678	267.75
461.898	301.75
462.118	282.75
462.338	282.75
462.558	283.75
462.777	270.75
462.997	269.75
463.217	293.75
463.437	288.75
463.657	282.75
463.876	273.75
464.096	287.75
464.316	289.75
464.536	296.75
464.755	306.75
464.975	286.75
465.195	309.75
465.414	344.75
465.634	318.75
465.854	292.75
466.073	294.75
466.293	276.75
466.512	263.75
466.732	249.75
466.951	277.75
467.171	277.75
467.391	251.75
467.61	276.75
467.829	276.75
468.049	279.75
468.268	270.75
468.488	264.75
468.707	251.75
468.927	252.75
469.146	273.75
469.365	260.75
469.585	260.75
469.804	263.75
470.023	271.75
470.243	262.75
470.462	290.75
470.681	288.75
470.901	276.75
471.12	262.75
471.339	291.75
471.558	280.75
471.777	282.75
471.997	255.75
472.216	280.75
472.435	285.75
472.654	272.75
472.873	277.75
473.092	283.75
473.311	284.75
473.53	275.75
473.749	291.75
473.968	294.75
474.187	362.75
474.406	351.75
474.625	298.75
474.844	281.75
475.063	286.75
475.282	285.75
475.501	290.75
475.72	266.75
475.939	281.75
476.158	278.75
476.377	274.75
476.596	284.75
476.814	297.75
477.033	264.75
477.252	264.75
477.471	303.75
477.69	275.75
477.908	293.75
478.127	299.75
478.346	295.75
478.564	312.75
478.783	290.75
479.002	273.75
479.22	299.75
479.439	319.75
479.658	302.75
479.876	313.75
480.095	310.75
480.313	332.75
480.532	336.75
480.751	328.75
480.969	332.75
481.188	349.75
481.406	347.75
481.624	341.75
481.843	334.75
482.061	318.75
482.28	324.75
482.498	312.75
482.717	317.75
482.935	301.75
483.153	312.75
483.372	323.75
483.59	319.75
483.808	293.75
484.027	306.75
484.245	300.75
484.463	308.75
484.681	330.75
484.9	323.75
485.118	325.75
485.336	331.75
485.554	330.75
485.772	349.75
485.99	334.75
486.209	323.75
486.427	311.75
486.645	335.75
486.863	355.75
487.081	328.75
487.299	340.75
487.517	355.75
487.735	319.75
487.953	340.75
488.171	335.75
488.389	356.75
488.607	340.75
488.825	302.75
489.043	337.75
489.261	339.75
489.479	348.75
489.696	361.75
489.914	335.75
490.132	346.75
490.35	359.75
490.568	359.75
490.786	358.75
491.003	365.75
491.221	357.75
491.439	359.75
491.657	380.75
491.874	366.75
492.092	363.75
492.31	380.75
492.527	392.75
492.745	363.75
492.963	370.75
493.18	401.75
493.398	375.75
493.615	371.75
493.833	377.75
494.05	370.75
494.268	378.75
494.485	381.75
494.703	384.75
494.92	384.75
495.138	375.75
495.355	380.75
495.573	394.75
495.79	376.75
496.008	394.75
496.225	394.75
496.442	387.75
496.66	374.75
496.877	369.75
497.094	399.75
497.312	403.75
497.529	380.75
497.746	402.75
497.963	392.75
498.181	407.75
498.398	408.75
498.615	424.75
498.832	424.75
499.049	430.75
499.267	452.75
499.484	443.75
499.701	460.75
499.918	462.75
500.135	454.75
500.352	463.75
500.569	490.75
500.786	477.75
501.003	507.75
501.22	503.75
501.437	491.75
501.654	476.75
501.871	467.75
502.088	481.75
502.305	434.75
502.522	426.75
502.739	428.75
502.956	397.75
503.172	391.75
503.389	386.75
503.606	415.75
503.823	406.75
504.04	390.75
504.256	392.75
504.473	379.75
504.69	380.75
504.907	396.75
505.123	388.75
505.34	387.75
505.557	371.75
505.773	377.75
505.99	384.75
506.207	347.75
506.423	363.75
506.64	367.75
506.856	358.75
507.073	370.75
507.289	356.75
507.506	368.75
507.722	371.75
507.939	382.75
508.155	363.75
508.372	351.75
508.588	355.75
508.805	360.75
509.021	343.75
509.238	355.75
509.454	368.75
509.67	367.75
509.887	360.75
510.103	363.75
510.319	386.75
510.536	416.75
510.752	648.75
510.968	503.75
511.184	365.75
511.401	332.75
511.617	354.75
511.833	343.75
512.049	336.75
512.265	326.75
512.481	327.75
512.698	325.75
512.914	339.75
513.13	328.75
513.346	349.75
513.562	338.75
513.778	332.75
513.994	352.75
514.21	374.75
514.426	344.75
514.642	376.75
514.858	381.75
515.074	409.75
515.29	480.75
515.506	681.75
515.721	551.75
515.937	400.75
516.153	368.75
516.369	348.75
516.585	353.75
516.801	360.75
517.016	349.75
517.232	346.75
517.448	336.75
517.664	356.75
517.879	349.75
518.095	369.75
518.311	336.75
518.527	304.75
518.742	347.75
518.958	334.75
519.173	348.75
519.389	337.75
519.605	331.75
519.82	326.75
520.036	331.75
520.251	363.75
520.467	356.75
520.682	368.75
520.898	366.75
521.113	390.75
521.329	404.75
521.544	440.75
521.76	551.75
521.975	885.75
522.19	790.75
522.406	460.75
522.621	382.75
522.836	354.75
523.052	327.75
523.267	344.75
523.482	323.75
523.698	309.75
523.913	316.75
524.128	317.75
524.343	293.75
524.559	321.75
524.774	312.75
524.989	296.75
525.204	312.75
525.419	296.75
525.634	296.75
525.849	301.75
526.064	310.75
526.28	296.75
526.495	287.75
526.71	291.75
526.925	293.75
527.14	289.75
527.355	288.75
527.57	293.75
527.785	288.75
527.999	296.75
528.214	292.75
528.429	278.75
528.644	294.75
528.859	285.75
529.074	285.75
529.289	300.75
529.503	328.75
529.718	328.75
529.933	306.75
530.148	288.75
530.363	278.75
530.577	288.75
530.792	271.75
531.007	285.75
531.221	286.75
531.436	268.75
531.651	276.75
531.865	268.75
532.08	270.75
532.295	279.75
532.509	283.75
532.724	260.75
532.938	277.75
533.153	284.75
533.367	274.75
533.582	278.75
533.796	270.75
534.011	262.75
534.225	253.75
534.44	239.75
534.654	273.75
534.868	286.75
535.083	263.75
535.297	276.75
535.511	269.75
535.726	279.75
535.94	271.75
536.154	269.75
536.369	283.75
536.583	260.75
536.797	276.75
537.011	268.75
537.225	254.75
537.44	266.75
537.654	276.75
537.868	271.75
538.082	262.75
538.296	284.75
538.51	266.75
538.724	274.75
538.938	273.75
539.153	264.75
539.367	267.75
539.581	246.75
539.795	257.75
540.009	277.75
540.222	273.75
540.436	262.75
540.65	265.75
540.864	260.75
541.078	284.75
541.292	282.75
541.506	264.75
541.72	282.75
541.934	257.75
542.147	276.75
542.361	268.75
542.575	250.75
542.789	278.75
543.002	291.75
543.216	262.75
543.43	268.75
543.644	284.75
543.857	286.75
544.071	267.75
544.285	267.75
544.498	249.75
544.712	259.75
544.925	264.75
545.139	266.75
545.352	266.75
545.566	250.75
545.779	252.75
545.993	267.75
546.206	268.75
546.42	250.75
546.633	269.75
546.847	256.75
547.06	255.75
547.274	250.75
547.487	251.75
547.7	286.75
547.914	254.75
548.127	247.75
548.34	245.75
548.554	260.75
548.767	259.75
548.98	252.75
549.193	263.75
549.407	254.75
549.62	264.75
549.833	255.75
550.046	250.75
550.259	256.75
550.473	240.75
550.686	243.75
550.899	252.75
551.112	234.75
551.325	237.75
551.538	235.75
551.751	256.75
551.964	251.75
552.177	261.75
552.39	257.75
552.603	259.75
552.816	247.75
553.029	223.75
553.242	257.75
553.455	244.75
553.667	271.75
553.88	264.75
554.093	261.75
554.306	266.75
554.519	237.75
554.732	262.75
554.944	233.75
555.157	248.75
555.37	243.75
555.583	242.75
555.795	225.75
556.008	236.75
556.221	249.75
556.433	243.75
556.646	232.75
556.859	221.75
557.071	238.75
557.284	214.75
557.496	244.75
557.709	230.75
557.921	238.75
558.134	221.75
558.346	220.75
558.559	249.75
558.771	227.75
558.984	245.75
559.196	229.75
559.409	242.75
559.621	224.75
559.833	230.75
560.046	242.75
560.258	216.75
560.47	245.75
560.683	236.75
560.895	234.75
561.107	225.75
561.32	214.75
561.532	222.75
561.744	224.75
561.956	242.75
562.168	231.75
562.381	243.75
562.593	228.75
562.805	227.75
563.017	223.75
563.229	238.75
563.441	244.75
563.653	247.75
563.865	232.75
564.077	228.75
564.289	246.75
564.501	234.75
564.713	235.75
564.925	230.75
565.137	255.75
565.349	248.75
565.561	243.75
565.773	234.75
565.985	239.75
566.197	246.75
566.408	268.75
566.62	274.75
566.832	264.75
567.044	255.75
567.255	264.75
567.467	263.75
567.679	258.75
567.891	254.75
568.102	263.75
568.314	251.75
568.526	253.75
568.737	258.75
568.949	229.75
569.161	242.75
569.372	236.75
569.584	230.75
569.795	235.75
570.007	224.75
570.218	266.75
570.43	249.75
570.641	235.75
570.853	260.75
571.064	217.75
571.276	228.75
571.487	229.75
571.698	232.75
571.91	219.75
572.121	214.75
572.333	219.75
572.544	203.75
572.755	210.75
572.966	207.75
573.178	202.75
573.389	210.75
573.6	201.75
573.811	200.75
574.023	204.75
574.234	196.75
574.445	200.75
574.656	211.75
574.867	207.75
575.078	216.75
575.289	205.75
575.501	201.75
575.712	197.75
575.923	197.75
576.134	211.75
576.345	200.75
576.556	193.75
576.767	206.75
576.978	201.75
577.188	203.75
577.399	214.75
577.61	192.75
577.821	186.75
578.032	209.75
578.243	229.75
578.454	313.75
578.665	252.75
578.875	215.75
579.086	201.75
579.297	206.75
579.508	185.75
579.718	196.75
579.929	200.75
580.14	202.75
580.35	189.75
580.561	184.75
580.772	206.75
580.982	180.75
581.193	196.75
581.403	192.75
581.614	199.75
581.825	190.75
582.035	191.75
582.246	170.75
582.456	179.75
582.667	196.75
582.877	191.75
583.087	193.75
583.298	194.75
583.508	185.75
583.719	190.75
583.929	201.75
584.139	191.75
584.35	188.75
584.56	197.75
584.77	199.75
584.981	194.75
585.191	191.75
585.401	185.75
585.611	188.75
585.821	188.75
586.032	184.75
586.242	198.75
586.452	163.75
586.662	172.75
586.872	191.75
587.082	198.75
587.292	198.75
587.502	180.75
587.713	192.75
587.923	190.75
588.133	190.75
588.343	166.75
588.553	186.75
588.762	204.75
588.972	190.75
589.182	218.75
589.392	201.75
589.602	191.75
589.812	191.75
590.022	185.75
590.232	175.75
590.441	186.75
590.651	169.75
590.861	176.75
591.071	173.75
591.281	186.75
591.49	194.75
591.7	188.75
591.91	190.75
592.119	202.75
592.329	199.75
592.539	205.75
592.748	200.75
592.958	194.75
593.167	191.75
593.377	178.75
593.587	200.75
593.796	184.75
594.006	191.75
594.215	174.75
594.424	192.75
594.634	190.75
594.843	178.75
595.053	187.75
595.262	190.75
595.472	192.75
595.681	194.75
595.89	169.75
596.1	166.75
596.309	176.75
596.518	182.75
596.727	176.75
596.937	190.75
597.146	165.75
597.355	184.75
597.564	171.75
597.774	167.75
597.983	178.75
598.192	187.75
598.401	183.75
598.61	181.75
598.819	172.75
599.028	158.75
599.237	172.75
599.446	174.75
599.655	163.75
599.864	166.75
600.073	164.75
600.282	165.75
600.491	162.75
600.7	173.75
600.909	157.75
601.118	165.75
601.327	168.75
601.536	162.75
601.745	174.75
601.953	186.75
602.162	170.75
602.371	156.75
602.58	174.75
602.789	143.75
602.997	172.75
603.206	167.75
603.415	158.75
603.623	159.75
603.832	168.75
604.041	184.75
604.249	165.75
604.458	181.75
604.666	171.75
604.875	164.75
605.084	169.75
605.292	156.75
605.501	154.75
605.709	162.75
605.918	161.75
606.126	158.75
606.334	170.75
606.543	155.75
606.751	162.75
606.96	162.75
607.168	165.75
607.376	145.75
607.585	163.75
607.793	163.75
608.001	157.75
608.21	184.75
608.418	167.75
608.626	158.75
608.834	165.75
609.043	179.75
609.251	162.75
609.459	169.75
609.667	167.75
609.875	152.75
610.083	164.75
610.291	163.75
610.499	168.75
610.707	164.75
610.916	159.75
611.124	156.75
611.332	164.75
611.54	159.75
611.748	158.75
611.955	159.75
612.163	164.75
612.371	178.75
612.579	160.75
612.787	150.75
612.995	166.75
613.203	186.75
613.411	165.75
613.618	178.75
613.826	158.75
614.034	150.75
614.242	167.75
614.449	162.75
614.657	173.75
614.865	170.75
615.072	151.75
615.28	168.75
615.488	171.75
615.695	158.75
615.903	159.75
616.111	158.75
616.318	141.75
616.526	164.75
616.733	154.75
616.941	161.75
617.148	152.75
617.356	167.75
617.563	154.75
617.771	160.75
617.978	157.75
618.185	143.75
618.393	160.75
618.6	170.75
618.807	167.75
619.015	158.75
619.222	152.75
619.429	152.75
619.637	150.75
619.844	157.75
620.051	160.75
620.258	154.75
620.466	152.75
620.673	155.75
620.88	144.75
621.087	148.75
621.294	153.75
621.501	151.75
621.708	140.75
621.915	145.75
622.122	150.75
622.329	159.75
622.536	150.75
622.743	142.75
622.95	138.75
623.157	154.75
623.364	140.75
623.571	155.75
623.778	158.75
623.985	153.75
624.192	149.75
624.399	138.75
624.606	145.75
624.812	144.75
625.019	146.75
625.226	165.75
625.433	156.75
625.639	145.75
625.846	129.75
626.053	151.75
626.259	152.75
626.466	148.75
626.673	152.75
626.879	150.75
627.086	158.75
627.293	128.75
627.499	142.75
627.706	153.75
627.912	156.75
628.119	149.75
628.325	140.75
628.532	148.75
628.738	144.75
628.945	135.75
629.151	150.75
629.357	119.75
629.564	141.75
629.77	154.75
629.976	158.75
630.183	152.75
630.389	152.75
630.595	141.75
630.802	138.75
631.008	146.75
631.214	142.75
631.42	144.75
631.627	129.75
631.833	127.75
632.039	142.75
632.245	141.75
632.451	134.75
632.657	130.75
632.863	132.75
633.069	135.75
633.275	145.75
633.481	136.75
633.688	132.75
633.893	129.75
634.099	140.75
634.305	123.75
634.511	137.75
634.717	129.75
634.923	122.75
635.129	138.75
635.335	149.75
635.541	134.75
635.747	131.75
635.952	123.75
636.158	121.75
636.364	122.75
636.57	142.75
636.775	144.75
636.981	142.75
637.187	139.75
637.392	136.75
637.598	129.75
637.804	127.75
638.009	143.75
638.215	128.75
638.421	131.75
638.626	136.75
638.832	137.75
639.037	134.75
639.243	121.75
639.448	136.75
639.654	125.75
639.859	141.75
640.065	119.75
640.27	139.75
640.475	144.75
640.681	138.75
640.886	126.75
641.091	149.75
641.297	135.75
641.502	140.75
641.707	132.75
641.913	140.75
642.118	132.75
642.323	140.75
642.528	124.75
642.733	122.75
642.939	132.75
643.144	127.75
643.349	138.75
643.554	138.75
643.759	126.75
643.964	133.75
644.169	111.75
644.374	123.75
644.579	132.75
644.784	131.75
644.989	134.75
645.194	127.75
645.399	139.75
645.604	136.75
645.809	122.75
646.014	129.75
646.219	134.75
646.423	134.75
646.628	126.75
646.833	118.75
647.038	144.75
647.243	127.75
647.447	126.75
647.652	115.75
647.857	102.75
648.062	136.75
648.266	118.75
648.471	130.75
648.676	140.75
648.88	137.75
649.085	130.75
649.289	139.75
649.494	129.75
649.698	151.75
649.903	140.75
650.107	130.75
650.312	134.75
650.516	134.75
650.721	123.75
650.925	120.75
651.13	123.75
651.334	122.75
651.539	124.75
651.743	111.75
651.947	106.75
652.152	110.75
652.356	123.75
652.56	111.75
652.764	106.75
652.969	131.75
653.173	121.75
653.377	120.75
653.581	128.75
653.785	119.75
653.99	119.75
654.194	120.75
654.398	122.75
654.602	119.75
654.806	104.75
655.01	103.75
655.214	130.75
655.418	114.75
655.622	117.75
655.826	116.75
656.03	127.75
656.234	123.75
656.438	103.75
656.642	116.75
656.846	114.75
657.049	123.75
657.253	120.75
657.457	109.75
657.661	96.75
657.865	115.75
658.068	99.75
658.272	90.75
658.476	89.75
658.68	97.75
658.883	107.75
659.087	98.75
659.291	90.75
659.494	94.75
659.698	115.75
659.901	96.75
660.105	101.75
660.309	85.75
660.512	95.75
660.716	96.75
660.919	91.75
661.123	98.75
661.326	84.75
661.53	90.75
661.733	86.75
661.936	73.75
662.14	78.75
662.343	96.75
662.546	93.75
662.75	82.75
662.953	84.75
663.156	81.75
663.36	79.75
663.563	91.75
663.766	99.75
663.969	88.75
664.173	94.75
664.376	95.75
664.579	97.75
664.782	78.75
664.985	86.75
665.188	72.75
665.391	90.75
665.594	81.75
665.797	92.75
666	84.75
666.203	86.75
666.406	76.75
666.609	90.75
666.812	85.75
667.015	78.75
667.218	91.75
667.421	72.75
667.624	87.75
667.827	72.75
668.03	91.75
668.232	76.75
668.435	83.75
668.638	85.75
668.841	90.75
669.043	90.75
669.246	83.75
669.449	90.75
669.651	85.75
669.854	65.75
670.057	80.75
670.259	87.75
670.462	84.75
670.665	89.75
670.867	76.75
671.07	75.75
671.272	93.75
671.475	76.75
671.677	83.75
671.88	94.75
672.082	96.75
672.284	88.75
672.487	92.75
672.689	86.75
672.892	97.75
