Data from 1982.PennyLincolnUp.Lamp.En5.5.200Scan.071819.P1_HRD10591_16-46-06-961.txt Node
Date: Thu Jul 18 16:46:06 EDT 2019
User: cochatt
Spectrometer: HR+D1059
Trigger mode: 1
Integration Time (sec): 1.000000E-1
Scans to average: 1
Electric dark correction enabled: true
Nonlinearity correction enabled: false
Boxcar width: 0
XAxis mode: Wavelengths
Number of Pixels in Spectrum: 2048
>>>>>Begin Spectral Data<<<<<
223.165	-15.62
223.4	-15.62
223.635	-15.62
223.869	-16.62
224.104	-24.62
224.338	-7.62
224.573	-8.62
224.808	-12.62
225.042	2.38
225.277	-12.62
225.511	-11.62
225.746	5.38
225.98	-4.62
226.215	10.38
226.449	18.38
226.683	20.38
226.918	35.38
227.152	22.38
227.387	26.38
227.621	35.38
227.856	41.38
228.09	58.38
228.324	51.38
228.559	57.38
228.793	52.38
229.027	78.38
229.262	79.38
229.496	103.38
229.73	104.38
229.964	119.38
230.199	119.38
230.433	105.38
230.667	99.38
230.901	90.38
231.136	100.38
231.37	111.38
231.604	92.38
231.838	96.38
232.072	109.38
232.306	101.38
232.541	103.38
232.775	105.38
233.009	99.38
233.243	100.38
233.477	102.38
233.711	84.38
233.945	107.38
234.179	87.38
234.413	101.38
234.647	113.38
234.881	98.38
235.115	111.38
235.349	111.38
235.583	107.38
235.817	103.38
236.051	107.38
236.285	103.38
236.519	115.38
236.753	117.38
236.987	123.38
237.221	160.38
237.455	169.38
237.689	134.38
237.922	112.38
238.156	115.38
238.39	109.38
238.624	107.38
238.858	117.38
239.091	113.38
239.325	97.38
239.559	106.38
239.793	116.38
240.027	106.38
240.26	107.38
240.494	136.38
240.728	116.38
240.961	105.38
241.195	118.38
241.429	121.38
241.662	106.38
241.896	117.38
242.13	113.38
242.363	112.38
242.597	114.38
242.83	118.38
243.064	112.38
243.298	109.38
243.531	117.38
243.765	104.38
243.998	121.38
244.232	123.38
244.465	123.38
244.699	128.38
244.932	116.38
245.166	101.38
245.399	115.38
245.633	96.38
245.866	124.38
246.099	115.38
246.333	122.38
246.566	111.38
246.8	122.38
247.033	120.38
247.266	136.38
247.5	142.38
247.733	134.38
247.966	124.38
248.2	145.38
248.433	138.38
248.666	140.38
248.899	126.38
249.133	152.38
249.366	172.38
249.599	151.38
249.832	147.38
250.066	154.38
250.299	153.38
250.532	156.38
250.765	164.38
250.998	154.38
251.231	179.38
251.465	168.38
251.698	164.38
251.931	159.38
252.164	167.38
252.397	171.38
252.63	166.38
252.863	165.38
253.096	181.38
253.329	194.38
253.562	191.38
253.795	189.38
254.028	187.38
254.261	175.38
254.494	182.38
254.727	176.38
254.96	203.38
255.193	196.38
255.426	182.38
255.659	196.38
255.892	175.38
256.124	194.38
256.357	181.38
256.59	185.38
256.823	199.38
257.056	181.38
257.289	161.38
257.521	171.38
257.754	179.38
257.987	165.38
258.22	172.38
258.452	169.38
258.685	171.38
258.918	161.38
259.151	164.38
259.383	173.38
259.616	183.38
259.849	178.38
260.081	187.38
260.314	203.38
260.547	192.38
260.779	189.38
261.012	176.38
261.244	176.38
261.477	169.38
261.71	174.38
261.942	189.38
262.175	176.38
262.407	189.38
262.64	167.38
262.872	161.38
263.105	183.38
263.337	165.38
263.57	168.38
263.802	153.38
264.035	163.38
264.267	160.38
264.499	163.38
264.732	162.38
264.964	176.38
265.197	164.38
265.429	156.38
265.661	180.38
265.894	173.38
266.126	181.38
266.358	171.38
266.591	171.38
266.823	179.38
267.055	166.38
267.287	159.38
267.52	165.38
267.752	178.38
267.984	182.38
268.216	170.38
268.448	175.38
268.681	178.38
268.913	187.38
269.145	204.38
269.377	217.38
269.609	194.38
269.841	187.38
270.073	200.38
270.306	223.38
270.538	239.38
270.77	247.38
271.002	222.38
271.234	221.38
271.466	220.38
271.698	217.38
271.93	239.38
272.162	229.38
272.394	227.38
272.626	245.38
272.858	214.38
273.09	205.38
273.322	212.38
273.553	204.38
273.785	206.38
274.017	200.38
274.249	207.38
274.481	211.38
274.713	208.38
274.945	216.38
275.176	217.38
275.408	203.38
275.64	196.38
275.872	211.38
276.104	207.38
276.335	205.38
276.567	209.38
276.799	203.38
277.031	240.38
277.262	238.38
277.494	210.38
277.726	226.38
277.957	236.38
278.189	217.38
278.421	219.38
278.652	199.38
278.884	208.38
279.115	204.38
279.347	213.38
279.579	218.38
279.81	192.38
280.042	214.38
280.273	197.38
280.505	197.38
280.736	204.38
280.968	198.38
281.199	212.38
281.431	220.38
281.662	203.38
281.894	201.38
282.125	204.38
282.356	206.38
282.588	243.38
282.819	220.38
283.051	213.38
283.282	209.38
283.513	208.38
283.745	203.38
283.976	209.38
284.207	217.38
284.439	211.38
284.67	217.38
284.901	224.38
285.132	213.38
285.364	208.38
285.595	209.38
285.826	224.38
286.057	218.38
286.288	216.38
286.52	216.38
286.751	209.38
286.982	207.38
287.213	219.38
287.444	213.38
287.675	220.38
287.906	211.38
288.138	235.38
288.369	225.38
288.6	228.38
288.831	222.38
289.062	231.38
289.293	222.38
289.524	213.38
289.755	225.38
289.986	230.38
290.217	221.38
290.448	210.38
290.679	213.38
290.91	222.38
291.141	213.38
291.371	228.38
291.602	218.38
291.833	216.38
292.064	208.38
292.295	216.38
292.526	227.38
292.757	224.38
292.987	208.38
293.218	205.38
293.449	218.38
293.68	222.38
293.91	237.38
294.141	213.38
294.372	213.38
294.603	220.38
294.833	215.38
295.064	225.38
295.295	206.38
295.525	223.38
295.756	215.38
295.987	217.38
296.217	238.38
296.448	231.38
296.679	225.38
296.909	229.38
297.14	234.38
297.37	225.38
297.601	239.38
297.831	215.38
298.062	220.38
298.292	222.38
298.523	222.38
298.753	225.38
298.984	228.38
299.214	221.38
299.445	227.38
299.675	223.38
299.905	212.38
300.136	231.38
300.366	217.38
300.597	228.38
300.827	231.38
301.057	221.38
301.288	245.38
301.518	245.38
301.748	234.38
301.979	245.38
302.209	237.38
302.439	232.38
302.669	243.38
302.9	231.38
303.13	225.38
303.36	230.38
303.59	238.38
303.82	255.38
304.051	241.38
304.281	235.38
304.511	232.38
304.741	219.38
304.971	248.38
305.201	241.38
305.431	240.38
305.661	241.38
305.891	239.38
306.121	247.38
306.352	243.38
306.582	247.38
306.812	245.38
307.042	248.38
307.272	248.38
307.502	248.38
307.731	238.38
307.961	231.38
308.191	236.38
308.421	232.38
308.651	236.38
308.881	257.38
309.111	271.38
309.341	251.38
309.571	277.38
309.8	274.38
310.03	290.38
310.26	299.38
310.49	291.38
310.72	298.38
310.949	288.38
311.179	315.38
311.409	284.38
311.639	289.38
311.868	279.38
312.098	294.38
312.328	279.38
312.557	327.38
312.787	298.38
313.017	315.38
313.246	277.38
313.476	291.38
313.706	279.38
313.935	275.38
314.165	278.38
314.394	283.38
314.624	284.38
314.853	288.38
315.083	297.38
315.312	273.38
315.542	275.38
315.771	269.38
316.001	273.38
316.23	275.38
316.46	293.38
316.689	279.38
316.919	287.38
317.148	291.38
317.377	304.38
317.607	280.38
317.836	286.38
318.065	278.38
318.295	305.38
318.524	291.38
318.753	266.38
318.983	270.38
319.212	289.38
319.441	280.38
319.67	286.38
319.9	311.38
320.129	288.38
320.358	281.38
320.587	294.38
320.816	298.38
321.046	316.38
321.275	306.38
321.504	288.38
321.733	316.38
321.962	287.38
322.191	321.38
322.42	313.38
322.649	352.38
322.878	339.38
323.108	370.38
323.337	364.38
323.566	387.38
323.795	435.38
324.024	473.38
324.253	589.38
324.482	842.38
324.71	1259.38
324.939	1639.38
325.168	1318.38
325.397	737.38
325.626	504.38
325.855	438.38
326.084	385.38
326.313	395.38
326.542	401.38
326.77	433.38
326.999	545.38
327.228	725.38
327.457	1087.38
327.686	1210.38
327.914	810.38
328.143	563.38
328.372	460.38
328.6	439.38
328.829	453.38
329.058	435.38
329.287	449.38
329.515	425.38
329.744	389.38
329.972	381.38
330.201	400.38
330.43	414.38
330.658	433.38
330.887	449.38
331.115	423.38
331.344	395.38
331.572	380.38
331.801	369.38
332.03	364.38
332.258	360.38
332.486	319.38
332.715	329.38
332.943	340.38
333.172	329.38
333.4	333.38
333.629	345.38
333.857	346.38
334.085	353.38
334.314	360.38
334.542	383.38
334.771	397.38
334.999	368.38
335.227	347.38
335.455	333.38
335.684	338.38
335.912	328.38
336.14	327.38
336.369	304.38
336.597	317.38
336.825	314.38
337.053	319.38
337.281	303.38
337.51	322.38
337.738	308.38
337.966	334.38
338.194	331.38
338.422	327.38
338.65	326.38
338.878	313.38
339.106	283.38
339.334	305.38
339.562	318.38
339.79	303.38
340.018	321.38
340.246	321.38
340.474	310.38
340.702	332.38
340.93	324.38
341.158	288.38
341.386	312.38
341.614	315.38
341.842	326.38
342.07	295.38
342.298	301.38
342.526	293.38
342.754	313.38
342.981	296.38
343.209	313.38
343.437	297.38
343.665	308.38
343.893	283.38
344.12	316.38
344.348	301.38
344.576	313.38
344.804	298.38
345.031	311.38
345.259	323.38
345.487	322.38
345.714	312.38
345.942	320.38
346.17	311.38
346.397	308.38
346.625	306.38
346.853	310.38
347.08	300.38
347.308	296.38
347.535	310.38
347.763	319.38
347.99	315.38
348.218	303.38
348.445	297.38
348.673	307.38
348.9	298.38
349.128	276.38
349.355	294.38
349.583	287.38
349.81	291.38
350.037	308.38
350.265	292.38
350.492	286.38
350.72	283.38
350.947	305.38
351.174	275.38
351.402	311.38
351.629	311.38
351.856	296.38
352.083	303.38
352.311	299.38
352.538	312.38
352.765	290.38
352.992	309.38
353.22	290.38
353.447	295.38
353.674	298.38
353.901	292.38
354.128	272.38
354.355	267.38
354.583	295.38
354.81	286.38
355.037	264.38
355.264	267.38
355.491	255.38
355.718	272.38
355.945	282.38
356.172	263.38
356.399	281.38
356.626	264.38
356.853	262.38
357.08	289.38
357.307	277.38
357.534	274.38
357.761	280.38
357.988	276.38
358.215	279.38
358.441	250.38
358.668	282.38
358.895	284.38
359.122	286.38
359.349	281.38
359.576	295.38
359.802	317.38
360.029	340.38
360.256	323.38
360.483	325.38
360.709	301.38
360.936	303.38
361.163	280.38
361.39	277.38
361.616	296.38
361.843	297.38
362.07	314.38
362.296	310.38
362.523	298.38
362.749	281.38
362.976	285.38
363.203	264.38
363.429	290.38
363.656	291.38
363.882	260.38
364.109	280.38
364.335	282.38
364.562	274.38
364.788	278.38
365.015	280.38
365.241	274.38
365.468	282.38
365.694	280.38
365.92	292.38
366.147	261.38
366.373	270.38
366.599	278.38
366.826	270.38
367.052	248.38
367.278	273.38
367.505	269.38
367.731	275.38
367.957	285.38
368.184	287.38
368.41	286.38
368.636	291.38
368.862	304.38
369.089	272.38
369.315	281.38
369.541	267.38
369.767	283.38
369.993	270.38
370.219	273.38
370.445	270.38
370.672	281.38
370.898	252.38
371.124	278.38
371.35	268.38
371.576	273.38
371.802	274.38
372.028	257.38
372.254	256.38
372.48	266.38
372.706	245.38
372.932	253.38
373.158	264.38
373.384	269.38
373.61	277.38
373.835	265.38
374.061	268.38
374.287	276.38
374.513	282.38
374.739	279.38
374.965	285.38
375.191	285.38
375.416	280.38
375.642	265.38
375.868	256.38
376.094	262.38
376.319	243.38
376.545	272.38
376.771	287.38
376.997	261.38
377.222	266.38
377.448	264.38
377.674	264.38
377.899	269.38
378.125	244.38
378.35	271.38
378.576	259.38
378.802	279.38
379.027	261.38
379.253	258.38
379.478	259.38
379.704	267.38
379.929	272.38
380.155	281.38
380.38	280.38
380.606	272.38
380.831	266.38
381.057	283.38
381.282	272.38
381.507	266.38
381.733	275.38
381.958	268.38
382.184	269.38
382.409	282.38
382.634	265.38
382.86	252.38
383.085	264.38
383.31	260.38
383.535	291.38
383.761	279.38
383.986	273.38
384.211	273.38
384.436	274.38
384.662	283.38
384.887	277.38
385.112	273.38
385.337	287.38
385.562	274.38
385.787	291.38
386.013	269.38
386.238	268.38
386.463	280.38
386.688	279.38
386.913	276.38
387.138	283.38
387.363	276.38
387.588	291.38
387.813	281.38
388.038	276.38
388.263	279.38
388.488	283.38
388.713	278.38
388.938	261.38
389.163	272.38
389.387	283.38
389.612	270.38
389.837	263.38
390.062	280.38
390.287	275.38
390.512	265.38
390.736	266.38
390.961	279.38
391.186	294.38
391.411	298.38
391.636	275.38
391.86	279.38
392.085	297.38
392.31	281.38
392.534	269.38
392.759	288.38
392.984	264.38
393.208	278.38
393.433	270.38
393.658	265.38
393.882	268.38
394.107	283.38
394.331	272.38
394.556	288.38
394.78	276.38
395.005	277.38
395.229	277.38
395.454	270.38
395.678	288.38
395.903	298.38
396.127	323.38
396.352	304.38
396.576	292.38
396.801	289.38
397.025	283.38
397.249	277.38
397.474	285.38
397.698	303.38
397.922	303.38
398.147	300.38
398.371	303.38
398.595	303.38
398.82	298.38
399.044	311.38
399.268	317.38
399.492	324.38
399.717	331.38
399.941	348.38
400.165	359.38
400.389	352.38
400.613	329.38
400.837	330.38
401.062	304.38
401.286	308.38
401.51	311.38
401.734	281.38
401.958	292.38
402.182	313.38
402.406	325.38
402.63	323.38
402.854	317.38
403.078	316.38
403.302	317.38
403.526	310.38
403.75	311.38
403.974	312.38
404.198	303.38
404.422	309.38
404.645	325.38
404.869	330.38
405.093	339.38
405.317	369.38
405.541	375.38
405.765	357.38
405.988	345.38
406.212	334.38
406.436	342.38
406.66	355.38
406.883	358.38
407.107	372.38
407.331	389.38
407.555	404.38
407.778	383.38
408.002	399.38
408.226	362.38
408.449	349.38
408.673	342.38
408.896	340.38
409.12	372.38
409.344	383.38
409.567	328.38
409.791	317.38
410.014	315.38
410.238	323.38
410.461	320.38
410.685	328.38
410.908	326.38
411.132	361.38
411.355	374.38
411.578	354.38
411.802	323.38
412.025	329.38
412.249	318.38
412.472	331.38
412.695	337.38
412.919	330.38
413.142	321.38
413.365	297.38
413.589	307.38
413.812	313.38
414.035	303.38
414.258	285.38
414.482	310.38
414.705	300.38
414.928	297.38
415.151	298.38
415.374	301.38
415.597	287.38
415.821	290.38
416.044	292.38
416.267	297.38
416.49	290.38
416.713	294.38
416.936	288.38
417.159	310.38
417.382	303.38
417.605	317.38
417.828	327.38
418.051	294.38
418.274	317.38
418.497	316.38
418.72	291.38
418.943	315.38
419.166	307.38
419.389	315.38
419.611	309.38
419.834	336.38
420.057	310.38
420.28	314.38
420.503	316.38
420.726	303.38
420.948	332.38
421.171	375.38
421.394	364.38
421.617	342.38
421.839	315.38
422.062	322.38
422.285	329.38
422.507	378.38
422.73	399.38
422.953	397.38
423.175	358.38
423.398	334.38
423.621	325.38
423.843	351.38
424.066	331.38
424.288	316.38
424.511	340.38
424.733	381.38
424.956	427.38
425.178	415.38
425.401	412.38
425.623	426.38
425.846	351.38
426.068	355.38
426.291	330.38
426.513	319.38
426.735	340.38
426.958	362.38
427.18	432.38
427.402	495.38
427.625	560.38
427.847	485.38
428.069	409.38
428.292	378.38
428.514	344.38
428.736	324.38
428.958	321.38
429.181	316.38
429.403	315.38
429.625	312.38
429.847	344.38
430.069	395.38
430.292	375.38
430.514	326.38
430.736	328.38
430.958	315.38
431.18	303.38
431.402	291.38
431.624	294.38
431.846	290.38
432.068	287.38
432.29	304.38
432.512	278.38
432.734	285.38
432.956	311.38
433.178	311.38
433.4	312.38
433.622	299.38
433.844	312.38
434.066	294.38
434.287	268.38
434.509	322.38
434.731	312.38
434.953	310.38
435.175	320.38
435.397	341.38
435.618	345.38
435.84	374.38
436.062	427.38
436.284	439.38
436.505	385.38
436.727	363.38
436.949	348.38
437.17	316.38
437.392	333.38
437.614	326.38
437.835	345.38
438.057	418.38
438.278	475.38
438.5	486.38
438.721	504.38
438.943	479.38
439.165	391.38
439.386	364.38
439.608	354.38
439.829	360.38
440.05	373.38
440.272	405.38
440.493	381.38
440.715	361.38
440.936	324.38
441.158	341.38
441.379	324.38
441.6	331.38
441.822	350.38
442.043	372.38
442.264	421.38
442.486	414.38
442.707	378.38
442.928	354.38
443.149	355.38
443.371	368.38
443.592	391.38
443.813	443.38
444.034	474.38
444.255	411.38
444.476	351.38
444.698	332.38
444.919	347.38
445.14	431.38
445.361	383.38
445.582	376.38
445.803	420.38
446.024	461.38
446.245	481.38
446.466	414.38
446.687	378.38
446.908	357.38
447.129	337.38
447.35	325.38
447.571	319.38
447.792	327.38
448.013	328.38
448.234	323.38
448.455	372.38
448.675	444.38
448.896	495.38
449.117	429.38
449.338	374.38
449.559	473.38
449.779	498.38
450	417.38
450.221	360.38
450.442	323.38
450.662	331.38
450.883	320.38
451.104	324.38
451.324	312.38
451.545	311.38
451.766	312.38
451.986	296.38
452.207	308.38
452.428	290.38
452.648	280.38
452.869	281.38
453.089	281.38
453.31	314.38
453.53	295.38
453.751	283.38
453.971	295.38
454.192	304.38
454.412	292.38
454.633	279.38
454.853	291.38
455.073	291.38
455.294	315.38
455.514	353.38
455.734	333.38
455.955	314.38
456.175	265.38
456.395	270.38
456.616	264.38
456.836	257.38
457.056	259.38
457.276	265.38
457.497	274.38
457.717	279.38
457.937	277.38
458.157	279.38
458.377	309.38
458.598	281.38
458.818	343.38
459.038	378.38
459.258	399.38
459.478	335.38
459.698	313.38
459.918	278.38
460.138	289.38
460.358	273.38
460.578	295.38
460.798	306.38
461.018	281.38
461.238	279.38
461.458	289.38
461.678	266.38
461.898	292.38
462.118	310.38
462.338	294.38
462.558	300.38
462.777	318.38
462.997	306.38
463.217	314.38
463.437	303.38
463.657	292.38
463.876	290.38
464.096	300.38
464.316	320.38
464.536	312.38
464.755	322.38
464.975	324.38
465.195	353.38
465.414	391.38
465.634	343.38
465.854	315.38
466.073	297.38
466.293	305.38
466.512	287.38
466.732	270.38
466.951	280.38
467.171	297.38
467.391	273.38
467.61	280.38
467.829	290.38
468.049	291.38
468.268	279.38
468.488	285.38
468.707	273.38
468.927	275.38
469.146	296.38
469.365	290.38
469.585	273.38
469.804	284.38
470.023	269.38
470.243	298.38
470.462	295.38
470.681	294.38
470.901	301.38
471.12	296.38
471.339	310.38
471.558	283.38
471.777	307.38
471.997	299.38
472.216	294.38
472.435	328.38
472.654	303.38
472.873	292.38
473.092	283.38
473.311	298.38
473.53	323.38
473.749	315.38
473.968	345.38
474.187	402.38
474.406	388.38
474.625	332.38
474.844	293.38
475.063	296.38
475.282	287.38
475.501	289.38
475.72	296.38
475.939	297.38
476.158	312.38
476.377	294.38
476.596	289.38
476.814	297.38
477.033	291.38
477.252	297.38
477.471	328.38
477.69	303.38
477.908	332.38
478.127	314.38
478.346	319.38
478.564	309.38
478.783	294.38
479.002	331.38
479.22	329.38
479.439	310.38
479.658	338.38
479.876	336.38
480.095	339.38
480.313	369.38
480.532	356.38
480.751	353.38
480.969	369.38
481.188	409.38
481.406	415.38
481.624	378.38
481.843	356.38
482.061	365.38
482.28	352.38
482.498	337.38
482.717	336.38
482.935	336.38
483.153	328.38
483.372	352.38
483.59	340.38
483.808	324.38
484.027	332.38
484.245	344.38
484.463	364.38
484.681	370.38
484.9	349.38
485.118	332.38
485.336	337.38
485.554	353.38
485.772	353.38
485.99	347.38
486.209	358.38
486.427	345.38
486.645	359.38
486.863	360.38
487.081	364.38
487.299	373.38
487.517	360.38
487.735	353.38
487.953	365.38
488.171	374.38
488.389	377.38
488.607	364.38
488.825	368.38
489.043	375.38
489.261	383.38
489.479	352.38
489.696	379.38
489.914	377.38
490.132	373.38
490.35	385.38
490.568	391.38
490.786	385.38
491.003	388.38
491.221	379.38
491.439	395.38
491.657	407.38
491.874	395.38
492.092	411.38
492.31	415.38
492.527	401.38
492.745	422.38
492.963	412.38
493.18	404.38
493.398	424.38
493.615	422.38
493.833	449.38
494.05	414.38
494.268	419.38
494.485	395.38
494.703	419.38
494.92	438.38
495.138	428.38
495.355	406.38
495.573	439.38
495.79	399.38
496.008	420.38
496.225	426.38
496.442	434.38
496.66	412.38
496.877	405.38
497.094	438.38
497.312	437.38
497.529	434.38
497.746	442.38
497.963	443.38
498.181	440.38
498.398	468.38
498.615	454.38
498.832	459.38
499.049	451.38
499.267	481.38
499.484	485.38
499.701	472.38
499.918	489.38
500.135	513.38
500.352	511.38
500.569	506.38
500.786	524.38
501.003	523.38
501.22	525.38
501.437	524.38
501.654	508.38
501.871	507.38
502.088	486.38
502.305	479.38
502.522	459.38
502.739	466.38
502.956	438.38
503.172	443.38
503.389	443.38
503.606	433.38
503.823	433.38
504.04	444.38
504.256	439.38
504.473	416.38
504.69	426.38
504.907	430.38
505.123	420.38
505.34	404.38
505.557	402.38
505.773	416.38
505.99	411.38
506.207	403.38
506.423	418.38
506.64	404.38
506.856	409.38
507.073	390.38
507.289	399.38
507.506	415.38
507.722	412.38
507.939	426.38
508.155	404.38
508.372	400.38
508.588	377.38
508.805	391.38
509.021	406.38
509.238	401.38
509.454	399.38
509.67	398.38
509.887	393.38
510.103	426.38
510.319	438.38
510.536	496.38
510.752	822.38
510.968	632.38
511.184	424.38
511.401	404.38
511.617	399.38
511.833	386.38
512.049	392.38
512.265	385.38
512.481	380.38
512.698	381.38
512.914	378.38
513.13	383.38
513.346	376.38
513.562	371.38
513.778	381.38
513.994	392.38
514.21	402.38
514.426	411.38
514.642	445.38
514.858	481.38
515.074	484.38
515.29	586.38
515.506	850.38
515.721	660.38
515.937	462.38
516.153	423.38
516.369	408.38
516.585	397.38
516.801	387.38
517.016	402.38
517.232	388.38
517.448	369.38
517.664	387.38
517.879	391.38
518.095	388.38
518.311	390.38
518.527	367.38
518.742	368.38
518.958	367.38
519.173	385.38
519.389	374.38
519.605	361.38
519.82	379.38
520.036	391.38
520.251	400.38
520.467	413.38
520.682	423.38
520.898	428.38
521.113	433.38
521.329	498.38
521.544	529.38
521.76	678.38
521.975	1135.38
522.19	1052.38
522.406	602.38
522.621	433.38
522.836	391.38
523.052	378.38
523.267	357.38
523.482	352.38
523.698	363.38
523.913	356.38
524.128	351.38
524.343	345.38
524.559	346.38
524.774	345.38
524.989	346.38
525.204	345.38
525.419	344.38
525.634	344.38
525.849	312.38
526.064	305.38
526.28	320.38
526.495	310.38
526.71	313.38
526.925	320.38
527.14	321.38
527.355	314.38
527.57	312.38
527.785	306.38
527.999	294.38
528.214	319.38
528.429	315.38
528.644	298.38
528.859	314.38
529.074	293.38
529.289	342.38
529.503	391.38
529.718	369.38
529.933	339.38
530.148	328.38
530.363	303.38
530.577	299.38
530.792	304.38
531.007	308.38
531.221	306.38
531.436	271.38
531.651	287.38
531.865	310.38
532.08	298.38
532.295	299.38
532.509	292.38
532.724	291.38
532.938	305.38
533.153	301.38
533.367	306.38
533.582	313.38
533.796	284.38
534.011	281.38
534.225	304.38
534.44	300.38
534.654	287.38
534.868	289.38
535.083	306.38
535.297	299.38
535.511	303.38
535.726	286.38
535.94	303.38
536.154	279.38
536.369	290.38
536.583	273.38
536.797	282.38
537.011	273.38
537.225	291.38
537.44	286.38
537.654	291.38
537.868	291.38
538.082	269.38
538.296	308.38
538.51	260.38
538.724	263.38
538.938	284.38
539.153	297.38
539.367	301.38
539.581	299.38
539.795	288.38
540.009	284.38
540.222	282.38
540.436	291.38
540.65	283.38
540.864	276.38
541.078	296.38
541.292	274.38
541.506	273.38
541.72	294.38
541.934	305.38
542.147	306.38
542.361	268.38
542.575	298.38
542.789	303.38
543.002	299.38
543.216	277.38
543.43	300.38
543.644	305.38
543.857	295.38
544.071	303.38
544.285	296.38
544.498	281.38
544.712	279.38
544.925	295.38
545.139	296.38
545.352	289.38
545.566	261.38
545.779	278.38
545.993	289.38
546.206	295.38
546.42	293.38
546.633	274.38
546.847	283.38
547.06	259.38
547.274	294.38
547.487	267.38
547.7	275.38
547.914	273.38
548.127	267.38
548.34	256.38
548.554	252.38
548.767	277.38
548.98	273.38
549.193	282.38
549.407	277.38
549.62	267.38
549.833	288.38
550.046	274.38
550.259	278.38
550.473	275.38
550.686	260.38
550.899	254.38
551.112	271.38
551.325	244.38
551.538	267.38
551.751	265.38
551.964	266.38
552.177	279.38
552.39	264.38
552.603	265.38
552.816	273.38
553.029	259.38
553.242	264.38
553.455	257.38
553.667	280.38
553.88	282.38
554.093	273.38
554.306	277.38
554.519	280.38
554.732	278.38
554.944	269.38
555.157	270.38
555.37	255.38
555.583	247.38
555.795	258.38
556.008	241.38
556.221	270.38
556.433	248.38
556.646	251.38
556.859	267.38
557.071	253.38
557.284	242.38
557.496	249.38
557.709	250.38
557.921	247.38
558.134	256.38
558.346	232.38
558.559	233.38
558.771	250.38
558.984	249.38
559.196	239.38
559.409	226.38
559.621	245.38
559.833	234.38
560.046	255.38
560.258	244.38
560.47	235.38
560.683	247.38
560.895	240.38
561.107	241.38
561.32	256.38
561.532	258.38
561.744	259.38
561.956	239.38
562.168	234.38
562.381	251.38
562.593	228.38
562.805	249.38
563.017	247.38
563.229	227.38
563.441	222.38
563.653	231.38
563.865	214.38
564.077	233.38
564.289	258.38
564.501	248.38
564.713	235.38
564.925	264.38
565.137	254.38
565.349	257.38
565.561	258.38
565.773	259.38
565.985	269.38
566.197	270.38
566.408	259.38
566.62	274.38
566.832	257.38
567.044	280.38
567.255	262.38
567.467	283.38
567.679	262.38
567.891	285.38
568.102	275.38
568.314	272.38
568.526	283.38
568.737	266.38
568.949	263.38
569.161	257.38
569.372	263.38
569.584	264.38
569.795	253.38
570.007	256.38
570.218	271.38
570.43	264.38
570.641	225.38
570.853	240.38
571.064	231.38
571.276	241.38
571.487	232.38
571.698	223.38
571.91	235.38
572.121	227.38
572.333	219.38
572.544	201.38
572.755	204.38
572.966	221.38
573.178	212.38
573.389	219.38
573.6	223.38
573.811	202.38
574.023	205.38
574.234	214.38
574.445	213.38
574.656	219.38
574.867	211.38
575.078	198.38
575.289	206.38
575.501	199.38
575.712	210.38
575.923	216.38
576.134	200.38
576.345	209.38
576.556	228.38
576.767	219.38
576.978	223.38
577.188	201.38
577.399	205.38
577.61	203.38
577.821	218.38
578.032	212.38
578.243	243.38
578.454	380.38
578.665	295.38
578.875	208.38
579.086	214.38
579.297	209.38
579.508	200.38
579.718	204.38
579.929	193.38
580.14	205.38
580.35	203.38
580.561	197.38
580.772	199.38
580.982	212.38
581.193	203.38
581.403	194.38
581.614	197.38
581.825	206.38
582.035	198.38
582.246	207.38
582.456	187.38
582.667	208.38
582.877	190.38
583.087	211.38
583.298	200.38
583.508	195.38
583.719	207.38
583.929	205.38
584.139	193.38
584.35	193.38
584.56	197.38
584.77	199.38
584.981	196.38
585.191	204.38
585.401	208.38
585.611	187.38
585.821	192.38
586.032	187.38
586.242	205.38
586.452	185.38
586.662	194.38
586.872	207.38
587.082	163.38
587.292	188.38
587.502	183.38
587.713	188.38
587.923	195.38
588.133	187.38
588.343	203.38
588.553	181.38
588.762	200.38
588.972	185.38
589.182	200.38
589.392	200.38
589.602	200.38
589.812	203.38
590.022	194.38
590.232	188.38
590.441	189.38
590.651	181.38
590.861	182.38
591.071	192.38
591.281	192.38
591.49	208.38
591.7	193.38
591.91	192.38
592.119	189.38
592.329	206.38
592.539	188.38
592.748	197.38
592.958	180.38
593.167	187.38
593.377	179.38
593.587	203.38
593.796	194.38
594.006	192.38
594.215	195.38
594.424	186.38
594.634	197.38
594.843	185.38
595.053	198.38
595.262	193.38
595.472	183.38
595.681	180.38
595.89	181.38
596.1	162.38
596.309	199.38
596.518	182.38
596.727	195.38
596.937	185.38
597.146	186.38
597.355	193.38
597.564	165.38
597.774	180.38
597.983	181.38
598.192	172.38
598.401	187.38
598.61	187.38
598.819	195.38
599.028	177.38
599.237	180.38
599.446	158.38
599.655	174.38
599.864	186.38
600.073	177.38
600.282	191.38
600.491	185.38
600.7	166.38
600.909	190.38
601.118	164.38
601.327	184.38
601.536	180.38
601.745	179.38
601.953	175.38
602.162	171.38
602.371	179.38
602.58	161.38
602.789	166.38
602.997	179.38
603.206	169.38
603.415	179.38
603.623	179.38
603.832	169.38
604.041	175.38
604.249	166.38
604.458	166.38
604.666	162.38
604.875	164.38
605.084	161.38
605.292	160.38
605.501	177.38
605.709	159.38
605.918	169.38
606.126	159.38
606.334	155.38
606.543	164.38
606.751	183.38
606.96	176.38
607.168	171.38
607.376	159.38
607.585	158.38
607.793	168.38
608.001	163.38
608.21	163.38
608.418	147.38
608.626	163.38
608.834	160.38
609.043	169.38
609.251	162.38
609.459	156.38
609.667	188.38
609.875	140.38
610.083	156.38
610.291	162.38
610.499	161.38
610.707	156.38
610.916	174.38
611.124	175.38
611.332	174.38
611.54	169.38
611.748	168.38
611.955	185.38
612.163	169.38
612.371	176.38
612.579	169.38
612.787	180.38
612.995	168.38
613.203	168.38
613.411	144.38
613.618	153.38
613.826	182.38
614.034	165.38
614.242	178.38
614.449	161.38
614.657	161.38
614.865	153.38
615.072	168.38
615.28	167.38
615.488	165.38
615.695	148.38
615.903	153.38
616.111	178.38
616.318	163.38
616.526	171.38
616.733	176.38
616.941	155.38
617.148	169.38
617.356	153.38
617.563	153.38
617.771	157.38
617.978	157.38
618.185	153.38
618.393	154.38
618.6	154.38
618.807	158.38
619.015	172.38
619.222	151.38
619.429	165.38
619.637	157.38
619.844	154.38
620.051	152.38
620.258	166.38
620.466	149.38
620.673	152.38
620.88	159.38
621.087	152.38
621.294	159.38
621.501	152.38
621.708	157.38
621.915	179.38
622.122	158.38
622.329	153.38
622.536	154.38
622.743	146.38
622.95	161.38
623.157	154.38
623.364	150.38
623.571	155.38
623.778	171.38
623.985	157.38
624.192	146.38
624.399	161.38
624.606	160.38
624.812	161.38
625.019	155.38
625.226	150.38
625.433	151.38
625.639	153.38
625.846	156.38
626.053	152.38
626.259	146.38
626.466	147.38
626.673	152.38
626.879	151.38
627.086	145.38
627.293	151.38
627.499	153.38
627.706	149.38
627.912	152.38
628.119	158.38
628.325	153.38
628.532	145.38
628.738	144.38
628.945	132.38
629.151	156.38
629.357	142.38
629.564	151.38
629.77	141.38
629.976	141.38
630.183	140.38
630.389	144.38
630.595	150.38
630.802	152.38
631.008	160.38
631.214	137.38
631.42	144.38
631.627	141.38
631.833	153.38
632.039	156.38
632.245	155.38
632.451	131.38
632.657	141.38
632.863	128.38
633.069	135.38
633.275	148.38
633.481	147.38
633.688	130.38
633.893	157.38
634.099	153.38
634.305	150.38
634.511	139.38
634.717	108.38
634.923	129.38
635.129	131.38
635.335	139.38
635.541	137.38
635.747	152.38
635.952	137.38
636.158	139.38
636.364	148.38
636.57	138.38
636.775	134.38
636.981	140.38
637.187	149.38
637.392	151.38
637.598	127.38
637.804	147.38
638.009	134.38
638.215	115.38
638.421	122.38
638.626	121.38
638.832	126.38
639.037	137.38
639.243	129.38
639.448	136.38
639.654	146.38
639.859	128.38
640.065	140.38
640.27	139.38
640.475	132.38
640.681	128.38
640.886	125.38
641.091	137.38
641.297	142.38
641.502	127.38
641.707	129.38
641.913	132.38
642.118	155.38
642.323	127.38
642.528	139.38
642.733	139.38
642.939	138.38
643.144	134.38
643.349	116.38
643.554	128.38
643.759	125.38
643.964	128.38
644.169	131.38
644.374	137.38
644.579	123.38
644.784	144.38
644.989	119.38
645.194	123.38
645.399	131.38
645.604	144.38
645.809	131.38
646.014	119.38
646.219	131.38
646.423	122.38
646.628	124.38
646.833	133.38
647.038	127.38
647.243	135.38
647.447	129.38
647.652	128.38
647.857	129.38
648.062	121.38
648.266	133.38
648.471	135.38
648.676	132.38
648.88	126.38
649.085	132.38
649.289	140.38
649.494	135.38
649.698	155.38
649.903	143.38
650.107	122.38
650.312	120.38
650.516	138.38
650.721	131.38
650.925	129.38
651.13	135.38
651.334	120.38
651.539	128.38
651.743	128.38
651.947	122.38
652.152	124.38
652.356	122.38
652.56	112.38
652.764	129.38
652.969	117.38
653.173	125.38
653.377	113.38
653.581	127.38
653.785	136.38
653.99	115.38
654.194	114.38
654.398	113.38
654.602	108.38
654.806	104.38
655.01	116.38
655.214	123.38
655.418	109.38
655.622	93.38
655.826	125.38
656.03	108.38
656.234	105.38
656.438	106.38
656.642	102.38
656.846	106.38
657.049	109.38
657.253	117.38
657.457	99.38
657.661	108.38
657.865	115.38
658.068	106.38
658.272	95.38
658.476	88.38
658.68	88.38
658.883	105.38
659.087	108.38
659.291	95.38
659.494	89.38
659.698	93.38
659.901	97.38
660.105	89.38
660.309	88.38
660.512	101.38
660.716	76.38
660.919	77.38
661.123	77.38
661.326	87.38
661.53	100.38
661.733	89.38
661.936	83.38
662.14	98.38
662.343	79.38
662.546	92.38
662.75	89.38
662.953	53.38
663.156	79.38
663.36	77.38
663.563	72.38
663.766	76.38
663.969	88.38
664.173	84.38
664.376	88.38
664.579	77.38
664.782	73.38
664.985	72.38
665.188	74.38
665.391	70.38
665.594	89.38
665.797	81.38
666	88.38
666.203	86.38
666.406	99.38
666.609	89.38
666.812	76.38
667.015	81.38
667.218	85.38
667.421	83.38
667.624	94.38
667.827	84.38
668.03	89.38
668.232	76.38
668.435	86.38
668.638	69.38
668.841	84.38
669.043	88.38
669.246	83.38
669.449	84.38
669.651	104.38
669.854	77.38
670.057	79.38
670.259	88.38
670.462	84.38
670.665	87.38
670.867	69.38
671.07	77.38
671.272	100.38
671.475	88.38
671.677	87.38
671.88	79.38
672.082	76.38
672.284	86.38
672.487	92.38
672.689	77.38
672.892	80.38
