Data from 1983.PennyLincolnUp.Lamp.En5.5.200Scan.071819.P1_HRD10591_16-54-38-965.txt Node
Date: Thu Jul 18 16:54:38 EDT 2019
User: cochatt
Spectrometer: HR+D1059
Trigger mode: 1
Integration Time (sec): 1.000000E-1
Scans to average: 1
Electric dark correction enabled: true
Nonlinearity correction enabled: false
Boxcar width: 0
XAxis mode: Wavelengths
Number of Pixels in Spectrum: 2048
>>>>>Begin Spectral Data<<<<<
223.165	3.25
223.4	3.25
223.635	3.25
223.869	-20.75
224.104	-11.75
224.338	-11.75
224.573	-25.75
224.808	-6.75
225.042	-3.75
225.277	-15.75
225.511	7.25
225.746	-5.75
225.98	5.25
226.215	21.25
226.449	9.25
226.683	12.25
226.918	15.25
227.152	28.25
227.387	36.25
227.621	26.25
227.856	39.25
228.09	44.25
228.324	52.25
228.559	46.25
228.793	72.25
229.027	97.25
229.262	104.25
229.496	116.25
229.73	120.25
229.964	144.25
230.199	115.25
230.433	106.25
230.667	99.25
230.901	112.25
231.136	98.25
231.37	110.25
231.604	105.25
231.838	105.25
232.072	112.25
232.306	114.25
232.541	113.25
232.775	105.25
233.009	110.25
233.243	106.25
233.477	115.25
233.711	115.25
233.945	105.25
234.179	127.25
234.413	107.25
234.647	102.25
234.881	105.25
235.115	133.25
235.349	98.25
235.583	111.25
235.817	106.25
236.051	124.25
236.285	114.25
236.519	118.25
236.753	124.25
236.987	114.25
237.221	166.25
237.455	207.25
237.689	176.25
237.922	126.25
238.156	136.25
238.39	100.25
238.624	115.25
238.858	118.25
239.091	117.25
239.325	128.25
239.559	119.25
239.793	117.25
240.027	122.25
240.26	128.25
240.494	149.25
240.728	132.25
240.961	152.25
241.195	123.25
241.429	142.25
241.662	142.25
241.896	124.25
242.13	116.25
242.363	119.25
242.597	124.25
242.83	150.25
243.064	125.25
243.298	131.25
243.531	140.25
243.765	136.25
243.998	134.25
244.232	129.25
244.465	146.25
244.699	123.25
244.932	135.25
245.166	135.25
245.399	135.25
245.633	129.25
245.866	133.25
246.099	131.25
246.333	135.25
246.566	142.25
246.8	139.25
247.033	148.25
247.266	154.25
247.5	164.25
247.733	161.25
247.966	146.25
248.2	142.25
248.433	150.25
248.666	170.25
248.899	166.25
249.133	171.25
249.366	176.25
249.599	179.25
249.832	173.25
250.066	167.25
250.299	185.25
250.532	194.25
250.765	187.25
250.998	217.25
251.231	224.25
251.465	198.25
251.698	204.25
251.931	180.25
252.164	169.25
252.397	180.25
252.63	195.25
252.863	189.25
253.096	196.25
253.329	196.25
253.562	213.25
253.795	202.25
254.028	197.25
254.261	179.25
254.494	211.25
254.727	240.25
254.96	258.25
255.193	253.25
255.426	220.25
255.659	230.25
255.892	210.25
256.124	231.25
256.357	237.25
256.59	210.25
256.823	206.25
257.056	205.25
257.289	189.25
257.521	203.25
257.754	211.25
257.987	209.25
258.22	184.25
258.452	190.25
258.685	187.25
258.918	195.25
259.151	203.25
259.383	190.25
259.616	193.25
259.849	209.25
260.081	208.25
260.314	240.25
260.547	241.25
260.779	226.25
261.012	224.25
261.244	200.25
261.477	202.25
261.71	203.25
261.942	217.25
262.175	198.25
262.407	224.25
262.64	204.25
262.872	219.25
263.105	194.25
263.337	198.25
263.57	188.25
263.802	213.25
264.035	180.25
264.267	198.25
264.499	197.25
264.732	204.25
264.964	200.25
265.197	198.25
265.429	188.25
265.661	189.25
265.894	196.25
266.126	191.25
266.358	205.25
266.591	204.25
266.823	193.25
267.055	214.25
267.287	196.25
267.52	201.25
267.752	226.25
267.984	211.25
268.216	218.25
268.448	213.25
268.681	214.25
268.913	225.25
269.145	233.25
269.377	276.25
269.609	279.25
269.841	242.25
270.073	267.25
270.306	289.25
270.538	280.25
270.77	305.25
271.002	247.25
271.234	258.25
271.466	301.25
271.698	285.25
271.93	283.25
272.162	300.25
272.394	275.25
272.626	282.25
272.858	251.25
273.09	255.25
273.322	245.25
273.553	233.25
273.785	248.25
274.017	259.25
274.249	258.25
274.481	241.25
274.713	230.25
274.945	241.25
275.176	244.25
275.408	232.25
275.64	241.25
275.872	247.25
276.104	245.25
276.335	255.25
276.567	260.25
276.799	284.25
277.031	290.25
277.262	315.25
277.494	289.25
277.726	270.25
277.957	269.25
278.189	269.25
278.421	254.25
278.652	249.25
278.884	248.25
279.115	258.25
279.347	263.25
279.579	256.25
279.81	251.25
280.042	226.25
280.273	242.25
280.505	231.25
280.736	246.25
280.968	250.25
281.199	257.25
281.431	235.25
281.662	243.25
281.894	268.25
282.125	242.25
282.356	279.25
282.588	279.25
282.819	280.25
283.051	245.25
283.282	254.25
283.513	264.25
283.745	252.25
283.976	248.25
284.207	237.25
284.439	277.25
284.67	270.25
284.901	260.25
285.132	260.25
285.364	257.25
285.595	265.25
285.826	261.25
286.057	265.25
286.288	266.25
286.52	264.25
286.751	258.25
286.982	264.25
287.213	246.25
287.444	267.25
287.675	266.25
287.906	271.25
288.138	274.25
288.369	271.25
288.6	263.25
288.831	274.25
289.062	272.25
289.293	255.25
289.524	290.25
289.755	263.25
289.986	252.25
290.217	256.25
290.448	269.25
290.679	268.25
290.91	261.25
291.141	262.25
291.371	265.25
291.602	254.25
291.833	256.25
292.064	260.25
292.295	256.25
292.526	276.25
292.757	272.25
292.987	275.25
293.218	279.25
293.449	264.25
293.68	255.25
293.91	266.25
294.141	267.25
294.372	266.25
294.603	280.25
294.833	278.25
295.064	282.25
295.295	258.25
295.525	270.25
295.756	284.25
295.987	287.25
296.217	300.25
296.448	305.25
296.679	284.25
296.909	287.25
297.14	288.25
297.37	279.25
297.601	268.25
297.831	270.25
298.062	270.25
298.292	282.25
298.523	270.25
298.753	284.25
298.984	301.25
299.214	281.25
299.445	274.25
299.675	288.25
299.905	288.25
300.136	288.25
300.366	285.25
300.597	301.25
300.827	289.25
301.057	282.25
301.288	320.25
301.518	309.25
301.748	298.25
301.979	291.25
302.209	301.25
302.439	296.25
302.669	303.25
302.9	275.25
303.13	291.25
303.36	293.25
303.59	305.25
303.82	325.25
304.051	306.25
304.281	300.25
304.511	305.25
304.741	302.25
304.971	298.25
305.201	288.25
305.431	299.25
305.661	305.25
305.891	319.25
306.121	303.25
306.352	303.25
306.582	300.25
306.812	312.25
307.042	314.25
307.272	306.25
307.502	323.25
307.731	310.25
307.961	292.25
308.191	309.25
308.421	336.25
308.651	304.25
308.881	317.25
309.111	308.25
309.341	314.25
309.571	327.25
309.8	322.25
310.03	341.25
310.26	353.25
310.49	348.25
310.72	352.25
310.949	365.25
311.179	384.25
311.409	349.25
311.639	335.25
311.868	342.25
312.098	348.25
312.328	354.25
312.557	373.25
312.787	391.25
313.017	393.25
313.246	362.25
313.476	344.25
313.706	359.25
313.935	340.25
314.165	367.25
314.394	371.25
314.624	371.25
314.853	364.25
315.083	351.25
315.312	352.25
315.542	356.25
315.771	326.25
316.001	349.25
316.23	347.25
316.46	338.25
316.689	341.25
316.919	361.25
317.148	361.25
317.377	358.25
317.607	333.25
317.836	347.25
318.065	349.25
318.295	341.25
318.524	344.25
318.753	358.25
318.983	346.25
319.212	337.25
319.441	347.25
319.67	362.25
319.9	353.25
320.129	342.25
320.358	351.25
320.587	361.25
320.816	364.25
321.046	382.25
321.275	380.25
321.504	369.25
321.733	384.25
321.962	372.25
322.191	421.25
322.42	393.25
322.649	414.25
322.878	412.25
323.108	450.25
323.337	470.25
323.566	476.25
323.795	520.25
324.024	568.25
324.253	701.25
324.482	1009.25
324.71	1520.25
324.939	2047.25
325.168	1702.25
325.397	903.25
325.626	636.25
325.855	540.25
326.084	488.25
326.313	477.25
326.542	476.25
326.77	551.25
326.999	638.25
327.228	882.25
327.457	1313.25
327.686	1497.25
327.914	1047.25
328.143	706.25
328.372	617.25
328.6	560.25
328.829	528.25
329.058	562.25
329.287	557.25
329.515	524.25
329.744	499.25
329.972	490.25
330.201	486.25
330.43	572.25
330.658	569.25
330.887	590.25
331.115	549.25
331.344	483.25
331.572	457.25
331.801	476.25
332.03	464.25
332.258	444.25
332.486	402.25
332.715	396.25
332.943	412.25
333.172	413.25
333.4	413.25
333.629	444.25
333.857	435.25
334.085	465.25
334.314	469.25
334.542	497.25
334.771	522.25
334.999	475.25
335.227	425.25
335.455	399.25
335.684	394.25
335.912	411.25
336.14	409.25
336.369	428.25
336.597	418.25
336.825	402.25
337.053	384.25
337.281	403.25
337.51	379.25
337.738	397.25
337.966	392.25
338.194	425.25
338.422	423.25
338.65	398.25
338.878	418.25
339.106	386.25
339.334	370.25
339.562	394.25
339.79	387.25
340.018	382.25
340.246	408.25
340.474	398.25
340.702	404.25
340.93	368.25
341.158	408.25
341.386	392.25
341.614	394.25
341.842	392.25
342.07	381.25
342.298	392.25
342.526	390.25
342.754	394.25
342.981	385.25
343.209	373.25
343.437	385.25
343.665	381.25
343.893	394.25
344.12	385.25
344.348	379.25
344.576	386.25
344.804	427.25
345.031	416.25
345.259	424.25
345.487	398.25
345.714	392.25
345.942	370.25
346.17	402.25
346.397	382.25
346.625	360.25
346.853	384.25
347.08	379.25
347.308	390.25
347.535	386.25
347.763	375.25
347.99	404.25
348.218	390.25
348.445	390.25
348.673	386.25
348.9	391.25
349.128	372.25
349.355	359.25
349.583	354.25
349.81	359.25
350.037	381.25
350.265	360.25
350.492	376.25
350.72	377.25
350.947	364.25
351.174	372.25
351.402	390.25
351.629	396.25
351.856	386.25
352.083	394.25
352.311	398.25
352.538	405.25
352.765	401.25
352.992	382.25
353.22	388.25
353.447	373.25
353.674	378.25
353.901	350.25
354.128	371.25
354.355	353.25
354.583	361.25
354.81	346.25
355.037	360.25
355.264	358.25
355.491	352.25
355.718	349.25
355.945	358.25
356.172	359.25
356.399	343.25
356.626	334.25
356.853	348.25
357.08	338.25
357.307	347.25
357.534	352.25
357.761	344.25
357.988	345.25
358.215	369.25
358.441	354.25
358.668	354.25
358.895	346.25
359.122	354.25
359.349	364.25
359.576	374.25
359.802	426.25
360.029	428.25
360.256	426.25
360.483	408.25
360.709	380.25
360.936	385.25
361.163	368.25
361.39	357.25
361.616	378.25
361.843	378.25
362.07	371.25
362.296	402.25
362.523	378.25
362.749	386.25
362.976	377.25
363.203	362.25
363.429	370.25
363.656	369.25
363.882	353.25
364.109	360.25
364.335	355.25
364.562	351.25
364.788	352.25
365.015	345.25
365.241	373.25
365.468	365.25
365.694	366.25
365.92	368.25
366.147	362.25
366.373	346.25
366.599	372.25
366.826	351.25
367.052	360.25
367.278	353.25
367.505	356.25
367.731	360.25
367.957	352.25
368.184	344.25
368.41	350.25
368.636	372.25
368.862	373.25
369.089	374.25
369.315	351.25
369.541	347.25
369.767	326.25
369.993	346.25
370.219	354.25
370.445	358.25
370.672	344.25
370.898	353.25
371.124	368.25
371.35	369.25
371.576	348.25
371.802	359.25
372.028	344.25
372.254	345.25
372.48	346.25
372.706	347.25
372.932	365.25
373.158	366.25
373.384	342.25
373.61	331.25
373.835	363.25
374.061	369.25
374.287	364.25
374.513	350.25
374.739	352.25
374.965	355.25
375.191	349.25
375.416	358.25
375.642	359.25
375.868	343.25
376.094	342.25
376.319	344.25
376.545	342.25
376.771	349.25
376.997	350.25
377.222	358.25
377.448	368.25
377.674	347.25
377.899	346.25
378.125	353.25
378.35	328.25
378.576	323.25
378.802	348.25
379.027	325.25
379.253	337.25
379.478	328.25
379.704	357.25
379.929	356.25
380.155	353.25
380.38	355.25
380.606	357.25
380.831	342.25
381.057	352.25
381.282	352.25
381.507	351.25
381.733	354.25
381.958	355.25
382.184	363.25
382.409	354.25
382.634	359.25
382.86	369.25
383.085	370.25
383.31	351.25
383.535	342.25
383.761	351.25
383.986	358.25
384.211	357.25
384.436	369.25
384.662	372.25
384.887	366.25
385.112	369.25
385.337	372.25
385.562	364.25
385.787	384.25
386.013	372.25
386.238	376.25
386.463	386.25
386.688	379.25
386.913	348.25
387.138	363.25
387.363	386.25
387.588	368.25
387.813	353.25
388.038	353.25
388.263	374.25
388.488	380.25
388.713	379.25
388.938	364.25
389.163	374.25
389.387	383.25
389.612	360.25
389.837	376.25
390.062	370.25
390.287	375.25
390.512	351.25
390.736	361.25
390.961	385.25
391.186	380.25
391.411	378.25
391.636	388.25
391.86	391.25
392.085	386.25
392.31	397.25
392.534	369.25
392.759	381.25
392.984	384.25
393.208	384.25
393.433	392.25
393.658	356.25
393.882	376.25
394.107	365.25
394.331	378.25
394.556	364.25
394.78	378.25
395.005	365.25
395.229	384.25
395.454	392.25
395.678	392.25
395.903	416.25
396.127	420.25
396.352	422.25
396.576	399.25
396.801	373.25
397.025	388.25
397.249	393.25
397.474	382.25
397.698	390.25
397.922	408.25
398.147	416.25
398.371	414.25
398.595	384.25
398.82	412.25
399.044	414.25
399.268	443.25
399.492	457.25
399.717	469.25
399.941	484.25
400.165	476.25
400.389	490.25
400.613	477.25
400.837	446.25
401.062	434.25
401.286	424.25
401.51	405.25
401.734	400.25
401.958	422.25
402.182	435.25
402.406	436.25
402.63	449.25
402.854	439.25
403.078	421.25
403.302	432.25
403.526	440.25
403.75	420.25
403.974	434.25
404.198	416.25
404.422	452.25
404.645	456.25
404.869	438.25
405.093	488.25
405.317	507.25
405.541	520.25
405.765	501.25
405.988	470.25
406.212	483.25
406.436	488.25
406.66	517.25
406.883	479.25
407.107	478.25
407.331	519.25
407.555	573.25
407.778	568.25
408.002	530.25
408.226	485.25
408.449	490.25
408.673	476.25
408.896	514.25
409.12	526.25
409.344	501.25
409.567	487.25
409.791	462.25
410.014	462.25
410.238	444.25
410.461	422.25
410.685	427.25
410.908	445.25
411.132	474.25
411.355	510.25
411.578	493.25
411.802	430.25
412.025	442.25
412.249	439.25
412.472	461.25
412.695	492.25
412.919	483.25
413.142	436.25
413.365	437.25
413.589	442.25
413.812	413.25
414.035	416.25
414.258	409.25
414.482	420.25
414.705	407.25
414.928	408.25
415.151	422.25
415.374	406.25
415.597	415.25
415.821	421.25
416.044	419.25
416.267	416.25
416.49	412.25
416.713	414.25
416.936	404.25
417.159	402.25
417.382	405.25
417.605	396.25
417.828	416.25
418.051	413.25
418.274	417.25
418.497	420.25
418.72	402.25
418.943	413.25
419.166	416.25
419.389	442.25
419.611	410.25
419.834	419.25
420.057	425.25
420.28	442.25
420.503	437.25
420.726	432.25
420.948	427.25
421.171	484.25
421.394	500.25
421.617	452.25
421.839	396.25
422.062	449.25
422.285	452.25
422.507	489.25
422.73	546.25
422.953	522.25
423.175	463.25
423.398	454.25
423.621	467.25
423.843	478.25
424.066	456.25
424.288	468.25
424.511	470.25
424.733	508.25
424.956	583.25
425.178	558.25
425.401	539.25
425.623	562.25
425.846	492.25
426.068	450.25
426.291	444.25
426.513	474.25
426.735	500.25
426.958	502.25
427.18	548.25
427.402	674.25
427.625	732.25
427.847	650.25
428.069	552.25
428.292	518.25
428.514	464.25
428.736	435.25
428.958	442.25
429.181	424.25
429.403	421.25
429.625	441.25
429.847	480.25
430.069	515.25
430.292	514.25
430.514	452.25
430.736	429.25
430.958	420.25
431.18	426.25
431.402	397.25
431.624	410.25
431.846	418.25
432.068	403.25
432.29	416.25
432.512	388.25
432.734	424.25
432.956	402.25
433.178	423.25
433.4	426.25
433.622	417.25
433.844	397.25
434.066	403.25
434.287	391.25
434.509	401.25
434.731	423.25
434.953	408.25
435.175	437.25
435.397	459.25
435.618	454.25
435.84	489.25
436.062	535.25
436.284	602.25
436.505	527.25
436.727	474.25
436.949	468.25
437.17	434.25
437.392	446.25
437.614	446.25
437.835	492.25
438.057	555.25
438.278	636.25
438.5	620.25
438.721	671.25
438.943	626.25
439.165	511.25
439.386	503.25
439.608	477.25
439.829	472.25
440.05	493.25
440.272	558.25
440.493	489.25
440.715	473.25
440.936	438.25
441.158	427.25
441.379	418.25
441.6	462.25
441.822	467.25
442.043	510.25
442.264	568.25
442.486	589.25
442.707	519.25
442.928	478.25
443.149	508.25
443.371	531.25
443.592	516.25
443.813	602.25
444.034	640.25
444.255	552.25
444.476	470.25
444.698	472.25
444.919	482.25
445.14	600.25
445.361	540.25
445.582	525.25
445.803	561.25
446.024	666.25
446.245	666.25
446.466	590.25
446.687	509.25
446.908	485.25
447.129	441.25
447.35	439.25
447.571	438.25
447.792	437.25
448.013	441.25
448.234	447.25
448.455	494.25
448.675	597.25
448.896	666.25
449.117	579.25
449.338	579.25
449.559	637.25
449.779	685.25
450	563.25
450.221	491.25
450.442	429.25
450.662	440.25
450.883	462.25
451.104	469.25
451.324	440.25
451.545	404.25
451.766	418.25
451.986	402.25
452.207	396.25
452.428	401.25
452.648	394.25
452.869	411.25
453.089	408.25
453.31	398.25
453.53	409.25
453.751	402.25
453.971	393.25
454.192	409.25
454.412	428.25
454.633	414.25
454.853	419.25
455.073	391.25
455.294	397.25
455.514	470.25
455.734	462.25
455.955	394.25
456.175	370.25
456.395	371.25
456.616	367.25
456.836	352.25
457.056	364.25
457.276	362.25
457.497	376.25
457.717	368.25
457.937	379.25
458.157	382.25
458.377	399.25
458.598	398.25
458.818	459.25
459.038	555.25
459.258	537.25
459.478	438.25
459.698	412.25
459.918	410.25
460.138	392.25
460.358	404.25
460.578	396.25
460.798	397.25
461.018	434.25
461.238	429.25
461.458	410.25
461.678	409.25
461.898	414.25
462.118	413.25
462.338	420.25
462.558	405.25
462.777	416.25
462.997	434.25
463.217	430.25
463.437	445.25
463.657	426.25
463.876	467.25
464.096	428.25
464.316	423.25
464.536	439.25
464.755	457.25
464.975	446.25
465.195	523.25
465.414	560.25
465.634	508.25
465.854	465.25
466.073	420.25
466.293	421.25
466.512	397.25
466.732	423.25
466.951	391.25
467.171	404.25
467.391	410.25
467.61	414.25
467.829	432.25
468.049	404.25
468.268	402.25
468.488	391.25
468.707	390.25
468.927	393.25
469.146	379.25
469.365	387.25
469.585	394.25
469.804	404.25
470.023	436.25
470.243	416.25
470.462	407.25
470.681	442.25
470.901	430.25
471.12	405.25
471.339	420.25
471.558	408.25
471.777	390.25
471.997	406.25
472.216	392.25
472.435	454.25
472.654	421.25
472.873	416.25
473.092	424.25
473.311	394.25
473.53	391.25
473.749	438.25
473.968	456.25
474.187	566.25
474.406	553.25
474.625	456.25
474.844	420.25
475.063	404.25
475.282	406.25
475.501	396.25
475.72	411.25
475.939	412.25
476.158	426.25
476.377	437.25
476.596	421.25
476.814	416.25
477.033	426.25
477.252	442.25
477.471	436.25
477.69	429.25
477.908	442.25
478.127	457.25
478.346	439.25
478.564	431.25
478.783	450.25
479.002	474.25
479.22	447.25
479.439	464.25
479.658	470.25
479.876	478.25
480.095	493.25
480.313	498.25
480.532	492.25
480.751	485.25
480.969	488.25
481.188	567.25
481.406	604.25
481.624	534.25
481.843	490.25
482.061	494.25
482.28	486.25
482.498	474.25
482.717	477.25
482.935	473.25
483.153	485.25
483.372	463.25
483.59	473.25
483.808	473.25
484.027	468.25
484.245	474.25
484.463	487.25
484.681	465.25
484.9	488.25
485.118	477.25
485.336	489.25
485.554	477.25
485.772	503.25
485.99	492.25
486.209	472.25
486.427	490.25
486.645	517.25
486.863	517.25
487.081	516.25
487.299	514.25
487.517	522.25
487.735	508.25
487.953	516.25
488.171	505.25
488.389	499.25
488.607	509.25
488.825	506.25
489.043	532.25
489.261	508.25
489.479	518.25
489.696	522.25
489.914	515.25
490.132	542.25
490.35	524.25
490.568	548.25
490.786	564.25
491.003	530.25
491.221	580.25
491.439	572.25
491.657	599.25
491.874	587.25
492.092	610.25
492.31	608.25
492.527	595.25
492.745	612.25
492.963	604.25
493.18	583.25
493.398	624.25
493.615	596.25
493.833	606.25
494.05	607.25
494.268	594.25
494.485	586.25
494.703	605.25
494.92	594.25
495.138	605.25
495.355	611.25
495.573	613.25
495.79	620.25
496.008	592.25
496.225	601.25
496.442	598.25
496.66	589.25
496.877	592.25
497.094	629.25
497.312	621.25
497.529	592.25
497.746	616.25
497.963	629.25
498.181	632.25
498.398	638.25
498.615	639.25
498.832	646.25
499.049	668.25
499.267	680.25
499.484	709.25
499.701	719.25
499.918	742.25
500.135	765.25
500.352	805.25
500.569	794.25
500.786	792.25
501.003	781.25
501.22	773.25
501.437	743.25
501.654	748.25
501.871	726.25
502.088	701.25
502.305	705.25
502.522	681.25
502.739	683.25
502.956	653.25
503.172	613.25
503.389	607.25
503.606	641.25
503.823	614.25
504.04	616.25
504.256	609.25
504.473	604.25
504.69	596.25
504.907	590.25
505.123	601.25
505.34	574.25
505.557	564.25
505.773	599.25
505.99	588.25
506.207	595.25
506.423	572.25
506.64	556.25
506.856	564.25
507.073	558.25
507.289	552.25
507.506	560.25
507.722	581.25
507.939	597.25
508.155	597.25
508.372	569.25
508.588	548.25
508.805	539.25
509.021	557.25
509.238	569.25
509.454	576.25
509.67	580.25
509.887	561.25
510.103	571.25
510.319	579.25
510.536	646.25
510.752	1185.25
510.968	924.25
511.184	595.25
511.401	552.25
511.617	540.25
511.833	530.25
512.049	522.25
512.265	522.25
512.481	529.25
512.698	519.25
512.914	513.25
513.13	547.25
513.346	532.25
513.562	500.25
513.778	522.25
513.994	526.25
514.21	542.25
514.426	566.25
514.642	619.25
514.858	634.25
515.074	685.25
515.29	838.25
515.506	1359.25
515.721	1096.25
515.937	672.25
516.153	596.25
516.369	575.25
516.585	559.25
516.801	519.25
517.016	540.25
517.232	539.25
517.448	541.25
517.664	524.25
517.879	520.25
518.095	532.25
518.311	540.25
518.527	532.25
518.742	524.25
518.958	523.25
519.173	524.25
519.389	499.25
519.605	538.25
519.82	548.25
520.036	541.25
520.251	579.25
520.467	592.25
520.682	588.25
520.898	602.25
521.113	601.25
521.329	676.25
521.544	790.25
521.76	1029.25
521.975	1833.25
522.19	1775.25
522.406	896.25
522.621	654.25
522.836	562.25
523.052	540.25
523.267	504.25
523.482	498.25
523.698	476.25
523.913	492.25
524.128	493.25
524.343	463.25
524.559	480.25
524.774	465.25
524.989	460.25
525.204	456.25
525.419	453.25
525.634	449.25
525.849	442.25
526.064	446.25
526.28	415.25
526.495	440.25
526.71	434.25
526.925	427.25
527.14	405.25
527.355	420.25
527.57	418.25
527.785	416.25
527.999	433.25
528.214	410.25
528.429	422.25
528.644	428.25
528.859	455.25
529.074	433.25
529.289	437.25
529.503	571.25
529.718	517.25
529.933	447.25
530.148	429.25
530.363	437.25
530.577	404.25
530.792	411.25
531.007	409.25
531.221	414.25
531.436	411.25
531.651	406.25
531.865	407.25
532.08	420.25
532.295	403.25
532.509	416.25
532.724	391.25
532.938	395.25
533.153	422.25
533.367	406.25
533.582	398.25
533.796	402.25
534.011	409.25
534.225	402.25
534.44	377.25
534.654	388.25
534.868	398.25
535.083	392.25
535.297	388.25
535.511	390.25
535.726	398.25
535.94	410.25
536.154	401.25
536.369	386.25
536.583	392.25
536.797	392.25
537.011	390.25
537.225	387.25
537.44	404.25
537.654	384.25
537.868	368.25
538.082	391.25
538.296	394.25
538.51	376.25
538.724	386.25
538.938	370.25
539.153	394.25
539.367	394.25
539.581	393.25
539.795	380.25
540.009	394.25
540.222	377.25
540.436	375.25
540.65	387.25
540.864	393.25
541.078	411.25
541.292	410.25
541.506	396.25
541.72	385.25
541.934	381.25
542.147	386.25
542.361	376.25
542.575	365.25
542.789	370.25
543.002	378.25
543.216	369.25
543.43	386.25
543.644	379.25
543.857	390.25
544.071	377.25
544.285	372.25
544.498	356.25
544.712	372.25
544.925	387.25
545.139	376.25
545.352	365.25
545.566	374.25
545.779	373.25
545.993	381.25
546.206	379.25
546.42	374.25
546.633	367.25
546.847	368.25
547.06	337.25
547.274	341.25
547.487	362.25
547.7	349.25
547.914	353.25
548.127	365.25
548.34	360.25
548.554	369.25
548.767	346.25
548.98	374.25
549.193	380.25
549.407	355.25
549.62	363.25
549.833	373.25
550.046	352.25
550.259	375.25
550.473	357.25
550.686	365.25
550.899	372.25
551.112	364.25
551.325	341.25
551.538	362.25
551.751	360.25
551.964	344.25
552.177	341.25
552.39	338.25
552.603	360.25
552.816	364.25
553.029	359.25
553.242	361.25
553.455	364.25
553.667	375.25
553.88	372.25
554.093	374.25
554.306	382.25
554.519	371.25
554.732	349.25
554.944	360.25
555.157	349.25
555.37	366.25
555.583	358.25
555.795	341.25
556.008	340.25
556.221	338.25
556.433	333.25
556.646	332.25
556.859	328.25
557.071	341.25
557.284	320.25
557.496	308.25
557.709	334.25
557.921	334.25
558.134	322.25
558.346	314.25
558.559	325.25
558.771	313.25
558.984	334.25
559.196	316.25
559.409	335.25
559.621	318.25
559.833	312.25
560.046	338.25
560.258	309.25
560.47	300.25
560.683	309.25
560.895	317.25
561.107	311.25
561.32	317.25
561.532	321.25
561.744	325.25
561.956	316.25
562.168	324.25
562.381	315.25
562.593	330.25
562.805	311.25
563.017	331.25
563.229	322.25
563.441	313.25
563.653	324.25
563.865	326.25
564.077	313.25
564.289	334.25
564.501	337.25
564.713	324.25
564.925	334.25
565.137	331.25
565.349	345.25
565.561	341.25
565.773	356.25
565.985	359.25
566.197	348.25
566.408	355.25
566.62	355.25
566.832	363.25
567.044	358.25
567.255	365.25
567.467	356.25
567.679	374.25
567.891	380.25
568.102	375.25
568.314	385.25
568.526	370.25
568.737	348.25
568.949	358.25
569.161	340.25
569.372	327.25
569.584	328.25
569.795	325.25
570.007	334.25
570.218	372.25
570.43	357.25
570.641	312.25
570.853	301.25
571.064	306.25
571.276	313.25
571.487	293.25
571.698	312.25
571.91	314.25
572.121	301.25
572.333	289.25
572.544	296.25
572.755	281.25
572.966	288.25
573.178	292.25
573.389	292.25
573.6	278.25
573.811	282.25
574.023	278.25
574.234	261.25
574.445	271.25
574.656	267.25
574.867	258.25
575.078	282.25
575.289	270.25
575.501	276.25
575.712	266.25
575.923	278.25
576.134	274.25
576.345	279.25
576.556	273.25
576.767	266.25
576.978	266.25
577.188	275.25
577.399	266.25
577.61	260.25
577.821	289.25
578.032	278.25
578.243	324.25
578.454	557.25
578.665	404.25
578.875	285.25
579.086	268.25
579.297	248.25
579.508	249.25
579.718	253.25
579.929	256.25
580.14	262.25
580.35	229.25
580.561	255.25
580.772	238.25
580.982	250.25
581.193	249.25
581.403	279.25
581.614	261.25
581.825	249.25
582.035	244.25
582.246	254.25
582.456	236.25
582.667	247.25
582.877	233.25
583.087	240.25
583.298	245.25
583.508	249.25
583.719	258.25
583.929	246.25
584.139	243.25
584.35	249.25
584.56	255.25
584.77	244.25
584.981	241.25
585.191	253.25
585.401	251.25
585.611	245.25
585.821	250.25
586.032	261.25
586.242	246.25
586.452	249.25
586.662	242.25
586.872	234.25
587.082	242.25
587.292	240.25
587.502	233.25
587.713	246.25
587.923	250.25
588.133	248.25
588.343	242.25
588.553	235.25
588.762	232.25
588.972	230.25
589.182	266.25
589.392	253.25
589.602	238.25
589.812	247.25
590.022	245.25
590.232	260.25
590.441	230.25
590.651	226.25
590.861	235.25
591.071	250.25
591.281	250.25
591.49	236.25
591.7	238.25
591.91	230.25
592.119	245.25
592.329	245.25
592.539	251.25
592.748	260.25
592.958	252.25
593.167	247.25
593.377	237.25
593.587	254.25
593.796	255.25
594.006	256.25
594.215	256.25
594.424	235.25
594.634	245.25
594.843	236.25
595.053	241.25
595.262	248.25
595.472	231.25
595.681	221.25
595.89	231.25
596.1	243.25
596.309	236.25
596.518	219.25
596.727	228.25
596.937	230.25
597.146	235.25
597.355	231.25
597.564	223.25
597.774	224.25
597.983	224.25
598.192	221.25
598.401	226.25
598.61	219.25
598.819	220.25
599.028	216.25
599.237	219.25
599.446	226.25
599.655	233.25
599.864	214.25
600.073	214.25
600.282	220.25
600.491	232.25
600.7	213.25
600.909	204.25
601.118	216.25
601.327	208.25
601.536	201.25
601.745	218.25
601.953	202.25
602.162	225.25
602.371	209.25
602.58	192.25
602.789	207.25
602.997	221.25
603.206	220.25
603.415	221.25
603.623	205.25
603.832	217.25
604.041	208.25
604.249	197.25
604.458	204.25
604.666	205.25
604.875	200.25
605.084	204.25
605.292	215.25
605.501	201.25
605.709	197.25
605.918	203.25
606.126	208.25
606.334	197.25
606.543	197.25
606.751	205.25
606.96	188.25
607.168	205.25
607.376	196.25
607.585	209.25
607.793	199.25
608.001	213.25
608.21	198.25
608.418	193.25
608.626	196.25
608.834	201.25
609.043	215.25
609.251	213.25
609.459	194.25
609.667	198.25
609.875	211.25
610.083	203.25
610.291	201.25
610.499	203.25
610.707	204.25
610.916	209.25
611.124	194.25
611.332	198.25
611.54	212.25
611.748	209.25
611.955	202.25
612.163	202.25
612.371	206.25
612.579	200.25
612.787	183.25
612.995	210.25
613.203	186.25
613.411	205.25
613.618	189.25
613.826	204.25
614.034	202.25
614.242	212.25
614.449	193.25
614.657	200.25
614.865	199.25
615.072	201.25
615.28	193.25
615.488	195.25
615.695	203.25
615.903	189.25
616.111	197.25
616.318	189.25
616.526	194.25
616.733	196.25
616.941	178.25
617.148	190.25
617.356	206.25
617.563	184.25
617.771	195.25
617.978	190.25
618.185	191.25
618.393	198.25
618.6	193.25
618.807	188.25
619.015	206.25
619.222	196.25
619.429	201.25
619.637	167.25
619.844	190.25
620.051	188.25
620.258	188.25
620.466	193.25
620.673	187.25
620.88	189.25
621.087	187.25
621.294	182.25
621.501	182.25
621.708	178.25
621.915	179.25
622.122	177.25
622.329	196.25
622.536	201.25
622.743	182.25
622.95	194.25
623.157	171.25
623.364	196.25
623.571	187.25
623.778	182.25
623.985	187.25
624.192	168.25
624.399	182.25
624.606	195.25
624.812	178.25
625.019	184.25
625.226	180.25
625.433	178.25
625.639	176.25
625.846	179.25
626.053	177.25
626.259	180.25
626.466	176.25
626.673	183.25
626.879	172.25
627.086	169.25
627.293	170.25
627.499	184.25
627.706	169.25
627.912	176.25
628.119	186.25
628.325	172.25
628.532	172.25
628.738	173.25
628.945	166.25
629.151	161.25
629.357	176.25
629.564	173.25
629.77	156.25
629.976	164.25
630.183	162.25
630.389	172.25
630.595	165.25
630.802	160.25
631.008	165.25
631.214	164.25
631.42	165.25
631.627	157.25
631.833	156.25
632.039	169.25
632.245	173.25
632.451	170.25
632.657	152.25
632.863	163.25
633.069	167.25
633.275	164.25
633.481	161.25
633.688	164.25
633.893	165.25
634.099	168.25
634.305	159.25
634.511	163.25
634.717	157.25
634.923	160.25
635.129	163.25
635.335	169.25
635.541	146.25
635.747	163.25
635.952	144.25
636.158	165.25
636.364	155.25
636.57	169.25
636.775	166.25
636.981	156.25
637.187	167.25
637.392	150.25
637.598	158.25
637.804	140.25
638.009	151.25
638.215	160.25
638.421	149.25
638.626	148.25
638.832	152.25
639.037	149.25
639.243	143.25
639.448	159.25
639.654	160.25
639.859	157.25
640.065	157.25
640.27	161.25
640.475	156.25
640.681	143.25
640.886	149.25
641.091	151.25
641.297	153.25
641.502	157.25
641.707	139.25
641.913	164.25
642.118	142.25
642.323	156.25
642.528	150.25
642.733	138.25
642.939	146.25
643.144	140.25
643.349	145.25
643.554	142.25
643.759	147.25
643.964	162.25
644.169	148.25
644.374	131.25
644.579	145.25
644.784	139.25
644.989	144.25
645.194	141.25
645.399	148.25
645.604	152.25
645.809	140.25
646.014	145.25
646.219	134.25
646.423	141.25
646.628	134.25
646.833	166.25
647.038	158.25
647.243	162.25
647.447	138.25
647.652	136.25
647.857	142.25
648.062	148.25
648.266	148.25
648.471	149.25
648.676	155.25
648.88	154.25
649.085	146.25
649.289	141.25
649.494	150.25
649.698	161.25
649.903	167.25
650.107	144.25
650.312	147.25
650.516	139.25
650.721	131.25
650.925	135.25
651.13	129.25
651.334	140.25
651.539	128.25
651.743	137.25
651.947	132.25
652.152	130.25
652.356	134.25
652.56	132.25
652.764	133.25
652.969	140.25
653.173	141.25
653.377	113.25
653.581	130.25
653.785	128.25
653.99	117.25
654.194	140.25
654.398	122.25
654.602	126.25
654.806	116.25
655.01	139.25
655.214	128.25
655.418	120.25
655.622	126.25
655.826	128.25
656.03	137.25
656.234	116.25
656.438	122.25
656.642	129.25
656.846	117.25
657.049	122.25
657.253	123.25
657.457	125.25
657.661	125.25
657.865	74.25
658.068	114.25
658.272	114.25
658.476	100.25
658.68	110.25
658.883	100.25
659.087	113.25
659.291	92.25
659.494	98.25
659.698	93.25
659.901	98.25
660.105	94.25
660.309	105.25
660.512	97.25
660.716	93.25
660.919	92.25
661.123	94.25
661.326	79.25
661.53	88.25
661.733	99.25
661.936	86.25
662.14	98.25
662.343	81.25
662.546	85.25
662.75	90.25
662.953	96.25
663.156	58.25
663.36	94.25
663.563	79.25
663.766	84.25
663.969	81.25
664.173	83.25
664.376	82.25
664.579	76.25
664.782	93.25
664.985	81.25
665.188	84.25
665.391	98.25
665.594	83.25
665.797	81.25
666	61.25
666.203	75.25
666.406	74.25
666.609	89.25
666.812	84.25
667.015	85.25
667.218	66.25
667.421	78.25
667.624	80.25
667.827	71.25
668.03	77.25
668.232	88.25
668.435	92.25
668.638	77.25
668.841	89.25
669.043	76.25
669.246	80.25
669.449	83.25
669.651	78.25
669.854	94.25
670.057	85.25
670.259	80.25
670.462	80.25
670.665	91.25
670.867	82.25
671.07	76.25
671.272	87.25
671.475	96.25
671.677	86.25
671.88	91.25
672.082	73.25
672.284	73.25
672.487	74.25
672.689	71.25
672.892	93.25
