Data from 1983.PennyLincolnUp.Lamp.En5.5.200Scan.071819.P1_HRD10591_16-52-20-965.txt Node
Date: Thu Jul 18 16:52:20 EDT 2019
User: cochatt
Spectrometer: HR+D1059
Trigger mode: 1
Integration Time (sec): 1.000000E-1
Scans to average: 1
Electric dark correction enabled: true
Nonlinearity correction enabled: false
Boxcar width: 0
XAxis mode: Wavelengths
Number of Pixels in Spectrum: 2048
>>>>>Begin Spectral Data<<<<<
223.165	-6.38
223.4	-6.38
223.635	-6.38
223.869	-22.38
224.104	-27.38
224.338	-14.38
224.573	-15.38
224.808	-10.38
225.042	-9.38
225.277	-9.38
225.511	-7.38
225.746	4.62
225.98	7.62
226.215	13.62
226.449	27.62
226.683	27.62
226.918	26.62
227.152	14.62
227.387	34.62
227.621	40.62
227.856	40.62
228.09	45.62
228.324	29.62
228.559	36.62
228.793	83.62
229.027	84.62
229.262	89.62
229.496	100.62
229.73	126.62
229.964	141.62
230.199	121.62
230.433	92.62
230.667	101.62
230.901	104.62
231.136	101.62
231.37	92.62
231.604	109.62
231.838	94.62
232.072	108.62
232.306	121.62
232.541	109.62
232.775	110.62
233.009	102.62
233.243	119.62
233.477	109.62
233.711	103.62
233.945	107.62
234.179	109.62
234.413	104.62
234.647	114.62
234.881	112.62
235.115	114.62
235.349	120.62
235.583	113.62
235.817	109.62
236.051	98.62
236.285	109.62
236.519	101.62
236.753	126.62
236.987	123.62
237.221	151.62
237.455	189.62
237.689	164.62
237.922	122.62
238.156	127.62
238.39	123.62
238.624	111.62
238.858	118.62
239.091	113.62
239.325	98.62
239.559	108.62
239.793	119.62
240.027	109.62
240.26	117.62
240.494	123.62
240.728	124.62
240.961	127.62
241.195	120.62
241.429	110.62
241.662	122.62
241.896	114.62
242.13	128.62
242.363	123.62
242.597	102.62
242.83	99.62
243.064	119.62
243.298	135.62
243.531	132.62
243.765	123.62
243.998	126.62
244.232	125.62
244.465	134.62
244.699	142.62
244.932	129.62
245.166	126.62
245.399	143.62
245.633	137.62
245.866	122.62
246.099	121.62
246.333	130.62
246.566	118.62
246.8	130.62
247.033	134.62
247.266	141.62
247.5	136.62
247.733	148.62
247.966	137.62
248.2	152.62
248.433	157.62
248.666	156.62
248.899	156.62
249.133	170.62
249.366	175.62
249.599	171.62
249.832	153.62
250.066	149.62
250.299	164.62
250.532	169.62
250.765	170.62
250.998	181.62
251.231	169.62
251.465	172.62
251.698	161.62
251.931	182.62
252.164	156.62
252.397	177.62
252.63	160.62
252.863	172.62
253.096	187.62
253.329	182.62
253.562	164.62
253.795	193.62
254.028	181.62
254.261	171.62
254.494	199.62
254.727	209.62
254.96	206.62
255.193	192.62
255.426	207.62
255.659	190.62
255.892	191.62
256.124	188.62
256.357	188.62
256.59	182.62
256.823	177.62
257.056	176.62
257.289	173.62
257.521	189.62
257.754	192.62
257.987	184.62
258.22	177.62
258.452	176.62
258.685	189.62
258.918	170.62
259.151	174.62
259.383	181.62
259.616	198.62
259.849	183.62
260.081	208.62
260.314	197.62
260.547	209.62
260.779	192.62
261.012	179.62
261.244	190.62
261.477	180.62
261.71	183.62
261.942	189.62
262.175	190.62
262.407	195.62
262.64	180.62
262.872	190.62
263.105	187.62
263.337	204.62
263.57	180.62
263.802	180.62
264.035	189.62
264.267	167.62
264.499	169.62
264.732	196.62
264.964	191.62
265.197	188.62
265.429	182.62
265.661	178.62
265.894	178.62
266.126	187.62
266.358	190.62
266.591	189.62
266.823	171.62
267.055	186.62
267.287	173.62
267.52	188.62
267.752	181.62
267.984	174.62
268.216	208.62
268.448	192.62
268.681	182.62
268.913	200.62
269.145	208.62
269.377	216.62
269.609	212.62
269.841	227.62
270.073	231.62
270.306	237.62
270.538	258.62
270.77	249.62
271.002	232.62
271.234	239.62
271.466	229.62
271.698	260.62
271.93	235.62
272.162	244.62
272.394	261.62
272.626	253.62
272.858	241.62
273.09	224.62
273.322	230.62
273.553	236.62
273.785	220.62
274.017	205.62
274.249	212.62
274.481	203.62
274.713	211.62
274.945	215.62
275.176	215.62
275.408	216.62
275.64	212.62
275.872	212.62
276.104	201.62
276.335	213.62
276.567	221.62
276.799	236.62
277.031	238.62
277.262	264.62
277.494	245.62
277.726	240.62
277.957	229.62
278.189	227.62
278.421	221.62
278.652	214.62
278.884	214.62
279.115	232.62
279.347	228.62
279.579	221.62
279.81	231.62
280.042	234.62
280.273	209.62
280.505	221.62
280.736	219.62
280.968	215.62
281.199	226.62
281.431	238.62
281.662	219.62
281.894	233.62
282.125	214.62
282.356	249.62
282.588	252.62
282.819	227.62
283.051	231.62
283.282	233.62
283.513	229.62
283.745	234.62
283.976	227.62
284.207	232.62
284.439	220.62
284.67	241.62
284.901	234.62
285.132	231.62
285.364	233.62
285.595	236.62
285.826	245.62
286.057	232.62
286.288	227.62
286.52	230.62
286.751	228.62
286.982	242.62
287.213	243.62
287.444	227.62
287.675	256.62
287.906	257.62
288.138	242.62
288.369	245.62
288.6	252.62
288.831	248.62
289.062	255.62
289.293	240.62
289.524	230.62
289.755	242.62
289.986	233.62
290.217	236.62
290.448	256.62
290.679	227.62
290.91	235.62
291.141	246.62
291.371	237.62
291.602	240.62
291.833	249.62
292.064	260.62
292.295	243.62
292.526	247.62
292.757	250.62
292.987	259.62
293.218	243.62
293.449	231.62
293.68	221.62
293.91	247.62
294.141	242.62
294.372	246.62
294.603	223.62
294.833	236.62
295.064	244.62
295.295	235.62
295.525	249.62
295.756	255.62
295.987	240.62
296.217	275.62
296.448	269.62
296.679	241.62
296.909	242.62
297.14	262.62
297.37	256.62
297.601	257.62
297.831	256.62
298.062	233.62
298.292	276.62
298.523	260.62
298.753	253.62
298.984	243.62
299.214	228.62
299.445	264.62
299.675	263.62
299.905	259.62
300.136	258.62
300.366	264.62
300.597	256.62
300.827	258.62
301.057	274.62
301.288	268.62
301.518	262.62
301.748	273.62
301.979	271.62
302.209	263.62
302.439	269.62
302.669	265.62
302.9	268.62
303.13	247.62
303.36	274.62
303.59	276.62
303.82	281.62
304.051	282.62
304.281	275.62
304.511	270.62
304.741	282.62
304.971	264.62
305.201	260.62
305.431	237.62
305.661	281.62
305.891	297.62
306.121	283.62
306.352	268.62
306.582	264.62
306.812	269.62
307.042	257.62
307.272	294.62
307.502	281.62
307.731	274.62
307.961	267.62
308.191	273.62
308.421	276.62
308.651	266.62
308.881	274.62
309.111	286.62
309.341	273.62
309.571	293.62
309.8	281.62
310.03	291.62
310.26	292.62
310.49	304.62
310.72	322.62
310.949	328.62
311.179	306.62
311.409	300.62
311.639	299.62
311.868	310.62
312.098	306.62
312.328	310.62
312.557	324.62
312.787	325.62
313.017	299.62
313.246	321.62
313.476	302.62
313.706	323.62
313.935	292.62
314.165	320.62
314.394	315.62
314.624	326.62
314.853	310.62
315.083	328.62
315.312	313.62
315.542	294.62
315.771	306.62
316.001	310.62
316.23	310.62
316.46	304.62
316.689	324.62
316.919	321.62
317.148	313.62
317.377	318.62
317.607	325.62
317.836	318.62
318.065	328.62
318.295	300.62
318.524	307.62
318.753	315.62
318.983	292.62
319.212	321.62
319.441	321.62
319.67	321.62
319.9	317.62
320.129	319.62
320.358	317.62
320.587	313.62
320.816	332.62
321.046	333.62
321.275	328.62
321.504	305.62
321.733	332.62
321.962	320.62
322.191	338.62
322.42	347.62
322.649	342.62
322.878	358.62
323.108	378.62
323.337	389.62
323.566	384.62
323.795	414.62
324.024	434.62
324.253	528.62
324.482	708.62
324.71	1058.62
324.939	1445.62
325.168	1196.62
325.397	645.62
325.626	483.62
325.855	414.62
326.084	412.62
326.313	391.62
326.542	403.62
326.77	421.62
326.999	492.62
327.228	651.62
327.457	938.62
327.686	1065.62
327.914	741.62
328.143	522.62
328.372	454.62
328.6	448.62
328.829	427.62
329.058	435.62
329.287	434.62
329.515	409.62
329.744	391.62
329.972	370.62
330.201	378.62
330.43	419.62
330.658	418.62
330.887	445.62
331.115	443.62
331.344	387.62
331.572	371.62
331.801	386.62
332.03	367.62
332.258	357.62
332.486	363.62
332.715	363.62
332.943	359.62
333.172	353.62
333.4	363.62
333.629	358.62
333.857	385.62
334.085	353.62
334.314	370.62
334.542	363.62
334.771	384.62
334.999	363.62
335.227	354.62
335.455	360.62
335.684	350.62
335.912	371.62
336.14	354.62
336.369	351.62
336.597	374.62
336.825	370.62
337.053	374.62
337.281	347.62
337.51	353.62
337.738	359.62
337.966	335.62
338.194	345.62
338.422	344.62
338.65	359.62
338.878	349.62
339.106	347.62
339.334	349.62
339.562	354.62
339.79	350.62
340.018	359.62
340.246	332.62
340.474	348.62
340.702	335.62
340.93	340.62
341.158	338.62
341.386	341.62
341.614	350.62
341.842	336.62
342.07	338.62
342.298	346.62
342.526	342.62
342.754	330.62
342.981	339.62
343.209	359.62
343.437	333.62
343.665	357.62
343.893	361.62
344.12	350.62
344.348	357.62
344.576	353.62
344.804	360.62
345.031	377.62
345.259	384.62
345.487	352.62
345.714	359.62
345.942	345.62
346.17	341.62
346.397	327.62
346.625	354.62
346.853	324.62
347.08	332.62
347.308	340.62
347.535	345.62
347.763	330.62
347.99	352.62
348.218	352.62
348.445	341.62
348.673	334.62
348.9	358.62
349.128	323.62
349.355	335.62
349.583	331.62
349.81	305.62
350.037	327.62
350.265	317.62
350.492	317.62
350.72	337.62
350.947	327.62
351.174	328.62
351.402	334.62
351.629	359.62
351.856	341.62
352.083	353.62
352.311	358.62
352.538	344.62
352.765	332.62
352.992	331.62
353.22	319.62
353.447	332.62
353.674	316.62
353.901	331.62
354.128	322.62
354.355	305.62
354.583	326.62
354.81	334.62
355.037	328.62
355.264	307.62
355.491	309.62
355.718	324.62
355.945	319.62
356.172	328.62
356.399	308.62
356.626	281.62
356.853	312.62
357.08	329.62
357.307	316.62
357.534	313.62
357.761	298.62
357.988	320.62
358.215	321.62
358.441	307.62
358.668	304.62
358.895	330.62
359.122	328.62
359.349	318.62
359.576	354.62
359.802	345.62
360.029	370.62
360.256	372.62
360.483	341.62
360.709	331.62
360.936	328.62
361.163	332.62
361.39	346.62
361.616	320.62
361.843	325.62
362.07	332.62
362.296	331.62
362.523	331.62
362.749	342.62
362.976	340.62
363.203	345.62
363.429	322.62
363.656	345.62
363.882	333.62
364.109	317.62
364.335	310.62
364.562	304.62
364.788	327.62
365.015	319.62
365.241	334.62
365.468	333.62
365.694	324.62
365.92	336.62
366.147	319.62
366.373	314.62
366.599	344.62
366.826	330.62
367.052	330.62
367.278	338.62
367.505	315.62
367.731	320.62
367.957	330.62
368.184	326.62
368.41	312.62
368.636	344.62
368.862	331.62
369.089	339.62
369.315	342.62
369.541	321.62
369.767	319.62
369.993	330.62
370.219	313.62
370.445	313.62
370.672	309.62
370.898	316.62
371.124	320.62
371.35	328.62
371.576	327.62
371.802	318.62
372.028	314.62
372.254	323.62
372.48	323.62
372.706	325.62
372.932	337.62
373.158	342.62
373.384	323.62
373.61	311.62
373.835	342.62
374.061	337.62
374.287	323.62
374.513	335.62
374.739	340.62
374.965	334.62
375.191	337.62
375.416	327.62
375.642	340.62
375.868	312.62
376.094	329.62
376.319	332.62
376.545	314.62
376.771	324.62
376.997	328.62
377.222	321.62
377.448	320.62
377.674	318.62
377.899	314.62
378.125	320.62
378.35	344.62
378.576	325.62
378.802	332.62
379.027	318.62
379.253	310.62
379.478	332.62
379.704	329.62
379.929	341.62
380.155	324.62
380.38	330.62
380.606	320.62
380.831	338.62
381.057	320.62
381.282	304.62
381.507	313.62
381.733	315.62
381.958	323.62
382.184	335.62
382.409	347.62
382.634	327.62
382.86	341.62
383.085	337.62
383.31	345.62
383.535	339.62
383.761	332.62
383.986	332.62
384.211	343.62
384.436	336.62
384.662	350.62
384.887	341.62
385.112	353.62
385.337	345.62
385.562	356.62
385.787	353.62
386.013	347.62
386.238	338.62
386.463	355.62
386.688	358.62
386.913	341.62
387.138	343.62
387.363	348.62
387.588	330.62
387.813	346.62
388.038	343.62
388.263	358.62
388.488	366.62
388.713	350.62
388.938	331.62
389.163	358.62
389.387	349.62
389.612	338.62
389.837	352.62
390.062	349.62
390.287	344.62
390.512	347.62
390.736	335.62
390.961	360.62
391.186	351.62
391.411	360.62
391.636	336.62
391.86	363.62
392.085	348.62
392.31	355.62
392.534	345.62
392.759	360.62
392.984	349.62
393.208	354.62
393.433	343.62
393.658	362.62
393.882	370.62
394.107	342.62
394.331	349.62
394.556	335.62
394.78	372.62
395.005	370.62
395.229	348.62
395.454	338.62
395.678	389.62
395.903	379.62
396.127	361.62
396.352	380.62
396.576	348.62
396.801	360.62
397.025	379.62
397.249	384.62
397.474	364.62
397.698	396.62
397.922	369.62
398.147	389.62
398.371	398.62
398.595	401.62
398.82	378.62
399.044	401.62
399.268	422.62
399.492	418.62
399.717	447.62
399.941	455.62
400.165	472.62
400.389	496.62
400.613	410.62
400.837	407.62
401.062	417.62
401.286	392.62
401.51	380.62
401.734	382.62
401.958	391.62
402.182	407.62
402.406	407.62
402.63	408.62
402.854	393.62
403.078	403.62
403.302	385.62
403.526	408.62
403.75	399.62
403.974	417.62
404.198	392.62
404.422	426.62
404.645	404.62
404.869	406.62
405.093	424.62
405.317	456.62
405.541	446.62
405.765	421.62
405.988	439.62
406.212	443.62
406.436	445.62
406.66	432.62
406.883	436.62
407.107	440.62
407.331	481.62
407.555	527.62
407.778	530.62
408.002	464.62
408.226	434.62
408.449	452.62
408.673	421.62
408.896	453.62
409.12	487.62
409.344	463.62
409.567	416.62
409.791	393.62
410.014	401.62
410.238	391.62
410.461	421.62
410.685	414.62
410.908	434.62
411.132	440.62
411.355	436.62
411.578	441.62
411.802	420.62
412.025	402.62
412.249	380.62
412.472	409.62
412.695	409.62
412.919	404.62
413.142	395.62
413.365	404.62
413.589	394.62
413.812	384.62
414.035	381.62
414.258	382.62
414.482	372.62
414.705	392.62
414.928	403.62
415.151	390.62
415.374	397.62
415.597	378.62
415.821	376.62
416.044	390.62
416.267	388.62
416.49	357.62
416.713	376.62
416.936	380.62
417.159	378.62
417.382	382.62
417.605	388.62
417.828	380.62
418.051	383.62
418.274	404.62
418.497	361.62
418.72	396.62
418.943	370.62
419.166	378.62
419.389	408.62
419.611	404.62
419.834	409.62
420.057	388.62
420.28	396.62
420.503	395.62
420.726	394.62
420.948	421.62
421.171	424.62
421.394	450.62
421.617	439.62
421.839	385.62
422.062	413.62
422.285	402.62
422.507	465.62
422.73	484.62
422.953	476.62
423.175	426.62
423.398	414.62
423.621	405.62
423.843	440.62
424.066	450.62
424.288	432.62
424.511	445.62
424.733	490.62
424.956	551.62
425.178	488.62
425.401	496.62
425.623	540.62
425.846	438.62
426.068	406.62
426.291	403.62
426.513	424.62
426.735	426.62
426.958	461.62
427.18	506.62
427.402	596.62
427.625	656.62
427.847	566.62
428.069	478.62
428.292	459.62
428.514	419.62
428.736	406.62
428.958	399.62
429.181	377.62
429.403	377.62
429.625	392.62
429.847	426.62
430.069	460.62
430.292	448.62
430.514	406.62
430.736	404.62
430.958	380.62
431.18	399.62
431.402	386.62
431.624	378.62
431.846	376.62
432.068	361.62
432.29	380.62
432.512	376.62
432.734	380.62
432.956	372.62
433.178	386.62
433.4	391.62
433.622	380.62
433.844	375.62
434.066	368.62
434.287	374.62
434.509	381.62
434.731	394.62
434.953	390.62
435.175	401.62
435.397	412.62
435.618	432.62
435.84	451.62
436.062	524.62
436.284	564.62
436.505	494.62
436.727	437.62
436.949	394.62
437.17	402.62
437.392	398.62
437.614	406.62
437.835	429.62
438.057	504.62
438.278	552.62
438.5	562.62
438.721	605.62
438.943	577.62
439.165	466.62
439.386	441.62
439.608	413.62
439.829	445.62
440.05	439.62
440.272	483.62
440.493	440.62
440.715	411.62
440.936	410.62
441.158	406.62
441.379	396.62
441.6	409.62
441.822	436.62
442.043	457.62
442.264	511.62
442.486	549.62
442.707	438.62
442.928	449.62
443.149	457.62
443.371	436.62
443.592	483.62
443.813	568.62
444.034	585.62
444.255	486.62
444.476	439.62
444.698	444.62
444.919	436.62
445.14	543.62
445.361	478.62
445.582	468.62
445.803	508.62
446.024	578.62
446.245	571.62
446.466	500.62
446.687	454.62
446.908	440.62
447.129	404.62
447.35	402.62
447.571	387.62
447.792	412.62
448.013	396.62
448.234	398.62
448.455	426.62
448.675	536.62
448.896	619.62
449.117	507.62
449.338	486.62
449.559	580.62
449.779	625.62
450	496.62
450.221	411.62
450.442	409.62
450.662	381.62
450.883	399.62
451.104	408.62
451.324	379.62
451.545	369.62
451.766	370.62
451.986	349.62
452.207	359.62
452.428	354.62
452.648	350.62
452.869	359.62
453.089	371.62
453.31	372.62
453.53	373.62
453.751	365.62
453.971	364.62
454.192	378.62
454.412	353.62
454.633	331.62
454.853	349.62
455.073	349.62
455.294	397.62
455.514	410.62
455.734	389.62
455.955	363.62
456.175	348.62
456.395	325.62
456.616	359.62
456.836	346.62
457.056	344.62
457.276	351.62
457.497	360.62
457.717	316.62
457.937	334.62
458.157	361.62
458.377	346.62
458.598	371.62
458.818	408.62
459.038	461.62
459.258	453.62
459.478	410.62
459.698	370.62
459.918	366.62
460.138	391.62
460.358	375.62
460.578	386.62
460.798	390.62
461.018	373.62
461.238	384.62
461.458	388.62
461.678	372.62
461.898	389.62
462.118	391.62
462.338	396.62
462.558	407.62
462.777	386.62
462.997	404.62
463.217	412.62
463.437	422.62
463.657	405.62
463.876	405.62
464.096	416.62
464.316	413.62
464.536	410.62
464.755	411.62
464.975	437.62
465.195	422.62
465.414	461.62
465.634	442.62
465.854	404.62
466.073	407.62
466.293	385.62
466.512	380.62
466.732	371.62
466.951	384.62
467.171	368.62
467.391	369.62
467.61	365.62
467.829	394.62
468.049	370.62
468.268	362.62
468.488	340.62
468.707	372.62
468.927	368.62
469.146	339.62
469.365	360.62
469.585	363.62
469.804	353.62
470.023	361.62
470.243	376.62
470.462	388.62
470.681	413.62
470.901	382.62
471.12	355.62
471.339	360.62
471.558	359.62
471.777	365.62
471.997	359.62
472.216	381.62
472.435	388.62
472.654	377.62
472.873	364.62
473.092	349.62
473.311	364.62
473.53	369.62
473.749	380.62
473.968	410.62
474.187	472.62
474.406	470.62
474.625	420.62
474.844	385.62
475.063	384.62
475.282	378.62
475.501	384.62
475.72	388.62
475.939	373.62
476.158	374.62
476.377	384.62
476.596	379.62
476.814	377.62
477.033	380.62
477.252	382.62
477.471	378.62
477.69	388.62
477.908	388.62
478.127	405.62
478.346	412.62
478.564	399.62
478.783	407.62
479.002	417.62
479.22	408.62
479.439	440.62
479.658	454.62
479.876	452.62
480.095	458.62
480.313	467.62
480.532	429.62
480.751	454.62
480.969	444.62
481.188	451.62
481.406	465.62
481.624	434.62
481.843	421.62
482.061	418.62
482.28	427.62
482.498	434.62
482.717	417.62
482.935	423.62
483.153	421.62
483.372	448.62
483.59	435.62
483.808	422.62
484.027	430.62
484.245	434.62
484.463	420.62
484.681	448.62
484.9	443.62
485.118	460.62
485.336	445.62
485.554	416.62
485.772	448.62
485.99	445.62
486.209	469.62
486.427	450.62
486.645	445.62
486.863	440.62
487.081	465.62
487.299	449.62
487.517	458.62
487.735	454.62
487.953	462.62
488.171	441.62
488.389	437.62
488.607	438.62
488.825	465.62
489.043	453.62
489.261	434.62
489.479	459.62
489.696	462.62
489.914	470.62
490.132	452.62
490.35	471.62
490.568	477.62
490.786	499.62
491.003	500.62
491.221	507.62
491.439	498.62
491.657	512.62
491.874	532.62
492.092	523.62
492.31	530.62
492.527	536.62
492.745	531.62
492.963	534.62
493.18	515.62
493.398	520.62
493.615	533.62
493.833	546.62
494.05	514.62
494.268	547.62
494.485	536.62
494.703	542.62
494.92	512.62
495.138	521.62
495.355	538.62
495.573	536.62
495.79	527.62
496.008	549.62
496.225	536.62
496.442	538.62
496.66	547.62
496.877	544.62
497.094	535.62
497.312	545.62
497.529	539.62
497.746	565.62
497.963	585.62
498.181	574.62
498.398	585.62
498.615	597.62
498.832	621.62
499.049	615.62
499.267	632.62
499.484	633.62
499.701	679.62
499.918	676.62
500.135	703.62
500.352	701.62
500.569	760.62
500.786	746.62
501.003	734.62
501.22	717.62
501.437	708.62
501.654	650.62
501.871	662.62
502.088	644.62
502.305	636.62
502.522	622.62
502.739	604.62
502.956	592.62
503.172	565.62
503.389	558.62
503.606	557.62
503.823	558.62
504.04	534.62
504.256	531.62
504.473	562.62
504.69	551.62
504.907	555.62
505.123	541.62
505.34	536.62
505.557	518.62
505.773	525.62
505.99	514.62
506.207	508.62
506.423	533.62
506.64	508.62
506.856	501.62
507.073	522.62
507.289	493.62
507.506	483.62
507.722	490.62
507.939	509.62
508.155	508.62
508.372	475.62
508.588	498.62
508.805	508.62
509.021	498.62
509.238	487.62
509.454	506.62
509.67	500.62
509.887	491.62
510.103	490.62
510.319	491.62
510.536	546.62
510.752	867.62
510.968	717.62
511.184	487.62
511.401	490.62
511.617	466.62
511.833	445.62
512.049	459.62
512.265	467.62
512.481	439.62
512.698	449.62
512.914	452.62
513.13	469.62
513.346	445.62
513.562	454.62
513.778	461.62
513.994	459.62
514.21	461.62
514.426	488.62
514.642	508.62
514.858	530.62
515.074	562.62
515.29	658.62
515.506	885.62
515.721	763.62
515.937	546.62
516.153	488.62
516.369	471.62
516.585	460.62
516.801	466.62
517.016	468.62
517.232	461.62
517.448	481.62
517.664	480.62
517.879	479.62
518.095	492.62
518.311	479.62
518.527	454.62
518.742	443.62
518.958	445.62
519.173	461.62
519.389	480.62
519.605	456.62
519.82	473.62
520.036	461.62
520.251	484.62
520.467	495.62
520.682	480.62
520.898	498.62
521.113	504.62
521.329	534.62
521.544	580.62
521.76	747.62
521.975	1130.62
522.19	1157.62
522.406	666.62
522.621	502.62
522.836	475.62
523.052	444.62
523.267	429.62
523.482	425.62
523.698	416.62
523.913	432.62
524.128	418.62
524.343	442.62
524.559	395.62
524.774	397.62
524.989	407.62
525.204	416.62
525.419	405.62
525.634	406.62
525.849	416.62
526.064	389.62
526.28	392.62
526.495	392.62
526.71	385.62
526.925	396.62
527.14	401.62
527.355	388.62
527.57	362.62
527.785	365.62
527.999	373.62
528.214	373.62
528.429	384.62
528.644	410.62
528.859	372.62
529.074	400.62
529.289	400.62
529.503	442.62
529.718	452.62
529.933	400.62
530.148	397.62
530.363	405.62
530.577	385.62
530.792	385.62
531.007	373.62
531.221	387.62
531.436	368.62
531.651	376.62
531.865	356.62
532.08	377.62
532.295	356.62
532.509	353.62
532.724	364.62
532.938	382.62
533.153	354.62
533.367	342.62
533.582	376.62
533.796	384.62
534.011	350.62
534.225	376.62
534.44	357.62
534.654	349.62
534.868	346.62
535.083	354.62
535.297	371.62
535.511	361.62
535.726	363.62
535.94	371.62
536.154	368.62
536.369	355.62
536.583	358.62
536.797	364.62
537.011	348.62
537.225	362.62
537.44	359.62
537.654	357.62
537.868	353.62
538.082	351.62
538.296	364.62
538.51	350.62
538.724	358.62
538.938	354.62
539.153	338.62
539.367	376.62
539.581	360.62
539.795	332.62
540.009	340.62
540.222	356.62
540.436	363.62
540.65	361.62
540.864	337.62
541.078	354.62
541.292	371.62
541.506	378.62
541.72	372.62
541.934	366.62
542.147	370.62
542.361	346.62
542.575	338.62
542.789	340.62
543.002	341.62
543.216	348.62
543.43	341.62
543.644	357.62
543.857	341.62
544.071	353.62
544.285	366.62
544.498	362.62
544.712	342.62
544.925	350.62
545.139	344.62
545.352	338.62
545.566	350.62
545.779	353.62
545.993	358.62
546.206	350.62
546.42	354.62
546.633	366.62
546.847	337.62
547.06	346.62
547.274	332.62
547.487	354.62
547.7	349.62
547.914	339.62
548.127	349.62
548.34	326.62
548.554	326.62
548.767	326.62
548.98	344.62
549.193	323.62
549.407	349.62
549.62	331.62
549.833	350.62
550.046	346.62
550.259	333.62
550.473	329.62
550.686	353.62
550.899	333.62
551.112	323.62
551.325	317.62
551.538	332.62
551.751	317.62
551.964	330.62
552.177	337.62
552.39	330.62
552.603	324.62
552.816	345.62
553.029	346.62
553.242	353.62
553.455	331.62
553.667	351.62
553.88	341.62
554.093	353.62
554.306	331.62
554.519	347.62
554.732	328.62
554.944	329.62
555.157	316.62
555.37	308.62
555.583	323.62
555.795	328.62
556.008	314.62
556.221	319.62
556.433	309.62
556.646	315.62
556.859	322.62
557.071	309.62
557.284	296.62
557.496	312.62
557.709	313.62
557.921	291.62
558.134	300.62
558.346	297.62
558.559	316.62
558.771	281.62
558.984	301.62
559.196	303.62
559.409	322.62
559.621	308.62
559.833	310.62
560.046	306.62
560.258	285.62
560.47	303.62
560.683	312.62
560.895	314.62
561.107	297.62
561.32	302.62
561.532	300.62
561.744	284.62
561.956	282.62
562.168	301.62
562.381	312.62
562.593	319.62
562.805	300.62
563.017	315.62
563.229	294.62
563.441	312.62
563.653	325.62
563.865	308.62
564.077	321.62
564.289	312.62
564.501	299.62
564.713	318.62
564.925	336.62
565.137	323.62
565.349	318.62
565.561	326.62
565.773	325.62
565.985	331.62
566.197	339.62
566.408	344.62
566.62	334.62
566.832	369.62
567.044	353.62
567.255	372.62
567.467	372.62
567.679	357.62
567.891	376.62
568.102	347.62
568.314	350.62
568.526	357.62
568.737	334.62
568.949	354.62
569.161	314.62
569.372	304.62
569.584	319.62
569.795	316.62
570.007	312.62
570.218	324.62
570.43	312.62
570.641	294.62
570.853	278.62
571.064	282.62
571.276	290.62
571.487	301.62
571.698	278.62
571.91	277.62
572.121	264.62
572.333	280.62
572.544	278.62
572.755	299.62
572.966	278.62
573.178	260.62
573.389	273.62
573.6	278.62
573.811	263.62
574.023	292.62
574.234	285.62
574.445	247.62
574.656	257.62
574.867	257.62
575.078	233.62
575.289	249.62
575.501	266.62
575.712	266.62
575.923	264.62
576.134	253.62
576.345	256.62
576.556	260.62
576.767	254.62
576.978	248.62
577.188	274.62
577.399	261.62
577.61	276.62
577.821	258.62
578.032	273.62
578.243	283.62
578.454	432.62
578.665	304.62
578.875	256.62
579.086	243.62
579.297	259.62
579.508	241.62
579.718	245.62
579.929	241.62
580.14	250.62
580.35	226.62
580.561	237.62
580.772	242.62
580.982	227.62
581.193	235.62
581.403	253.62
581.614	246.62
581.825	245.62
582.035	234.62
582.246	256.62
582.456	248.62
582.667	235.62
582.877	221.62
583.087	219.62
583.298	250.62
583.508	235.62
583.719	235.62
583.929	244.62
584.139	226.62
584.35	224.62
584.56	232.62
584.77	244.62
584.981	234.62
585.191	240.62
585.401	226.62
585.611	259.62
585.821	215.62
586.032	230.62
586.242	217.62
586.452	235.62
586.662	223.62
586.872	219.62
587.082	229.62
587.292	230.62
587.502	214.62
587.713	209.62
587.923	233.62
588.133	223.62
588.343	232.62
588.553	218.62
588.762	250.62
588.972	218.62
589.182	235.62
589.392	250.62
589.602	240.62
589.812	233.62
590.022	237.62
590.232	244.62
590.441	232.62
590.651	214.62
590.861	228.62
591.071	208.62
591.281	219.62
591.49	227.62
591.7	234.62
591.91	245.62
592.119	222.62
592.329	223.62
592.539	235.62
592.748	242.62
592.958	258.62
593.167	241.62
593.377	237.62
593.587	248.62
593.796	262.62
594.006	244.62
594.215	233.62
594.424	256.62
594.634	246.62
594.843	256.62
595.053	244.62
595.262	218.62
595.472	229.62
595.681	230.62
595.89	222.62
596.1	235.62
596.309	217.62
596.518	243.62
596.727	224.62
596.937	220.62
597.146	208.62
597.355	217.62
597.564	214.62
597.774	213.62
597.983	220.62
598.192	206.62
598.401	224.62
598.61	203.62
598.819	230.62
599.028	219.62
599.237	216.62
599.446	204.62
599.655	192.62
599.864	200.62
600.073	209.62
600.282	206.62
600.491	213.62
600.7	197.62
600.909	188.62
601.118	208.62
601.327	206.62
601.536	207.62
601.745	206.62
601.953	194.62
602.162	207.62
602.371	207.62
602.58	198.62
602.789	198.62
602.997	195.62
603.206	210.62
603.415	194.62
603.623	207.62
603.832	202.62
604.041	205.62
604.249	208.62
604.458	189.62
604.666	196.62
604.875	189.62
605.084	205.62
605.292	192.62
605.501	187.62
605.709	192.62
605.918	189.62
606.126	206.62
606.334	204.62
606.543	208.62
606.751	192.62
606.96	197.62
607.168	210.62
607.376	184.62
607.585	193.62
607.793	196.62
608.001	206.62
608.21	209.62
608.418	189.62
608.626	191.62
608.834	198.62
609.043	178.62
609.251	196.62
609.459	203.62
609.667	181.62
609.875	192.62
610.083	181.62
610.291	180.62
610.499	184.62
610.707	201.62
610.916	184.62
611.124	199.62
611.332	205.62
611.54	194.62
611.748	204.62
611.955	197.62
612.163	189.62
612.371	197.62
612.579	181.62
612.787	178.62
612.995	195.62
613.203	180.62
613.411	197.62
613.618	193.62
613.826	178.62
614.034	184.62
614.242	185.62
614.449	191.62
614.657	203.62
614.865	186.62
615.072	193.62
615.28	184.62
615.488	193.62
615.695	202.62
615.903	211.62
616.111	192.62
616.318	189.62
616.526	188.62
616.733	178.62
616.941	178.62
617.148	190.62
617.356	197.62
617.563	177.62
617.771	196.62
617.978	208.62
618.185	193.62
618.393	201.62
618.6	176.62
618.807	188.62
619.015	174.62
619.222	193.62
619.429	185.62
619.637	192.62
619.844	180.62
620.051	195.62
620.258	168.62
620.466	167.62
620.673	192.62
620.88	162.62
621.087	176.62
621.294	165.62
621.501	182.62
621.708	180.62
621.915	175.62
622.122	167.62
622.329	196.62
622.536	171.62
622.743	181.62
622.95	185.62
623.157	188.62
623.364	174.62
623.571	179.62
623.778	179.62
623.985	172.62
624.192	164.62
624.399	162.62
624.606	171.62
624.812	169.62
625.019	181.62
625.226	194.62
625.433	164.62
625.639	177.62
625.846	189.62
626.053	162.62
626.259	168.62
626.466	178.62
626.673	150.62
626.879	168.62
627.086	161.62
627.293	168.62
627.499	164.62
627.706	171.62
627.912	178.62
628.119	165.62
628.325	173.62
628.532	160.62
628.738	146.62
628.945	170.62
629.151	162.62
629.357	163.62
629.564	181.62
629.77	147.62
629.976	158.62
630.183	164.62
630.389	182.62
630.595	151.62
630.802	162.62
631.008	156.62
631.214	162.62
631.42	152.62
631.627	158.62
631.833	173.62
632.039	164.62
632.245	161.62
632.451	153.62
632.657	158.62
632.863	152.62
633.069	170.62
633.275	167.62
633.481	158.62
633.688	162.62
633.893	152.62
634.099	158.62
634.305	156.62
634.511	156.62
634.717	152.62
634.923	149.62
635.129	162.62
635.335	152.62
635.541	141.62
635.747	153.62
635.952	145.62
636.158	149.62
636.364	167.62
636.57	158.62
636.775	159.62
636.981	157.62
637.187	152.62
637.392	148.62
637.598	147.62
637.804	143.62
638.009	159.62
638.215	161.62
638.421	149.62
638.626	149.62
638.832	145.62
639.037	145.62
639.243	153.62
639.448	143.62
639.654	153.62
639.859	135.62
640.065	167.62
640.27	169.62
640.475	148.62
640.681	142.62
640.886	135.62
641.091	148.62
641.297	135.62
641.502	158.62
641.707	139.62
641.913	164.62
642.118	147.62
642.323	153.62
642.528	140.62
642.733	140.62
642.939	149.62
643.144	146.62
643.349	137.62
643.554	150.62
643.759	142.62
643.964	151.62
644.169	154.62
644.374	148.62
644.579	143.62
644.784	138.62
644.989	128.62
645.194	138.62
645.399	143.62
645.604	146.62
645.809	133.62
646.014	137.62
646.219	148.62
646.423	144.62
646.628	153.62
646.833	154.62
647.038	139.62
647.243	142.62
647.447	159.62
647.652	145.62
647.857	135.62
648.062	154.62
648.266	160.62
648.471	166.62
648.676	133.62
648.88	136.62
649.085	130.62
649.289	136.62
649.494	145.62
649.698	166.62
649.903	166.62
650.107	141.62
650.312	151.62
650.516	131.62
650.721	148.62
650.925	125.62
651.13	138.62
651.334	136.62
651.539	127.62
651.743	136.62
651.947	146.62
652.152	135.62
652.356	130.62
652.56	143.62
652.764	130.62
652.969	126.62
653.173	133.62
653.377	122.62
653.581	128.62
653.785	139.62
653.99	128.62
654.194	132.62
654.398	126.62
654.602	122.62
654.806	114.62
655.01	127.62
655.214	128.62
655.418	125.62
655.622	143.62
655.826	116.62
656.03	137.62
656.234	109.62
656.438	125.62
656.642	132.62
656.846	121.62
657.049	113.62
657.253	134.62
657.457	115.62
657.661	104.62
657.865	105.62
658.068	110.62
658.272	98.62
658.476	108.62
658.68	86.62
658.883	96.62
659.087	78.62
659.291	96.62
659.494	94.62
659.698	89.62
659.901	93.62
660.105	107.62
660.309	95.62
660.512	101.62
660.716	102.62
660.919	88.62
661.123	90.62
661.326	92.62
661.53	99.62
661.733	83.62
661.936	101.62
662.14	97.62
662.343	84.62
662.546	73.62
662.75	81.62
662.953	99.62
663.156	80.62
663.36	85.62
663.563	67.62
663.766	84.62
663.969	86.62
664.173	89.62
664.376	87.62
664.579	83.62
664.782	86.62
664.985	86.62
665.188	83.62
665.391	84.62
665.594	80.62
665.797	73.62
666	79.62
666.203	76.62
666.406	88.62
666.609	91.62
666.812	89.62
667.015	69.62
667.218	77.62
667.421	82.62
667.624	94.62
667.827	94.62
668.03	92.62
668.232	75.62
668.435	73.62
668.638	72.62
668.841	99.62
669.043	90.62
669.246	96.62
669.449	84.62
669.651	79.62
669.854	74.62
670.057	76.62
670.259	87.62
670.462	80.62
670.665	84.62
670.867	81.62
671.07	66.62
671.272	101.62
671.475	86.62
671.677	78.62
671.88	86.62
672.082	86.62
672.284	93.62
672.487	93.62
672.689	76.62
672.892	90.62
