Data from 1983.PennyLincolnUp.Lamp.En5.5.200Scan.071819.P1_HRD10591_16-53-16-965.txt Node
Date: Thu Jul 18 16:53:16 EDT 2019
User: cochatt
Spectrometer: HR+D1059
Trigger mode: 1
Integration Time (sec): 1.000000E-1
Scans to average: 1
Electric dark correction enabled: true
Nonlinearity correction enabled: false
Boxcar width: 0
XAxis mode: Wavelengths
Number of Pixels in Spectrum: 2048
>>>>>Begin Spectral Data<<<<<
223.165	-15.19
223.4	-15.19
223.635	-15.19
223.869	-14.19
224.104	-18.19
224.338	-13.19
224.573	-26.19
224.808	-28.19
225.042	-0.19
225.277	6.81
225.511	-7.19
225.746	7.81
225.98	1.81
226.215	3.81
226.449	12.81
226.683	15.81
226.918	38.81
227.152	34.81
227.387	23.81
227.621	41.81
227.856	38.81
228.09	49.81
228.324	45.81
228.559	42.81
228.793	63.81
229.027	94.81
229.262	91.81
229.496	108.81
229.73	127.81
229.964	128.81
230.199	126.81
230.433	109.81
230.667	96.81
230.901	103.81
231.136	99.81
231.37	95.81
231.604	121.81
231.838	103.81
232.072	110.81
232.306	92.81
232.541	108.81
232.775	107.81
233.009	100.81
233.243	93.81
233.477	112.81
233.711	119.81
233.945	102.81
234.179	128.81
234.413	105.81
234.647	132.81
234.881	118.81
235.115	110.81
235.349	108.81
235.583	105.81
235.817	122.81
236.051	119.81
236.285	110.81
236.519	117.81
236.753	130.81
236.987	125.81
237.221	162.81
237.455	189.81
237.689	157.81
237.922	141.81
238.156	121.81
238.39	126.81
238.624	117.81
238.858	114.81
239.091	104.81
239.325	128.81
239.559	128.81
239.793	118.81
240.027	123.81
240.26	124.81
240.494	133.81
240.728	151.81
240.961	144.81
241.195	138.81
241.429	125.81
241.662	122.81
241.896	120.81
242.13	122.81
242.363	132.81
242.597	134.81
242.83	123.81
243.064	125.81
243.298	130.81
243.531	130.81
243.765	135.81
243.998	139.81
244.232	126.81
244.465	134.81
244.699	151.81
244.932	128.81
245.166	127.81
245.399	134.81
245.633	137.81
245.866	122.81
246.099	138.81
246.333	148.81
246.566	146.81
246.8	118.81
247.033	142.81
247.266	153.81
247.5	157.81
247.733	141.81
247.966	150.81
248.2	164.81
248.433	165.81
248.666	153.81
248.899	156.81
249.133	164.81
249.366	180.81
249.599	171.81
249.832	168.81
250.066	180.81
250.299	163.81
250.532	170.81
250.765	203.81
250.998	211.81
251.231	211.81
251.465	185.81
251.698	170.81
251.931	188.81
252.164	180.81
252.397	165.81
252.63	188.81
252.863	186.81
253.096	199.81
253.329	217.81
253.562	220.81
253.795	212.81
254.028	229.81
254.261	202.81
254.494	202.81
254.727	235.81
254.96	236.81
255.193	225.81
255.426	229.81
255.659	224.81
255.892	201.81
256.124	200.81
256.357	209.81
256.59	198.81
256.823	204.81
257.056	172.81
257.289	195.81
257.521	182.81
257.754	199.81
257.987	205.81
258.22	184.81
258.452	179.81
258.685	195.81
258.918	190.81
259.151	190.81
259.383	189.81
259.616	190.81
259.849	190.81
260.081	217.81
260.314	216.81
260.547	253.81
260.779	230.81
261.012	193.81
261.244	211.81
261.477	195.81
261.71	197.81
261.942	207.81
262.175	242.81
262.407	211.81
262.64	205.81
262.872	198.81
263.105	182.81
263.337	202.81
263.57	206.81
263.802	188.81
264.035	205.81
264.267	184.81
264.499	182.81
264.732	181.81
264.964	200.81
265.197	208.81
265.429	194.81
265.661	196.81
265.894	199.81
266.126	190.81
266.358	195.81
266.591	169.81
266.823	205.81
267.055	190.81
267.287	213.81
267.52	211.81
267.752	201.81
267.984	204.81
268.216	208.81
268.448	202.81
268.681	214.81
268.913	219.81
269.145	260.81
269.377	266.81
269.609	234.81
269.841	237.81
270.073	243.81
270.306	272.81
270.538	273.81
270.77	279.81
271.002	268.81
271.234	264.81
271.466	266.81
271.698	278.81
271.93	283.81
272.162	282.81
272.394	286.81
272.626	288.81
272.858	261.81
273.09	252.81
273.322	233.81
273.553	243.81
273.785	240.81
274.017	221.81
274.249	242.81
274.481	234.81
274.713	246.81
274.945	236.81
275.176	242.81
275.408	234.81
275.64	243.81
275.872	226.81
276.104	252.81
276.335	245.81
276.567	247.81
276.799	244.81
277.031	270.81
277.262	274.81
277.494	297.81
277.726	279.81
277.957	277.81
278.189	237.81
278.421	248.81
278.652	240.81
278.884	230.81
279.115	234.81
279.347	231.81
279.579	250.81
279.81	231.81
280.042	231.81
280.273	252.81
280.505	232.81
280.736	237.81
280.968	216.81
281.199	235.81
281.431	238.81
281.662	240.81
281.894	244.81
282.125	237.81
282.356	260.81
282.588	277.81
282.819	279.81
283.051	243.81
283.282	236.81
283.513	247.81
283.745	244.81
283.976	253.81
284.207	256.81
284.439	255.81
284.67	233.81
284.901	227.81
285.132	245.81
285.364	248.81
285.595	262.81
285.826	250.81
286.057	252.81
286.288	256.81
286.52	268.81
286.751	247.81
286.982	254.81
287.213	238.81
287.444	258.81
287.675	270.81
287.906	280.81
288.138	277.81
288.369	274.81
288.6	275.81
288.831	280.81
289.062	261.81
289.293	264.81
289.524	268.81
289.755	257.81
289.986	254.81
290.217	254.81
290.448	256.81
290.679	254.81
290.91	251.81
291.141	264.81
291.371	256.81
291.602	263.81
291.833	266.81
292.064	267.81
292.295	263.81
292.526	266.81
292.757	272.81
292.987	266.81
293.218	260.81
293.449	258.81
293.68	272.81
293.91	271.81
294.141	230.81
294.372	274.81
294.603	267.81
294.833	272.81
295.064	258.81
295.295	260.81
295.525	269.81
295.756	287.81
295.987	271.81
296.217	291.81
296.448	286.81
296.679	279.81
296.909	262.81
297.14	259.81
297.37	266.81
297.601	277.81
297.831	269.81
298.062	249.81
298.292	266.81
298.523	270.81
298.753	269.81
298.984	270.81
299.214	271.81
299.445	266.81
299.675	276.81
299.905	277.81
300.136	283.81
300.366	274.81
300.597	293.81
300.827	297.81
301.057	271.81
301.288	313.81
301.518	271.81
301.748	298.81
301.979	283.81
302.209	297.81
302.439	295.81
302.669	302.81
302.9	293.81
303.13	285.81
303.36	315.81
303.59	312.81
303.82	310.81
304.051	312.81
304.281	300.81
304.511	291.81
304.741	293.81
304.971	275.81
305.201	284.81
305.431	279.81
305.661	307.81
305.891	302.81
306.121	289.81
306.352	286.81
306.582	296.81
306.812	290.81
307.042	291.81
307.272	290.81
307.502	289.81
307.731	307.81
307.961	300.81
308.191	294.81
308.421	309.81
308.651	292.81
308.881	305.81
309.111	292.81
309.341	316.81
309.571	318.81
309.8	309.81
310.03	312.81
310.26	328.81
310.49	340.81
310.72	354.81
310.949	362.81
311.179	355.81
311.409	351.81
311.639	307.81
311.868	355.81
312.098	341.81
312.328	355.81
312.557	369.81
312.787	388.81
313.017	372.81
313.246	365.81
313.476	343.81
313.706	335.81
313.935	342.81
314.165	368.81
314.394	372.81
314.624	344.81
314.853	356.81
315.083	354.81
315.312	346.81
315.542	317.81
315.771	329.81
316.001	352.81
316.23	326.81
316.46	322.81
316.689	341.81
316.919	336.81
317.148	356.81
317.377	368.81
317.607	325.81
317.836	340.81
318.065	347.81
318.295	329.81
318.524	348.81
318.753	324.81
318.983	327.81
319.212	330.81
319.441	362.81
319.67	356.81
319.9	337.81
320.129	328.81
320.358	359.81
320.587	343.81
320.816	347.81
321.046	353.81
321.275	358.81
321.504	361.81
321.733	349.81
321.962	359.81
322.191	380.81
322.42	374.81
322.649	409.81
322.878	408.81
323.108	413.81
323.337	448.81
323.566	451.81
323.795	478.81
324.024	536.81
324.253	631.81
324.482	914.81
324.71	1378.81
324.939	1850.81
325.168	1532.81
325.397	824.81
325.626	589.81
325.855	483.81
326.084	470.81
326.313	467.81
326.542	442.81
326.77	502.81
326.999	612.81
327.228	814.81
327.457	1200.81
327.686	1363.81
327.914	944.81
328.143	656.81
328.372	580.81
328.6	530.81
328.829	515.81
329.058	506.81
329.287	527.81
329.515	498.81
329.744	459.81
329.972	443.81
330.201	449.81
330.43	469.81
330.658	528.81
330.887	565.81
331.115	565.81
331.344	462.81
331.572	442.81
331.801	444.81
332.03	445.81
332.258	410.81
332.486	405.81
332.715	390.81
332.943	409.81
333.172	404.81
333.4	386.81
333.629	409.81
333.857	408.81
334.085	392.81
334.314	407.81
334.542	414.81
334.771	424.81
334.999	411.81
335.227	398.81
335.455	403.81
335.684	390.81
335.912	384.81
336.14	367.81
336.369	386.81
336.597	413.81
336.825	392.81
337.053	400.81
337.281	395.81
337.51	374.81
337.738	377.81
337.966	379.81
338.194	392.81
338.422	382.81
338.65	384.81
338.878	393.81
339.106	392.81
339.334	399.81
339.562	377.81
339.79	382.81
340.018	376.81
340.246	385.81
340.474	361.81
340.702	355.81
340.93	384.81
341.158	371.81
341.386	371.81
341.614	382.81
341.842	384.81
342.07	363.81
342.298	367.81
342.526	356.81
342.754	356.81
342.981	343.81
343.209	363.81
343.437	373.81
343.665	373.81
343.893	378.81
344.12	382.81
344.348	365.81
344.576	380.81
344.804	380.81
345.031	379.81
345.259	398.81
345.487	384.81
345.714	386.81
345.942	382.81
346.17	386.81
346.397	370.81
346.625	365.81
346.853	365.81
347.08	352.81
347.308	375.81
347.535	394.81
347.763	386.81
347.99	384.81
348.218	373.81
348.445	369.81
348.673	380.81
348.9	387.81
349.128	372.81
349.355	348.81
349.583	356.81
349.81	356.81
350.037	382.81
350.265	352.81
350.492	352.81
350.72	356.81
350.947	356.81
351.174	373.81
351.402	386.81
351.629	368.81
351.856	381.81
352.083	372.81
352.311	379.81
352.538	393.81
352.765	376.81
352.992	370.81
353.22	349.81
353.447	355.81
353.674	371.81
353.901	348.81
354.128	345.81
354.355	364.81
354.583	362.81
354.81	337.81
355.037	336.81
355.264	337.81
355.491	343.81
355.718	340.81
355.945	337.81
356.172	350.81
356.399	328.81
356.626	326.81
356.853	351.81
357.08	352.81
357.307	315.81
357.534	332.81
357.761	354.81
357.988	321.81
358.215	312.81
358.441	326.81
358.668	342.81
358.895	353.81
359.122	334.81
359.349	362.81
359.576	350.81
359.802	366.81
360.029	427.81
360.256	426.81
360.483	402.81
360.709	379.81
360.936	398.81
361.163	384.81
361.39	373.81
361.616	375.81
361.843	382.81
362.07	363.81
362.296	368.81
362.523	388.81
362.749	373.81
362.976	357.81
363.203	372.81
363.429	344.81
363.656	377.81
363.882	355.81
364.109	357.81
364.335	358.81
364.562	354.81
364.788	352.81
365.015	353.81
365.241	339.81
365.468	364.81
365.694	358.81
365.92	355.81
366.147	349.81
366.373	341.81
366.599	334.81
366.826	340.81
367.052	347.81
367.278	345.81
367.505	347.81
367.731	350.81
367.957	354.81
368.184	350.81
368.41	371.81
368.636	372.81
368.862	362.81
369.089	357.81
369.315	346.81
369.541	357.81
369.767	382.81
369.993	344.81
370.219	348.81
370.445	350.81
370.672	343.81
370.898	336.81
371.124	339.81
371.35	336.81
371.576	349.81
371.802	346.81
372.028	330.81
372.254	365.81
372.48	348.81
372.706	346.81
372.932	341.81
373.158	348.81
373.384	361.81
373.61	347.81
373.835	336.81
374.061	325.81
374.287	347.81
374.513	348.81
374.739	342.81
374.965	338.81
375.191	354.81
375.416	362.81
375.642	348.81
375.868	354.81
376.094	339.81
376.319	360.81
376.545	338.81
376.771	347.81
376.997	348.81
377.222	356.81
377.448	347.81
377.674	326.81
377.899	350.81
378.125	325.81
378.35	325.81
378.576	329.81
378.802	339.81
379.027	354.81
379.253	331.81
379.478	324.81
379.704	362.81
379.929	348.81
380.155	358.81
380.38	338.81
380.606	330.81
380.831	344.81
381.057	346.81
381.282	348.81
381.507	362.81
381.733	334.81
381.958	349.81
382.184	340.81
382.409	365.81
382.634	354.81
382.86	351.81
383.085	346.81
383.31	357.81
383.535	329.81
383.761	339.81
383.986	358.81
384.211	361.81
384.436	350.81
384.662	347.81
384.887	372.81
385.112	366.81
385.337	361.81
385.562	364.81
385.787	375.81
386.013	384.81
386.238	381.81
386.463	382.81
386.688	375.81
386.913	360.81
387.138	363.81
387.363	366.81
387.588	379.81
387.813	370.81
388.038	365.81
388.263	372.81
388.488	376.81
388.713	371.81
388.938	369.81
389.163	362.81
389.387	378.81
389.612	355.81
389.837	357.81
390.062	345.81
390.287	379.81
390.512	372.81
390.736	369.81
390.961	363.81
391.186	354.81
391.411	355.81
391.636	377.81
391.86	390.81
392.085	380.81
392.31	346.81
392.534	360.81
392.759	373.81
392.984	379.81
393.208	388.81
393.433	371.81
393.658	371.81
393.882	370.81
394.107	387.81
394.331	374.81
394.556	372.81
394.78	372.81
395.005	379.81
395.229	377.81
395.454	368.81
395.678	388.81
395.903	395.81
396.127	403.81
396.352	394.81
396.576	384.81
396.801	365.81
397.025	386.81
397.249	382.81
397.474	388.81
397.698	390.81
397.922	395.81
398.147	408.81
398.371	418.81
398.595	401.81
398.82	421.81
399.044	448.81
399.268	430.81
399.492	462.81
399.717	495.81
399.941	507.81
400.165	502.81
400.389	488.81
400.613	475.81
400.837	441.81
401.062	425.81
401.286	404.81
401.51	418.81
401.734	420.81
401.958	406.81
402.182	405.81
402.406	450.81
402.63	449.81
402.854	423.81
403.078	428.81
403.302	437.81
403.526	438.81
403.75	428.81
403.974	421.81
404.198	396.81
404.422	446.81
404.645	436.81
404.869	434.81
405.093	443.81
405.317	471.81
405.541	486.81
405.765	480.81
405.988	452.81
406.212	460.81
406.436	459.81
406.66	479.81
406.883	493.81
407.107	489.81
407.331	537.81
407.555	549.81
407.778	563.81
408.002	500.81
408.226	482.81
408.449	462.81
408.673	502.81
408.896	473.81
409.12	528.81
409.344	479.81
409.567	448.81
409.791	447.81
410.014	435.81
410.238	442.81
410.461	429.81
410.685	437.81
410.908	439.81
411.132	472.81
411.355	486.81
411.578	481.81
411.802	442.81
412.025	419.81
412.249	429.81
412.472	440.81
412.695	426.81
412.919	427.81
413.142	417.81
413.365	407.81
413.589	404.81
413.812	392.81
414.035	418.81
414.258	419.81
414.482	410.81
414.705	408.81
414.928	390.81
415.151	398.81
415.374	398.81
415.597	398.81
415.821	385.81
416.044	405.81
416.267	412.81
416.49	398.81
416.713	414.81
416.936	402.81
417.159	413.81
417.382	412.81
417.605	417.81
417.828	428.81
418.051	430.81
418.274	436.81
418.497	399.81
418.72	406.81
418.943	387.81
419.166	408.81
419.389	426.81
419.611	433.81
419.834	429.81
420.057	426.81
420.28	426.81
420.503	433.81
420.726	428.81
420.948	428.81
421.171	475.81
421.394	490.81
421.617	448.81
421.839	426.81
422.062	429.81
422.285	453.81
422.507	462.81
422.73	522.81
422.953	514.81
423.175	466.81
423.398	451.81
423.621	441.81
423.843	470.81
424.066	469.81
424.288	446.81
424.511	466.81
424.733	525.81
424.956	535.81
425.178	571.81
425.401	520.81
425.623	552.81
425.846	488.81
426.068	458.81
426.291	457.81
426.513	437.81
426.735	462.81
426.958	509.81
427.18	576.81
427.402	648.81
427.625	719.81
427.847	636.81
428.069	536.81
428.292	482.81
428.514	464.81
428.736	445.81
428.958	442.81
429.181	413.81
429.403	433.81
429.625	419.81
429.847	462.81
430.069	508.81
430.292	501.81
430.514	435.81
430.736	434.81
430.958	421.81
431.18	413.81
431.402	417.81
431.624	384.81
431.846	389.81
432.068	382.81
432.29	388.81
432.512	397.81
432.734	416.81
432.956	429.81
433.178	398.81
433.4	417.81
433.622	416.81
433.844	395.81
434.066	405.81
434.287	410.81
434.509	407.81
434.731	419.81
434.953	430.81
435.175	443.81
435.397	460.81
435.618	461.81
435.84	492.81
436.062	578.81
436.284	618.81
436.505	521.81
436.727	487.81
436.949	432.81
437.17	424.81
437.392	440.81
437.614	440.81
437.835	474.81
438.057	564.81
438.278	609.81
438.5	625.81
438.721	683.81
438.943	605.81
439.165	524.81
439.386	500.81
439.608	488.81
439.829	457.81
440.05	482.81
440.272	516.81
440.493	506.81
440.715	457.81
440.936	457.81
441.158	430.81
441.379	438.81
441.6	442.81
441.822	457.81
442.043	493.81
442.264	562.81
442.486	575.81
442.707	501.81
442.928	485.81
443.149	506.81
443.371	530.81
443.592	526.81
443.813	595.81
444.034	655.81
444.255	550.81
444.476	489.81
444.698	468.81
444.919	453.81
445.14	561.81
445.361	501.81
445.582	496.81
445.803	564.81
446.024	631.81
446.245	635.81
446.466	568.81
446.687	496.81
446.908	487.81
447.129	453.81
447.35	444.81
447.571	443.81
447.792	424.81
448.013	441.81
448.234	466.81
448.455	484.81
448.675	576.81
448.896	668.81
449.117	560.81
449.338	536.81
449.559	600.81
449.779	675.81
450	557.81
450.221	473.81
450.442	448.81
450.662	437.81
450.883	434.81
451.104	466.81
451.324	437.81
451.545	430.81
451.766	421.81
451.986	382.81
452.207	392.81
452.428	394.81
452.648	382.81
452.869	398.81
453.089	405.81
453.31	404.81
453.53	394.81
453.751	371.81
453.971	382.81
454.192	423.81
454.412	422.81
454.633	386.81
454.853	369.81
455.073	392.81
455.294	398.81
455.514	446.81
455.734	458.81
455.955	379.81
456.175	358.81
456.395	365.81
456.616	338.81
456.836	363.81
457.056	362.81
457.276	350.81
457.497	380.81
457.717	352.81
457.937	381.81
458.157	374.81
458.377	375.81
458.598	394.81
458.818	466.81
459.038	524.81
459.258	517.81
459.478	470.81
459.698	434.81
459.918	403.81
460.138	400.81
460.358	399.81
460.578	390.81
460.798	408.81
461.018	416.81
461.238	404.81
461.458	403.81
461.678	405.81
461.898	391.81
462.118	399.81
462.338	412.81
462.558	411.81
462.777	423.81
462.997	403.81
463.217	442.81
463.437	460.81
463.657	438.81
463.876	432.81
464.096	422.81
464.316	416.81
464.536	463.81
464.755	444.81
464.975	449.81
465.195	465.81
465.414	556.81
465.634	488.81
465.854	440.81
466.073	423.81
466.293	417.81
466.512	422.81
466.732	393.81
466.951	410.81
467.171	391.81
467.391	384.81
467.61	401.81
467.829	412.81
468.049	415.81
468.268	379.81
468.488	374.81
468.707	378.81
468.927	386.81
469.146	379.81
469.365	377.81
469.585	389.81
469.804	407.81
470.023	408.81
470.243	416.81
470.462	408.81
470.681	415.81
470.901	421.81
471.12	383.81
471.339	391.81
471.558	416.81
471.777	405.81
471.997	394.81
472.216	395.81
472.435	401.81
472.654	372.81
472.873	387.81
473.092	388.81
473.311	382.81
473.53	394.81
473.749	413.81
473.968	439.81
474.187	516.81
474.406	549.81
474.625	436.81
474.844	432.81
475.063	415.81
475.282	387.81
475.501	402.81
475.72	395.81
475.939	416.81
476.158	391.81
476.377	408.81
476.596	403.81
476.814	394.81
477.033	422.81
477.252	426.81
477.471	409.81
477.69	420.81
477.908	402.81
478.127	436.81
478.346	439.81
478.564	437.81
478.783	436.81
479.002	457.81
479.22	457.81
479.439	467.81
479.658	499.81
479.876	472.81
480.095	463.81
480.313	498.81
480.532	493.81
480.751	480.81
480.969	476.81
481.188	527.81
481.406	512.81
481.624	475.81
481.843	480.81
482.061	452.81
482.28	452.81
482.498	454.81
482.717	454.81
482.935	471.81
483.153	471.81
483.372	462.81
483.59	454.81
483.808	468.81
484.027	473.81
484.245	465.81
484.463	475.81
484.681	474.81
484.9	477.81
485.118	473.81
485.336	474.81
485.554	489.81
485.772	489.81
485.99	483.81
486.209	464.81
486.427	466.81
486.645	467.81
486.863	500.81
487.081	504.81
487.299	500.81
487.517	485.81
487.735	494.81
487.953	508.81
488.171	491.81
488.389	508.81
488.607	492.81
488.825	487.81
489.043	471.81
489.261	504.81
489.479	502.81
489.696	500.81
489.914	519.81
490.132	519.81
490.35	500.81
490.568	532.81
490.786	525.81
491.003	532.81
491.221	534.81
491.439	565.81
491.657	568.81
491.874	566.81
492.092	576.81
492.31	580.81
492.527	553.81
492.745	595.81
492.963	574.81
493.18	567.81
493.398	586.81
493.615	576.81
493.833	555.81
494.05	574.81
494.268	597.81
494.485	593.81
494.703	591.81
494.92	584.81
495.138	570.81
495.355	592.81
495.573	585.81
495.79	589.81
496.008	602.81
496.225	556.81
496.442	589.81
496.66	581.81
496.877	588.81
497.094	618.81
497.312	591.81
497.529	624.81
497.746	631.81
497.963	613.81
498.181	629.81
498.398	634.81
498.615	665.81
498.832	652.81
499.049	676.81
499.267	660.81
499.484	700.81
499.701	728.81
499.918	736.81
500.135	757.81
500.352	749.81
500.569	763.81
500.786	774.81
501.003	773.81
501.22	749.81
501.437	744.81
501.654	724.81
501.871	733.81
502.088	719.81
502.305	669.81
502.522	666.81
502.739	650.81
502.956	631.81
503.172	609.81
503.389	612.81
503.606	592.81
503.823	617.81
504.04	616.81
504.256	601.81
504.473	580.81
504.69	602.81
504.907	585.81
505.123	589.81
505.34	563.81
505.557	564.81
505.773	570.81
505.99	579.81
506.207	586.81
506.423	561.81
506.64	571.81
506.856	539.81
507.073	535.81
507.289	545.81
507.506	566.81
507.722	564.81
507.939	571.81
508.155	557.81
508.372	533.81
508.588	530.81
508.805	537.81
509.021	527.81
509.238	547.81
509.454	550.81
509.67	537.81
509.887	535.81
510.103	548.81
510.319	582.81
510.536	649.81
510.752	1125.81
510.968	917.81
511.184	554.81
511.401	542.81
511.617	527.81
511.833	510.81
512.049	513.81
512.265	504.81
512.481	496.81
512.698	496.81
512.914	500.81
513.13	497.81
513.346	498.81
513.562	511.81
513.778	539.81
513.994	544.81
514.21	546.81
514.426	570.81
514.642	585.81
514.858	626.81
515.074	677.81
515.29	811.81
515.506	1258.81
515.721	1006.81
515.937	640.81
516.153	597.81
516.369	573.81
516.585	545.81
516.801	548.81
517.016	538.81
517.232	513.81
517.448	543.81
517.664	528.81
517.879	516.81
518.095	502.81
518.311	528.81
518.527	492.81
518.742	525.81
518.958	502.81
519.173	520.81
519.389	527.81
519.605	513.81
519.82	519.81
520.036	539.81
520.251	537.81
520.467	559.81
520.682	569.81
520.898	597.81
521.113	600.81
521.329	653.81
521.544	759.81
521.76	946.81
521.975	1703.81
522.19	1622.81
522.406	875.81
522.621	636.81
522.836	547.81
523.052	528.81
523.267	478.81
523.482	509.81
523.698	471.81
523.913	477.81
524.128	480.81
524.343	449.81
524.559	449.81
524.774	437.81
524.989	445.81
525.204	456.81
525.419	435.81
525.634	448.81
525.849	439.81
526.064	434.81
526.28	438.81
526.495	419.81
526.71	404.81
526.925	409.81
527.14	416.81
527.355	411.81
527.57	415.81
527.785	417.81
527.999	408.81
528.214	409.81
528.429	395.81
528.644	410.81
528.859	404.81
529.074	418.81
529.289	454.81
529.503	532.81
529.718	513.81
529.933	452.81
530.148	407.81
530.363	427.81
530.577	409.81
530.792	408.81
531.007	395.81
531.221	403.81
531.436	420.81
531.651	406.81
531.865	405.81
532.08	417.81
532.295	402.81
532.509	410.81
532.724	396.81
532.938	401.81
533.153	392.81
533.367	404.81
533.582	402.81
533.796	390.81
534.011	393.81
534.225	393.81
534.44	379.81
534.654	399.81
534.868	378.81
535.083	400.81
535.297	382.81
535.511	388.81
535.726	404.81
535.94	416.81
536.154	408.81
536.369	388.81
536.583	374.81
536.797	379.81
537.011	378.81
537.225	372.81
537.44	378.81
537.654	390.81
537.868	378.81
538.082	372.81
538.296	371.81
538.51	404.81
538.724	383.81
538.938	405.81
539.153	384.81
539.367	396.81
539.581	393.81
539.795	370.81
540.009	370.81
540.222	381.81
540.436	382.81
540.65	388.81
540.864	368.81
541.078	388.81
541.292	360.81
541.506	376.81
541.72	374.81
541.934	382.81
542.147	407.81
542.361	362.81
542.575	380.81
542.789	386.81
543.002	365.81
543.216	382.81
543.43	381.81
543.644	375.81
543.857	372.81
544.071	376.81
544.285	391.81
544.498	384.81
544.712	384.81
544.925	399.81
545.139	374.81
545.352	371.81
545.566	358.81
545.779	366.81
545.993	370.81
546.206	368.81
546.42	388.81
546.633	345.81
546.847	357.81
547.06	353.81
547.274	361.81
547.487	360.81
547.7	373.81
547.914	359.81
548.127	375.81
548.34	362.81
548.554	349.81
548.767	365.81
548.98	349.81
549.193	354.81
549.407	357.81
549.62	368.81
549.833	360.81
550.046	343.81
550.259	348.81
550.473	337.81
550.686	353.81
550.899	352.81
551.112	365.81
551.325	363.81
551.538	343.81
551.751	340.81
551.964	356.81
552.177	344.81
552.39	345.81
552.603	365.81
552.816	359.81
553.029	355.81
553.242	357.81
553.455	362.81
553.667	386.81
553.88	387.81
554.093	365.81
554.306	348.81
554.519	351.81
554.732	357.81
554.944	354.81
555.157	330.81
555.37	352.81
555.583	354.81
555.795	346.81
556.008	325.81
556.221	331.81
556.433	334.81
556.646	334.81
556.859	331.81
557.071	317.81
557.284	324.81
557.496	330.81
557.709	339.81
557.921	311.81
558.134	332.81
558.346	333.81
558.559	328.81
558.771	333.81
558.984	331.81
559.196	318.81
559.409	313.81
559.621	328.81
559.833	317.81
560.046	337.81
560.258	316.81
560.47	307.81
560.683	305.81
560.895	331.81
561.107	296.81
561.32	321.81
561.532	297.81
561.744	328.81
561.956	304.81
562.168	332.81
562.381	315.81
562.593	332.81
562.805	307.81
563.017	314.81
563.229	318.81
563.441	311.81
563.653	313.81
563.865	317.81
564.077	325.81
564.289	335.81
564.501	332.81
564.713	329.81
564.925	313.81
565.137	326.81
565.349	351.81
565.561	334.81
565.773	338.81
565.985	330.81
566.197	334.81
566.408	329.81
566.62	350.81
566.832	372.81
567.044	367.81
567.255	358.81
567.467	372.81
567.679	364.81
567.891	375.81
568.102	384.81
568.314	384.81
568.526	382.81
568.737	358.81
568.949	340.81
569.161	344.81
569.372	306.81
569.584	338.81
569.795	325.81
570.007	331.81
570.218	367.81
570.43	356.81
570.641	312.81
570.853	316.81
571.064	299.81
571.276	301.81
571.487	290.81
571.698	293.81
571.91	313.81
572.121	284.81
572.333	280.81
572.544	272.81
572.755	300.81
572.966	280.81
573.178	284.81
573.389	277.81
573.6	276.81
573.811	286.81
574.023	268.81
574.234	265.81
574.445	266.81
574.656	268.81
574.867	260.81
575.078	290.81
575.289	249.81
575.501	281.81
575.712	296.81
575.923	264.81
576.134	276.81
576.345	278.81
576.556	266.81
576.767	261.81
576.978	272.81
577.188	267.81
577.399	264.81
577.61	250.81
577.821	258.81
578.032	273.81
578.243	315.81
578.454	552.81
578.665	374.81
578.875	290.81
579.086	260.81
579.297	265.81
579.508	244.81
579.718	253.81
579.929	266.81
580.14	252.81
580.35	233.81
580.561	244.81
580.772	266.81
580.982	246.81
581.193	238.81
581.403	247.81
581.614	246.81
581.825	260.81
582.035	235.81
582.246	232.81
582.456	227.81
582.667	233.81
582.877	242.81
583.087	234.81
583.298	251.81
583.508	250.81
583.719	250.81
583.929	237.81
584.139	246.81
584.35	256.81
584.56	255.81
584.77	265.81
584.981	230.81
585.191	245.81
585.401	260.81
585.611	241.81
585.821	245.81
586.032	261.81
586.242	235.81
586.452	236.81
586.662	233.81
586.872	248.81
587.082	220.81
587.292	217.81
587.502	219.81
587.713	225.81
587.923	240.81
588.133	231.81
588.343	219.81
588.553	247.81
588.762	247.81
588.972	219.81
589.182	247.81
589.392	222.81
589.602	246.81
589.812	248.81
590.022	240.81
590.232	236.81
590.441	246.81
590.651	230.81
590.861	235.81
591.071	235.81
591.281	242.81
591.49	247.81
591.7	231.81
591.91	235.81
592.119	225.81
592.329	231.81
592.539	247.81
592.748	250.81
592.958	244.81
593.167	233.81
593.377	260.81
593.587	249.81
593.796	253.81
594.006	238.81
594.215	243.81
594.424	249.81
594.634	245.81
594.843	231.81
595.053	257.81
595.262	237.81
595.472	224.81
595.681	229.81
595.89	237.81
596.1	227.81
596.309	230.81
596.518	235.81
596.727	249.81
596.937	229.81
597.146	243.81
597.355	230.81
597.564	229.81
597.774	218.81
597.983	218.81
598.192	238.81
598.401	235.81
598.61	220.81
598.819	206.81
599.028	207.81
599.237	223.81
599.446	209.81
599.655	221.81
599.864	228.81
600.073	216.81
600.282	212.81
600.491	222.81
600.7	206.81
600.909	200.81
601.118	208.81
601.327	219.81
601.536	206.81
601.745	216.81
601.953	205.81
602.162	188.81
602.371	206.81
602.58	197.81
602.789	200.81
602.997	211.81
603.206	214.81
603.415	181.81
603.623	203.81
603.832	200.81
604.041	198.81
604.249	202.81
604.458	209.81
604.666	200.81
604.875	199.81
605.084	196.81
605.292	193.81
605.501	204.81
605.709	211.81
605.918	183.81
606.126	190.81
606.334	180.81
606.543	191.81
606.751	199.81
606.96	197.81
607.168	194.81
607.376	199.81
607.585	205.81
607.793	202.81
608.001	201.81
608.21	185.81
608.418	201.81
608.626	194.81
608.834	208.81
609.043	189.81
609.251	190.81
609.459	194.81
609.667	189.81
609.875	201.81
610.083	208.81
610.291	204.81
610.499	187.81
610.707	199.81
610.916	192.81
611.124	208.81
611.332	198.81
611.54	193.81
611.748	206.81
611.955	205.81
612.163	195.81
612.371	201.81
612.579	215.81
612.787	187.81
612.995	189.81
613.203	185.81
613.411	193.81
613.618	194.81
613.826	189.81
614.034	198.81
614.242	205.81
614.449	191.81
614.657	187.81
614.865	181.81
615.072	197.81
615.28	184.81
615.488	190.81
615.695	190.81
615.903	195.81
616.111	193.81
616.318	201.81
616.526	194.81
616.733	203.81
616.941	204.81
617.148	181.81
617.356	198.81
617.563	190.81
617.771	186.81
617.978	192.81
618.185	183.81
618.393	197.81
618.6	193.81
618.807	163.81
619.015	198.81
619.222	171.81
619.429	193.81
619.637	185.81
619.844	186.81
620.051	199.81
620.258	180.81
620.466	178.81
620.673	182.81
620.88	185.81
621.087	181.81
621.294	159.81
621.501	197.81
621.708	199.81
621.915	192.81
622.122	177.81
622.329	188.81
622.536	174.81
622.743	186.81
622.95	180.81
623.157	180.81
623.364	177.81
623.571	198.81
623.778	185.81
623.985	160.81
624.192	173.81
624.399	167.81
624.606	179.81
624.812	182.81
625.019	174.81
625.226	170.81
625.433	187.81
625.639	168.81
625.846	180.81
626.053	168.81
626.259	155.81
626.466	186.81
626.673	186.81
626.879	176.81
627.086	174.81
627.293	184.81
627.499	170.81
627.706	165.81
627.912	158.81
628.119	164.81
628.325	170.81
628.532	169.81
628.738	171.81
628.945	168.81
629.151	167.81
629.357	150.81
629.564	158.81
629.77	166.81
629.976	154.81
630.183	152.81
630.389	165.81
630.595	173.81
630.802	170.81
631.008	165.81
631.214	168.81
631.42	152.81
631.627	176.81
631.833	159.81
632.039	168.81
632.245	169.81
632.451	156.81
632.657	158.81
632.863	157.81
633.069	158.81
633.275	168.81
633.481	161.81
633.688	149.81
633.893	156.81
634.099	165.81
634.305	160.81
634.511	151.81
634.717	152.81
634.923	161.81
635.129	140.81
635.335	146.81
635.541	159.81
635.747	160.81
635.952	157.81
636.158	149.81
636.364	157.81
636.57	157.81
636.775	162.81
636.981	141.81
637.187	150.81
637.392	161.81
637.598	151.81
637.804	153.81
638.009	163.81
638.215	163.81
638.421	161.81
638.626	145.81
638.832	168.81
639.037	132.81
639.243	153.81
639.448	153.81
639.654	163.81
639.859	151.81
640.065	144.81
640.27	168.81
640.475	138.81
640.681	158.81
640.886	146.81
641.091	142.81
641.297	163.81
641.502	162.81
641.707	122.81
641.913	148.81
642.118	136.81
642.323	145.81
642.528	152.81
642.733	162.81
642.939	146.81
643.144	155.81
643.349	161.81
643.554	159.81
643.759	149.81
643.964	144.81
644.169	147.81
644.374	144.81
644.579	134.81
644.784	154.81
644.989	152.81
645.194	132.81
645.399	143.81
645.604	135.81
645.809	140.81
646.014	136.81
646.219	138.81
646.423	140.81
646.628	140.81
646.833	131.81
647.038	154.81
647.243	137.81
647.447	147.81
647.652	148.81
647.857	132.81
648.062	141.81
648.266	148.81
648.471	145.81
648.676	151.81
648.88	142.81
649.085	148.81
649.289	143.81
649.494	142.81
649.698	165.81
649.903	160.81
650.107	149.81
650.312	155.81
650.516	128.81
650.721	148.81
650.925	140.81
651.13	136.81
651.334	148.81
651.539	134.81
651.743	130.81
651.947	136.81
652.152	131.81
652.356	136.81
652.56	120.81
652.764	137.81
652.969	133.81
653.173	130.81
653.377	131.81
653.581	124.81
653.785	125.81
653.99	124.81
654.194	130.81
654.398	115.81
654.602	113.81
654.806	118.81
655.01	136.81
655.214	136.81
655.418	128.81
655.622	115.81
655.826	126.81
656.03	115.81
656.234	124.81
656.438	121.81
656.642	126.81
656.846	125.81
657.049	122.81
657.253	112.81
657.457	121.81
657.661	115.81
657.865	123.81
658.068	113.81
658.272	110.81
658.476	112.81
658.68	104.81
658.883	104.81
659.087	107.81
659.291	98.81
659.494	105.81
659.698	106.81
659.901	91.81
660.105	76.81
660.309	98.81
660.512	93.81
660.716	91.81
660.919	101.81
661.123	110.81
661.326	96.81
661.53	103.81
661.733	82.81
661.936	94.81
662.14	82.81
662.343	92.81
662.546	88.81
662.75	85.81
662.953	79.81
663.156	81.81
663.36	85.81
663.563	82.81
663.766	85.81
663.969	95.81
664.173	81.81
664.376	90.81
664.579	84.81
664.782	83.81
664.985	89.81
665.188	96.81
665.391	92.81
665.594	88.81
665.797	78.81
666	77.81
666.203	77.81
666.406	84.81
666.609	78.81
666.812	80.81
667.015	84.81
667.218	80.81
667.421	80.81
667.624	75.81
667.827	79.81
668.03	86.81
668.232	79.81
668.435	83.81
668.638	72.81
668.841	94.81
669.043	98.81
669.246	66.81
669.449	84.81
669.651	80.81
669.854	71.81
670.057	81.81
670.259	76.81
670.462	81.81
670.665	77.81
670.867	74.81
671.07	87.81
671.272	77.81
671.475	92.81
671.677	78.81
671.88	83.81
672.082	82.81
672.284	75.81
672.487	88.81
672.689	84.81
672.892	98.81
