Data from 1983.PennyLincolnUp.Lamp.En5.5.200Scan.071819.P1_HRD10591_16-54-40-965.txt Node
Date: Thu Jul 18 16:54:40 EDT 2019
User: cochatt
Spectrometer: HR+D1059
Trigger mode: 1
Integration Time (sec): 1.000000E-1
Scans to average: 1
Electric dark correction enabled: true
Nonlinearity correction enabled: false
Boxcar width: 0
XAxis mode: Wavelengths
Number of Pixels in Spectrum: 2048
>>>>>Begin Spectral Data<<<<<
223.165	-17.75
223.4	-17.75
223.635	-17.75
223.869	-26.75
224.104	-15.75
224.338	-26.75
224.573	-9.75
224.808	-20.75
225.042	0.25
225.277	6.25
225.511	4.25
225.746	-1.75
225.98	12.25
226.215	25.25
226.449	15.25
226.683	22.25
226.918	12.25
227.152	21.25
227.387	29.25
227.621	32.25
227.856	40.25
228.09	40.25
228.324	34.25
228.559	46.25
228.793	61.25
229.027	64.25
229.262	95.25
229.496	101.25
229.73	122.25
229.964	146.25
230.199	133.25
230.433	99.25
230.667	96.25
230.901	93.25
231.136	100.25
231.37	109.25
231.604	102.25
231.838	102.25
232.072	97.25
232.306	117.25
232.541	110.25
232.775	113.25
233.009	100.25
233.243	108.25
233.477	122.25
233.711	104.25
233.945	105.25
234.179	106.25
234.413	90.25
234.647	108.25
234.881	115.25
235.115	128.25
235.349	91.25
235.583	104.25
235.817	110.25
236.051	129.25
236.285	122.25
236.519	129.25
236.753	140.25
236.987	129.25
237.221	168.25
237.455	203.25
237.689	176.25
237.922	132.25
238.156	132.25
238.39	114.25
238.624	113.25
238.858	132.25
239.091	120.25
239.325	122.25
239.559	133.25
239.793	128.25
240.027	124.25
240.26	130.25
240.494	145.25
240.728	138.25
240.961	156.25
241.195	141.25
241.429	128.25
241.662	121.25
241.896	134.25
242.13	126.25
242.363	117.25
242.597	122.25
242.83	142.25
243.064	128.25
243.298	110.25
243.531	118.25
243.765	126.25
243.998	134.25
244.232	142.25
244.465	134.25
244.699	137.25
244.932	135.25
245.166	124.25
245.399	142.25
245.633	131.25
245.866	142.25
246.099	125.25
246.333	126.25
246.566	146.25
246.8	139.25
247.033	138.25
247.266	156.25
247.5	158.25
247.733	172.25
247.966	164.25
248.2	165.25
248.433	173.25
248.666	165.25
248.899	157.25
249.133	178.25
249.366	188.25
249.599	182.25
249.832	167.25
250.066	160.25
250.299	180.25
250.532	173.25
250.765	200.25
250.998	203.25
251.231	213.25
251.465	211.25
251.698	196.25
251.931	181.25
252.164	195.25
252.397	172.25
252.63	170.25
252.863	203.25
253.096	215.25
253.329	209.25
253.562	213.25
253.795	204.25
254.028	190.25
254.261	211.25
254.494	213.25
254.727	249.25
254.96	258.25
255.193	242.25
255.426	236.25
255.659	200.25
255.892	219.25
256.124	209.25
256.357	222.25
256.59	229.25
256.823	203.25
257.056	198.25
257.289	211.25
257.521	213.25
257.754	198.25
257.987	186.25
258.22	197.25
258.452	194.25
258.685	203.25
258.918	182.25
259.151	187.25
259.383	210.25
259.616	218.25
259.849	228.25
260.081	212.25
260.314	233.25
260.547	237.25
260.779	222.25
261.012	213.25
261.244	213.25
261.477	220.25
261.71	211.25
261.942	210.25
262.175	224.25
262.407	214.25
262.64	203.25
262.872	189.25
263.105	182.25
263.337	202.25
263.57	188.25
263.802	195.25
264.035	188.25
264.267	179.25
264.499	196.25
264.732	197.25
264.964	199.25
265.197	194.25
265.429	215.25
265.661	191.25
265.894	192.25
266.126	184.25
266.358	197.25
266.591	208.25
266.823	203.25
267.055	214.25
267.287	209.25
267.52	219.25
267.752	209.25
267.984	202.25
268.216	202.25
268.448	202.25
268.681	224.25
268.913	226.25
269.145	237.25
269.377	249.25
269.609	259.25
269.841	260.25
270.073	244.25
270.306	273.25
270.538	263.25
270.77	296.25
271.002	266.25
271.234	266.25
271.466	279.25
271.698	290.25
271.93	294.25
272.162	270.25
272.394	285.25
272.626	280.25
272.858	256.25
273.09	248.25
273.322	242.25
273.553	233.25
273.785	237.25
274.017	247.25
274.249	250.25
274.481	260.25
274.713	233.25
274.945	245.25
275.176	244.25
275.408	246.25
275.64	242.25
275.872	251.25
276.104	253.25
276.335	240.25
276.567	236.25
276.799	250.25
277.031	279.25
277.262	280.25
277.494	284.25
277.726	288.25
277.957	258.25
278.189	246.25
278.421	254.25
278.652	235.25
278.884	248.25
279.115	253.25
279.347	245.25
279.579	240.25
279.81	246.25
280.042	232.25
280.273	239.25
280.505	244.25
280.736	244.25
280.968	237.25
281.199	233.25
281.431	244.25
281.662	260.25
281.894	245.25
282.125	263.25
282.356	263.25
282.588	281.25
282.819	277.25
283.051	246.25
283.282	244.25
283.513	260.25
283.745	261.25
283.976	254.25
284.207	253.25
284.439	254.25
284.67	247.25
284.901	262.25
285.132	259.25
285.364	230.25
285.595	248.25
285.826	263.25
286.057	243.25
286.288	240.25
286.52	248.25
286.751	237.25
286.982	250.25
287.213	254.25
287.444	256.25
287.675	272.25
287.906	268.25
288.138	265.25
288.369	264.25
288.6	270.25
288.831	291.25
289.062	277.25
289.293	272.25
289.524	261.25
289.755	257.25
289.986	262.25
290.217	259.25
290.448	250.25
290.679	258.25
290.91	257.25
291.141	259.25
291.371	250.25
291.602	260.25
291.833	253.25
292.064	270.25
292.295	245.25
292.526	276.25
292.757	278.25
292.987	240.25
293.218	241.25
293.449	249.25
293.68	263.25
293.91	267.25
294.141	265.25
294.372	260.25
294.603	268.25
294.833	258.25
295.064	270.25
295.295	264.25
295.525	274.25
295.756	272.25
295.987	281.25
296.217	295.25
296.448	287.25
296.679	278.25
296.909	262.25
297.14	269.25
297.37	279.25
297.601	265.25
297.831	281.25
298.062	274.25
298.292	264.25
298.523	279.25
298.753	273.25
298.984	290.25
299.214	294.25
299.445	308.25
299.675	278.25
299.905	258.25
300.136	283.25
300.366	288.25
300.597	285.25
300.827	320.25
301.057	288.25
301.288	297.25
301.518	299.25
301.748	295.25
301.979	298.25
302.209	290.25
302.439	282.25
302.669	302.25
302.9	293.25
303.13	299.25
303.36	301.25
303.59	308.25
303.82	287.25
304.051	301.25
304.281	309.25
304.511	286.25
304.741	300.25
304.971	277.25
305.201	291.25
305.431	261.25
305.661	300.25
305.891	299.25
306.121	305.25
306.352	303.25
306.582	281.25
306.812	286.25
307.042	290.25
307.272	303.25
307.502	311.25
307.731	296.25
307.961	307.25
308.191	294.25
308.421	297.25
308.651	291.25
308.881	297.25
309.111	303.25
309.341	312.25
309.571	317.25
309.8	309.25
310.03	352.25
310.26	351.25
310.49	356.25
310.72	347.25
310.949	358.25
311.179	363.25
311.409	363.25
311.639	334.25
311.868	334.25
312.098	336.25
312.328	332.25
312.557	365.25
312.787	386.25
313.017	376.25
313.246	363.25
313.476	340.25
313.706	342.25
313.935	349.25
314.165	367.25
314.394	348.25
314.624	376.25
314.853	372.25
315.083	344.25
315.312	357.25
315.542	347.25
315.771	334.25
316.001	332.25
316.23	334.25
316.46	358.25
316.689	327.25
316.919	348.25
317.148	363.25
317.377	347.25
317.607	358.25
317.836	350.25
318.065	347.25
318.295	340.25
318.524	348.25
318.753	328.25
318.983	340.25
319.212	341.25
319.441	353.25
319.67	351.25
319.9	340.25
320.129	343.25
320.358	351.25
320.587	360.25
320.816	363.25
321.046	365.25
321.275	360.25
321.504	368.25
321.733	376.25
321.962	377.25
322.191	381.25
322.42	401.25
322.649	404.25
322.878	412.25
323.108	414.25
323.337	450.25
323.566	466.25
323.795	510.25
324.024	551.25
324.253	692.25
324.482	999.25
324.71	1480.25
324.939	2025.25
325.168	1638.25
325.397	920.25
325.626	621.25
325.855	527.25
326.084	503.25
326.313	482.25
326.542	482.25
326.77	535.25
326.999	660.25
327.228	898.25
327.457	1288.25
327.686	1505.25
327.914	1009.25
328.143	695.25
328.372	621.25
328.6	560.25
328.829	539.25
329.058	545.25
329.287	561.25
329.515	512.25
329.744	481.25
329.972	484.25
330.201	527.25
330.43	548.25
330.658	565.25
330.887	574.25
331.115	570.25
331.344	478.25
331.572	461.25
331.801	457.25
332.03	458.25
332.258	440.25
332.486	416.25
332.715	416.25
332.943	425.25
333.172	420.25
333.4	425.25
333.629	429.25
333.857	444.25
334.085	444.25
334.314	462.25
334.542	508.25
334.771	518.25
334.999	461.25
335.227	420.25
335.455	425.25
335.684	418.25
335.912	397.25
336.14	406.25
336.369	394.25
336.597	417.25
336.825	399.25
337.053	393.25
337.281	402.25
337.51	395.25
337.738	408.25
337.966	398.25
338.194	417.25
338.422	420.25
338.65	388.25
338.878	396.25
339.106	380.25
339.334	375.25
339.562	370.25
339.79	386.25
340.018	389.25
340.246	399.25
340.474	407.25
340.702	364.25
340.93	378.25
341.158	400.25
341.386	375.25
341.614	406.25
341.842	370.25
342.07	379.25
342.298	387.25
342.526	372.25
342.754	375.25
342.981	377.25
343.209	356.25
343.437	372.25
343.665	377.25
343.893	389.25
344.12	385.25
344.348	394.25
344.576	408.25
344.804	393.25
345.031	402.25
345.259	418.25
345.487	401.25
345.714	397.25
345.942	378.25
346.17	390.25
346.397	374.25
346.625	379.25
346.853	374.25
347.08	388.25
347.308	391.25
347.535	372.25
347.763	392.25
347.99	379.25
348.218	392.25
348.445	414.25
348.673	386.25
348.9	380.25
349.128	364.25
349.355	384.25
349.583	359.25
349.81	354.25
350.037	356.25
350.265	373.25
350.492	354.25
350.72	368.25
350.947	363.25
351.174	386.25
351.402	378.25
351.629	385.25
351.856	373.25
352.083	383.25
352.311	394.25
352.538	387.25
352.765	398.25
352.992	392.25
353.22	388.25
353.447	383.25
353.674	365.25
353.901	369.25
354.128	357.25
354.355	352.25
354.583	354.25
354.81	357.25
355.037	340.25
355.264	343.25
355.491	324.25
355.718	339.25
355.945	345.25
356.172	325.25
356.399	351.25
356.626	349.25
356.853	348.25
357.08	333.25
357.307	347.25
357.534	335.25
357.761	339.25
357.988	344.25
358.215	343.25
358.441	349.25
358.668	348.25
358.895	348.25
359.122	342.25
359.349	365.25
359.576	372.25
359.802	421.25
360.029	426.25
360.256	424.25
360.483	420.25
360.709	385.25
360.936	374.25
361.163	362.25
361.39	361.25
361.616	374.25
361.843	366.25
362.07	392.25
362.296	371.25
362.523	388.25
362.749	382.25
362.976	368.25
363.203	374.25
363.429	362.25
363.656	368.25
363.882	340.25
364.109	368.25
364.335	360.25
364.562	340.25
364.788	326.25
365.015	354.25
365.241	368.25
365.468	370.25
365.694	380.25
365.92	359.25
366.147	355.25
366.373	357.25
366.599	342.25
366.826	366.25
367.052	342.25
367.278	345.25
367.505	350.25
367.731	355.25
367.957	325.25
368.184	332.25
368.41	348.25
368.636	354.25
368.862	391.25
369.089	379.25
369.315	361.25
369.541	365.25
369.767	358.25
369.993	345.25
370.219	362.25
370.445	353.25
370.672	352.25
370.898	350.25
371.124	342.25
371.35	333.25
371.576	344.25
371.802	356.25
372.028	353.25
372.254	348.25
372.48	335.25
372.706	357.25
372.932	336.25
373.158	348.25
373.384	345.25
373.61	349.25
373.835	341.25
374.061	338.25
374.287	346.25
374.513	332.25
374.739	349.25
374.965	337.25
375.191	340.25
375.416	352.25
375.642	352.25
375.868	353.25
376.094	347.25
376.319	345.25
376.545	355.25
376.771	347.25
376.997	330.25
377.222	335.25
377.448	348.25
377.674	339.25
377.899	348.25
378.125	361.25
378.35	332.25
378.576	348.25
378.802	344.25
379.027	338.25
379.253	342.25
379.478	335.25
379.704	338.25
379.929	328.25
380.155	355.25
380.38	347.25
380.606	368.25
380.831	361.25
381.057	360.25
381.282	349.25
381.507	333.25
381.733	358.25
381.958	355.25
382.184	345.25
382.409	362.25
382.634	360.25
382.86	361.25
383.085	350.25
383.31	342.25
383.535	354.25
383.761	345.25
383.986	343.25
384.211	361.25
384.436	363.25
384.662	356.25
384.887	342.25
385.112	362.25
385.337	362.25
385.562	355.25
385.787	345.25
386.013	384.25
386.238	374.25
386.463	367.25
386.688	376.25
386.913	387.25
387.138	378.25
387.363	372.25
387.588	366.25
387.813	366.25
388.038	376.25
388.263	370.25
388.488	357.25
388.713	369.25
388.938	366.25
389.163	376.25
389.387	376.25
389.612	368.25
389.837	379.25
390.062	354.25
390.287	386.25
390.512	374.25
390.736	376.25
390.961	363.25
391.186	378.25
391.411	371.25
391.636	378.25
391.86	380.25
392.085	370.25
392.31	396.25
392.534	379.25
392.759	399.25
392.984	363.25
393.208	368.25
393.433	370.25
393.658	370.25
393.882	375.25
394.107	382.25
394.331	383.25
394.556	374.25
394.78	357.25
395.005	373.25
395.229	372.25
395.454	389.25
395.678	376.25
395.903	382.25
396.127	409.25
396.352	398.25
396.576	377.25
396.801	381.25
397.025	384.25
397.249	386.25
397.474	395.25
397.698	385.25
397.922	397.25
398.147	408.25
398.371	412.25
398.595	424.25
398.82	417.25
399.044	397.25
399.268	404.25
399.492	468.25
399.717	485.25
399.941	477.25
400.165	512.25
400.389	487.25
400.613	469.25
400.837	432.25
401.062	436.25
401.286	430.25
401.51	432.25
401.734	428.25
401.958	430.25
402.182	417.25
402.406	425.25
402.63	412.25
402.854	418.25
403.078	448.25
403.302	436.25
403.526	442.25
403.75	456.25
403.974	426.25
404.198	445.25
404.422	434.25
404.645	461.25
404.869	444.25
405.093	486.25
405.317	508.25
405.541	526.25
405.765	493.25
405.988	469.25
406.212	478.25
406.436	482.25
406.66	492.25
406.883	493.25
407.107	488.25
407.331	541.25
407.555	558.25
407.778	549.25
408.002	496.25
408.226	486.25
408.449	475.25
408.673	464.25
408.896	477.25
409.12	534.25
409.344	504.25
409.567	447.25
409.791	438.25
410.014	425.25
410.238	429.25
410.461	444.25
410.685	430.25
410.908	465.25
411.132	472.25
411.355	518.25
411.578	475.25
411.802	456.25
412.025	434.25
412.249	435.25
412.472	473.25
412.695	490.25
412.919	484.25
413.142	437.25
413.365	429.25
413.589	442.25
413.812	408.25
414.035	395.25
414.258	413.25
414.482	396.25
414.705	430.25
414.928	402.25
415.151	405.25
415.374	412.25
415.597	411.25
415.821	409.25
416.044	386.25
416.267	414.25
416.49	405.25
416.713	408.25
416.936	407.25
417.159	405.25
417.382	420.25
417.605	428.25
417.828	407.25
418.051	440.25
418.274	438.25
418.497	398.25
418.72	424.25
418.943	392.25
419.166	405.25
419.389	471.25
419.611	435.25
419.834	428.25
420.057	430.25
420.28	450.25
420.503	434.25
420.726	420.25
420.948	429.25
421.171	458.25
421.394	481.25
421.617	451.25
421.839	449.25
422.062	421.25
422.285	456.25
422.507	482.25
422.73	544.25
422.953	512.25
423.175	448.25
423.398	459.25
423.621	446.25
423.843	457.25
424.066	468.25
424.288	468.25
424.511	471.25
424.733	536.25
424.956	562.25
425.178	549.25
425.401	555.25
425.623	547.25
425.846	495.25
426.068	456.25
426.291	464.25
426.513	456.25
426.735	473.25
426.958	520.25
427.18	582.25
427.402	677.25
427.625	718.25
427.847	652.25
428.069	562.25
428.292	498.25
428.514	457.25
428.736	476.25
428.958	461.25
429.181	436.25
429.403	428.25
429.625	448.25
429.847	472.25
430.069	513.25
430.292	507.25
430.514	443.25
430.736	437.25
430.958	429.25
431.18	424.25
431.402	400.25
431.624	410.25
431.846	414.25
432.068	407.25
432.29	402.25
432.512	412.25
432.734	406.25
432.956	413.25
433.178	414.25
433.4	416.25
433.622	416.25
433.844	408.25
434.066	404.25
434.287	398.25
434.509	418.25
434.731	412.25
434.953	417.25
435.175	439.25
435.397	466.25
435.618	452.25
435.84	502.25
436.062	566.25
436.284	601.25
436.505	507.25
436.727	475.25
436.949	457.25
437.17	438.25
437.392	425.25
437.614	443.25
437.835	486.25
438.057	561.25
438.278	624.25
438.5	621.25
438.721	641.25
438.943	628.25
439.165	539.25
439.386	478.25
439.608	474.25
439.829	472.25
440.05	498.25
440.272	530.25
440.493	505.25
440.715	462.25
440.936	427.25
441.158	464.25
441.379	416.25
441.6	457.25
441.822	468.25
442.043	530.25
442.264	543.25
442.486	562.25
442.707	512.25
442.928	487.25
443.149	466.25
443.371	496.25
443.592	513.25
443.813	597.25
444.034	600.25
444.255	516.25
444.476	474.25
444.698	473.25
444.919	455.25
445.14	585.25
445.361	540.25
445.582	508.25
445.803	555.25
446.024	632.25
446.245	632.25
446.466	577.25
446.687	512.25
446.908	472.25
447.129	456.25
447.35	435.25
447.571	441.25
447.792	424.25
448.013	448.25
448.234	460.25
448.455	506.25
448.675	581.25
448.896	640.25
449.117	555.25
449.338	536.25
449.559	626.25
449.779	681.25
450	598.25
450.221	482.25
450.442	428.25
450.662	438.25
450.883	457.25
451.104	480.25
451.324	440.25
451.545	434.25
451.766	406.25
451.986	412.25
452.207	393.25
452.428	398.25
452.648	402.25
452.869	398.25
453.089	392.25
453.31	389.25
453.53	378.25
453.751	404.25
453.971	399.25
454.192	400.25
454.412	408.25
454.633	399.25
454.853	398.25
455.073	394.25
455.294	405.25
455.514	491.25
455.734	470.25
455.955	399.25
456.175	369.25
456.395	373.25
456.616	371.25
456.836	363.25
457.056	365.25
457.276	368.25
457.497	363.25
457.717	361.25
457.937	364.25
458.157	376.25
458.377	368.25
458.598	398.25
458.818	462.25
459.038	540.25
459.258	530.25
459.478	478.25
459.698	406.25
459.918	406.25
460.138	396.25
460.358	389.25
460.578	404.25
460.798	396.25
461.018	397.25
461.238	403.25
461.458	403.25
461.678	410.25
461.898	407.25
462.118	398.25
462.338	416.25
462.558	397.25
462.777	412.25
462.997	416.25
463.217	448.25
463.437	437.25
463.657	435.25
463.876	425.25
464.096	407.25
464.316	435.25
464.536	458.25
464.755	435.25
464.975	442.25
465.195	494.25
465.414	567.25
465.634	484.25
465.854	446.25
466.073	430.25
466.293	429.25
466.512	390.25
466.732	394.25
466.951	390.25
467.171	396.25
467.391	407.25
467.61	446.25
467.829	420.25
468.049	402.25
468.268	406.25
468.488	406.25
468.707	395.25
468.927	402.25
469.146	370.25
469.365	401.25
469.585	396.25
469.804	397.25
470.023	413.25
470.243	428.25
470.462	409.25
470.681	437.25
470.901	429.25
471.12	398.25
471.339	402.25
471.558	426.25
471.777	420.25
471.997	384.25
472.216	419.25
472.435	462.25
472.654	448.25
472.873	413.25
473.092	410.25
473.311	426.25
473.53	407.25
473.749	406.25
473.968	451.25
474.187	521.25
474.406	553.25
474.625	427.25
474.844	430.25
475.063	420.25
475.282	386.25
475.501	411.25
475.72	406.25
475.939	401.25
476.158	418.25
476.377	407.25
476.596	428.25
476.814	412.25
477.033	426.25
477.252	420.25
477.471	418.25
477.69	432.25
477.908	437.25
478.127	425.25
478.346	450.25
478.564	459.25
478.783	444.25
479.002	466.25
479.22	450.25
479.439	462.25
479.658	506.25
479.876	481.25
480.095	482.25
480.313	509.25
480.532	503.25
480.751	485.25
480.969	514.25
481.188	580.25
481.406	629.25
481.624	547.25
481.843	500.25
482.061	489.25
482.28	482.25
482.498	467.25
482.717	459.25
482.935	463.25
483.153	468.25
483.372	465.25
483.59	470.25
483.808	470.25
484.027	459.25
484.245	473.25
484.463	472.25
484.681	477.25
484.9	480.25
485.118	483.25
485.336	490.25
485.554	489.25
485.772	493.25
485.99	482.25
486.209	480.25
486.427	488.25
486.645	501.25
486.863	528.25
487.081	527.25
487.299	513.25
487.517	509.25
487.735	514.25
487.953	517.25
488.171	494.25
488.389	512.25
488.607	508.25
488.825	506.25
489.043	513.25
489.261	527.25
489.479	513.25
489.696	524.25
489.914	508.25
490.132	530.25
490.35	536.25
490.568	544.25
490.786	538.25
491.003	563.25
491.221	556.25
491.439	570.25
491.657	548.25
491.874	571.25
492.092	597.25
492.31	606.25
492.527	599.25
492.745	606.25
492.963	577.25
493.18	584.25
493.398	593.25
493.615	599.25
493.833	592.25
494.05	596.25
494.268	602.25
494.485	620.25
494.703	617.25
494.92	604.25
495.138	599.25
495.355	602.25
495.573	600.25
495.79	607.25
496.008	587.25
496.225	624.25
496.442	613.25
496.66	604.25
496.877	594.25
497.094	589.25
497.312	605.25
497.529	617.25
497.746	613.25
497.963	608.25
498.181	634.25
498.398	658.25
498.615	643.25
498.832	650.25
499.049	650.25
499.267	657.25
499.484	692.25
499.701	698.25
499.918	734.25
500.135	736.25
500.352	757.25
500.569	769.25
500.786	771.25
501.003	779.25
501.22	744.25
501.437	728.25
501.654	729.25
501.871	754.25
502.088	717.25
502.305	675.25
502.522	661.25
502.739	646.25
502.956	632.25
503.172	628.25
503.389	614.25
503.606	638.25
503.823	627.25
504.04	595.25
504.256	605.25
504.473	594.25
504.69	601.25
504.907	603.25
505.123	594.25
505.34	600.25
505.557	589.25
505.773	576.25
505.99	579.25
506.207	570.25
506.423	566.25
506.64	580.25
506.856	574.25
507.073	555.25
507.289	564.25
507.506	553.25
507.722	584.25
507.939	590.25
508.155	564.25
508.372	579.25
508.588	543.25
508.805	553.25
509.021	518.25
509.238	550.25
509.454	571.25
509.67	547.25
509.887	561.25
510.103	544.25
510.319	542.25
510.536	672.25
510.752	1175.25
510.968	933.25
511.184	588.25
511.401	557.25
511.617	552.25
511.833	553.25
512.049	541.25
512.265	518.25
512.481	538.25
512.698	513.25
512.914	520.25
513.13	517.25
513.346	506.25
513.562	512.25
513.778	521.25
513.994	539.25
514.21	535.25
514.426	562.25
514.642	632.25
514.858	617.25
515.074	685.25
515.29	843.25
515.506	1322.25
515.721	1051.25
515.937	663.25
516.153	576.25
516.369	564.25
516.585	554.25
516.801	549.25
517.016	536.25
517.232	547.25
517.448	531.25
517.664	529.25
517.879	535.25
518.095	534.25
518.311	538.25
518.527	505.25
518.742	511.25
518.958	504.25
519.173	500.25
519.389	504.25
519.605	535.25
519.82	525.25
520.036	532.25
520.251	564.25
520.467	605.25
520.682	593.25
520.898	596.25
521.113	624.25
521.329	658.25
521.544	757.25
521.76	1019.25
521.975	1774.25
522.19	1737.25
522.406	880.25
522.621	636.25
522.836	548.25
523.052	538.25
523.267	508.25
523.482	491.25
523.698	485.25
523.913	485.25
524.128	512.25
524.343	466.25
524.559	476.25
524.774	448.25
524.989	448.25
525.204	475.25
525.419	479.25
525.634	452.25
525.849	434.25
526.064	445.25
526.28	436.25
526.495	435.25
526.71	445.25
526.925	442.25
527.14	426.25
527.355	413.25
527.57	425.25
527.785	425.25
527.999	425.25
528.214	423.25
528.429	419.25
528.644	443.25
528.859	421.25
529.074	438.25
529.289	446.25
529.503	541.25
529.718	500.25
529.933	457.25
530.148	436.25
530.363	418.25
530.577	406.25
530.792	397.25
531.007	406.25
531.221	406.25
531.436	398.25
531.651	406.25
531.865	388.25
532.08	384.25
532.295	404.25
532.509	389.25
532.724	372.25
532.938	396.25
533.153	389.25
533.367	393.25
533.582	412.25
533.796	394.25
534.011	377.25
534.225	409.25
534.44	385.25
534.654	398.25
534.868	372.25
535.083	387.25
535.297	381.25
535.511	387.25
535.726	390.25
535.94	406.25
536.154	391.25
536.369	388.25
536.583	383.25
536.797	378.25
537.011	374.25
537.225	372.25
537.44	390.25
537.654	386.25
537.868	375.25
538.082	373.25
538.296	390.25
538.51	398.25
538.724	392.25
538.938	379.25
539.153	389.25
539.367	386.25
539.581	403.25
539.795	390.25
540.009	386.25
540.222	384.25
540.436	384.25
540.65	387.25
540.864	399.25
541.078	409.25
541.292	404.25
541.506	377.25
541.72	369.25
541.934	377.25
542.147	386.25
542.361	383.25
542.575	373.25
542.789	363.25
543.002	382.25
543.216	365.25
543.43	390.25
543.644	392.25
543.857	376.25
544.071	385.25
544.285	368.25
544.498	358.25
544.712	374.25
544.925	351.25
545.139	361.25
545.352	372.25
545.566	359.25
545.779	366.25
545.993	376.25
546.206	353.25
546.42	380.25
546.633	353.25
546.847	344.25
547.06	375.25
547.274	344.25
547.487	375.25
547.7	359.25
547.914	354.25
548.127	370.25
548.34	365.25
548.554	359.25
548.767	361.25
548.98	367.25
549.193	363.25
549.407	356.25
549.62	370.25
549.833	351.25
550.046	334.25
550.259	359.25
550.473	344.25
550.686	346.25
550.899	339.25
551.112	328.25
551.325	355.25
551.538	343.25
551.751	342.25
551.964	361.25
552.177	333.25
552.39	348.25
552.603	331.25
552.816	341.25
553.029	384.25
553.242	346.25
553.455	372.25
553.667	368.25
553.88	377.25
554.093	363.25
554.306	368.25
554.519	360.25
554.732	346.25
554.944	360.25
555.157	330.25
555.37	348.25
555.583	325.25
555.795	325.25
556.008	344.25
556.221	342.25
556.433	329.25
556.646	311.25
556.859	350.25
557.071	308.25
557.284	340.25
557.496	320.25
557.709	320.25
557.921	336.25
558.134	312.25
558.346	309.25
558.559	304.25
558.771	315.25
558.984	299.25
559.196	311.25
559.409	316.25
559.621	305.25
559.833	298.25
560.046	318.25
560.258	307.25
560.47	301.25
560.683	294.25
560.895	300.25
561.107	328.25
561.32	309.25
561.532	306.25
561.744	323.25
561.956	306.25
562.168	309.25
562.381	313.25
562.593	311.25
562.805	311.25
563.017	325.25
563.229	309.25
563.441	318.25
563.653	328.25
563.865	309.25
564.077	338.25
564.289	321.25
564.501	312.25
564.713	340.25
564.925	344.25
565.137	321.25
565.349	338.25
565.561	333.25
565.773	327.25
565.985	326.25
566.197	346.25
566.408	341.25
566.62	374.25
566.832	349.25
567.044	342.25
567.255	347.25
567.467	374.25
567.679	382.25
567.891	381.25
568.102	371.25
568.314	361.25
568.526	354.25
568.737	343.25
568.949	349.25
569.161	339.25
569.372	313.25
569.584	288.25
569.795	306.25
570.007	334.25
570.218	384.25
570.43	354.25
570.641	312.25
570.853	297.25
571.064	307.25
571.276	290.25
571.487	309.25
571.698	297.25
571.91	298.25
572.121	289.25
572.333	278.25
572.544	272.25
572.755	309.25
572.966	279.25
573.178	273.25
573.389	274.25
573.6	273.25
573.811	269.25
574.023	268.25
574.234	274.25
574.445	261.25
574.656	274.25
574.867	292.25
575.078	288.25
575.289	274.25
575.501	271.25
575.712	261.25
575.923	268.25
576.134	261.25
576.345	262.25
576.556	269.25
576.767	262.25
576.978	267.25
577.188	256.25
577.399	254.25
577.61	243.25
577.821	240.25
578.032	248.25
578.243	300.25
578.454	528.25
578.665	375.25
578.875	284.25
579.086	254.25
579.297	264.25
579.508	253.25
579.718	274.25
579.929	258.25
580.14	260.25
580.35	247.25
580.561	246.25
580.772	257.25
580.982	255.25
581.193	230.25
581.403	240.25
581.614	244.25
581.825	265.25
582.035	244.25
582.246	250.25
582.456	254.25
582.667	251.25
582.877	231.25
583.087	248.25
583.298	233.25
583.508	238.25
583.719	254.25
583.929	233.25
584.139	242.25
584.35	241.25
584.56	253.25
584.77	242.25
584.981	241.25
585.191	235.25
585.401	247.25
585.611	240.25
585.821	231.25
586.032	220.25
586.242	237.25
586.452	230.25
586.662	240.25
586.872	234.25
587.082	229.25
587.292	225.25
587.502	225.25
587.713	228.25
587.923	231.25
588.133	235.25
588.343	238.25
588.553	240.25
588.762	252.25
588.972	252.25
589.182	244.25
589.392	241.25
589.602	227.25
589.812	234.25
590.022	224.25
590.232	230.25
590.441	226.25
590.651	233.25
590.861	233.25
591.071	243.25
591.281	229.25
591.49	248.25
591.7	242.25
591.91	252.25
592.119	245.25
592.329	228.25
592.539	243.25
592.748	264.25
592.958	224.25
593.167	238.25
593.377	240.25
593.587	253.25
593.796	235.25
594.006	237.25
594.215	244.25
594.424	254.25
594.634	234.25
594.843	247.25
595.053	237.25
595.262	216.25
595.472	250.25
595.681	245.25
595.89	220.25
596.1	204.25
596.309	218.25
596.518	225.25
596.727	213.25
596.937	229.25
597.146	212.25
597.355	219.25
597.564	215.25
597.774	220.25
597.983	205.25
598.192	205.25
598.401	225.25
598.61	218.25
598.819	206.25
599.028	205.25
599.237	220.25
599.446	213.25
599.655	202.25
599.864	225.25
600.073	200.25
600.282	215.25
600.491	212.25
600.7	202.25
600.909	207.25
601.118	203.25
601.327	205.25
601.536	197.25
601.745	213.25
601.953	209.25
602.162	216.25
602.371	214.25
602.58	212.25
602.789	218.25
602.997	211.25
603.206	210.25
603.415	203.25
603.623	200.25
603.832	230.25
604.041	204.25
604.249	202.25
604.458	205.25
604.666	200.25
604.875	209.25
605.084	201.25
605.292	207.25
605.501	193.25
605.709	205.25
605.918	197.25
606.126	206.25
606.334	206.25
606.543	205.25
606.751	207.25
606.96	191.25
607.168	188.25
607.376	194.25
607.585	208.25
607.793	188.25
608.001	204.25
608.21	203.25
608.418	188.25
608.626	191.25
608.834	197.25
609.043	194.25
609.251	204.25
609.459	207.25
609.667	214.25
609.875	199.25
610.083	212.25
610.291	201.25
610.499	200.25
610.707	203.25
610.916	194.25
611.124	204.25
611.332	197.25
611.54	212.25
611.748	200.25
611.955	197.25
612.163	200.25
612.371	205.25
612.579	212.25
612.787	198.25
612.995	175.25
613.203	194.25
613.411	194.25
613.618	186.25
613.826	185.25
614.034	197.25
614.242	201.25
614.449	197.25
614.657	185.25
614.865	181.25
615.072	186.25
615.28	200.25
615.488	180.25
615.695	192.25
615.903	201.25
616.111	180.25
616.318	181.25
616.526	206.25
616.733	192.25
616.941	206.25
617.148	195.25
617.356	207.25
617.563	198.25
617.771	197.25
617.978	196.25
618.185	201.25
618.393	190.25
618.6	179.25
618.807	198.25
619.015	205.25
619.222	197.25
619.429	193.25
619.637	186.25
619.844	190.25
620.051	179.25
620.258	204.25
620.466	195.25
620.673	186.25
620.88	165.25
621.087	182.25
621.294	182.25
621.501	185.25
621.708	200.25
621.915	208.25
622.122	192.25
622.329	186.25
622.536	189.25
622.743	166.25
622.95	185.25
623.157	185.25
623.364	183.25
623.571	172.25
623.778	186.25
623.985	178.25
624.192	176.25
624.399	167.25
624.606	180.25
624.812	194.25
625.019	168.25
625.226	176.25
625.433	188.25
625.639	178.25
625.846	167.25
626.053	168.25
626.259	185.25
626.466	166.25
626.673	162.25
626.879	167.25
627.086	175.25
627.293	166.25
627.499	178.25
627.706	190.25
627.912	158.25
628.119	153.25
628.325	167.25
628.532	174.25
628.738	154.25
628.945	161.25
629.151	158.25
629.357	159.25
629.564	180.25
629.77	202.25
629.976	166.25
630.183	180.25
630.389	162.25
630.595	170.25
630.802	163.25
631.008	161.25
631.214	176.25
631.42	166.25
631.627	165.25
631.833	170.25
632.039	181.25
632.245	176.25
632.451	159.25
632.657	148.25
632.863	164.25
633.069	143.25
633.275	154.25
633.481	155.25
633.688	161.25
633.893	156.25
634.099	160.25
634.305	156.25
634.511	159.25
634.717	153.25
634.923	145.25
635.129	155.25
635.335	149.25
635.541	155.25
635.747	155.25
635.952	148.25
636.158	154.25
636.364	165.25
636.57	167.25
636.775	161.25
636.981	167.25
637.187	166.25
637.392	168.25
637.598	151.25
637.804	148.25
638.009	177.25
638.215	156.25
638.421	136.25
638.626	149.25
638.832	153.25
639.037	162.25
639.243	160.25
639.448	160.25
639.654	162.25
639.859	138.25
640.065	138.25
640.27	145.25
640.475	148.25
640.681	151.25
640.886	136.25
641.091	157.25
641.297	131.25
641.502	148.25
641.707	158.25
641.913	148.25
642.118	135.25
642.323	144.25
642.528	151.25
642.733	167.25
642.939	149.25
643.144	150.25
643.349	155.25
643.554	136.25
643.759	143.25
643.964	153.25
644.169	138.25
644.374	154.25
644.579	160.25
644.784	137.25
644.989	166.25
645.194	155.25
645.399	146.25
645.604	140.25
645.809	144.25
646.014	138.25
646.219	149.25
646.423	149.25
646.628	158.25
646.833	136.25
647.038	139.25
647.243	152.25
647.447	147.25
647.652	131.25
647.857	132.25
648.062	128.25
648.266	143.25
648.471	156.25
648.676	151.25
648.88	153.25
649.085	133.25
649.289	142.25
649.494	153.25
649.698	149.25
649.903	170.25
650.107	148.25
650.312	141.25
650.516	140.25
650.721	143.25
650.925	156.25
651.13	127.25
651.334	145.25
651.539	137.25
651.743	118.25
651.947	126.25
652.152	128.25
652.356	134.25
652.56	122.25
652.764	136.25
652.969	126.25
653.173	139.25
653.377	138.25
653.581	132.25
653.785	126.25
653.99	133.25
654.194	127.25
654.398	117.25
654.602	121.25
654.806	132.25
655.01	136.25
655.214	126.25
655.418	118.25
655.622	133.25
655.826	128.25
656.03	122.25
656.234	130.25
656.438	137.25
656.642	125.25
656.846	116.25
657.049	115.25
657.253	107.25
657.457	114.25
657.661	116.25
657.865	108.25
658.068	109.25
658.272	99.25
658.476	101.25
658.68	104.25
658.883	95.25
659.087	105.25
659.291	94.25
659.494	101.25
659.698	105.25
659.901	88.25
660.105	89.25
660.309	105.25
660.512	91.25
660.716	82.25
660.919	99.25
661.123	97.25
661.326	82.25
661.53	98.25
661.733	89.25
661.936	89.25
662.14	90.25
662.343	90.25
662.546	83.25
662.75	82.25
662.953	93.25
663.156	82.25
663.36	67.25
663.563	78.25
663.766	86.25
663.969	85.25
664.173	82.25
664.376	89.25
664.579	86.25
664.782	74.25
664.985	82.25
665.188	72.25
665.391	81.25
665.594	86.25
665.797	76.25
666	83.25
666.203	76.25
666.406	62.25
666.609	79.25
666.812	78.25
667.015	73.25
667.218	86.25
667.421	80.25
667.624	84.25
667.827	91.25
668.03	85.25
668.232	86.25
668.435	95.25
668.638	87.25
668.841	80.25
669.043	88.25
669.246	79.25
669.449	80.25
669.651	76.25
669.854	84.25
670.057	77.25
670.259	97.25
670.462	75.25
670.665	74.25
670.867	89.25
671.07	85.25
671.272	90.25
671.475	84.25
671.677	86.25
671.88	83.25
672.082	68.25
672.284	82.25
672.487	82.25
672.689	87.25
672.892	64.25
