Data from 1983.PennyLincolnUp.Lamp.En5.5.200Scan.071819.P1_HRD10591_16-52-54-965.txt Node
Date: Thu Jul 18 16:52:54 EDT 2019
User: cochatt
Spectrometer: HR+D1059
Trigger mode: 1
Integration Time (sec): 1.000000E-1
Scans to average: 1
Electric dark correction enabled: true
Nonlinearity correction enabled: false
Boxcar width: 0
XAxis mode: Wavelengths
Number of Pixels in Spectrum: 2048
>>>>>Begin Spectral Data<<<<<
223.165	-2.56
223.4	-2.56
223.635	-2.56
223.869	-13.56
224.104	-26.56
224.338	-2.56
224.573	-4.56
224.808	-14.56
225.042	5.44
225.277	-10.56
225.511	-12.56
225.746	-10.56
225.98	-0.56
226.215	9.44
226.449	16.44
226.683	19.44
226.918	18.44
227.152	29.44
227.387	35.44
227.621	37.44
227.856	37.44
228.09	39.44
228.324	42.44
228.559	58.44
228.793	59.44
229.027	85.44
229.262	97.44
229.496	97.44
229.73	100.44
229.964	138.44
230.199	113.44
230.433	98.44
230.667	107.44
230.901	94.44
231.136	85.44
231.37	91.44
231.604	118.44
231.838	96.44
232.072	86.44
232.306	98.44
232.541	100.44
232.775	102.44
233.009	108.44
233.243	113.44
233.477	117.44
233.711	98.44
233.945	102.44
234.179	124.44
234.413	101.44
234.647	120.44
234.881	105.44
235.115	122.44
235.349	115.44
235.583	120.44
235.817	114.44
236.051	111.44
236.285	111.44
236.519	107.44
236.753	124.44
236.987	127.44
237.221	155.44
237.455	193.44
237.689	165.44
237.922	122.44
238.156	133.44
238.39	119.44
238.624	105.44
238.858	113.44
239.091	111.44
239.325	104.44
239.559	108.44
239.793	123.44
240.027	142.44
240.26	127.44
240.494	155.44
240.728	132.44
240.961	119.44
241.195	127.44
241.429	130.44
241.662	131.44
241.896	120.44
242.13	121.44
242.363	114.44
242.597	126.44
242.83	125.44
243.064	131.44
243.298	103.44
243.531	121.44
243.765	131.44
243.998	125.44
244.232	133.44
244.465	120.44
244.699	128.44
244.932	121.44
245.166	128.44
245.399	121.44
245.633	121.44
245.866	132.44
246.099	133.44
246.333	139.44
246.566	149.44
246.8	151.44
247.033	142.44
247.266	146.44
247.5	148.44
247.733	147.44
247.966	153.44
248.2	159.44
248.433	141.44
248.666	133.44
248.899	162.44
249.133	175.44
249.366	183.44
249.599	176.44
249.832	177.44
250.066	161.44
250.299	167.44
250.532	163.44
250.765	177.44
250.998	185.44
251.231	184.44
251.465	171.44
251.698	171.44
251.931	171.44
252.164	178.44
252.397	179.44
252.63	161.44
252.863	185.44
253.096	210.44
253.329	201.44
253.562	203.44
253.795	193.44
254.028	186.44
254.261	195.44
254.494	200.44
254.727	225.44
254.96	239.44
255.193	232.44
255.426	216.44
255.659	207.44
255.892	191.44
256.124	191.44
256.357	190.44
256.59	187.44
256.823	186.44
257.056	173.44
257.289	199.44
257.521	195.44
257.754	177.44
257.987	173.44
258.22	194.44
258.452	188.44
258.685	167.44
258.918	171.44
259.151	175.44
259.383	202.44
259.616	193.44
259.849	210.44
260.081	202.44
260.314	222.44
260.547	219.44
260.779	228.44
261.012	214.44
261.244	198.44
261.477	189.44
261.71	196.44
261.942	204.44
262.175	221.44
262.407	217.44
262.64	183.44
262.872	187.44
263.105	177.44
263.337	187.44
263.57	183.44
263.802	170.44
264.035	193.44
264.267	197.44
264.499	181.44
264.732	188.44
264.964	193.44
265.197	197.44
265.429	193.44
265.661	201.44
265.894	200.44
266.126	196.44
266.358	195.44
266.591	199.44
266.823	191.44
267.055	213.44
267.287	216.44
267.52	190.44
267.752	197.44
267.984	205.44
268.216	196.44
268.448	223.44
268.681	195.44
268.913	205.44
269.145	219.44
269.377	236.44
269.609	235.44
269.841	218.44
270.073	244.44
270.306	259.44
270.538	260.44
270.77	269.44
271.002	240.44
271.234	256.44
271.466	238.44
271.698	257.44
271.93	276.44
272.162	267.44
272.394	275.44
272.626	257.44
272.858	264.44
273.09	239.44
273.322	223.44
273.553	215.44
273.785	226.44
274.017	229.44
274.249	213.44
274.481	232.44
274.713	223.44
274.945	231.44
275.176	237.44
275.408	235.44
275.64	232.44
275.872	214.44
276.104	224.44
276.335	229.44
276.567	236.44
276.799	252.44
277.031	260.44
277.262	263.44
277.494	285.44
277.726	248.44
277.957	257.44
278.189	228.44
278.421	230.44
278.652	228.44
278.884	231.44
279.115	209.44
279.347	223.44
279.579	240.44
279.81	233.44
280.042	226.44
280.273	228.44
280.505	225.44
280.736	232.44
280.968	243.44
281.199	215.44
281.431	236.44
281.662	233.44
281.894	226.44
282.125	219.44
282.356	255.44
282.588	270.44
282.819	273.44
283.051	240.44
283.282	229.44
283.513	242.44
283.745	232.44
283.976	261.44
284.207	237.44
284.439	230.44
284.67	252.44
284.901	236.44
285.132	242.44
285.364	229.44
285.595	239.44
285.826	251.44
286.057	243.44
286.288	255.44
286.52	247.44
286.751	223.44
286.982	244.44
287.213	254.44
287.444	251.44
287.675	247.44
287.906	245.44
288.138	263.44
288.369	241.44
288.6	267.44
288.831	263.44
289.062	257.44
289.293	259.44
289.524	269.44
289.755	251.44
289.986	258.44
290.217	244.44
290.448	248.44
290.679	239.44
290.91	244.44
291.141	245.44
291.371	251.44
291.602	253.44
291.833	250.44
292.064	249.44
292.295	246.44
292.526	251.44
292.757	255.44
292.987	246.44
293.218	261.44
293.449	255.44
293.68	246.44
293.91	244.44
294.141	250.44
294.372	261.44
294.603	255.44
294.833	242.44
295.064	242.44
295.295	246.44
295.525	241.44
295.756	247.44
295.987	267.44
296.217	286.44
296.448	283.44
296.679	260.44
296.909	253.44
297.14	266.44
297.37	268.44
297.601	268.44
297.831	244.44
298.062	264.44
298.292	268.44
298.523	279.44
298.753	271.44
298.984	254.44
299.214	243.44
299.445	268.44
299.675	271.44
299.905	268.44
300.136	283.44
300.366	269.44
300.597	280.44
300.827	282.44
301.057	273.44
301.288	297.44
301.518	285.44
301.748	283.44
301.979	276.44
302.209	270.44
302.439	285.44
302.669	287.44
302.9	265.44
303.13	291.44
303.36	287.44
303.59	294.44
303.82	277.44
304.051	298.44
304.281	270.44
304.511	285.44
304.741	301.44
304.971	287.44
305.201	286.44
305.431	275.44
305.661	275.44
305.891	284.44
306.121	285.44
306.352	288.44
306.582	311.44
306.812	279.44
307.042	266.44
307.272	267.44
307.502	291.44
307.731	307.44
307.961	303.44
308.191	292.44
308.421	284.44
308.651	299.44
308.881	298.44
309.111	284.44
309.341	294.44
309.571	298.44
309.8	319.44
310.03	307.44
310.26	319.44
310.49	322.44
310.72	327.44
310.949	337.44
311.179	349.44
311.409	331.44
311.639	317.44
311.868	332.44
312.098	323.44
312.328	332.44
312.557	368.44
312.787	375.44
313.017	347.44
313.246	343.44
313.476	328.44
313.706	315.44
313.935	320.44
314.165	339.44
314.394	348.44
314.624	347.44
314.853	326.44
315.083	325.44
315.312	333.44
315.542	320.44
315.771	337.44
316.001	328.44
316.23	320.44
316.46	316.44
316.689	328.44
316.919	334.44
317.148	337.44
317.377	333.44
317.607	331.44
317.836	319.44
318.065	348.44
318.295	336.44
318.524	323.44
318.753	323.44
318.983	314.44
319.212	339.44
319.441	332.44
319.67	324.44
319.9	330.44
320.129	322.44
320.358	334.44
320.587	338.44
320.816	342.44
321.046	344.44
321.275	340.44
321.504	336.44
321.733	342.44
321.962	352.44
322.191	361.44
322.42	375.44
322.649	372.44
322.878	397.44
323.108	403.44
323.337	421.44
323.566	432.44
323.795	455.44
324.024	492.44
324.253	619.44
324.482	881.44
324.71	1340.44
324.939	1784.44
325.168	1494.44
325.397	809.44
325.626	569.44
325.855	467.44
326.084	455.44
326.313	429.44
326.542	442.44
326.77	495.44
326.999	576.44
327.228	787.44
327.457	1153.44
327.686	1319.44
327.914	904.44
328.143	616.44
328.372	521.44
328.6	500.44
328.829	515.44
329.058	495.44
329.287	487.44
329.515	478.44
329.744	394.44
329.972	409.44
330.201	430.44
330.43	439.44
330.658	476.44
330.887	530.44
331.115	508.44
331.344	443.44
331.572	431.44
331.801	424.44
332.03	415.44
332.258	402.44
332.486	380.44
332.715	377.44
332.943	377.44
333.172	378.44
333.4	393.44
333.629	380.44
333.857	367.44
334.085	375.44
334.314	381.44
334.542	390.44
334.771	407.44
334.999	384.44
335.227	388.44
335.455	405.44
335.684	371.44
335.912	389.44
336.14	378.44
336.369	376.44
336.597	370.44
336.825	376.44
337.053	386.44
337.281	378.44
337.51	383.44
337.738	360.44
337.966	369.44
338.194	401.44
338.422	375.44
338.65	380.44
338.878	352.44
339.106	364.44
339.334	371.44
339.562	371.44
339.79	362.44
340.018	375.44
340.246	364.44
340.474	395.44
340.702	376.44
340.93	365.44
341.158	371.44
341.386	367.44
341.614	385.44
341.842	357.44
342.07	361.44
342.298	352.44
342.526	368.44
342.754	351.44
342.981	352.44
343.209	352.44
343.437	354.44
343.665	372.44
343.893	374.44
344.12	384.44
344.348	371.44
344.576	364.44
344.804	381.44
345.031	373.44
345.259	405.44
345.487	395.44
345.714	341.44
345.942	351.44
346.17	378.44
346.397	347.44
346.625	346.44
346.853	373.44
347.08	345.44
347.308	371.44
347.535	359.44
347.763	336.44
347.99	368.44
348.218	357.44
348.445	384.44
348.673	379.44
348.9	353.44
349.128	357.44
349.355	366.44
349.583	331.44
349.81	311.44
350.037	339.44
350.265	338.44
350.492	335.44
350.72	345.44
350.947	346.44
351.174	348.44
351.402	367.44
351.629	357.44
351.856	353.44
352.083	367.44
352.311	368.44
352.538	371.44
352.765	374.44
352.992	369.44
353.22	359.44
353.447	351.44
353.674	340.44
353.901	348.44
354.128	329.44
354.355	343.44
354.583	333.44
354.81	324.44
355.037	317.44
355.264	324.44
355.491	317.44
355.718	336.44
355.945	329.44
356.172	339.44
356.399	319.44
356.626	332.44
356.853	325.44
357.08	339.44
357.307	311.44
357.534	332.44
357.761	335.44
357.988	330.44
358.215	338.44
358.441	323.44
358.668	322.44
358.895	331.44
359.122	341.44
359.349	324.44
359.576	362.44
359.802	374.44
360.029	391.44
360.256	419.44
360.483	367.44
360.709	356.44
360.936	362.44
361.163	340.44
361.39	363.44
361.616	363.44
361.843	345.44
362.07	336.44
362.296	354.44
362.523	367.44
362.749	351.44
362.976	342.44
363.203	352.44
363.429	338.44
363.656	344.44
363.882	330.44
364.109	333.44
364.335	340.44
364.562	344.44
364.788	351.44
365.015	336.44
365.241	329.44
365.468	365.44
365.694	361.44
365.92	340.44
366.147	328.44
366.373	333.44
366.599	346.44
366.826	343.44
367.052	341.44
367.278	327.44
367.505	334.44
367.731	337.44
367.957	340.44
368.184	337.44
368.41	341.44
368.636	335.44
368.862	349.44
369.089	349.44
369.315	320.44
369.541	337.44
369.767	315.44
369.993	325.44
370.219	321.44
370.445	337.44
370.672	330.44
370.898	345.44
371.124	332.44
371.35	345.44
371.576	331.44
371.802	309.44
372.028	329.44
372.254	341.44
372.48	355.44
372.706	330.44
372.932	335.44
373.158	346.44
373.384	346.44
373.61	334.44
373.835	347.44
374.061	357.44
374.287	328.44
374.513	342.44
374.739	344.44
374.965	347.44
375.191	354.44
375.416	327.44
375.642	345.44
375.868	338.44
376.094	325.44
376.319	338.44
376.545	319.44
376.771	326.44
376.997	329.44
377.222	348.44
377.448	339.44
377.674	330.44
377.899	327.44
378.125	309.44
378.35	323.44
378.576	311.44
378.802	315.44
379.027	316.44
379.253	319.44
379.478	321.44
379.704	324.44
379.929	333.44
380.155	341.44
380.38	323.44
380.606	351.44
380.831	331.44
381.057	343.44
381.282	330.44
381.507	328.44
381.733	341.44
381.958	337.44
382.184	348.44
382.409	339.44
382.634	326.44
382.86	341.44
383.085	337.44
383.31	317.44
383.535	354.44
383.761	353.44
383.986	349.44
384.211	363.44
384.436	343.44
384.662	331.44
384.887	348.44
385.112	348.44
385.337	352.44
385.562	349.44
385.787	364.44
386.013	354.44
386.238	340.44
386.463	341.44
386.688	337.44
386.913	357.44
387.138	369.44
387.363	343.44
387.588	361.44
387.813	343.44
388.038	356.44
388.263	355.44
388.488	363.44
388.713	367.44
388.938	359.44
389.163	356.44
389.387	372.44
389.612	355.44
389.837	342.44
390.062	340.44
390.287	362.44
390.512	342.44
390.736	351.44
390.961	339.44
391.186	364.44
391.411	360.44
391.636	378.44
391.86	356.44
392.085	360.44
392.31	360.44
392.534	349.44
392.759	355.44
392.984	359.44
393.208	371.44
393.433	359.44
393.658	361.44
393.882	360.44
394.107	352.44
394.331	347.44
394.556	342.44
394.78	368.44
395.005	364.44
395.229	370.44
395.454	367.44
395.678	377.44
395.903	381.44
396.127	400.44
396.352	381.44
396.576	364.44
396.801	374.44
397.025	355.44
397.249	356.44
397.474	381.44
397.698	373.44
397.922	402.44
398.147	392.44
398.371	407.44
398.595	401.44
398.82	395.44
399.044	403.44
399.268	428.44
399.492	416.44
399.717	444.44
399.941	453.44
400.165	489.44
400.389	513.44
400.613	452.44
400.837	444.44
401.062	428.44
401.286	410.44
401.51	413.44
401.734	401.44
401.958	401.44
402.182	400.44
402.406	397.44
402.63	418.44
402.854	406.44
403.078	431.44
403.302	407.44
403.526	426.44
403.75	410.44
403.974	407.44
404.198	402.44
404.422	421.44
404.645	433.44
404.869	413.44
405.093	433.44
405.317	433.44
405.541	455.44
405.765	425.44
405.988	442.44
406.212	441.44
406.436	460.44
406.66	487.44
406.883	466.44
407.107	464.44
407.331	493.44
407.555	525.44
407.778	510.44
408.002	511.44
408.226	450.44
408.449	449.44
408.673	459.44
408.896	467.44
409.12	513.44
409.344	460.44
409.567	465.44
409.791	413.44
410.014	425.44
410.238	401.44
410.461	411.44
410.685	411.44
410.908	419.44
411.132	469.44
411.355	481.44
411.578	467.44
411.802	413.44
412.025	417.44
412.249	422.44
412.472	395.44
412.695	424.44
412.919	437.44
413.142	419.44
413.365	409.44
413.589	391.44
413.812	394.44
414.035	378.44
414.258	390.44
414.482	401.44
414.705	401.44
414.928	408.44
415.151	387.44
415.374	392.44
415.597	387.44
415.821	386.44
416.044	384.44
416.267	399.44
416.49	401.44
416.713	397.44
416.936	409.44
417.159	392.44
417.382	377.44
417.605	392.44
417.828	394.44
418.051	416.44
418.274	396.44
418.497	407.44
418.72	391.44
418.943	394.44
419.166	382.44
419.389	433.44
419.611	403.44
419.834	401.44
420.057	415.44
420.28	420.44
420.503	390.44
420.726	387.44
420.948	410.44
421.171	441.44
421.394	459.44
421.617	411.44
421.839	420.44
422.062	431.44
422.285	398.44
422.507	462.44
422.73	510.44
422.953	488.44
423.175	444.44
423.398	440.44
423.621	412.44
423.843	434.44
424.066	453.44
424.288	459.44
424.511	460.44
424.733	477.44
424.956	548.44
425.178	537.44
425.401	532.44
425.623	539.44
425.846	463.44
426.068	465.44
426.291	464.44
426.513	436.44
426.735	449.44
426.958	475.44
427.18	536.44
427.402	636.44
427.625	691.44
427.847	618.44
428.069	531.44
428.292	476.44
428.514	413.44
428.736	421.44
428.958	442.44
429.181	425.44
429.403	394.44
429.625	414.44
429.847	439.44
430.069	475.44
430.292	487.44
430.514	431.44
430.736	415.44
430.958	415.44
431.18	396.44
431.402	382.44
431.624	395.44
431.846	377.44
432.068	386.44
432.29	381.44
432.512	373.44
432.734	397.44
432.956	393.44
433.178	407.44
433.4	402.44
433.622	391.44
433.844	397.44
434.066	378.44
434.287	402.44
434.509	384.44
434.731	408.44
434.953	407.44
435.175	417.44
435.397	431.44
435.618	459.44
435.84	485.44
436.062	518.44
436.284	601.44
436.505	481.44
436.727	436.44
436.949	443.44
437.17	425.44
437.392	407.44
437.614	446.44
437.835	459.44
438.057	556.44
438.278	590.44
438.5	590.44
438.721	615.44
438.943	601.44
439.165	501.44
439.386	467.44
439.608	452.44
439.829	460.44
440.05	462.44
440.272	483.44
440.493	498.44
440.715	435.44
440.936	426.44
441.158	419.44
441.379	423.44
441.6	435.44
441.822	449.44
442.043	495.44
442.264	549.44
442.486	553.44
442.707	497.44
442.928	448.44
443.149	451.44
443.371	466.44
443.592	516.44
443.813	570.44
444.034	612.44
444.255	503.44
444.476	481.44
444.698	458.44
444.919	434.44
445.14	560.44
445.361	501.44
445.582	491.44
445.803	537.44
446.024	608.44
446.245	603.44
446.466	564.44
446.687	482.44
446.908	460.44
447.129	418.44
447.35	422.44
447.571	419.44
447.792	408.44
448.013	406.44
448.234	441.44
448.455	464.44
448.675	573.44
448.896	634.44
449.117	537.44
449.338	515.44
449.559	609.44
449.779	627.44
450	537.44
450.221	457.44
450.442	417.44
450.662	407.44
450.883	426.44
451.104	434.44
451.324	408.44
451.545	391.44
451.766	375.44
451.986	377.44
452.207	375.44
452.428	361.44
452.648	363.44
452.869	355.44
453.089	392.44
453.31	389.44
453.53	378.44
453.751	377.44
453.971	380.44
454.192	384.44
454.412	376.44
454.633	384.44
454.853	350.44
455.073	383.44
455.294	396.44
455.514	449.44
455.734	416.44
455.955	387.44
456.175	343.44
456.395	361.44
456.616	351.44
456.836	331.44
457.056	348.44
457.276	356.44
457.497	357.44
457.717	358.44
457.937	351.44
458.157	357.44
458.377	371.44
458.598	375.44
458.818	436.44
459.038	520.44
459.258	494.44
459.478	435.44
459.698	401.44
459.918	393.44
460.138	406.44
460.358	379.44
460.578	386.44
460.798	390.44
461.018	377.44
461.238	384.44
461.458	383.44
461.678	388.44
461.898	387.44
462.118	389.44
462.338	394.44
462.558	402.44
462.777	399.44
462.997	411.44
463.217	408.44
463.437	404.44
463.657	421.44
463.876	405.44
464.096	420.44
464.316	413.44
464.536	431.44
464.755	433.44
464.975	432.44
465.195	471.44
465.414	538.44
465.634	469.44
465.854	426.44
466.073	403.44
466.293	385.44
466.512	368.44
466.732	379.44
466.951	388.44
467.171	389.44
467.391	385.44
467.61	386.44
467.829	398.44
468.049	363.44
468.268	379.44
468.488	378.44
468.707	354.44
468.927	359.44
469.146	363.44
469.365	363.44
469.585	375.44
469.804	364.44
470.023	389.44
470.243	391.44
470.462	372.44
470.681	405.44
470.901	397.44
471.12	384.44
471.339	394.44
471.558	403.44
471.777	393.44
471.997	385.44
472.216	357.44
472.435	373.44
472.654	383.44
472.873	384.44
473.092	372.44
473.311	390.44
473.53	372.44
473.749	375.44
473.968	448.44
474.187	481.44
474.406	499.44
474.625	435.44
474.844	393.44
475.063	385.44
475.282	391.44
475.501	371.44
475.72	389.44
475.939	393.44
476.158	413.44
476.377	403.44
476.596	374.44
476.814	397.44
477.033	394.44
477.252	416.44
477.471	404.44
477.69	403.44
477.908	403.44
478.127	437.44
478.346	421.44
478.564	409.44
478.783	411.44
479.002	428.44
479.22	433.44
479.439	450.44
479.658	442.44
479.876	445.44
480.095	424.44
480.313	498.44
480.532	471.44
480.751	467.44
480.969	450.44
481.188	477.44
481.406	466.44
481.624	455.44
481.843	443.44
482.061	454.44
482.28	455.44
482.498	427.44
482.717	431.44
482.935	439.44
483.153	424.44
483.372	444.44
483.59	461.44
483.808	455.44
484.027	454.44
484.245	449.44
484.463	453.44
484.681	466.44
484.9	436.44
485.118	453.44
485.336	466.44
485.554	471.44
485.772	475.44
485.99	453.44
486.209	443.44
486.427	480.44
486.645	464.44
486.863	482.44
487.081	477.44
487.299	478.44
487.517	473.44
487.735	486.44
487.953	478.44
488.171	476.44
488.389	468.44
488.607	484.44
488.825	470.44
489.043	479.44
489.261	477.44
489.479	471.44
489.696	481.44
489.914	481.44
490.132	506.44
490.35	500.44
490.568	470.44
490.786	530.44
491.003	504.44
491.221	499.44
491.439	519.44
491.657	524.44
491.874	555.44
492.092	536.44
492.31	551.44
492.527	530.44
492.745	571.44
492.963	556.44
493.18	555.44
493.398	525.44
493.615	544.44
493.833	548.44
494.05	576.44
494.268	556.44
494.485	541.44
494.703	544.44
494.92	551.44
495.138	563.44
495.355	568.44
495.573	573.44
495.79	568.44
496.008	573.44
496.225	556.44
496.442	575.44
496.66	551.44
496.877	566.44
497.094	590.44
497.312	575.44
497.529	591.44
497.746	573.44
497.963	572.44
498.181	595.44
498.398	607.44
498.615	630.44
498.832	639.44
499.049	644.44
499.267	633.44
499.484	661.44
499.701	668.44
499.918	700.44
500.135	705.44
500.352	734.44
500.569	749.44
500.786	738.44
501.003	767.44
501.22	736.44
501.437	713.44
501.654	750.44
501.871	715.44
502.088	676.44
502.305	658.44
502.522	638.44
502.739	610.44
502.956	613.44
503.172	614.44
503.389	568.44
503.606	605.44
503.823	603.44
504.04	568.44
504.256	588.44
504.473	548.44
504.69	560.44
504.907	570.44
505.123	560.44
505.34	561.44
505.557	541.44
505.773	551.44
505.99	527.44
506.207	548.44
506.423	549.44
506.64	562.44
506.856	530.44
507.073	511.44
507.289	517.44
507.506	508.44
507.722	526.44
507.939	528.44
508.155	511.44
508.372	500.44
508.588	499.44
508.805	523.44
509.021	515.44
509.238	548.44
509.454	524.44
509.67	509.44
509.887	507.44
510.103	487.44
510.319	550.44
510.536	620.44
510.752	1064.44
510.968	830.44
511.184	534.44
511.401	510.44
511.617	507.44
511.833	496.44
512.049	474.44
512.265	489.44
512.481	472.44
512.698	505.44
512.914	503.44
513.13	499.44
513.346	471.44
513.562	501.44
513.778	495.44
513.994	481.44
514.21	516.44
514.426	544.44
514.642	569.44
514.858	601.44
515.074	627.44
515.29	765.44
515.506	1192.44
515.721	919.44
515.937	621.44
516.153	546.44
516.369	543.44
516.585	512.44
516.801	513.44
517.016	533.44
517.232	516.44
517.448	509.44
517.664	530.44
517.879	493.44
518.095	504.44
518.311	509.44
518.527	507.44
518.742	482.44
518.958	483.44
519.173	491.44
519.389	507.44
519.605	501.44
519.82	489.44
520.036	529.44
520.251	531.44
520.467	560.44
520.682	550.44
520.898	551.44
521.113	570.44
521.329	611.44
521.544	678.44
521.76	891.44
521.975	1589.44
522.19	1567.44
522.406	796.44
522.621	591.44
522.836	523.44
523.052	516.44
523.267	482.44
523.482	476.44
523.698	454.44
523.913	469.44
524.128	467.44
524.343	439.44
524.559	447.44
524.774	422.44
524.989	435.44
525.204	426.44
525.419	437.44
525.634	421.44
525.849	409.44
526.064	415.44
526.28	415.44
526.495	412.44
526.71	394.44
526.925	405.44
527.14	405.44
527.355	393.44
527.57	399.44
527.785	402.44
527.999	402.44
528.214	411.44
528.429	399.44
528.644	405.44
528.859	404.44
529.074	415.44
529.289	417.44
529.503	518.44
529.718	485.44
529.933	423.44
530.148	431.44
530.363	412.44
530.577	399.44
530.792	395.44
531.007	401.44
531.221	385.44
531.436	410.44
531.651	361.44
531.865	397.44
532.08	392.44
532.295	380.44
532.509	368.44
532.724	382.44
532.938	374.44
533.153	393.44
533.367	390.44
533.582	401.44
533.796	374.44
534.011	377.44
534.225	371.44
534.44	390.44
534.654	374.44
534.868	376.44
535.083	365.44
535.297	379.44
535.511	379.44
535.726	378.44
535.94	395.44
536.154	365.44
536.369	368.44
536.583	359.44
536.797	358.44
537.011	370.44
537.225	379.44
537.44	375.44
537.654	373.44
537.868	351.44
538.082	375.44
538.296	346.44
538.51	381.44
538.724	375.44
538.938	375.44
539.153	385.44
539.367	387.44
539.581	383.44
539.795	372.44
540.009	374.44
540.222	358.44
540.436	359.44
540.65	363.44
540.864	353.44
541.078	381.44
541.292	375.44
541.506	356.44
541.72	373.44
541.934	362.44
542.147	367.44
542.361	374.44
542.575	356.44
542.789	367.44
543.002	376.44
543.216	363.44
543.43	366.44
543.644	372.44
543.857	349.44
544.071	369.44
544.285	372.44
544.498	369.44
544.712	346.44
544.925	353.44
545.139	375.44
545.352	350.44
545.566	332.44
545.779	364.44
545.993	355.44
546.206	370.44
546.42	345.44
546.633	358.44
546.847	343.44
547.06	360.44
547.274	332.44
547.487	339.44
547.7	344.44
547.914	360.44
548.127	342.44
548.34	356.44
548.554	348.44
548.767	352.44
548.98	373.44
549.193	350.44
549.407	322.44
549.62	332.44
549.833	332.44
550.046	328.44
550.259	338.44
550.473	357.44
550.686	361.44
550.899	342.44
551.112	339.44
551.325	340.44
551.538	351.44
551.751	345.44
551.964	351.44
552.177	351.44
552.39	334.44
552.603	321.44
552.816	345.44
553.029	351.44
553.242	319.44
553.455	357.44
553.667	377.44
553.88	366.44
554.093	367.44
554.306	344.44
554.519	321.44
554.732	331.44
554.944	327.44
555.157	328.44
555.37	309.44
555.583	324.44
555.795	340.44
556.008	333.44
556.221	321.44
556.433	325.44
556.646	321.44
556.859	325.44
557.071	309.44
557.284	314.44
557.496	315.44
557.709	327.44
557.921	333.44
558.134	303.44
558.346	312.44
558.559	301.44
558.771	303.44
558.984	294.44
559.196	307.44
559.409	282.44
559.621	309.44
559.833	295.44
560.046	296.44
560.258	300.44
560.47	303.44
560.683	299.44
560.895	311.44
561.107	292.44
561.32	309.44
561.532	313.44
561.744	311.44
561.956	303.44
562.168	307.44
562.381	299.44
562.593	328.44
562.805	300.44
563.017	300.44
563.229	296.44
563.441	324.44
563.653	308.44
563.865	309.44
564.077	298.44
564.289	317.44
564.501	318.44
564.713	303.44
564.925	328.44
565.137	328.44
565.349	346.44
565.561	339.44
565.773	338.44
565.985	330.44
566.197	342.44
566.408	341.44
566.62	342.44
566.832	359.44
567.044	367.44
567.255	344.44
567.467	387.44
567.679	351.44
567.891	356.44
568.102	343.44
568.314	346.44
568.526	348.44
568.737	343.44
568.949	340.44
569.161	328.44
569.372	308.44
569.584	313.44
569.795	313.44
570.007	314.44
570.218	368.44
570.43	342.44
570.641	293.44
570.853	298.44
571.064	311.44
571.276	278.44
571.487	282.44
571.698	295.44
571.91	279.44
572.121	280.44
572.333	280.44
572.544	284.44
572.755	259.44
572.966	295.44
573.178	282.44
573.389	289.44
573.6	258.44
573.811	257.44
574.023	288.44
574.234	264.44
574.445	261.44
574.656	273.44
574.867	269.44
575.078	247.44
575.289	264.44
575.501	271.44
575.712	243.44
575.923	269.44
576.134	252.44
576.345	259.44
576.556	279.44
576.767	249.44
576.978	247.44
577.188	249.44
577.399	252.44
577.61	246.44
577.821	265.44
578.032	263.44
578.243	291.44
578.454	489.44
578.665	357.44
578.875	266.44
579.086	252.44
579.297	260.44
579.508	259.44
579.718	243.44
579.929	250.44
580.14	241.44
580.35	251.44
580.561	268.44
580.772	253.44
580.982	252.44
581.193	233.44
581.403	251.44
581.614	247.44
581.825	246.44
582.035	235.44
582.246	245.44
582.456	224.44
582.667	229.44
582.877	245.44
583.087	255.44
583.298	255.44
583.508	253.44
583.719	224.44
583.929	241.44
584.139	231.44
584.35	241.44
584.56	251.44
584.77	241.44
584.981	234.44
585.191	231.44
585.401	233.44
585.611	244.44
585.821	246.44
586.032	249.44
586.242	226.44
586.452	245.44
586.662	225.44
586.872	230.44
587.082	228.44
587.292	220.44
587.502	227.44
587.713	225.44
587.923	237.44
588.133	236.44
588.343	226.44
588.553	224.44
588.762	227.44
588.972	234.44
589.182	232.44
589.392	242.44
589.602	232.44
589.812	233.44
590.022	225.44
590.232	235.44
590.441	234.44
590.651	219.44
590.861	235.44
591.071	237.44
591.281	236.44
591.49	229.44
591.7	233.44
591.91	229.44
592.119	222.44
592.329	236.44
592.539	223.44
592.748	263.44
592.958	230.44
593.167	244.44
593.377	247.44
593.587	243.44
593.796	232.44
594.006	254.44
594.215	258.44
594.424	224.44
594.634	234.44
594.843	240.44
595.053	222.44
595.262	221.44
595.472	235.44
595.681	213.44
595.89	233.44
596.1	225.44
596.309	223.44
596.518	215.44
596.727	229.44
596.937	218.44
597.146	223.44
597.355	210.44
597.564	208.44
597.774	212.44
597.983	202.44
598.192	229.44
598.401	208.44
598.61	202.44
598.819	215.44
599.028	205.44
599.237	209.44
599.446	201.44
599.655	215.44
599.864	219.44
600.073	206.44
600.282	199.44
600.491	208.44
600.7	212.44
600.909	207.44
601.118	194.44
601.327	191.44
601.536	201.44
601.745	209.44
601.953	195.44
602.162	203.44
602.371	202.44
602.58	192.44
602.789	199.44
602.997	187.44
603.206	213.44
603.415	182.44
603.623	189.44
603.832	190.44
604.041	189.44
604.249	199.44
604.458	201.44
604.666	202.44
604.875	196.44
605.084	191.44
605.292	210.44
605.501	197.44
605.709	181.44
605.918	193.44
606.126	186.44
606.334	192.44
606.543	218.44
606.751	184.44
606.96	179.44
607.168	172.44
607.376	181.44
607.585	191.44
607.793	185.44
608.001	188.44
608.21	185.44
608.418	205.44
608.626	185.44
608.834	188.44
609.043	179.44
609.251	187.44
609.459	191.44
609.667	194.44
609.875	203.44
610.083	192.44
610.291	189.44
610.499	202.44
610.707	187.44
610.916	190.44
611.124	183.44
611.332	200.44
611.54	194.44
611.748	196.44
611.955	208.44
612.163	198.44
612.371	185.44
612.579	196.44
612.787	196.44
612.995	203.44
613.203	197.44
613.411	190.44
613.618	178.44
613.826	188.44
614.034	175.44
614.242	188.44
614.449	195.44
614.657	192.44
614.865	176.44
615.072	191.44
615.28	175.44
615.488	184.44
615.695	189.44
615.903	197.44
616.111	185.44
616.318	172.44
616.526	195.44
616.733	192.44
616.941	187.44
617.148	186.44
617.356	187.44
617.563	169.44
617.771	188.44
617.978	183.44
618.185	180.44
618.393	200.44
618.6	200.44
618.807	175.44
619.015	168.44
619.222	170.44
619.429	188.44
619.637	179.44
619.844	186.44
620.051	180.44
620.258	180.44
620.466	169.44
620.673	171.44
620.88	186.44
621.087	168.44
621.294	189.44
621.501	179.44
621.708	168.44
621.915	188.44
622.122	178.44
622.329	183.44
622.536	179.44
622.743	165.44
622.95	179.44
623.157	155.44
623.364	169.44
623.571	178.44
623.778	172.44
623.985	181.44
624.192	190.44
624.399	169.44
624.606	176.44
624.812	168.44
625.019	172.44
625.226	181.44
625.433	180.44
625.639	168.44
625.846	169.44
626.053	164.44
626.259	164.44
626.466	165.44
626.673	156.44
626.879	161.44
627.086	175.44
627.293	172.44
627.499	153.44
627.706	156.44
627.912	160.44
628.119	166.44
628.325	168.44
628.532	164.44
628.738	170.44
628.945	168.44
629.151	168.44
629.357	177.44
629.564	153.44
629.77	164.44
629.976	156.44
630.183	160.44
630.389	169.44
630.595	162.44
630.802	139.44
631.008	153.44
631.214	157.44
631.42	143.44
631.627	159.44
631.833	137.44
632.039	160.44
632.245	166.44
632.451	154.44
632.657	156.44
632.863	162.44
633.069	153.44
633.275	155.44
633.481	160.44
633.688	161.44
633.893	167.44
634.099	161.44
634.305	162.44
634.511	161.44
634.717	165.44
634.923	147.44
635.129	161.44
635.335	151.44
635.541	156.44
635.747	154.44
635.952	146.44
636.158	166.44
636.364	177.44
636.57	143.44
636.775	154.44
636.981	139.44
637.187	160.44
637.392	148.44
637.598	147.44
637.804	136.44
638.009	151.44
638.215	151.44
638.421	131.44
638.626	144.44
638.832	147.44
639.037	144.44
639.243	150.44
639.448	144.44
639.654	139.44
639.859	141.44
640.065	140.44
640.27	140.44
640.475	140.44
640.681	154.44
640.886	158.44
641.091	133.44
641.297	146.44
641.502	143.44
641.707	155.44
641.913	148.44
642.118	147.44
642.323	137.44
642.528	144.44
642.733	159.44
642.939	149.44
643.144	137.44
643.349	133.44
643.554	136.44
643.759	135.44
643.964	127.44
644.169	147.44
644.374	135.44
644.579	137.44
644.784	135.44
644.989	124.44
645.194	151.44
645.399	141.44
645.604	143.44
645.809	145.44
646.014	143.44
646.219	139.44
646.423	140.44
646.628	127.44
646.833	134.44
647.038	141.44
647.243	144.44
647.447	150.44
647.652	150.44
647.857	132.44
648.062	139.44
648.266	145.44
648.471	153.44
648.676	144.44
648.88	149.44
649.085	135.44
649.289	149.44
649.494	147.44
649.698	161.44
649.903	149.44
650.107	144.44
650.312	142.44
650.516	131.44
650.721	135.44
650.925	131.44
651.13	130.44
651.334	131.44
651.539	137.44
651.743	130.44
651.947	123.44
652.152	142.44
652.356	119.44
652.56	120.44
652.764	134.44
652.969	123.44
653.173	126.44
653.377	135.44
653.581	123.44
653.785	130.44
653.99	121.44
654.194	117.44
654.398	120.44
654.602	120.44
654.806	133.44
655.01	141.44
655.214	132.44
655.418	129.44
655.622	123.44
655.826	124.44
656.03	125.44
656.234	114.44
656.438	119.44
656.642	107.44
656.846	117.44
657.049	105.44
657.253	117.44
657.457	122.44
657.661	100.44
657.865	108.44
658.068	106.44
658.272	114.44
658.476	105.44
658.68	102.44
658.883	84.44
659.087	111.44
659.291	111.44
659.494	101.44
659.698	104.44
659.901	84.44
660.105	88.44
660.309	104.44
660.512	95.44
660.716	91.44
660.919	92.44
661.123	97.44
661.326	77.44
661.53	92.44
661.733	81.44
661.936	95.44
662.14	74.44
662.343	98.44
662.546	75.44
662.75	85.44
662.953	80.44
663.156	92.44
663.36	89.44
663.563	82.44
663.766	106.44
663.969	90.44
664.173	84.44
664.376	83.44
664.579	90.44
664.782	99.44
664.985	99.44
665.188	90.44
665.391	76.44
665.594	83.44
665.797	77.44
666	88.44
666.203	78.44
666.406	83.44
666.609	81.44
666.812	88.44
667.015	90.44
667.218	82.44
667.421	75.44
667.624	87.44
667.827	89.44
668.03	78.44
668.232	64.44
668.435	86.44
668.638	82.44
668.841	87.44
669.043	68.44
669.246	89.44
669.449	89.44
669.651	86.44
669.854	82.44
670.057	80.44
670.259	88.44
670.462	77.44
670.665	80.44
670.867	74.44
671.07	86.44
671.272	87.44
671.475	94.44
671.677	73.44
671.88	88.44
672.082	97.44
672.284	84.44
672.487	76.44
672.689	86.44
672.892	83.44
