Data from 1983.PennyLincolnUp.Lamp.En5.5.200Scan.071819.P1_HRD10591_16-54-46-966.txt Node
Date: Thu Jul 18 16:54:46 EDT 2019
User: cochatt
Spectrometer: HR+D1059
Trigger mode: 1
Integration Time (sec): 1.000000E-1
Scans to average: 1
Electric dark correction enabled: true
Nonlinearity correction enabled: false
Boxcar width: 0
XAxis mode: Wavelengths
Number of Pixels in Spectrum: 2048
>>>>>Begin Spectral Data<<<<<
223.165	-10.81
223.4	-10.81
223.635	-10.81
223.869	-13.81
224.104	-18.81
224.338	-4.81
224.573	-26.81
224.808	-15.81
225.042	-12.81
225.277	-14.81
225.511	1.19
225.746	-6.81
225.98	10.19
226.215	17.19
226.449	12.19
226.683	12.19
226.918	38.19
227.152	34.19
227.387	35.19
227.621	37.19
227.856	40.19
228.09	57.19
228.324	53.19
228.559	60.19
228.793	45.19
229.027	84.19
229.262	97.19
229.496	125.19
229.73	136.19
229.964	155.19
230.199	122.19
230.433	98.19
230.667	101.19
230.901	105.19
231.136	106.19
231.37	107.19
231.604	108.19
231.838	98.19
232.072	90.19
232.306	111.19
232.541	122.19
232.775	110.19
233.009	102.19
233.243	110.19
233.477	101.19
233.711	109.19
233.945	98.19
234.179	103.19
234.413	113.19
234.647	105.19
234.881	105.19
235.115	119.19
235.349	125.19
235.583	109.19
235.817	110.19
236.051	117.19
236.285	120.19
236.519	112.19
236.753	125.19
236.987	129.19
237.221	177.19
237.455	224.19
237.689	169.19
237.922	129.19
238.156	118.19
238.39	120.19
238.624	117.19
238.858	106.19
239.091	121.19
239.325	121.19
239.559	119.19
239.793	127.19
240.027	133.19
240.26	139.19
240.494	139.19
240.728	132.19
240.961	140.19
241.195	139.19
241.429	133.19
241.662	116.19
241.896	135.19
242.13	135.19
242.363	134.19
242.597	125.19
242.83	142.19
243.064	141.19
243.298	121.19
243.531	114.19
243.765	127.19
243.998	117.19
244.232	131.19
244.465	138.19
244.699	144.19
244.932	145.19
245.166	134.19
245.399	138.19
245.633	122.19
245.866	138.19
246.099	141.19
246.333	137.19
246.566	136.19
246.8	141.19
247.033	130.19
247.266	142.19
247.5	153.19
247.733	167.19
247.966	160.19
248.2	152.19
248.433	162.19
248.666	173.19
248.899	163.19
249.133	185.19
249.366	185.19
249.599	197.19
249.832	186.19
250.066	160.19
250.299	159.19
250.532	171.19
250.765	197.19
250.998	222.19
251.231	209.19
251.465	191.19
251.698	182.19
251.931	181.19
252.164	197.19
252.397	187.19
252.63	182.19
252.863	184.19
253.096	201.19
253.329	215.19
253.562	215.19
253.795	208.19
254.028	201.19
254.261	217.19
254.494	225.19
254.727	248.19
254.96	261.19
255.193	236.19
255.426	215.19
255.659	207.19
255.892	221.19
256.124	223.19
256.357	229.19
256.59	213.19
256.823	187.19
257.056	202.19
257.289	218.19
257.521	186.19
257.754	197.19
257.987	194.19
258.22	186.19
258.452	202.19
258.685	213.19
258.918	181.19
259.151	195.19
259.383	199.19
259.616	200.19
259.849	214.19
260.081	228.19
260.314	213.19
260.547	221.19
260.779	230.19
261.012	222.19
261.244	193.19
261.477	196.19
261.71	198.19
261.942	189.19
262.175	222.19
262.407	211.19
262.64	205.19
262.872	215.19
263.105	211.19
263.337	183.19
263.57	193.19
263.802	185.19
264.035	200.19
264.267	191.19
264.499	191.19
264.732	204.19
264.964	205.19
265.197	199.19
265.429	197.19
265.661	190.19
265.894	201.19
266.126	214.19
266.358	193.19
266.591	201.19
266.823	199.19
267.055	206.19
267.287	203.19
267.52	190.19
267.752	209.19
267.984	200.19
268.216	207.19
268.448	213.19
268.681	204.19
268.913	216.19
269.145	245.19
269.377	254.19
269.609	249.19
269.841	243.19
270.073	244.19
270.306	273.19
270.538	286.19
270.77	280.19
271.002	287.19
271.234	268.19
271.466	277.19
271.698	289.19
271.93	298.19
272.162	289.19
272.394	295.19
272.626	281.19
272.858	276.19
273.09	253.19
273.322	234.19
273.553	234.19
273.785	262.19
274.017	251.19
274.249	253.19
274.481	245.19
274.713	233.19
274.945	249.19
275.176	228.19
275.408	239.19
275.64	243.19
275.872	244.19
276.104	261.19
276.335	252.19
276.567	269.19
276.799	245.19
277.031	268.19
277.262	279.19
277.494	294.19
277.726	275.19
277.957	276.19
278.189	252.19
278.421	261.19
278.652	246.19
278.884	241.19
279.115	252.19
279.347	233.19
279.579	253.19
279.81	242.19
280.042	241.19
280.273	245.19
280.505	237.19
280.736	232.19
280.968	254.19
281.199	248.19
281.431	261.19
281.662	259.19
281.894	238.19
282.125	260.19
282.356	242.19
282.588	263.19
282.819	273.19
283.051	265.19
283.282	236.19
283.513	253.19
283.745	249.19
283.976	255.19
284.207	254.19
284.439	252.19
284.67	245.19
284.901	262.19
285.132	261.19
285.364	235.19
285.595	269.19
285.826	252.19
286.057	266.19
286.288	265.19
286.52	240.19
286.751	250.19
286.982	267.19
287.213	257.19
287.444	252.19
287.675	262.19
287.906	257.19
288.138	279.19
288.369	263.19
288.6	260.19
288.831	281.19
289.062	249.19
289.293	269.19
289.524	260.19
289.755	262.19
289.986	248.19
290.217	259.19
290.448	268.19
290.679	262.19
290.91	285.19
291.141	263.19
291.371	255.19
291.602	260.19
291.833	261.19
292.064	258.19
292.295	255.19
292.526	261.19
292.757	257.19
292.987	237.19
293.218	267.19
293.449	246.19
293.68	274.19
293.91	264.19
294.141	243.19
294.372	233.19
294.603	261.19
294.833	267.19
295.064	277.19
295.295	265.19
295.525	262.19
295.756	270.19
295.987	285.19
296.217	306.19
296.448	313.19
296.679	281.19
296.909	268.19
297.14	266.19
297.37	268.19
297.601	267.19
297.831	269.19
298.062	269.19
298.292	271.19
298.523	292.19
298.753	284.19
298.984	275.19
299.214	270.19
299.445	287.19
299.675	280.19
299.905	288.19
300.136	277.19
300.366	264.19
300.597	294.19
300.827	284.19
301.057	281.19
301.288	294.19
301.518	305.19
301.748	293.19
301.979	288.19
302.209	294.19
302.439	317.19
302.669	324.19
302.9	297.19
303.13	291.19
303.36	287.19
303.59	293.19
303.82	291.19
304.051	322.19
304.281	295.19
304.511	284.19
304.741	290.19
304.971	290.19
305.201	299.19
305.431	284.19
305.661	313.19
305.891	286.19
306.121	295.19
306.352	299.19
306.582	315.19
306.812	299.19
307.042	309.19
307.272	298.19
307.502	308.19
307.731	297.19
307.961	297.19
308.191	304.19
308.421	296.19
308.651	315.19
308.881	285.19
309.111	292.19
309.341	306.19
309.571	340.19
309.8	344.19
310.03	334.19
310.26	332.19
310.49	343.19
310.72	355.19
310.949	354.19
311.179	359.19
311.409	352.19
311.639	333.19
311.868	348.19
312.098	343.19
312.328	357.19
312.557	364.19
312.787	379.19
313.017	369.19
313.246	350.19
313.476	319.19
313.706	351.19
313.935	332.19
314.165	343.19
314.394	377.19
314.624	345.19
314.853	372.19
315.083	365.19
315.312	339.19
315.542	345.19
315.771	327.19
316.001	344.19
316.23	351.19
316.46	344.19
316.689	360.19
316.919	345.19
317.148	365.19
317.377	365.19
317.607	338.19
317.836	341.19
318.065	360.19
318.295	342.19
318.524	334.19
318.753	335.19
318.983	325.19
319.212	350.19
319.441	357.19
319.67	353.19
319.9	348.19
320.129	351.19
320.358	350.19
320.587	344.19
320.816	362.19
321.046	367.19
321.275	360.19
321.504	341.19
321.733	373.19
321.962	403.19
322.191	394.19
322.42	411.19
322.649	437.19
322.878	427.19
323.108	403.19
323.337	468.19
323.566	453.19
323.795	507.19
324.024	585.19
324.253	703.19
324.482	975.19
324.71	1510.19
324.939	2027.19
325.168	1687.19
325.397	903.19
325.626	616.19
325.855	533.19
326.084	501.19
326.313	474.19
326.542	488.19
326.77	550.19
326.999	651.19
327.228	887.19
327.457	1298.19
327.686	1476.19
327.914	1009.19
328.143	693.19
328.372	629.19
328.6	597.19
328.829	543.19
329.058	541.19
329.287	559.19
329.515	527.19
329.744	480.19
329.972	492.19
330.201	516.19
330.43	567.19
330.658	582.19
330.887	587.19
331.115	555.19
331.344	500.19
331.572	479.19
331.801	445.19
332.03	454.19
332.258	457.19
332.486	412.19
332.715	389.19
332.943	413.19
333.172	431.19
333.4	391.19
333.629	413.19
333.857	467.19
334.085	460.19
334.314	486.19
334.542	500.19
334.771	501.19
334.999	450.19
335.227	410.19
335.455	428.19
335.684	418.19
335.912	401.19
336.14	396.19
336.369	385.19
336.597	405.19
336.825	418.19
337.053	403.19
337.281	383.19
337.51	404.19
337.738	406.19
337.966	416.19
338.194	413.19
338.422	404.19
338.65	380.19
338.878	391.19
339.106	399.19
339.334	379.19
339.562	388.19
339.79	373.19
340.018	373.19
340.246	394.19
340.474	403.19
340.702	397.19
340.93	392.19
341.158	388.19
341.386	398.19
341.614	407.19
341.842	372.19
342.07	373.19
342.298	375.19
342.526	394.19
342.754	377.19
342.981	374.19
343.209	377.19
343.437	396.19
343.665	363.19
343.893	389.19
344.12	385.19
344.348	386.19
344.576	381.19
344.804	378.19
345.031	389.19
345.259	401.19
345.487	411.19
345.714	395.19
345.942	379.19
346.17	381.19
346.397	366.19
346.625	371.19
346.853	345.19
347.08	386.19
347.308	383.19
347.535	385.19
347.763	371.19
347.99	404.19
348.218	371.19
348.445	399.19
348.673	388.19
348.9	388.19
349.128	386.19
349.355	374.19
349.583	381.19
349.81	356.19
350.037	361.19
350.265	384.19
350.492	357.19
350.72	375.19
350.947	347.19
351.174	356.19
351.402	390.19
351.629	373.19
351.856	379.19
352.083	387.19
352.311	411.19
352.538	376.19
352.765	390.19
352.992	374.19
353.22	357.19
353.447	381.19
353.674	378.19
353.901	346.19
354.128	370.19
354.355	345.19
354.583	341.19
354.81	335.19
355.037	336.19
355.264	340.19
355.491	342.19
355.718	334.19
355.945	334.19
356.172	343.19
356.399	342.19
356.626	343.19
356.853	347.19
357.08	346.19
357.307	338.19
357.534	345.19
357.761	326.19
357.988	340.19
358.215	339.19
358.441	356.19
358.668	343.19
358.895	343.19
359.122	349.19
359.349	370.19
359.576	382.19
359.802	375.19
360.029	411.19
360.256	424.19
360.483	413.19
360.709	393.19
360.936	378.19
361.163	374.19
361.39	390.19
361.616	390.19
361.843	380.19
362.07	385.19
362.296	365.19
362.523	377.19
362.749	364.19
362.976	371.19
363.203	371.19
363.429	347.19
363.656	355.19
363.882	350.19
364.109	339.19
364.335	335.19
364.562	359.19
364.788	344.19
365.015	357.19
365.241	346.19
365.468	371.19
365.694	364.19
365.92	385.19
366.147	347.19
366.373	340.19
366.599	352.19
366.826	350.19
367.052	325.19
367.278	350.19
367.505	363.19
367.731	350.19
367.957	348.19
368.184	347.19
368.41	358.19
368.636	359.19
368.862	372.19
369.089	378.19
369.315	357.19
369.541	351.19
369.767	340.19
369.993	330.19
370.219	357.19
370.445	366.19
370.672	340.19
370.898	357.19
371.124	361.19
371.35	364.19
371.576	340.19
371.802	339.19
372.028	332.19
372.254	338.19
372.48	353.19
372.706	332.19
372.932	345.19
373.158	355.19
373.384	353.19
373.61	333.19
373.835	369.19
374.061	360.19
374.287	362.19
374.513	338.19
374.739	359.19
374.965	347.19
375.191	346.19
375.416	349.19
375.642	354.19
375.868	338.19
376.094	339.19
376.319	324.19
376.545	345.19
376.771	344.19
376.997	349.19
377.222	330.19
377.448	355.19
377.674	355.19
377.899	364.19
378.125	321.19
378.35	321.19
378.576	342.19
378.802	332.19
379.027	346.19
379.253	349.19
379.478	337.19
379.704	328.19
379.929	343.19
380.155	340.19
380.38	346.19
380.606	351.19
380.831	324.19
381.057	334.19
381.282	345.19
381.507	359.19
381.733	356.19
381.958	335.19
382.184	345.19
382.409	343.19
382.634	348.19
382.86	351.19
383.085	337.19
383.31	340.19
383.535	354.19
383.761	339.19
383.986	369.19
384.211	356.19
384.436	347.19
384.662	356.19
384.887	357.19
385.112	354.19
385.337	361.19
385.562	366.19
385.787	356.19
386.013	379.19
386.238	359.19
386.463	383.19
386.688	389.19
386.913	353.19
387.138	351.19
387.363	352.19
387.588	378.19
387.813	358.19
388.038	356.19
388.263	355.19
388.488	343.19
388.713	377.19
388.938	347.19
389.163	383.19
389.387	351.19
389.612	347.19
389.837	382.19
390.062	369.19
390.287	381.19
390.512	357.19
390.736	371.19
390.961	358.19
391.186	349.19
391.411	380.19
391.636	369.19
391.86	371.19
392.085	386.19
392.31	355.19
392.534	393.19
392.759	358.19
392.984	379.19
393.208	355.19
393.433	367.19
393.658	371.19
393.882	353.19
394.107	369.19
394.331	371.19
394.556	382.19
394.78	376.19
395.005	387.19
395.229	345.19
395.454	385.19
395.678	377.19
395.903	397.19
396.127	390.19
396.352	403.19
396.576	387.19
396.801	395.19
397.025	385.19
397.249	371.19
397.474	386.19
397.698	383.19
397.922	400.19
398.147	421.19
398.371	427.19
398.595	422.19
398.82	402.19
399.044	422.19
399.268	429.19
399.492	448.19
399.717	458.19
399.941	482.19
400.165	512.19
400.389	516.19
400.613	479.19
400.837	445.19
401.062	421.19
401.286	427.19
401.51	389.19
401.734	416.19
401.958	424.19
402.182	422.19
402.406	435.19
402.63	435.19
402.854	438.19
403.078	438.19
403.302	407.19
403.526	423.19
403.75	438.19
403.974	458.19
404.198	432.19
404.422	436.19
404.645	450.19
404.869	445.19
405.093	459.19
405.317	511.19
405.541	509.19
405.765	460.19
405.988	477.19
406.212	481.19
406.436	492.19
406.66	498.19
406.883	476.19
407.107	476.19
407.331	527.19
407.555	556.19
407.778	549.19
408.002	494.19
408.226	482.19
408.449	466.19
408.673	475.19
408.896	503.19
409.12	513.19
409.344	485.19
409.567	448.19
409.791	427.19
410.014	434.19
410.238	416.19
410.461	438.19
410.685	437.19
410.908	442.19
411.132	439.19
411.355	501.19
411.578	458.19
411.802	433.19
412.025	443.19
412.249	456.19
412.472	474.19
412.695	489.19
412.919	474.19
413.142	438.19
413.365	447.19
413.589	449.19
413.812	405.19
414.035	412.19
414.258	429.19
414.482	419.19
414.705	415.19
414.928	396.19
415.151	401.19
415.374	401.19
415.597	410.19
415.821	398.19
416.044	401.19
416.267	423.19
416.49	411.19
416.713	392.19
416.936	427.19
417.159	388.19
417.382	413.19
417.605	412.19
417.828	411.19
418.051	455.19
418.274	440.19
418.497	399.19
418.72	418.19
418.943	420.19
419.166	423.19
419.389	442.19
419.611	425.19
419.834	419.19
420.057	442.19
420.28	421.19
420.503	439.19
420.726	431.19
420.948	435.19
421.171	500.19
421.394	499.19
421.617	455.19
421.839	418.19
422.062	424.19
422.285	439.19
422.507	486.19
422.73	535.19
422.953	492.19
423.175	466.19
423.398	460.19
423.621	451.19
423.843	465.19
424.066	462.19
424.288	464.19
424.511	477.19
424.733	502.19
424.956	601.19
425.178	535.19
425.401	550.19
425.623	561.19
425.846	475.19
426.068	461.19
426.291	452.19
426.513	459.19
426.735	469.19
426.958	508.19
427.18	549.19
427.402	642.19
427.625	722.19
427.847	666.19
428.069	567.19
428.292	504.19
428.514	466.19
428.736	442.19
428.958	456.19
429.181	438.19
429.403	435.19
429.625	436.19
429.847	460.19
430.069	513.19
430.292	517.19
430.514	417.19
430.736	436.19
430.958	411.19
431.18	408.19
431.402	399.19
431.624	403.19
431.846	387.19
432.068	404.19
432.29	409.19
432.512	393.19
432.734	417.19
432.956	396.19
433.178	421.19
433.4	424.19
433.622	408.19
433.844	420.19
434.066	394.19
434.287	399.19
434.509	395.19
434.731	428.19
434.953	412.19
435.175	418.19
435.397	454.19
435.618	433.19
435.84	482.19
436.062	542.19
436.284	599.19
436.505	508.19
436.727	478.19
436.949	430.19
437.17	406.19
437.392	414.19
437.614	451.19
437.835	472.19
438.057	560.19
438.278	622.19
438.5	605.19
438.721	639.19
438.943	633.19
439.165	517.19
439.386	473.19
439.608	492.19
439.829	478.19
440.05	489.19
440.272	531.19
440.493	507.19
440.715	484.19
440.936	437.19
441.158	439.19
441.379	419.19
441.6	417.19
441.822	453.19
442.043	481.19
442.264	567.19
442.486	580.19
442.707	522.19
442.928	490.19
443.149	494.19
443.371	516.19
443.592	537.19
443.813	610.19
444.034	633.19
444.255	535.19
444.476	486.19
444.698	473.19
444.919	461.19
445.14	597.19
445.361	547.19
445.582	528.19
445.803	551.19
446.024	627.19
446.245	605.19
446.466	584.19
446.687	507.19
446.908	470.19
447.129	449.19
447.35	433.19
447.571	425.19
447.792	422.19
448.013	435.19
448.234	439.19
448.455	482.19
448.675	575.19
448.896	619.19
449.117	572.19
449.338	540.19
449.559	637.19
449.779	683.19
450	556.19
450.221	483.19
450.442	431.19
450.662	418.19
450.883	445.19
451.104	463.19
451.324	434.19
451.545	414.19
451.766	400.19
451.986	397.19
452.207	393.19
452.428	374.19
452.648	392.19
452.869	385.19
453.089	395.19
453.31	417.19
453.53	389.19
453.751	390.19
453.971	387.19
454.192	399.19
454.412	390.19
454.633	403.19
454.853	395.19
455.073	387.19
455.294	404.19
455.514	454.19
455.734	464.19
455.955	383.19
456.175	367.19
456.395	364.19
456.616	353.19
456.836	365.19
457.056	383.19
457.276	345.19
457.497	353.19
457.717	369.19
457.937	389.19
458.157	370.19
458.377	382.19
458.598	413.19
458.818	429.19
459.038	515.19
459.258	536.19
459.478	441.19
459.698	403.19
459.918	409.19
460.138	407.19
460.358	399.19
460.578	413.19
460.798	384.19
461.018	402.19
461.238	377.19
461.458	422.19
461.678	392.19
461.898	384.19
462.118	396.19
462.338	430.19
462.558	412.19
462.777	426.19
462.997	421.19
463.217	429.19
463.437	421.19
463.657	436.19
463.876	421.19
464.096	421.19
464.316	412.19
464.536	441.19
464.755	439.19
464.975	453.19
465.195	514.19
465.414	564.19
465.634	489.19
465.854	451.19
466.073	412.19
466.293	421.19
466.512	406.19
466.732	399.19
466.951	413.19
467.171	397.19
467.391	391.19
467.61	407.19
467.829	438.19
468.049	409.19
468.268	419.19
468.488	403.19
468.707	379.19
468.927	366.19
469.146	383.19
469.365	379.19
469.585	388.19
469.804	405.19
470.023	406.19
470.243	425.19
470.462	397.19
470.681	427.19
470.901	429.19
471.12	407.19
471.339	399.19
471.558	393.19
471.777	391.19
471.997	413.19
472.216	417.19
472.435	444.19
472.654	433.19
472.873	407.19
473.092	381.19
473.311	386.19
473.53	425.19
473.749	399.19
473.968	464.19
474.187	534.19
474.406	538.19
474.625	445.19
474.844	401.19
475.063	405.19
475.282	395.19
475.501	397.19
475.72	405.19
475.939	409.19
476.158	403.19
476.377	413.19
476.596	402.19
476.814	397.19
477.033	403.19
477.252	448.19
477.471	429.19
477.69	420.19
477.908	440.19
478.127	433.19
478.346	428.19
478.564	423.19
478.783	439.19
479.002	442.19
479.22	454.19
479.439	475.19
479.658	493.19
479.876	495.19
480.095	466.19
480.313	493.19
480.532	501.19
480.751	490.19
480.969	505.19
481.188	581.19
481.406	613.19
481.624	550.19
481.843	508.19
482.061	497.19
482.28	478.19
482.498	449.19
482.717	475.19
482.935	479.19
483.153	478.19
483.372	454.19
483.59	463.19
483.808	460.19
484.027	455.19
484.245	467.19
484.463	467.19
484.681	484.19
484.9	476.19
485.118	469.19
485.336	477.19
485.554	462.19
485.772	483.19
485.99	493.19
486.209	513.19
486.427	499.19
486.645	491.19
486.863	519.19
487.081	521.19
487.299	499.19
487.517	519.19
487.735	486.19
487.953	506.19
488.171	504.19
488.389	475.19
488.607	517.19
488.825	509.19
489.043	517.19
489.261	495.19
489.479	509.19
489.696	514.19
489.914	508.19
490.132	514.19
490.35	521.19
490.568	531.19
490.786	527.19
491.003	527.19
491.221	559.19
491.439	567.19
491.657	582.19
491.874	591.19
492.092	595.19
492.31	580.19
492.527	609.19
492.745	589.19
492.963	581.19
493.18	587.19
493.398	617.19
493.615	599.19
493.833	602.19
494.05	585.19
494.268	603.19
494.485	603.19
494.703	587.19
494.92	608.19
495.138	586.19
495.355	605.19
495.573	570.19
495.79	597.19
496.008	617.19
496.225	582.19
496.442	590.19
496.66	595.19
496.877	585.19
497.094	609.19
497.312	614.19
497.529	616.19
497.746	605.19
497.963	586.19
498.181	635.19
498.398	623.19
498.615	635.19
498.832	644.19
499.049	695.19
499.267	669.19
499.484	670.19
499.701	712.19
499.918	743.19
500.135	743.19
500.352	773.19
500.569	784.19
500.786	771.19
501.003	757.19
501.22	776.19
501.437	754.19
501.654	749.19
501.871	721.19
502.088	701.19
502.305	686.19
502.522	660.19
502.739	655.19
502.956	645.19
503.172	618.19
503.389	614.19
503.606	602.19
503.823	621.19
504.04	617.19
504.256	612.19
504.473	593.19
504.69	599.19
504.907	587.19
505.123	582.19
505.34	589.19
505.557	557.19
505.773	570.19
505.99	569.19
506.207	589.19
506.423	564.19
506.64	557.19
506.856	571.19
507.073	545.19
507.289	554.19
507.506	540.19
507.722	567.19
507.939	587.19
508.155	569.19
508.372	547.19
508.588	561.19
508.805	541.19
509.021	566.19
509.238	543.19
509.454	582.19
509.67	561.19
509.887	558.19
510.103	555.19
510.319	566.19
510.536	680.19
510.752	1179.19
510.968	902.19
511.184	570.19
511.401	565.19
511.617	545.19
511.833	549.19
512.049	506.19
512.265	517.19
512.481	510.19
512.698	500.19
512.914	485.19
513.13	519.19
513.346	525.19
513.562	518.19
513.778	533.19
513.994	516.19
514.21	525.19
514.426	582.19
514.642	627.19
514.858	646.19
515.074	668.19
515.29	846.19
515.506	1305.19
515.721	1019.19
515.937	657.19
516.153	597.19
516.369	572.19
516.585	557.19
516.801	525.19
517.016	542.19
517.232	543.19
517.448	529.19
517.664	529.19
517.879	536.19
518.095	530.19
518.311	523.19
518.527	516.19
518.742	528.19
518.958	501.19
519.173	531.19
519.389	544.19
519.605	531.19
519.82	526.19
520.036	552.19
520.251	564.19
520.467	588.19
520.682	555.19
520.898	600.19
521.113	625.19
521.329	653.19
521.544	778.19
521.76	1018.19
521.975	1734.19
522.19	1721.19
522.406	872.19
522.621	611.19
522.836	577.19
523.052	533.19
523.267	535.19
523.482	497.19
523.698	474.19
523.913	503.19
524.128	480.19
524.343	466.19
524.559	471.19
524.774	457.19
524.989	449.19
525.204	465.19
525.419	459.19
525.634	427.19
525.849	439.19
526.064	439.19
526.28	446.19
526.495	447.19
526.71	414.19
526.925	424.19
527.14	423.19
527.355	408.19
527.57	410.19
527.785	416.19
527.999	423.19
528.214	395.19
528.429	420.19
528.644	420.19
528.859	423.19
529.074	423.19
529.289	452.19
529.503	554.19
529.718	531.19
529.933	439.19
530.148	446.19
530.363	412.19
530.577	424.19
530.792	398.19
531.007	400.19
531.221	408.19
531.436	407.19
531.651	403.19
531.865	415.19
532.08	413.19
532.295	382.19
532.509	393.19
532.724	385.19
532.938	423.19
533.153	384.19
533.367	391.19
533.582	382.19
533.796	395.19
534.011	383.19
534.225	393.19
534.44	399.19
534.654	412.19
534.868	395.19
535.083	373.19
535.297	381.19
535.511	388.19
535.726	407.19
535.94	393.19
536.154	393.19
536.369	387.19
536.583	385.19
536.797	387.19
537.011	386.19
537.225	389.19
537.44	383.19
537.654	381.19
537.868	389.19
538.082	392.19
538.296	363.19
538.51	385.19
538.724	387.19
538.938	374.19
539.153	394.19
539.367	389.19
539.581	406.19
539.795	380.19
540.009	393.19
540.222	371.19
540.436	371.19
540.65	371.19
540.864	402.19
541.078	400.19
541.292	390.19
541.506	371.19
541.72	374.19
541.934	410.19
542.147	385.19
542.361	365.19
542.575	387.19
542.789	360.19
543.002	377.19
543.216	390.19
543.43	373.19
543.644	380.19
543.857	355.19
544.071	381.19
544.285	380.19
544.498	354.19
544.712	365.19
544.925	377.19
545.139	357.19
545.352	369.19
545.566	375.19
545.779	375.19
545.993	370.19
546.206	366.19
546.42	367.19
546.633	361.19
546.847	365.19
547.06	353.19
547.274	367.19
547.487	377.19
547.7	364.19
547.914	362.19
548.127	375.19
548.34	350.19
548.554	350.19
548.767	359.19
548.98	342.19
549.193	360.19
549.407	357.19
549.62	367.19
549.833	364.19
550.046	335.19
550.259	346.19
550.473	347.19
550.686	358.19
550.899	344.19
551.112	353.19
551.325	351.19
551.538	359.19
551.751	356.19
551.964	346.19
552.177	356.19
552.39	325.19
552.603	347.19
552.816	360.19
553.029	356.19
553.242	350.19
553.455	363.19
553.667	353.19
553.88	371.19
554.093	349.19
554.306	363.19
554.519	367.19
554.732	356.19
554.944	354.19
555.157	332.19
555.37	348.19
555.583	348.19
555.795	350.19
556.008	344.19
556.221	324.19
556.433	327.19
556.646	335.19
556.859	318.19
557.071	348.19
557.284	331.19
557.496	331.19
557.709	335.19
557.921	305.19
558.134	303.19
558.346	314.19
558.559	316.19
558.771	321.19
558.984	311.19
559.196	315.19
559.409	319.19
559.621	327.19
559.833	328.19
560.046	315.19
560.258	321.19
560.47	325.19
560.683	314.19
560.895	317.19
561.107	314.19
561.32	329.19
561.532	318.19
561.744	329.19
561.956	327.19
562.168	318.19
562.381	312.19
562.593	318.19
562.805	324.19
563.017	314.19
563.229	309.19
563.441	310.19
563.653	321.19
563.865	311.19
564.077	306.19
564.289	333.19
564.501	334.19
564.713	333.19
564.925	333.19
565.137	346.19
565.349	344.19
565.561	337.19
565.773	328.19
565.985	356.19
566.197	333.19
566.408	361.19
566.62	365.19
566.832	359.19
567.044	380.19
567.255	373.19
567.467	363.19
567.679	355.19
567.891	363.19
568.102	358.19
568.314	370.19
568.526	369.19
568.737	357.19
568.949	334.19
569.161	323.19
569.372	322.19
569.584	317.19
569.795	315.19
570.007	337.19
570.218	360.19
570.43	344.19
570.641	305.19
570.853	295.19
571.064	303.19
571.276	312.19
571.487	307.19
571.698	300.19
571.91	286.19
572.121	284.19
572.333	290.19
572.544	272.19
572.755	276.19
572.966	271.19
573.178	290.19
573.389	281.19
573.6	261.19
573.811	272.19
574.023	283.19
574.234	281.19
574.445	274.19
574.656	275.19
574.867	281.19
575.078	253.19
575.289	270.19
575.501	280.19
575.712	272.19
575.923	283.19
576.134	255.19
576.345	261.19
576.556	248.19
576.767	252.19
576.978	259.19
577.188	277.19
577.399	274.19
577.61	243.19
577.821	276.19
578.032	279.19
578.243	301.19
578.454	535.19
578.665	371.19
578.875	274.19
579.086	259.19
579.297	262.19
579.508	262.19
579.718	277.19
579.929	254.19
580.14	244.19
580.35	232.19
580.561	236.19
580.772	245.19
580.982	254.19
581.193	250.19
581.403	244.19
581.614	252.19
581.825	247.19
582.035	232.19
582.246	257.19
582.456	230.19
582.667	255.19
582.877	261.19
583.087	238.19
583.298	236.19
583.508	258.19
583.719	238.19
583.929	235.19
584.139	263.19
584.35	238.19
584.56	242.19
584.77	234.19
584.981	246.19
585.191	251.19
585.401	237.19
585.611	230.19
585.821	251.19
586.032	247.19
586.242	247.19
586.452	243.19
586.662	246.19
586.872	234.19
587.082	236.19
587.292	215.19
587.502	238.19
587.713	250.19
587.923	249.19
588.133	241.19
588.343	247.19
588.553	233.19
588.762	234.19
588.972	238.19
589.182	237.19
589.392	231.19
589.602	235.19
589.812	228.19
590.022	237.19
590.232	229.19
590.441	225.19
590.651	222.19
590.861	223.19
591.071	219.19
591.281	237.19
591.49	232.19
591.7	237.19
591.91	243.19
592.119	220.19
592.329	224.19
592.539	249.19
592.748	256.19
592.958	252.19
593.167	242.19
593.377	240.19
593.587	243.19
593.796	250.19
594.006	245.19
594.215	259.19
594.424	251.19
594.634	249.19
594.843	245.19
595.053	216.19
595.262	230.19
595.472	223.19
595.681	236.19
595.89	233.19
596.1	217.19
596.309	222.19
596.518	226.19
596.727	239.19
596.937	217.19
597.146	229.19
597.355	232.19
597.564	232.19
597.774	214.19
597.983	197.19
598.192	205.19
598.401	215.19
598.61	217.19
598.819	199.19
599.028	238.19
599.237	203.19
599.446	206.19
599.655	218.19
599.864	198.19
600.073	197.19
600.282	219.19
600.491	207.19
600.7	226.19
600.909	197.19
601.118	201.19
601.327	206.19
601.536	214.19
601.745	212.19
601.953	213.19
602.162	210.19
602.371	212.19
602.58	205.19
602.789	206.19
602.997	193.19
603.206	195.19
603.415	207.19
603.623	203.19
603.832	207.19
604.041	202.19
604.249	185.19
604.458	190.19
604.666	205.19
604.875	207.19
605.084	206.19
605.292	190.19
605.501	189.19
605.709	214.19
605.918	204.19
606.126	211.19
606.334	220.19
606.543	193.19
606.751	199.19
606.96	211.19
607.168	185.19
607.376	174.19
607.585	194.19
607.793	203.19
608.001	198.19
608.21	202.19
608.418	203.19
608.626	186.19
608.834	187.19
609.043	205.19
609.251	206.19
609.459	204.19
609.667	189.19
609.875	206.19
610.083	217.19
610.291	215.19
610.499	202.19
610.707	191.19
610.916	205.19
611.124	188.19
611.332	194.19
611.54	217.19
611.748	183.19
611.955	189.19
612.163	207.19
612.371	201.19
612.579	186.19
612.787	213.19
612.995	196.19
613.203	199.19
613.411	183.19
613.618	183.19
613.826	198.19
614.034	195.19
614.242	200.19
614.449	194.19
614.657	189.19
614.865	188.19
615.072	204.19
615.28	185.19
615.488	175.19
615.695	202.19
615.903	191.19
616.111	187.19
616.318	186.19
616.526	195.19
616.733	193.19
616.941	200.19
617.148	198.19
617.356	193.19
617.563	184.19
617.771	194.19
617.978	195.19
618.185	196.19
618.393	196.19
618.6	200.19
618.807	194.19
619.015	188.19
619.222	204.19
619.429	163.19
619.637	204.19
619.844	189.19
620.051	183.19
620.258	186.19
620.466	177.19
620.673	190.19
620.88	169.19
621.087	171.19
621.294	187.19
621.501	183.19
621.708	197.19
621.915	188.19
622.122	190.19
622.329	174.19
622.536	182.19
622.743	195.19
622.95	188.19
623.157	179.19
623.364	185.19
623.571	185.19
623.778	179.19
623.985	186.19
624.192	156.19
624.399	185.19
624.606	193.19
624.812	189.19
625.019	190.19
625.226	172.19
625.433	178.19
625.639	174.19
625.846	178.19
626.053	162.19
626.259	170.19
626.466	173.19
626.673	167.19
626.879	167.19
627.086	190.19
627.293	174.19
627.499	162.19
627.706	171.19
627.912	161.19
628.119	181.19
628.325	172.19
628.532	172.19
628.738	177.19
628.945	161.19
629.151	180.19
629.357	172.19
629.564	153.19
629.77	145.19
629.976	177.19
630.183	168.19
630.389	157.19
630.595	164.19
630.802	169.19
631.008	160.19
631.214	176.19
631.42	159.19
631.627	187.19
631.833	157.19
632.039	161.19
632.245	164.19
632.451	148.19
632.657	149.19
632.863	158.19
633.069	157.19
633.275	154.19
633.481	165.19
633.688	165.19
633.893	168.19
634.099	159.19
634.305	157.19
634.511	165.19
634.717	166.19
634.923	159.19
635.129	158.19
635.335	174.19
635.541	163.19
635.747	158.19
635.952	151.19
636.158	155.19
636.364	154.19
636.57	136.19
636.775	162.19
636.981	174.19
637.187	161.19
637.392	139.19
637.598	135.19
637.804	153.19
638.009	164.19
638.215	131.19
638.421	165.19
638.626	147.19
638.832	140.19
639.037	142.19
639.243	145.19
639.448	151.19
639.654	151.19
639.859	147.19
640.065	143.19
640.27	159.19
640.475	161.19
640.681	134.19
640.886	152.19
641.091	156.19
641.297	155.19
641.502	143.19
641.707	147.19
641.913	148.19
642.118	141.19
642.323	133.19
642.528	159.19
642.733	148.19
642.939	153.19
643.144	136.19
643.349	149.19
643.554	145.19
643.759	140.19
643.964	149.19
644.169	139.19
644.374	127.19
644.579	140.19
644.784	126.19
644.989	144.19
645.194	149.19
645.399	150.19
645.604	127.19
645.809	143.19
646.014	143.19
646.219	133.19
646.423	141.19
646.628	148.19
646.833	151.19
647.038	147.19
647.243	150.19
647.447	135.19
647.652	161.19
647.857	139.19
648.062	138.19
648.266	142.19
648.471	155.19
648.676	142.19
648.88	156.19
649.085	143.19
649.289	147.19
649.494	161.19
649.698	161.19
649.903	160.19
650.107	146.19
650.312	144.19
650.516	143.19
650.721	133.19
650.925	144.19
651.13	151.19
651.334	138.19
651.539	135.19
651.743	136.19
651.947	139.19
652.152	134.19
652.356	137.19
652.56	119.19
652.764	125.19
652.969	127.19
653.173	130.19
653.377	116.19
653.581	138.19
653.785	129.19
653.99	115.19
654.194	121.19
654.398	125.19
654.602	118.19
654.806	113.19
655.01	119.19
655.214	110.19
655.418	119.19
655.622	131.19
655.826	129.19
656.03	123.19
656.234	120.19
656.438	110.19
656.642	133.19
656.846	103.19
657.049	123.19
657.253	111.19
657.457	119.19
657.661	119.19
657.865	110.19
658.068	100.19
658.272	104.19
658.476	99.19
658.68	126.19
658.883	88.19
659.087	94.19
659.291	106.19
659.494	92.19
659.698	94.19
659.901	84.19
660.105	91.19
660.309	80.19
660.512	84.19
660.716	83.19
660.919	78.19
661.123	106.19
661.326	79.19
661.53	92.19
661.733	95.19
661.936	86.19
662.14	81.19
662.343	86.19
662.546	78.19
662.75	77.19
662.953	83.19
663.156	83.19
663.36	94.19
663.563	85.19
663.766	86.19
663.969	97.19
664.173	86.19
664.376	77.19
664.579	87.19
664.782	96.19
664.985	65.19
665.188	94.19
665.391	76.19
665.594	85.19
665.797	89.19
666	79.19
666.203	91.19
666.406	70.19
666.609	66.19
666.812	82.19
667.015	75.19
667.218	95.19
667.421	87.19
667.624	85.19
667.827	87.19
668.03	78.19
668.232	77.19
668.435	77.19
668.638	78.19
668.841	99.19
669.043	86.19
669.246	88.19
669.449	78.19
669.651	78.19
669.854	79.19
670.057	82.19
670.259	83.19
670.462	95.19
670.665	76.19
670.867	74.19
671.07	76.19
671.272	78.19
671.475	80.19
671.677	83.19
671.88	79.19
672.082	89.19
672.284	85.19
672.487	85.19
672.689	82.19
672.892	82.19
