Data from 1983.PennyLincolnUp.Lamp.En5.5.200Scan.071819.P1_HRD10591_16-52-56-966.txt Node
Date: Thu Jul 18 16:52:56 EDT 2019
User: cochatt
Spectrometer: HR+D1059
Trigger mode: 1
Integration Time (sec): 1.000000E-1
Scans to average: 1
Electric dark correction enabled: true
Nonlinearity correction enabled: false
Boxcar width: 0
XAxis mode: Wavelengths
Number of Pixels in Spectrum: 2048
>>>>>Begin Spectral Data<<<<<
223.165	-35.19
223.4	-35.19
223.635	-35.19
223.869	-13.19
224.104	-13.19
224.338	-13.19
224.573	-13.19
224.808	-9.19
225.042	-15.19
225.277	8.81
225.511	-8.19
225.746	-3.19
225.98	5.81
226.215	2.81
226.449	24.81
226.683	28.81
226.918	23.81
227.152	28.81
227.387	38.81
227.621	41.81
227.856	54.81
228.09	58.81
228.324	56.81
228.559	73.81
228.793	75.81
229.027	86.81
229.262	92.81
229.496	94.81
229.73	125.81
229.964	124.81
230.199	124.81
230.433	101.81
230.667	103.81
230.901	90.81
231.136	87.81
231.37	96.81
231.604	105.81
231.838	107.81
232.072	105.81
232.306	103.81
232.541	117.81
232.775	106.81
233.009	108.81
233.243	109.81
233.477	114.81
233.711	105.81
233.945	103.81
234.179	114.81
234.413	103.81
234.647	126.81
234.881	109.81
235.115	112.81
235.349	105.81
235.583	120.81
235.817	122.81
236.051	136.81
236.285	124.81
236.519	121.81
236.753	116.81
236.987	128.81
237.221	169.81
237.455	192.81
237.689	151.81
237.922	124.81
238.156	103.81
238.39	114.81
238.624	112.81
238.858	112.81
239.091	110.81
239.325	120.81
239.559	124.81
239.793	109.81
240.027	116.81
240.26	120.81
240.494	136.81
240.728	144.81
240.961	130.81
241.195	128.81
241.429	136.81
241.662	128.81
241.896	125.81
242.13	116.81
242.363	123.81
242.597	124.81
242.83	130.81
243.064	132.81
243.298	117.81
243.531	119.81
243.765	124.81
243.998	128.81
244.232	137.81
244.465	128.81
244.699	133.81
244.932	132.81
245.166	130.81
245.399	126.81
245.633	116.81
245.866	144.81
246.099	136.81
246.333	132.81
246.566	131.81
246.8	126.81
247.033	140.81
247.266	130.81
247.5	151.81
247.733	142.81
247.966	162.81
248.2	162.81
248.433	153.81
248.666	142.81
248.899	146.81
249.133	178.81
249.366	169.81
249.599	168.81
249.832	142.81
250.066	161.81
250.299	148.81
250.532	182.81
250.765	172.81
250.998	200.81
251.231	187.81
251.465	181.81
251.698	171.81
251.931	171.81
252.164	169.81
252.397	171.81
252.63	179.81
252.863	178.81
253.096	176.81
253.329	209.81
253.562	209.81
253.795	191.81
254.028	180.81
254.261	200.81
254.494	205.81
254.727	223.81
254.96	229.81
255.193	224.81
255.426	214.81
255.659	191.81
255.892	185.81
256.124	195.81
256.357	188.81
256.59	176.81
256.823	171.81
257.056	174.81
257.289	183.81
257.521	195.81
257.754	184.81
257.987	173.81
258.22	192.81
258.452	167.81
258.685	191.81
258.918	181.81
259.151	188.81
259.383	196.81
259.616	189.81
259.849	203.81
260.081	209.81
260.314	208.81
260.547	202.81
260.779	216.81
261.012	223.81
261.244	192.81
261.477	207.81
261.71	200.81
261.942	203.81
262.175	207.81
262.407	194.81
262.64	198.81
262.872	199.81
263.105	178.81
263.337	207.81
263.57	183.81
263.802	191.81
264.035	185.81
264.267	196.81
264.499	186.81
264.732	188.81
264.964	195.81
265.197	185.81
265.429	180.81
265.661	187.81
265.894	185.81
266.126	181.81
266.358	188.81
266.591	195.81
266.823	196.81
267.055	196.81
267.287	190.81
267.52	177.81
267.752	176.81
267.984	191.81
268.216	203.81
268.448	204.81
268.681	214.81
268.913	234.81
269.145	229.81
269.377	251.81
269.609	225.81
269.841	231.81
270.073	245.81
270.306	234.81
270.538	258.81
270.77	264.81
271.002	265.81
271.234	252.81
271.466	244.81
271.698	268.81
271.93	269.81
272.162	272.81
272.394	256.81
272.626	245.81
272.858	251.81
273.09	235.81
273.322	237.81
273.553	236.81
273.785	219.81
274.017	225.81
274.249	222.81
274.481	235.81
274.713	225.81
274.945	215.81
275.176	232.81
275.408	236.81
275.64	232.81
275.872	244.81
276.104	214.81
276.335	238.81
276.567	258.81
276.799	235.81
277.031	263.81
277.262	268.81
277.494	281.81
277.726	252.81
277.957	238.81
278.189	252.81
278.421	243.81
278.652	224.81
278.884	237.81
279.115	220.81
279.347	230.81
279.579	213.81
279.81	234.81
280.042	233.81
280.273	230.81
280.505	224.81
280.736	228.81
280.968	216.81
281.199	228.81
281.431	224.81
281.662	207.81
281.894	227.81
282.125	231.81
282.356	234.81
282.588	242.81
282.819	246.81
283.051	232.81
283.282	223.81
283.513	230.81
283.745	240.81
283.976	241.81
284.207	240.81
284.439	254.81
284.67	235.81
284.901	227.81
285.132	237.81
285.364	256.81
285.595	251.81
285.826	235.81
286.057	237.81
286.288	238.81
286.52	243.81
286.751	242.81
286.982	233.81
287.213	233.81
287.444	238.81
287.675	251.81
287.906	260.81
288.138	260.81
288.369	245.81
288.6	262.81
288.831	261.81
289.062	249.81
289.293	251.81
289.524	274.81
289.755	225.81
289.986	255.81
290.217	266.81
290.448	278.81
290.679	226.81
290.91	228.81
291.141	245.81
291.371	258.81
291.602	237.81
291.833	248.81
292.064	240.81
292.295	257.81
292.526	257.81
292.757	236.81
292.987	247.81
293.218	245.81
293.449	246.81
293.68	243.81
293.91	246.81
294.141	249.81
294.372	248.81
294.603	258.81
294.833	257.81
295.064	251.81
295.295	259.81
295.525	267.81
295.756	260.81
295.987	253.81
296.217	272.81
296.448	293.81
296.679	280.81
296.909	250.81
297.14	235.81
297.37	258.81
297.601	264.81
297.831	252.81
298.062	258.81
298.292	265.81
298.523	258.81
298.753	261.81
298.984	267.81
299.214	263.81
299.445	292.81
299.675	260.81
299.905	279.81
300.136	295.81
300.366	259.81
300.597	273.81
300.827	276.81
301.057	265.81
301.288	278.81
301.518	278.81
301.748	277.81
301.979	286.81
302.209	293.81
302.439	285.81
302.669	270.81
302.9	276.81
303.13	272.81
303.36	277.81
303.59	299.81
303.82	280.81
304.051	288.81
304.281	277.81
304.511	260.81
304.741	277.81
304.971	289.81
305.201	291.81
305.431	283.81
305.661	280.81
305.891	276.81
306.121	280.81
306.352	291.81
306.582	290.81
306.812	286.81
307.042	268.81
307.272	288.81
307.502	289.81
307.731	289.81
307.961	269.81
308.191	283.81
308.421	285.81
308.651	311.81
308.881	281.81
309.111	287.81
309.341	283.81
309.571	309.81
309.8	308.81
310.03	319.81
310.26	328.81
310.49	327.81
310.72	335.81
310.949	341.81
311.179	339.81
311.409	329.81
311.639	318.81
311.868	316.81
312.098	334.81
312.328	326.81
312.557	351.81
312.787	345.81
313.017	363.81
313.246	305.81
313.476	342.81
313.706	317.81
313.935	315.81
314.165	343.81
314.394	347.81
314.624	341.81
314.853	347.81
315.083	333.81
315.312	331.81
315.542	329.81
315.771	311.81
316.001	297.81
316.23	337.81
316.46	316.81
316.689	318.81
316.919	324.81
317.148	343.81
317.377	334.81
317.607	346.81
317.836	345.81
318.065	315.81
318.295	313.81
318.524	333.81
318.753	340.81
318.983	308.81
319.212	318.81
319.441	331.81
319.67	345.81
319.9	317.81
320.129	313.81
320.358	331.81
320.587	324.81
320.816	362.81
321.046	359.81
321.275	348.81
321.504	348.81
321.733	321.81
321.962	341.81
322.191	361.81
322.42	365.81
322.649	382.81
322.878	381.81
323.108	402.81
323.337	420.81
323.566	437.81
323.795	469.81
324.024	506.81
324.253	601.81
324.482	868.81
324.71	1323.81
324.939	1776.81
325.168	1429.81
325.397	787.81
325.626	562.81
325.855	466.81
326.084	421.81
326.313	424.81
326.542	411.81
326.77	490.81
326.999	555.81
327.228	770.81
327.457	1125.81
327.686	1298.81
327.914	880.81
328.143	596.81
328.372	520.81
328.6	488.81
328.829	480.81
329.058	510.81
329.287	498.81
329.515	483.81
329.744	431.81
329.972	428.81
330.201	436.81
330.43	444.81
330.658	452.81
330.887	517.81
331.115	492.81
331.344	433.81
331.572	408.81
331.801	404.81
332.03	413.81
332.258	409.81
332.486	388.81
332.715	368.81
332.943	373.81
333.172	376.81
333.4	378.81
333.629	387.81
333.857	377.81
334.085	384.81
334.314	382.81
334.542	378.81
334.771	374.81
334.999	387.81
335.227	376.81
335.455	364.81
335.684	396.81
335.912	361.81
336.14	374.81
336.369	378.81
336.597	375.81
336.825	377.81
337.053	384.81
337.281	368.81
337.51	374.81
337.738	375.81
337.966	366.81
338.194	368.81
338.422	372.81
338.65	352.81
338.878	350.81
339.106	344.81
339.334	374.81
339.562	368.81
339.79	359.81
340.018	379.81
340.246	360.81
340.474	368.81
340.702	376.81
340.93	350.81
341.158	348.81
341.386	345.81
341.614	376.81
341.842	362.81
342.07	361.81
342.298	354.81
342.526	350.81
342.754	344.81
342.981	359.81
343.209	360.81
343.437	357.81
343.665	343.81
343.893	356.81
344.12	375.81
344.348	389.81
344.576	385.81
344.804	371.81
345.031	380.81
345.259	379.81
345.487	364.81
345.714	362.81
345.942	364.81
346.17	345.81
346.397	343.81
346.625	352.81
346.853	340.81
347.08	344.81
347.308	340.81
347.535	370.81
347.763	365.81
347.99	368.81
348.218	368.81
348.445	365.81
348.673	366.81
348.9	361.81
349.128	354.81
349.355	355.81
349.583	354.81
349.81	348.81
350.037	335.81
350.265	338.81
350.492	341.81
350.72	345.81
350.947	343.81
351.174	366.81
351.402	359.81
351.629	356.81
351.856	346.81
352.083	368.81
352.311	370.81
352.538	365.81
352.765	363.81
352.992	356.81
353.22	361.81
353.447	331.81
353.674	337.81
353.901	338.81
354.128	331.81
354.355	326.81
354.583	313.81
354.81	330.81
355.037	317.81
355.264	332.81
355.491	313.81
355.718	313.81
355.945	309.81
356.172	310.81
356.399	332.81
356.626	331.81
356.853	320.81
357.08	324.81
357.307	333.81
357.534	330.81
357.761	320.81
357.988	312.81
358.215	306.81
358.441	338.81
358.668	342.81
358.895	356.81
359.122	338.81
359.349	320.81
359.576	347.81
359.802	378.81
360.029	391.81
360.256	396.81
360.483	379.81
360.709	374.81
360.936	349.81
361.163	347.81
361.39	360.81
361.616	350.81
361.843	326.81
362.07	344.81
362.296	353.81
362.523	354.81
362.749	349.81
362.976	340.81
363.203	347.81
363.429	326.81
363.656	349.81
363.882	338.81
364.109	341.81
364.335	341.81
364.562	333.81
364.788	340.81
365.015	338.81
365.241	349.81
365.468	330.81
365.694	333.81
365.92	326.81
366.147	347.81
366.373	338.81
366.599	335.81
366.826	327.81
367.052	352.81
367.278	325.81
367.505	327.81
367.731	332.81
367.957	322.81
368.184	340.81
368.41	342.81
368.636	357.81
368.862	339.81
369.089	347.81
369.315	348.81
369.541	327.81
369.767	333.81
369.993	323.81
370.219	329.81
370.445	333.81
370.672	319.81
370.898	312.81
371.124	324.81
371.35	333.81
371.576	338.81
371.802	327.81
372.028	325.81
372.254	314.81
372.48	309.81
372.706	326.81
372.932	332.81
373.158	316.81
373.384	335.81
373.61	332.81
373.835	354.81
374.061	327.81
374.287	333.81
374.513	337.81
374.739	337.81
374.965	340.81
375.191	344.81
375.416	337.81
375.642	332.81
375.868	330.81
376.094	344.81
376.319	331.81
376.545	334.81
376.771	326.81
376.997	337.81
377.222	328.81
377.448	334.81
377.674	340.81
377.899	307.81
378.125	325.81
378.35	329.81
378.576	338.81
378.802	317.81
379.027	325.81
379.253	327.81
379.478	318.81
379.704	328.81
379.929	325.81
380.155	316.81
380.38	314.81
380.606	347.81
380.831	327.81
381.057	353.81
381.282	310.81
381.507	326.81
381.733	339.81
381.958	324.81
382.184	325.81
382.409	329.81
382.634	328.81
382.86	339.81
383.085	335.81
383.31	343.81
383.535	337.81
383.761	344.81
383.986	345.81
384.211	327.81
384.436	345.81
384.662	334.81
384.887	351.81
385.112	357.81
385.337	346.81
385.562	329.81
385.787	342.81
386.013	353.81
386.238	372.81
386.463	350.81
386.688	379.81
386.913	356.81
387.138	338.81
387.363	358.81
387.588	366.81
387.813	359.81
388.038	348.81
388.263	357.81
388.488	347.81
388.713	361.81
388.938	362.81
389.163	353.81
389.387	364.81
389.612	343.81
389.837	376.81
390.062	370.81
390.287	340.81
390.512	363.81
390.736	342.81
390.961	354.81
391.186	340.81
391.411	356.81
391.636	353.81
391.86	384.81
392.085	392.81
392.31	370.81
392.534	358.81
392.759	359.81
392.984	359.81
393.208	354.81
393.433	358.81
393.658	353.81
393.882	362.81
394.107	341.81
394.331	348.81
394.556	349.81
394.78	360.81
395.005	347.81
395.229	359.81
395.454	376.81
395.678	374.81
395.903	367.81
396.127	397.81
396.352	384.81
396.576	362.81
396.801	366.81
397.025	367.81
397.249	374.81
397.474	394.81
397.698	396.81
397.922	375.81
398.147	391.81
398.371	403.81
398.595	402.81
398.82	392.81
399.044	407.81
399.268	411.81
399.492	429.81
399.717	468.81
399.941	478.81
400.165	476.81
400.389	491.81
400.613	443.81
400.837	426.81
401.062	411.81
401.286	413.81
401.51	404.81
401.734	419.81
401.958	406.81
402.182	399.81
402.406	427.81
402.63	399.81
402.854	412.81
403.078	388.81
403.302	421.81
403.526	407.81
403.75	427.81
403.974	417.81
404.198	419.81
404.422	397.81
404.645	414.81
404.869	414.81
405.093	437.81
405.317	462.81
405.541	452.81
405.765	435.81
405.988	441.81
406.212	450.81
406.436	459.81
406.66	475.81
406.883	472.81
407.107	480.81
407.331	509.81
407.555	537.81
407.778	533.81
408.002	487.81
408.226	461.81
408.449	458.81
408.673	472.81
408.896	464.81
409.12	494.81
409.344	482.81
409.567	428.81
409.791	442.81
410.014	402.81
410.238	433.81
410.461	450.81
410.685	434.81
410.908	417.81
411.132	463.81
411.355	498.81
411.578	458.81
411.802	430.81
412.025	413.81
412.249	422.81
412.472	425.81
412.695	433.81
412.919	404.81
413.142	404.81
413.365	412.81
413.589	412.81
413.812	395.81
414.035	404.81
414.258	399.81
414.482	377.81
414.705	383.81
414.928	375.81
415.151	389.81
415.374	385.81
415.597	397.81
415.821	405.81
416.044	379.81
416.267	392.81
416.49	405.81
416.713	369.81
416.936	390.81
417.159	402.81
417.382	403.81
417.605	393.81
417.828	413.81
418.051	408.81
418.274	406.81
418.497	389.81
418.72	403.81
418.943	386.81
419.166	434.81
419.389	406.81
419.611	435.81
419.834	403.81
420.057	415.81
420.28	396.81
420.503	392.81
420.726	384.81
420.948	410.81
421.171	449.81
421.394	448.81
421.617	429.81
421.839	422.81
422.062	399.81
422.285	432.81
422.507	467.81
422.73	500.81
422.953	493.81
423.175	459.81
423.398	413.81
423.621	418.81
423.843	424.81
424.066	441.81
424.288	449.81
424.511	460.81
424.733	494.81
424.956	545.81
425.178	514.81
425.401	537.81
425.623	516.81
425.846	485.81
426.068	461.81
426.291	448.81
426.513	438.81
426.735	454.81
426.958	470.81
427.18	532.81
427.402	605.81
427.625	664.81
427.847	604.81
428.069	526.81
428.292	457.81
428.514	442.81
428.736	417.81
428.958	425.81
429.181	417.81
429.403	409.81
429.625	408.81
429.847	433.81
430.069	489.81
430.292	501.81
430.514	424.81
430.736	393.81
430.958	407.81
431.18	396.81
431.402	386.81
431.624	384.81
431.846	389.81
432.068	398.81
432.29	399.81
432.512	374.81
432.734	407.81
432.956	372.81
433.178	411.81
433.4	406.81
433.622	407.81
433.844	379.81
434.066	388.81
434.287	408.81
434.509	392.81
434.731	384.81
434.953	402.81
435.175	423.81
435.397	450.81
435.618	439.81
435.84	462.81
436.062	551.81
436.284	571.81
436.505	502.81
436.727	443.81
436.949	417.81
437.17	409.81
437.392	408.81
437.614	416.81
437.835	463.81
438.057	544.81
438.278	595.81
438.5	591.81
438.721	616.81
438.943	598.81
439.165	484.81
439.386	447.81
439.608	478.81
439.829	451.81
440.05	469.81
440.272	500.81
440.493	466.81
440.715	440.81
440.936	424.81
441.158	402.81
441.379	413.81
441.6	432.81
441.822	454.81
442.043	481.81
442.264	532.81
442.486	548.81
442.707	496.81
442.928	473.81
443.149	455.81
443.371	477.81
443.592	527.81
443.813	567.81
444.034	613.81
444.255	526.81
444.476	450.81
444.698	444.81
444.919	434.81
445.14	552.81
445.361	493.81
445.582	480.81
445.803	520.81
446.024	598.81
446.245	606.81
446.466	541.81
446.687	473.81
446.908	450.81
447.129	415.81
447.35	410.81
447.571	420.81
447.792	396.81
448.013	409.81
448.234	440.81
448.455	470.81
448.675	545.81
448.896	632.81
449.117	534.81
449.338	528.81
449.559	578.81
449.779	632.81
450	544.81
450.221	455.81
450.442	430.81
450.662	412.81
450.883	413.81
451.104	443.81
451.324	417.81
451.545	380.81
451.766	371.81
451.986	378.81
452.207	368.81
452.428	370.81
452.648	368.81
452.869	381.81
453.089	364.81
453.31	394.81
453.53	378.81
453.751	364.81
453.971	371.81
454.192	406.81
454.412	406.81
454.633	380.81
454.853	364.81
455.073	374.81
455.294	386.81
455.514	437.81
455.734	418.81
455.955	365.81
456.175	364.81
456.395	359.81
456.616	326.81
456.836	346.81
457.056	338.81
457.276	335.81
457.497	366.81
457.717	359.81
457.937	348.81
458.157	363.81
458.377	361.81
458.598	378.81
458.818	441.81
459.038	501.81
459.258	494.81
459.478	421.81
459.698	397.81
459.918	398.81
460.138	380.81
460.358	376.81
460.578	398.81
460.798	411.81
461.018	392.81
461.238	390.81
461.458	396.81
461.678	381.81
461.898	378.81
462.118	392.81
462.338	379.81
462.558	402.81
462.777	407.81
462.997	415.81
463.217	408.81
463.437	412.81
463.657	427.81
463.876	405.81
464.096	413.81
464.316	413.81
464.536	439.81
464.755	421.81
464.975	424.81
465.195	482.81
465.414	543.81
465.634	455.81
465.854	424.81
466.073	383.81
466.293	398.81
466.512	390.81
466.732	376.81
466.951	387.81
467.171	375.81
467.391	380.81
467.61	381.81
467.829	407.81
468.049	401.81
468.268	391.81
468.488	382.81
468.707	373.81
468.927	386.81
469.146	364.81
469.365	366.81
469.585	379.81
469.804	352.81
470.023	385.81
470.243	384.81
470.462	393.81
470.681	418.81
470.901	400.81
471.12	394.81
471.339	393.81
471.558	383.81
471.777	368.81
471.997	369.81
472.216	372.81
472.435	376.81
472.654	385.81
472.873	390.81
473.092	377.81
473.311	372.81
473.53	374.81
473.749	403.81
473.968	434.81
474.187	493.81
474.406	513.81
474.625	405.81
474.844	390.81
475.063	396.81
475.282	397.81
475.501	375.81
475.72	384.81
475.939	395.81
476.158	402.81
476.377	432.81
476.596	382.81
476.814	396.81
477.033	423.81
477.252	404.81
477.471	398.81
477.69	409.81
477.908	426.81
478.127	418.81
478.346	398.81
478.564	423.81
478.783	427.81
479.002	417.81
479.22	422.81
479.439	422.81
479.658	442.81
479.876	459.81
480.095	456.81
480.313	465.81
480.532	434.81
480.751	451.81
480.969	463.81
481.188	477.81
481.406	475.81
481.624	449.81
481.843	440.81
482.061	434.81
482.28	437.81
482.498	451.81
482.717	458.81
482.935	451.81
483.153	434.81
483.372	422.81
483.59	456.81
483.808	429.81
484.027	451.81
484.245	448.81
484.463	450.81
484.681	458.81
484.9	455.81
485.118	449.81
485.336	450.81
485.554	447.81
485.772	463.81
485.99	445.81
486.209	464.81
486.427	465.81
486.645	459.81
486.863	478.81
487.081	484.81
487.299	475.81
487.517	490.81
487.735	472.81
487.953	461.81
488.171	482.81
488.389	485.81
488.607	491.81
488.825	488.81
489.043	485.81
489.261	473.81
489.479	482.81
489.696	479.81
489.914	481.81
490.132	509.81
490.35	509.81
490.568	499.81
490.786	518.81
491.003	520.81
491.221	517.81
491.439	535.81
491.657	527.81
491.874	524.81
492.092	547.81
492.31	554.81
492.527	543.81
492.745	545.81
492.963	542.81
493.18	541.81
493.398	538.81
493.615	549.81
493.833	562.81
494.05	549.81
494.268	562.81
494.485	560.81
494.703	542.81
494.92	560.81
495.138	552.81
495.355	594.81
495.573	556.81
495.79	574.81
496.008	551.81
496.225	568.81
496.442	567.81
496.66	562.81
496.877	554.81
497.094	586.81
497.312	562.81
497.529	578.81
497.746	599.81
497.963	586.81
498.181	611.81
498.398	616.81
498.615	619.81
498.832	630.81
499.049	621.81
499.267	642.81
499.484	660.81
499.701	684.81
499.918	696.81
500.135	725.81
500.352	780.81
500.569	772.81
500.786	762.81
501.003	731.81
501.22	718.81
501.437	714.81
501.654	704.81
501.871	690.81
502.088	667.81
502.305	650.81
502.522	611.81
502.739	639.81
502.956	580.81
503.172	615.81
503.389	581.81
503.606	596.81
503.823	575.81
504.04	573.81
504.256	570.81
504.473	568.81
504.69	576.81
504.907	575.81
505.123	569.81
505.34	536.81
505.557	528.81
505.773	556.81
505.99	547.81
506.207	529.81
506.423	536.81
506.64	537.81
506.856	531.81
507.073	502.81
507.289	522.81
507.506	505.81
507.722	546.81
507.939	552.81
508.155	545.81
508.372	484.81
508.588	518.81
508.805	522.81
509.021	519.81
509.238	532.81
509.454	520.81
509.67	528.81
509.887	535.81
510.103	502.81
510.319	529.81
510.536	612.81
510.752	1081.81
510.968	853.81
511.184	530.81
511.401	519.81
511.617	489.81
511.833	484.81
512.049	477.81
512.265	506.81
512.481	490.81
512.698	477.81
512.914	476.81
513.13	490.81
513.346	473.81
513.562	496.81
513.778	500.81
513.994	518.81
514.21	522.81
514.426	522.81
514.642	550.81
514.858	591.81
515.074	616.81
515.29	744.81
515.506	1172.81
515.721	942.81
515.937	625.81
516.153	551.81
516.369	520.81
516.585	505.81
516.801	492.81
517.016	496.81
517.232	500.81
517.448	534.81
517.664	508.81
517.879	486.81
518.095	489.81
518.311	478.81
518.527	510.81
518.742	508.81
518.958	500.81
519.173	476.81
519.389	502.81
519.605	488.81
519.82	484.81
520.036	508.81
520.251	518.81
520.467	545.81
520.682	560.81
520.898	564.81
521.113	549.81
521.329	609.81
521.544	673.81
521.76	900.81
521.975	1543.81
522.19	1502.81
522.406	793.81
522.621	554.81
522.836	520.81
523.052	493.81
523.267	469.81
523.482	462.81
523.698	457.81
523.913	455.81
524.128	451.81
524.343	436.81
524.559	424.81
524.774	432.81
524.989	436.81
525.204	436.81
525.419	441.81
525.634	406.81
525.849	404.81
526.064	417.81
526.28	404.81
526.495	408.81
526.71	399.81
526.925	400.81
527.14	396.81
527.355	404.81
527.57	390.81
527.785	385.81
527.999	402.81
528.214	388.81
528.429	404.81
528.644	406.81
528.859	402.81
529.074	412.81
529.289	422.81
529.503	488.81
529.718	482.81
529.933	438.81
530.148	408.81
530.363	412.81
530.577	405.81
530.792	405.81
531.007	406.81
531.221	406.81
531.436	376.81
531.651	384.81
531.865	396.81
532.08	394.81
532.295	372.81
532.509	410.81
532.724	374.81
532.938	396.81
533.153	390.81
533.367	372.81
533.582	384.81
533.796	375.81
534.011	376.81
534.225	382.81
534.44	369.81
534.654	372.81
534.868	378.81
535.083	366.81
535.297	375.81
535.511	388.81
535.726	393.81
535.94	387.81
536.154	390.81
536.369	373.81
536.583	369.81
536.797	372.81
537.011	361.81
537.225	354.81
537.44	350.81
537.654	372.81
537.868	372.81
538.082	376.81
538.296	360.81
538.51	374.81
538.724	379.81
538.938	343.81
539.153	367.81
539.367	376.81
539.581	377.81
539.795	366.81
540.009	371.81
540.222	357.81
540.436	362.81
540.65	364.81
540.864	373.81
541.078	378.81
541.292	402.81
541.506	377.81
541.72	374.81
541.934	357.81
542.147	380.81
542.361	356.81
542.575	353.81
542.789	369.81
543.002	346.81
543.216	372.81
543.43	368.81
543.644	362.81
543.857	357.81
544.071	384.81
544.285	374.81
544.498	363.81
544.712	365.81
544.925	352.81
545.139	362.81
545.352	342.81
545.566	347.81
545.779	357.81
545.993	345.81
546.206	373.81
546.42	365.81
546.633	354.81
546.847	340.81
547.06	355.81
547.274	361.81
547.487	358.81
547.7	357.81
547.914	348.81
548.127	368.81
548.34	348.81
548.554	351.81
548.767	357.81
548.98	348.81
549.193	333.81
549.407	342.81
549.62	342.81
549.833	346.81
550.046	340.81
550.259	353.81
550.473	335.81
550.686	365.81
550.899	348.81
551.112	333.81
551.325	341.81
551.538	325.81
551.751	326.81
551.964	339.81
552.177	352.81
552.39	320.81
552.603	350.81
552.816	354.81
553.029	339.81
553.242	341.81
553.455	346.81
553.667	358.81
553.88	373.81
554.093	354.81
554.306	342.81
554.519	350.81
554.732	337.81
554.944	334.81
555.157	342.81
555.37	343.81
555.583	336.81
555.795	338.81
556.008	329.81
556.221	314.81
556.433	329.81
556.646	330.81
556.859	333.81
557.071	322.81
557.284	332.81
557.496	338.81
557.709	309.81
557.921	316.81
558.134	321.81
558.346	315.81
558.559	314.81
558.771	315.81
558.984	321.81
559.196	309.81
559.409	309.81
559.621	307.81
559.833	305.81
560.046	299.81
560.258	312.81
560.47	299.81
560.683	320.81
560.895	301.81
561.107	309.81
561.32	300.81
561.532	307.81
561.744	312.81
561.956	309.81
562.168	298.81
562.381	299.81
562.593	295.81
562.805	305.81
563.017	317.81
563.229	305.81
563.441	320.81
563.653	308.81
563.865	304.81
564.077	292.81
564.289	313.81
564.501	320.81
564.713	321.81
564.925	324.81
565.137	317.81
565.349	330.81
565.561	329.81
565.773	339.81
565.985	333.81
566.197	331.81
566.408	339.81
566.62	372.81
566.832	361.81
567.044	362.81
567.255	353.81
567.467	346.81
567.679	378.81
567.891	377.81
568.102	357.81
568.314	355.81
568.526	344.81
568.737	340.81
568.949	347.81
569.161	319.81
569.372	320.81
569.584	320.81
569.795	321.81
570.007	307.81
570.218	370.81
570.43	347.81
570.641	289.81
570.853	278.81
571.064	286.81
571.276	279.81
571.487	292.81
571.698	288.81
571.91	297.81
572.121	285.81
572.333	269.81
572.544	281.81
572.755	276.81
572.966	264.81
573.178	282.81
573.389	267.81
573.6	282.81
573.811	264.81
574.023	251.81
574.234	269.81
574.445	269.81
574.656	249.81
574.867	252.81
575.078	273.81
575.289	244.81
575.501	277.81
575.712	260.81
575.923	276.81
576.134	277.81
576.345	259.81
576.556	260.81
576.767	269.81
576.978	259.81
577.188	269.81
577.399	272.81
577.61	250.81
577.821	251.81
578.032	270.81
578.243	285.81
578.454	494.81
578.665	373.81
578.875	265.81
579.086	254.81
579.297	251.81
579.508	254.81
579.718	241.81
579.929	254.81
580.14	237.81
580.35	239.81
580.561	244.81
580.772	243.81
580.982	248.81
581.193	224.81
581.403	238.81
581.614	232.81
581.825	236.81
582.035	247.81
582.246	235.81
582.456	232.81
582.667	246.81
582.877	244.81
583.087	219.81
583.298	240.81
583.508	234.81
583.719	243.81
583.929	237.81
584.139	233.81
584.35	239.81
584.56	240.81
584.77	227.81
584.981	244.81
585.191	243.81
585.401	229.81
585.611	234.81
585.821	240.81
586.032	244.81
586.242	230.81
586.452	249.81
586.662	224.81
586.872	232.81
587.082	233.81
587.292	235.81
587.502	209.81
587.713	230.81
587.923	221.81
588.133	219.81
588.343	227.81
588.553	222.81
588.762	224.81
588.972	227.81
589.182	245.81
589.392	232.81
589.602	234.81
589.812	222.81
590.022	222.81
590.232	225.81
590.441	233.81
590.651	219.81
590.861	216.81
591.071	228.81
591.281	233.81
591.49	239.81
591.7	226.81
591.91	240.81
592.119	228.81
592.329	224.81
592.539	234.81
592.748	235.81
592.958	235.81
593.167	237.81
593.377	228.81
593.587	251.81
593.796	250.81
594.006	260.81
594.215	242.81
594.424	229.81
594.634	237.81
594.843	217.81
595.053	232.81
595.262	231.81
595.472	232.81
595.681	228.81
595.89	230.81
596.1	217.81
596.309	238.81
596.518	220.81
596.727	237.81
596.937	220.81
597.146	214.81
597.355	213.81
597.564	205.81
597.774	212.81
597.983	223.81
598.192	204.81
598.401	209.81
598.61	225.81
598.819	209.81
599.028	203.81
599.237	197.81
599.446	196.81
599.655	208.81
599.864	204.81
600.073	200.81
600.282	208.81
600.491	212.81
600.7	195.81
600.909	191.81
601.118	205.81
601.327	205.81
601.536	205.81
601.745	198.81
601.953	204.81
602.162	209.81
602.371	214.81
602.58	194.81
602.789	199.81
602.997	189.81
603.206	194.81
603.415	193.81
603.623	191.81
603.832	200.81
604.041	196.81
604.249	202.81
604.458	206.81
604.666	197.81
604.875	191.81
605.084	206.81
605.292	200.81
605.501	186.81
605.709	198.81
605.918	212.81
606.126	194.81
606.334	186.81
606.543	193.81
606.751	193.81
606.96	193.81
607.168	212.81
607.376	188.81
607.585	211.81
607.793	192.81
608.001	165.81
608.21	198.81
608.418	179.81
608.626	191.81
608.834	178.81
609.043	202.81
609.251	187.81
609.459	200.81
609.667	195.81
609.875	179.81
610.083	193.81
610.291	200.81
610.499	207.81
610.707	188.81
610.916	192.81
611.124	180.81
611.332	170.81
611.54	185.81
611.748	216.81
611.955	184.81
612.163	182.81
612.371	189.81
612.579	188.81
612.787	202.81
612.995	195.81
613.203	189.81
613.411	188.81
613.618	194.81
613.826	171.81
614.034	186.81
614.242	197.81
614.449	192.81
614.657	182.81
614.865	187.81
615.072	189.81
615.28	193.81
615.488	174.81
615.695	189.81
615.903	183.81
616.111	189.81
616.318	218.81
616.526	196.81
616.733	209.81
616.941	194.81
617.148	168.81
617.356	199.81
617.563	186.81
617.771	186.81
617.978	165.81
618.185	184.81
618.393	187.81
618.6	189.81
618.807	173.81
619.015	163.81
619.222	182.81
619.429	191.81
619.637	178.81
619.844	186.81
620.051	181.81
620.258	183.81
620.466	189.81
620.673	189.81
620.88	178.81
621.087	167.81
621.294	160.81
621.501	183.81
621.708	192.81
621.915	176.81
622.122	171.81
622.329	172.81
622.536	194.81
622.743	194.81
622.95	173.81
623.157	159.81
623.364	176.81
623.571	181.81
623.778	189.81
623.985	187.81
624.192	169.81
624.399	162.81
624.606	186.81
624.812	176.81
625.019	179.81
625.226	172.81
625.433	164.81
625.639	159.81
625.846	162.81
626.053	165.81
626.259	168.81
626.466	156.81
626.673	169.81
626.879	161.81
627.086	165.81
627.293	164.81
627.499	172.81
627.706	169.81
627.912	196.81
628.119	158.81
628.325	175.81
628.532	154.81
628.738	165.81
628.945	159.81
629.151	170.81
629.357	165.81
629.564	151.81
629.77	161.81
629.976	161.81
630.183	176.81
630.389	162.81
630.595	166.81
630.802	161.81
631.008	164.81
631.214	156.81
631.42	146.81
631.627	162.81
631.833	154.81
632.039	156.81
632.245	149.81
632.451	158.81
632.657	152.81
632.863	163.81
633.069	155.81
633.275	156.81
633.481	161.81
633.688	145.81
633.893	153.81
634.099	137.81
634.305	150.81
634.511	142.81
634.717	144.81
634.923	145.81
635.129	160.81
635.335	156.81
635.541	154.81
635.747	146.81
635.952	142.81
636.158	142.81
636.364	133.81
636.57	142.81
636.775	156.81
636.981	138.81
637.187	139.81
637.392	144.81
637.598	162.81
637.804	157.81
638.009	163.81
638.215	145.81
638.421	148.81
638.626	143.81
638.832	153.81
639.037	153.81
639.243	149.81
639.448	146.81
639.654	158.81
639.859	174.81
640.065	150.81
640.27	156.81
640.475	139.81
640.681	131.81
640.886	141.81
641.091	142.81
641.297	148.81
641.502	149.81
641.707	139.81
641.913	157.81
642.118	138.81
642.323	131.81
642.528	137.81
642.733	145.81
642.939	159.81
643.144	149.81
643.349	136.81
643.554	152.81
643.759	141.81
643.964	165.81
644.169	138.81
644.374	124.81
644.579	152.81
644.784	148.81
644.989	145.81
645.194	141.81
645.399	139.81
645.604	149.81
645.809	130.81
646.014	134.81
646.219	143.81
646.423	148.81
646.628	138.81
646.833	143.81
647.038	152.81
647.243	150.81
647.447	148.81
647.652	147.81
647.857	153.81
648.062	153.81
648.266	135.81
648.471	144.81
648.676	156.81
648.88	141.81
649.085	151.81
649.289	151.81
649.494	137.81
649.698	161.81
649.903	164.81
650.107	146.81
650.312	136.81
650.516	120.81
650.721	141.81
650.925	138.81
651.13	133.81
651.334	126.81
651.539	137.81
651.743	124.81
651.947	134.81
652.152	128.81
652.356	119.81
652.56	131.81
652.764	124.81
652.969	116.81
653.173	124.81
653.377	114.81
653.581	132.81
653.785	125.81
653.99	124.81
654.194	117.81
654.398	105.81
654.602	118.81
654.806	119.81
655.01	119.81
655.214	98.81
655.418	141.81
655.622	123.81
655.826	118.81
656.03	109.81
656.234	127.81
656.438	128.81
656.642	120.81
656.846	108.81
657.049	112.81
657.253	134.81
657.457	119.81
657.661	115.81
657.865	101.81
658.068	115.81
658.272	103.81
658.476	88.81
658.68	91.81
658.883	105.81
659.087	102.81
659.291	89.81
659.494	90.81
659.698	96.81
659.901	91.81
660.105	103.81
660.309	106.81
660.512	90.81
660.716	97.81
660.919	94.81
661.123	109.81
661.326	94.81
661.53	95.81
661.733	95.81
661.936	90.81
662.14	95.81
662.343	91.81
662.546	87.81
662.75	76.81
662.953	78.81
663.156	101.81
663.36	85.81
663.563	81.81
663.766	85.81
663.969	74.81
664.173	87.81
664.376	93.81
664.579	84.81
664.782	84.81
664.985	82.81
665.188	93.81
665.391	82.81
665.594	76.81
665.797	68.81
666	86.81
666.203	96.81
666.406	72.81
666.609	89.81
666.812	66.81
667.015	77.81
667.218	96.81
667.421	86.81
667.624	77.81
667.827	78.81
668.03	86.81
668.232	80.81
668.435	76.81
668.638	82.81
668.841	74.81
669.043	72.81
669.246	84.81
669.449	78.81
669.651	78.81
669.854	88.81
670.057	88.81
670.259	87.81
670.462	75.81
670.665	93.81
670.867	63.81
671.07	81.81
671.272	73.81
671.475	76.81
671.677	87.81
671.88	86.81
672.082	82.81
672.284	86.81
672.487	83.81
672.689	73.81
672.892	68.81
