Data from 1983.PennyLincolnUp.Lamp.En5.5.200Scan.071819.P1_HRD10591_16-54-16-965.txt Node
Date: Thu Jul 18 16:54:16 EDT 2019
User: cochatt
Spectrometer: HR+D1059
Trigger mode: 1
Integration Time (sec): 1.000000E-1
Scans to average: 1
Electric dark correction enabled: true
Nonlinearity correction enabled: false
Boxcar width: 0
XAxis mode: Wavelengths
Number of Pixels in Spectrum: 2048
>>>>>Begin Spectral Data<<<<<
223.165	5.19
223.4	5.19
223.635	5.19
223.869	-12.81
224.104	-10.81
224.338	-22.81
224.573	-19.81
224.808	-19.81
225.042	-12.81
225.277	-9.81
225.511	-7.81
225.746	-4.81
225.98	18.19
226.215	10.19
226.449	20.19
226.683	21.19
226.918	21.19
227.152	25.19
227.387	42.19
227.621	31.19
227.856	36.19
228.09	53.19
228.324	46.19
228.559	62.19
228.793	54.19
229.027	100.19
229.262	109.19
229.496	123.19
229.73	123.19
229.964	144.19
230.199	126.19
230.433	119.19
230.667	99.19
230.901	106.19
231.136	115.19
231.37	107.19
231.604	118.19
231.838	98.19
232.072	107.19
232.306	105.19
232.541	120.19
232.775	98.19
233.009	109.19
233.243	119.19
233.477	108.19
233.711	117.19
233.945	95.19
234.179	103.19
234.413	100.19
234.647	109.19
234.881	99.19
235.115	114.19
235.349	113.19
235.583	122.19
235.817	111.19
236.051	117.19
236.285	125.19
236.519	105.19
236.753	123.19
236.987	137.19
237.221	182.19
237.455	212.19
237.689	161.19
237.922	125.19
238.156	135.19
238.39	125.19
238.624	109.19
238.858	122.19
239.091	111.19
239.325	113.19
239.559	123.19
239.793	130.19
240.027	125.19
240.26	133.19
240.494	147.19
240.728	140.19
240.961	121.19
241.195	131.19
241.429	123.19
241.662	133.19
241.896	111.19
242.13	121.19
242.363	129.19
242.597	126.19
242.83	135.19
243.064	117.19
243.298	126.19
243.531	127.19
243.765	127.19
243.998	125.19
244.232	132.19
244.465	114.19
244.699	131.19
244.932	136.19
245.166	143.19
245.399	131.19
245.633	131.19
245.866	143.19
246.099	133.19
246.333	143.19
246.566	142.19
246.8	158.19
247.033	127.19
247.266	141.19
247.5	148.19
247.733	157.19
247.966	154.19
248.2	166.19
248.433	171.19
248.666	167.19
248.899	175.19
249.133	187.19
249.366	194.19
249.599	180.19
249.832	180.19
250.066	186.19
250.299	159.19
250.532	170.19
250.765	187.19
250.998	202.19
251.231	184.19
251.465	209.19
251.698	197.19
251.931	175.19
252.164	185.19
252.397	175.19
252.63	172.19
252.863	181.19
253.096	215.19
253.329	206.19
253.562	203.19
253.795	190.19
254.028	195.19
254.261	216.19
254.494	210.19
254.727	241.19
254.96	260.19
255.193	220.19
255.426	223.19
255.659	206.19
255.892	212.19
256.124	210.19
256.357	212.19
256.59	206.19
256.823	197.19
257.056	194.19
257.289	180.19
257.521	203.19
257.754	193.19
257.987	197.19
258.22	186.19
258.452	212.19
258.685	187.19
258.918	203.19
259.151	179.19
259.383	207.19
259.616	200.19
259.849	204.19
260.081	217.19
260.314	236.19
260.547	234.19
260.779	236.19
261.012	219.19
261.244	201.19
261.477	208.19
261.71	203.19
261.942	213.19
262.175	235.19
262.407	205.19
262.64	191.19
262.872	186.19
263.105	193.19
263.337	205.19
263.57	197.19
263.802	190.19
264.035	192.19
264.267	206.19
264.499	189.19
264.732	197.19
264.964	202.19
265.197	188.19
265.429	202.19
265.661	206.19
265.894	190.19
266.126	189.19
266.358	198.19
266.591	204.19
266.823	202.19
267.055	202.19
267.287	203.19
267.52	194.19
267.752	209.19
267.984	201.19
268.216	217.19
268.448	207.19
268.681	217.19
268.913	220.19
269.145	257.19
269.377	263.19
269.609	251.19
269.841	231.19
270.073	269.19
270.306	258.19
270.538	283.19
270.77	292.19
271.002	256.19
271.234	247.19
271.466	264.19
271.698	271.19
271.93	280.19
272.162	302.19
272.394	277.19
272.626	258.19
272.858	249.19
273.09	264.19
273.322	246.19
273.553	246.19
273.785	241.19
274.017	226.19
274.249	238.19
274.481	251.19
274.713	251.19
274.945	244.19
275.176	236.19
275.408	248.19
275.64	241.19
275.872	255.19
276.104	232.19
276.335	253.19
276.567	249.19
276.799	260.19
277.031	263.19
277.262	290.19
277.494	300.19
277.726	267.19
277.957	259.19
278.189	251.19
278.421	234.19
278.652	234.19
278.884	247.19
279.115	243.19
279.347	253.19
279.579	251.19
279.81	227.19
280.042	257.19
280.273	225.19
280.505	237.19
280.736	258.19
280.968	247.19
281.199	237.19
281.431	238.19
281.662	247.19
281.894	226.19
282.125	236.19
282.356	287.19
282.588	301.19
282.819	272.19
283.051	246.19
283.282	239.19
283.513	241.19
283.745	243.19
283.976	242.19
284.207	271.19
284.439	243.19
284.67	246.19
284.901	244.19
285.132	260.19
285.364	253.19
285.595	252.19
285.826	246.19
286.057	243.19
286.288	259.19
286.52	257.19
286.751	255.19
286.982	265.19
287.213	263.19
287.444	262.19
287.675	265.19
287.906	255.19
288.138	283.19
288.369	279.19
288.6	276.19
288.831	275.19
289.062	255.19
289.293	265.19
289.524	273.19
289.755	245.19
289.986	255.19
290.217	262.19
290.448	245.19
290.679	275.19
290.91	269.19
291.141	266.19
291.371	258.19
291.602	252.19
291.833	263.19
292.064	245.19
292.295	273.19
292.526	271.19
292.757	271.19
292.987	263.19
293.218	268.19
293.449	261.19
293.68	236.19
293.91	254.19
294.141	267.19
294.372	247.19
294.603	261.19
294.833	267.19
295.064	252.19
295.295	277.19
295.525	269.19
295.756	283.19
295.987	275.19
296.217	295.19
296.448	294.19
296.679	283.19
296.909	261.19
297.14	269.19
297.37	266.19
297.601	259.19
297.831	258.19
298.062	278.19
298.292	262.19
298.523	271.19
298.753	283.19
298.984	286.19
299.214	271.19
299.445	273.19
299.675	284.19
299.905	269.19
300.136	275.19
300.366	281.19
300.597	277.19
300.827	281.19
301.057	284.19
301.288	313.19
301.518	308.19
301.748	285.19
301.979	292.19
302.209	288.19
302.439	283.19
302.669	294.19
302.9	277.19
303.13	281.19
303.36	309.19
303.59	315.19
303.82	313.19
304.051	303.19
304.281	287.19
304.511	295.19
304.741	291.19
304.971	290.19
305.201	282.19
305.431	295.19
305.661	285.19
305.891	282.19
306.121	281.19
306.352	296.19
306.582	285.19
306.812	294.19
307.042	300.19
307.272	308.19
307.502	301.19
307.731	303.19
307.961	286.19
308.191	304.19
308.421	318.19
308.651	305.19
308.881	305.19
309.111	300.19
309.341	316.19
309.571	309.19
309.8	319.19
310.03	329.19
310.26	339.19
310.49	335.19
310.72	337.19
310.949	365.19
311.179	377.19
311.409	347.19
311.639	342.19
311.868	339.19
312.098	357.19
312.328	351.19
312.557	365.19
312.787	381.19
313.017	377.19
313.246	353.19
313.476	337.19
313.706	332.19
313.935	347.19
314.165	361.19
314.394	372.19
314.624	373.19
314.853	347.19
315.083	319.19
315.312	342.19
315.542	333.19
315.771	336.19
316.001	327.19
316.23	330.19
316.46	343.19
316.689	346.19
316.919	354.19
317.148	348.19
317.377	363.19
317.607	359.19
317.836	329.19
318.065	348.19
318.295	344.19
318.524	355.19
318.753	318.19
318.983	355.19
319.212	335.19
319.441	355.19
319.67	362.19
319.9	343.19
320.129	345.19
320.358	327.19
320.587	354.19
320.816	364.19
321.046	354.19
321.275	360.19
321.504	370.19
321.733	375.19
321.962	395.19
322.191	400.19
322.42	400.19
322.649	422.19
322.878	437.19
323.108	460.19
323.337	466.19
323.566	482.19
323.795	511.19
324.024	554.19
324.253	682.19
324.482	1020.19
324.71	1531.19
324.939	2049.19
325.168	1674.19
325.397	915.19
325.626	617.19
325.855	525.19
326.084	486.19
326.313	480.19
326.542	488.19
326.77	521.19
326.999	622.19
327.228	874.19
327.457	1351.19
327.686	1521.19
327.914	1009.19
328.143	673.19
328.372	586.19
328.6	564.19
328.829	543.19
329.058	541.19
329.287	573.19
329.515	512.19
329.744	470.19
329.972	481.19
330.201	489.19
330.43	533.19
330.658	539.19
330.887	601.19
331.115	588.19
331.344	506.19
331.572	475.19
331.801	454.19
332.03	463.19
332.258	435.19
332.486	403.19
332.715	399.19
332.943	398.19
333.172	427.19
333.4	414.19
333.629	407.19
333.857	444.19
334.085	442.19
334.314	445.19
334.542	451.19
334.771	500.19
334.999	437.19
335.227	409.19
335.455	429.19
335.684	394.19
335.912	399.19
336.14	380.19
336.369	406.19
336.597	416.19
336.825	409.19
337.053	393.19
337.281	386.19
337.51	394.19
337.738	370.19
337.966	389.19
338.194	414.19
338.422	426.19
338.65	391.19
338.878	377.19
339.106	384.19
339.334	365.19
339.562	396.19
339.79	383.19
340.018	367.19
340.246	379.19
340.474	403.19
340.702	381.19
340.93	373.19
341.158	383.19
341.386	396.19
341.614	380.19
341.842	390.19
342.07	373.19
342.298	371.19
342.526	377.19
342.754	359.19
342.981	362.19
343.209	377.19
343.437	362.19
343.665	375.19
343.893	375.19
344.12	388.19
344.348	382.19
344.576	393.19
344.804	394.19
345.031	389.19
345.259	417.19
345.487	382.19
345.714	383.19
345.942	370.19
346.17	364.19
346.397	369.19
346.625	381.19
346.853	375.19
347.08	374.19
347.308	382.19
347.535	373.19
347.763	384.19
347.99	380.19
348.218	386.19
348.445	366.19
348.673	377.19
348.9	371.19
349.128	372.19
349.355	366.19
349.583	369.19
349.81	375.19
350.037	358.19
350.265	349.19
350.492	361.19
350.72	365.19
350.947	357.19
351.174	378.19
351.402	385.19
351.629	365.19
351.856	385.19
352.083	410.19
352.311	407.19
352.538	410.19
352.765	406.19
352.992	369.19
353.22	364.19
353.447	351.19
353.674	362.19
353.901	355.19
354.128	364.19
354.355	350.19
354.583	352.19
354.81	338.19
355.037	358.19
355.264	353.19
355.491	329.19
355.718	350.19
355.945	344.19
356.172	331.19
356.399	341.19
356.626	340.19
356.853	333.19
357.08	337.19
357.307	326.19
357.534	327.19
357.761	331.19
357.988	319.19
358.215	342.19
358.441	335.19
358.668	343.19
358.895	360.19
359.122	343.19
359.349	378.19
359.576	375.19
359.802	409.19
360.029	424.19
360.256	420.19
360.483	422.19
360.709	413.19
360.936	364.19
361.163	370.19
361.39	371.19
361.616	381.19
361.843	360.19
362.07	358.19
362.296	377.19
362.523	360.19
362.749	380.19
362.976	360.19
363.203	336.19
363.429	359.19
363.656	359.19
363.882	334.19
364.109	362.19
364.335	349.19
364.562	355.19
364.788	345.19
365.015	353.19
365.241	376.19
365.468	381.19
365.694	376.19
365.92	351.19
366.147	356.19
366.373	342.19
366.599	366.19
366.826	350.19
367.052	349.19
367.278	336.19
367.505	374.19
367.731	368.19
367.957	346.19
368.184	347.19
368.41	359.19
368.636	375.19
368.862	369.19
369.089	352.19
369.315	369.19
369.541	343.19
369.767	349.19
369.993	338.19
370.219	338.19
370.445	351.19
370.672	351.19
370.898	345.19
371.124	334.19
371.35	353.19
371.576	350.19
371.802	329.19
372.028	327.19
372.254	356.19
372.48	371.19
372.706	355.19
372.932	355.19
373.158	337.19
373.384	363.19
373.61	362.19
373.835	363.19
374.061	346.19
374.287	351.19
374.513	325.19
374.739	343.19
374.965	353.19
375.191	366.19
375.416	344.19
375.642	333.19
375.868	359.19
376.094	338.19
376.319	347.19
376.545	357.19
376.771	356.19
376.997	341.19
377.222	331.19
377.448	340.19
377.674	341.19
377.899	340.19
378.125	336.19
378.35	337.19
378.576	343.19
378.802	338.19
379.027	347.19
379.253	352.19
379.478	342.19
379.704	337.19
379.929	357.19
380.155	351.19
380.38	351.19
380.606	351.19
380.831	331.19
381.057	334.19
381.282	348.19
381.507	338.19
381.733	334.19
381.958	331.19
382.184	332.19
382.409	358.19
382.634	355.19
382.86	353.19
383.085	348.19
383.31	330.19
383.535	353.19
383.761	349.19
383.986	347.19
384.211	347.19
384.436	373.19
384.662	347.19
384.887	355.19
385.112	356.19
385.337	374.19
385.562	355.19
385.787	361.19
386.013	402.19
386.238	372.19
386.463	350.19
386.688	362.19
386.913	358.19
387.138	356.19
387.363	373.19
387.588	364.19
387.813	362.19
388.038	377.19
388.263	377.19
388.488	370.19
388.713	357.19
388.938	347.19
389.163	350.19
389.387	354.19
389.612	353.19
389.837	366.19
390.062	376.19
390.287	379.19
390.512	387.19
390.736	366.19
390.961	365.19
391.186	367.19
391.411	374.19
391.636	365.19
391.86	374.19
392.085	373.19
392.31	381.19
392.534	364.19
392.759	383.19
392.984	352.19
393.208	377.19
393.433	358.19
393.658	341.19
393.882	353.19
394.107	361.19
394.331	351.19
394.556	362.19
394.78	391.19
395.005	387.19
395.229	358.19
395.454	361.19
395.678	374.19
395.903	369.19
396.127	394.19
396.352	421.19
396.576	383.19
396.801	371.19
397.025	386.19
397.249	392.19
397.474	378.19
397.698	370.19
397.922	403.19
398.147	405.19
398.371	400.19
398.595	408.19
398.82	409.19
399.044	419.19
399.268	437.19
399.492	455.19
399.717	462.19
399.941	492.19
400.165	486.19
400.389	518.19
400.613	461.19
400.837	426.19
401.062	444.19
401.286	405.19
401.51	414.19
401.734	407.19
401.958	411.19
402.182	399.19
402.406	421.19
402.63	437.19
402.854	425.19
403.078	419.19
403.302	421.19
403.526	428.19
403.75	424.19
403.974	444.19
404.198	437.19
404.422	428.19
404.645	446.19
404.869	464.19
405.093	453.19
405.317	488.19
405.541	524.19
405.765	473.19
405.988	451.19
406.212	461.19
406.436	501.19
406.66	494.19
406.883	459.19
407.107	472.19
407.331	521.19
407.555	567.19
407.778	541.19
408.002	487.19
408.226	462.19
408.449	479.19
408.673	470.19
408.896	481.19
409.12	526.19
409.344	501.19
409.567	443.19
409.791	442.19
410.014	453.19
410.238	439.19
410.461	439.19
410.685	439.19
410.908	423.19
411.132	475.19
411.355	487.19
411.578	452.19
411.802	430.19
412.025	435.19
412.249	449.19
412.472	449.19
412.695	470.19
412.919	465.19
413.142	419.19
413.365	427.19
413.589	408.19
413.812	403.19
414.035	405.19
414.258	380.19
414.482	393.19
414.705	394.19
414.928	407.19
415.151	415.19
415.374	410.19
415.597	380.19
415.821	399.19
416.044	414.19
416.267	399.19
416.49	390.19
416.713	408.19
416.936	405.19
417.159	414.19
417.382	424.19
417.605	423.19
417.828	425.19
418.051	437.19
418.274	426.19
418.497	399.19
418.72	410.19
418.943	406.19
419.166	411.19
419.389	419.19
419.611	448.19
419.834	420.19
420.057	428.19
420.28	424.19
420.503	417.19
420.726	411.19
420.948	433.19
421.171	444.19
421.394	500.19
421.617	451.19
421.839	425.19
422.062	408.19
422.285	446.19
422.507	472.19
422.73	530.19
422.953	511.19
423.175	471.19
423.398	443.19
423.621	442.19
423.843	452.19
424.066	459.19
424.288	460.19
424.511	488.19
424.733	524.19
424.956	560.19
425.178	550.19
425.401	549.19
425.623	547.19
425.846	501.19
426.068	474.19
426.291	462.19
426.513	454.19
426.735	450.19
426.958	505.19
427.18	561.19
427.402	652.19
427.625	706.19
427.847	664.19
428.069	585.19
428.292	501.19
428.514	443.19
428.736	447.19
428.958	434.19
429.181	425.19
429.403	410.19
429.625	433.19
429.847	469.19
430.069	497.19
430.292	502.19
430.514	435.19
430.736	439.19
430.958	443.19
431.18	421.19
431.402	398.19
431.624	405.19
431.846	401.19
432.068	404.19
432.29	403.19
432.512	422.19
432.734	415.19
432.956	404.19
433.178	411.19
433.4	409.19
433.622	410.19
433.844	405.19
434.066	395.19
434.287	410.19
434.509	415.19
434.731	423.19
434.953	427.19
435.175	439.19
435.397	444.19
435.618	453.19
435.84	511.19
436.062	575.19
436.284	603.19
436.505	520.19
436.727	479.19
436.949	436.19
437.17	433.19
437.392	405.19
437.614	442.19
437.835	447.19
438.057	547.19
438.278	631.19
438.5	602.19
438.721	655.19
438.943	627.19
439.165	505.19
439.386	473.19
439.608	471.19
439.829	470.19
440.05	500.19
440.272	517.19
440.493	515.19
440.715	477.19
440.936	437.19
441.158	431.19
441.379	431.19
441.6	452.19
441.822	481.19
442.043	516.19
442.264	562.19
442.486	599.19
442.707	528.19
442.928	493.19
443.149	489.19
443.371	522.19
443.592	538.19
443.813	587.19
444.034	635.19
444.255	521.19
444.476	474.19
444.698	472.19
444.919	435.19
445.14	557.19
445.361	538.19
445.582	489.19
445.803	553.19
446.024	643.19
446.245	651.19
446.466	577.19
446.687	494.19
446.908	474.19
447.129	436.19
447.35	421.19
447.571	430.19
447.792	427.19
448.013	439.19
448.234	472.19
448.455	503.19
448.675	572.19
448.896	652.19
449.117	565.19
449.338	544.19
449.559	591.19
449.779	686.19
450	547.19
450.221	485.19
450.442	454.19
450.662	433.19
450.883	449.19
451.104	465.19
451.324	427.19
451.545	422.19
451.766	395.19
451.986	382.19
452.207	386.19
452.428	371.19
452.648	388.19
452.869	395.19
453.089	386.19
453.31	403.19
453.53	401.19
453.751	395.19
453.971	386.19
454.192	415.19
454.412	389.19
454.633	391.19
454.853	393.19
455.073	389.19
455.294	411.19
455.514	468.19
455.734	454.19
455.955	374.19
456.175	370.19
456.395	362.19
456.616	362.19
456.836	343.19
457.056	373.19
457.276	357.19
457.497	359.19
457.717	363.19
457.937	377.19
458.157	381.19
458.377	365.19
458.598	403.19
458.818	439.19
459.038	524.19
459.258	535.19
459.478	455.19
459.698	409.19
459.918	389.19
460.138	403.19
460.358	397.19
460.578	383.19
460.798	406.19
461.018	410.19
461.238	412.19
461.458	388.19
461.678	386.19
461.898	406.19
462.118	397.19
462.338	427.19
462.558	418.19
462.777	405.19
462.997	411.19
463.217	437.19
463.437	470.19
463.657	429.19
463.876	427.19
464.096	423.19
464.316	424.19
464.536	442.19
464.755	426.19
464.975	445.19
465.195	498.19
465.414	591.19
465.634	501.19
465.854	441.19
466.073	433.19
466.293	411.19
466.512	385.19
466.732	383.19
466.951	387.19
467.171	393.19
467.391	408.19
467.61	430.19
467.829	418.19
468.049	408.19
468.268	398.19
468.488	389.19
468.707	397.19
468.927	365.19
469.146	358.19
469.365	404.19
469.585	387.19
469.804	399.19
470.023	403.19
470.243	398.19
470.462	409.19
470.681	421.19
470.901	442.19
471.12	386.19
471.339	395.19
471.558	401.19
471.777	388.19
471.997	392.19
472.216	410.19
472.435	433.19
472.654	406.19
472.873	412.19
473.092	390.19
473.311	397.19
473.53	401.19
473.749	433.19
473.968	441.19
474.187	545.19
474.406	534.19
474.625	467.19
474.844	406.19
475.063	397.19
475.282	379.19
475.501	383.19
475.72	400.19
475.939	418.19
476.158	411.19
476.377	434.19
476.596	421.19
476.814	433.19
477.033	411.19
477.252	422.19
477.471	416.19
477.69	437.19
477.908	430.19
478.127	435.19
478.346	425.19
478.564	435.19
478.783	437.19
479.002	446.19
479.22	453.19
479.439	470.19
479.658	495.19
479.876	487.19
480.095	488.19
480.313	527.19
480.532	502.19
480.751	466.19
480.969	506.19
481.188	568.19
481.406	607.19
481.624	533.19
481.843	521.19
482.061	484.19
482.28	481.19
482.498	473.19
482.717	484.19
482.935	476.19
483.153	481.19
483.372	459.19
483.59	462.19
483.808	456.19
484.027	479.19
484.245	466.19
484.463	457.19
484.681	460.19
484.9	468.19
485.118	490.19
485.336	466.19
485.554	471.19
485.772	479.19
485.99	465.19
486.209	475.19
486.427	485.19
486.645	500.19
486.863	492.19
487.081	519.19
487.299	511.19
487.517	510.19
487.735	504.19
487.953	494.19
488.171	488.19
488.389	497.19
488.607	498.19
488.825	509.19
489.043	499.19
489.261	515.19
489.479	485.19
489.696	509.19
489.914	492.19
490.132	524.19
490.35	531.19
490.568	519.19
490.786	523.19
491.003	550.19
491.221	547.19
491.439	554.19
491.657	586.19
491.874	569.19
492.092	550.19
492.31	577.19
492.527	583.19
492.745	588.19
492.963	579.19
493.18	585.19
493.398	593.19
493.615	579.19
493.833	605.19
494.05	605.19
494.268	580.19
494.485	589.19
494.703	588.19
494.92	612.19
495.138	612.19
495.355	631.19
495.573	593.19
495.79	603.19
496.008	602.19
496.225	620.19
496.442	614.19
496.66	613.19
496.877	596.19
497.094	613.19
497.312	584.19
497.529	637.19
497.746	611.19
497.963	614.19
498.181	635.19
498.398	634.19
498.615	652.19
498.832	637.19
499.049	650.19
499.267	659.19
499.484	665.19
499.701	682.19
499.918	682.19
500.135	731.19
500.352	780.19
500.569	753.19
500.786	789.19
501.003	776.19
501.22	761.19
501.437	729.19
501.654	738.19
501.871	694.19
502.088	719.19
502.305	675.19
502.522	667.19
502.739	650.19
502.956	631.19
503.172	617.19
503.389	621.19
503.606	599.19
503.823	612.19
504.04	599.19
504.256	603.19
504.473	620.19
504.69	592.19
504.907	606.19
505.123	559.19
505.34	594.19
505.557	567.19
505.773	574.19
505.99	587.19
506.207	569.19
506.423	590.19
506.64	567.19
506.856	558.19
507.073	555.19
507.289	565.19
507.506	551.19
507.722	561.19
507.939	593.19
508.155	561.19
508.372	533.19
508.588	547.19
508.805	566.19
509.021	558.19
509.238	567.19
509.454	550.19
509.67	558.19
509.887	553.19
510.103	556.19
510.319	548.19
510.536	665.19
510.752	1198.19
510.968	941.19
511.184	578.19
511.401	523.19
511.617	530.19
511.833	514.19
512.049	519.19
512.265	521.19
512.481	511.19
512.698	510.19
512.914	518.19
513.13	519.19
513.346	499.19
513.562	499.19
513.778	534.19
513.994	541.19
514.21	545.19
514.426	578.19
514.642	636.19
514.858	658.19
515.074	699.19
515.29	873.19
515.506	1355.19
515.721	1121.19
515.937	683.19
516.153	595.19
516.369	574.19
516.585	533.19
516.801	522.19
517.016	520.19
517.232	527.19
517.448	519.19
517.664	539.19
517.879	509.19
518.095	520.19
518.311	537.19
518.527	515.19
518.742	507.19
518.958	516.19
519.173	507.19
519.389	507.19
519.605	521.19
519.82	556.19
520.036	537.19
520.251	574.19
520.467	585.19
520.682	596.19
520.898	569.19
521.113	618.19
521.329	693.19
521.544	793.19
521.76	1045.19
521.975	1900.19
522.19	1791.19
522.406	887.19
522.621	637.19
522.836	569.19
523.052	546.19
523.267	498.19
523.482	521.19
523.698	488.19
523.913	481.19
524.128	489.19
524.343	477.19
524.559	445.19
524.774	460.19
524.989	445.19
525.204	472.19
525.419	453.19
525.634	453.19
525.849	462.19
526.064	440.19
526.28	429.19
526.495	401.19
526.71	429.19
526.925	423.19
527.14	424.19
527.355	456.19
527.57	412.19
527.785	415.19
527.999	416.19
528.214	435.19
528.429	415.19
528.644	410.19
528.859	410.19
529.074	428.19
529.289	432.19
529.503	554.19
529.718	515.19
529.933	443.19
530.148	414.19
530.363	453.19
530.577	413.19
530.792	393.19
531.007	408.19
531.221	413.19
531.436	387.19
531.651	393.19
531.865	403.19
532.08	402.19
532.295	382.19
532.509	376.19
532.724	390.19
532.938	385.19
533.153	393.19
533.367	409.19
533.582	405.19
533.796	397.19
534.011	398.19
534.225	380.19
534.44	402.19
534.654	383.19
534.868	398.19
535.083	379.19
535.297	381.19
535.511	404.19
535.726	404.19
535.94	395.19
536.154	392.19
536.369	383.19
536.583	389.19
536.797	386.19
537.011	381.19
537.225	371.19
537.44	382.19
537.654	387.19
537.868	373.19
538.082	375.19
538.296	362.19
538.51	379.19
538.724	383.19
538.938	400.19
539.153	372.19
539.367	393.19
539.581	398.19
539.795	393.19
540.009	361.19
540.222	375.19
540.436	369.19
540.65	381.19
540.864	387.19
541.078	398.19
541.292	395.19
541.506	375.19
541.72	391.19
541.934	375.19
542.147	391.19
542.361	394.19
542.575	374.19
542.789	381.19
543.002	366.19
543.216	383.19
543.43	382.19
543.644	387.19
543.857	369.19
544.071	369.19
544.285	378.19
544.498	373.19
544.712	375.19
544.925	383.19
545.139	361.19
545.352	363.19
545.566	365.19
545.779	376.19
545.993	379.19
546.206	357.19
546.42	339.19
546.633	370.19
546.847	355.19
547.06	361.19
547.274	380.19
547.487	360.19
547.7	355.19
547.914	344.19
548.127	355.19
548.34	364.19
548.554	370.19
548.767	350.19
548.98	362.19
549.193	369.19
549.407	365.19
549.62	381.19
549.833	332.19
550.046	353.19
550.259	339.19
550.473	345.19
550.686	365.19
550.899	348.19
551.112	352.19
551.325	335.19
551.538	362.19
551.751	332.19
551.964	338.19
552.177	350.19
552.39	343.19
552.603	360.19
552.816	358.19
553.029	336.19
553.242	354.19
553.455	364.19
553.667	371.19
553.88	373.19
554.093	375.19
554.306	373.19
554.519	357.19
554.732	337.19
554.944	342.19
555.157	339.19
555.37	338.19
555.583	336.19
555.795	334.19
556.008	340.19
556.221	319.19
556.433	341.19
556.646	323.19
556.859	325.19
557.071	318.19
557.284	316.19
557.496	318.19
557.709	322.19
557.921	322.19
558.134	315.19
558.346	324.19
558.559	293.19
558.771	326.19
558.984	303.19
559.196	296.19
559.409	326.19
559.621	326.19
559.833	320.19
560.046	332.19
560.258	318.19
560.47	312.19
560.683	310.19
560.895	318.19
561.107	309.19
561.32	311.19
561.532	296.19
561.744	305.19
561.956	305.19
562.168	305.19
562.381	305.19
562.593	312.19
562.805	332.19
563.017	306.19
563.229	324.19
563.441	298.19
563.653	300.19
563.865	322.19
564.077	297.19
564.289	329.19
564.501	321.19
564.713	326.19
564.925	325.19
565.137	322.19
565.349	355.19
565.561	343.19
565.773	334.19
565.985	347.19
566.197	338.19
566.408	341.19
566.62	357.19
566.832	373.19
567.044	365.19
567.255	365.19
567.467	381.19
567.679	374.19
567.891	379.19
568.102	378.19
568.314	355.19
568.526	357.19
568.737	326.19
568.949	337.19
569.161	332.19
569.372	323.19
569.584	324.19
569.795	339.19
570.007	309.19
570.218	390.19
570.43	356.19
570.641	297.19
570.853	312.19
571.064	318.19
571.276	303.19
571.487	308.19
571.698	297.19
571.91	314.19
572.121	292.19
572.333	292.19
572.544	293.19
572.755	271.19
572.966	266.19
573.178	266.19
573.389	282.19
573.6	266.19
573.811	284.19
574.023	279.19
574.234	265.19
574.445	266.19
574.656	258.19
574.867	269.19
575.078	276.19
575.289	285.19
575.501	276.19
575.712	249.19
575.923	261.19
576.134	262.19
576.345	265.19
576.556	265.19
576.767	264.19
576.978	282.19
577.188	272.19
577.399	246.19
577.61	265.19
577.821	261.19
578.032	261.19
578.243	316.19
578.454	557.19
578.665	400.19
578.875	285.19
579.086	251.19
579.297	260.19
579.508	258.19
579.718	271.19
579.929	267.19
580.14	258.19
580.35	250.19
580.561	255.19
580.772	239.19
580.982	243.19
581.193	269.19
581.403	259.19
581.614	249.19
581.825	232.19
582.035	239.19
582.246	255.19
582.456	249.19
582.667	246.19
582.877	242.19
583.087	259.19
583.298	237.19
583.508	224.19
583.719	243.19
583.929	238.19
584.139	245.19
584.35	249.19
584.56	232.19
584.77	234.19
584.981	248.19
585.191	225.19
585.401	242.19
585.611	239.19
585.821	269.19
586.032	235.19
586.242	250.19
586.452	233.19
586.662	224.19
586.872	235.19
587.082	246.19
587.292	247.19
587.502	229.19
587.713	238.19
587.923	230.19
588.133	225.19
588.343	236.19
588.553	237.19
588.762	253.19
588.972	244.19
589.182	233.19
589.392	247.19
589.602	240.19
589.812	228.19
590.022	234.19
590.232	237.19
590.441	238.19
590.651	242.19
590.861	231.19
591.071	238.19
591.281	233.19
591.49	254.19
591.7	242.19
591.91	255.19
592.119	251.19
592.329	246.19
592.539	241.19
592.748	247.19
592.958	232.19
593.167	238.19
593.377	257.19
593.587	263.19
593.796	236.19
594.006	246.19
594.215	233.19
594.424	233.19
594.634	244.19
594.843	243.19
595.053	241.19
595.262	236.19
595.472	232.19
595.681	219.19
595.89	238.19
596.1	202.19
596.309	235.19
596.518	247.19
596.727	230.19
596.937	228.19
597.146	211.19
597.355	224.19
597.564	229.19
597.774	204.19
597.983	229.19
598.192	218.19
598.401	200.19
598.61	198.19
598.819	223.19
599.028	221.19
599.237	220.19
599.446	228.19
599.655	215.19
599.864	204.19
600.073	212.19
600.282	214.19
600.491	209.19
600.7	201.19
600.909	196.19
601.118	206.19
601.327	196.19
601.536	194.19
601.745	231.19
601.953	205.19
602.162	201.19
602.371	222.19
602.58	217.19
602.789	211.19
602.997	220.19
603.206	199.19
603.415	201.19
603.623	219.19
603.832	207.19
604.041	199.19
604.249	191.19
604.458	190.19
604.666	198.19
604.875	203.19
605.084	196.19
605.292	195.19
605.501	196.19
605.709	218.19
605.918	197.19
606.126	200.19
606.334	188.19
606.543	200.19
606.751	206.19
606.96	201.19
607.168	214.19
607.376	199.19
607.585	198.19
607.793	201.19
608.001	183.19
608.21	180.19
608.418	205.19
608.626	208.19
608.834	213.19
609.043	216.19
609.251	199.19
609.459	179.19
609.667	195.19
609.875	200.19
610.083	182.19
610.291	200.19
610.499	202.19
610.707	197.19
610.916	191.19
611.124	200.19
611.332	211.19
611.54	219.19
611.748	212.19
611.955	205.19
612.163	214.19
612.371	191.19
612.579	172.19
612.787	193.19
612.995	197.19
613.203	206.19
613.411	186.19
613.618	185.19
613.826	176.19
614.034	190.19
614.242	202.19
614.449	214.19
614.657	193.19
614.865	200.19
615.072	206.19
615.28	193.19
615.488	205.19
615.695	199.19
615.903	205.19
616.111	193.19
616.318	187.19
616.526	187.19
616.733	193.19
616.941	197.19
617.148	207.19
617.356	195.19
617.563	195.19
617.771	183.19
617.978	193.19
618.185	193.19
618.393	187.19
618.6	187.19
618.807	180.19
619.015	186.19
619.222	193.19
619.429	175.19
619.637	202.19
619.844	189.19
620.051	189.19
620.258	186.19
620.466	181.19
620.673	181.19
620.88	174.19
621.087	170.19
621.294	197.19
621.501	179.19
621.708	193.19
621.915	172.19
622.122	191.19
622.329	181.19
622.536	184.19
622.743	176.19
622.95	188.19
623.157	178.19
623.364	195.19
623.571	172.19
623.778	169.19
623.985	186.19
624.192	177.19
624.399	174.19
624.606	169.19
624.812	170.19
625.019	174.19
625.226	178.19
625.433	184.19
625.639	173.19
625.846	168.19
626.053	170.19
626.259	168.19
626.466	177.19
626.673	157.19
626.879	176.19
627.086	163.19
627.293	165.19
627.499	166.19
627.706	180.19
627.912	163.19
628.119	168.19
628.325	160.19
628.532	182.19
628.738	171.19
628.945	163.19
629.151	167.19
629.357	167.19
629.564	160.19
629.77	173.19
629.976	157.19
630.183	153.19
630.389	174.19
630.595	157.19
630.802	153.19
631.008	170.19
631.214	172.19
631.42	173.19
631.627	173.19
631.833	170.19
632.039	158.19
632.245	154.19
632.451	168.19
632.657	152.19
632.863	148.19
633.069	150.19
633.275	159.19
633.481	149.19
633.688	159.19
633.893	178.19
634.099	153.19
634.305	168.19
634.511	173.19
634.717	175.19
634.923	162.19
635.129	153.19
635.335	151.19
635.541	144.19
635.747	167.19
635.952	142.19
636.158	156.19
636.364	151.19
636.57	160.19
636.775	148.19
636.981	153.19
637.187	165.19
637.392	158.19
637.598	151.19
637.804	142.19
638.009	151.19
638.215	157.19
638.421	151.19
638.626	153.19
638.832	163.19
639.037	161.19
639.243	147.19
639.448	137.19
639.654	159.19
639.859	158.19
640.065	143.19
640.27	138.19
640.475	155.19
640.681	164.19
640.886	153.19
641.091	159.19
641.297	150.19
641.502	141.19
641.707	137.19
641.913	162.19
642.118	149.19
642.323	155.19
642.528	137.19
642.733	140.19
642.939	149.19
643.144	148.19
643.349	148.19
643.554	149.19
643.759	155.19
643.964	154.19
644.169	151.19
644.374	135.19
644.579	151.19
644.784	146.19
644.989	151.19
645.194	134.19
645.399	149.19
645.604	135.19
645.809	149.19
646.014	141.19
646.219	154.19
646.423	152.19
646.628	149.19
646.833	146.19
647.038	141.19
647.243	149.19
647.447	157.19
647.652	140.19
647.857	151.19
648.062	145.19
648.266	146.19
648.471	137.19
648.676	147.19
648.88	142.19
649.085	135.19
649.289	131.19
649.494	144.19
649.698	165.19
649.903	150.19
650.107	151.19
650.312	139.19
650.516	142.19
650.721	134.19
650.925	134.19
651.13	138.19
651.334	126.19
651.539	127.19
651.743	129.19
651.947	135.19
652.152	141.19
652.356	139.19
652.56	137.19
652.764	136.19
652.969	115.19
653.173	117.19
653.377	114.19
653.581	131.19
653.785	115.19
653.99	132.19
654.194	115.19
654.398	115.19
654.602	128.19
654.806	134.19
655.01	135.19
655.214	140.19
655.418	120.19
655.622	132.19
655.826	131.19
656.03	127.19
656.234	112.19
656.438	114.19
656.642	130.19
656.846	122.19
657.049	122.19
657.253	110.19
657.457	131.19
657.661	117.19
657.865	123.19
658.068	113.19
658.272	108.19
658.476	108.19
658.68	102.19
658.883	103.19
659.087	91.19
659.291	102.19
659.494	117.19
659.698	102.19
659.901	92.19
660.105	101.19
660.309	97.19
660.512	85.19
660.716	101.19
660.919	95.19
661.123	92.19
661.326	79.19
661.53	87.19
661.733	86.19
661.936	103.19
662.14	79.19
662.343	75.19
662.546	86.19
662.75	73.19
662.953	88.19
663.156	78.19
663.36	87.19
663.563	92.19
663.766	101.19
663.969	84.19
664.173	90.19
664.376	95.19
664.579	73.19
664.782	74.19
664.985	91.19
665.188	82.19
665.391	83.19
665.594	91.19
665.797	86.19
666	85.19
666.203	83.19
666.406	82.19
666.609	80.19
666.812	89.19
667.015	77.19
667.218	75.19
667.421	83.19
667.624	77.19
667.827	78.19
668.03	82.19
668.232	78.19
668.435	86.19
668.638	81.19
668.841	74.19
669.043	97.19
669.246	97.19
669.449	86.19
669.651	73.19
669.854	79.19
670.057	82.19
670.259	87.19
670.462	83.19
670.665	89.19
670.867	86.19
671.07	80.19
671.272	90.19
671.475	92.19
671.677	77.19
671.88	72.19
672.082	75.19
672.284	81.19
672.487	79.19
672.689	93.19
672.892	86.19
