Data from 1983.PennyLincolnUp.Lamp.En5.5.200Scan.071819.P1_HRD10591_16-55-24-966.txt Node
Date: Thu Jul 18 16:55:24 EDT 2019
User: cochatt
Spectrometer: HR+D1059
Trigger mode: 1
Integration Time (sec): 1.000000E-1
Scans to average: 1
Electric dark correction enabled: true
Nonlinearity correction enabled: false
Boxcar width: 0
XAxis mode: Wavelengths
Number of Pixels in Spectrum: 2048
>>>>>Begin Spectral Data<<<<<
223.165	-6.19
223.4	-6.19
223.635	-6.19
223.869	-19.19
224.104	-26.19
224.338	-12.19
224.573	-14.19
224.808	-15.19
225.042	-1.19
225.277	-24.19
225.511	-5.19
225.746	18.81
225.98	17.81
226.215	15.81
226.449	9.81
226.683	22.81
226.918	15.81
227.152	22.81
227.387	30.81
227.621	45.81
227.856	50.81
228.09	40.81
228.324	52.81
228.559	56.81
228.793	65.81
229.027	96.81
229.262	112.81
229.496	120.81
229.73	141.81
229.964	150.81
230.199	120.81
230.433	102.81
230.667	110.81
230.901	109.81
231.136	115.81
231.37	116.81
231.604	100.81
231.838	120.81
232.072	100.81
232.306	120.81
232.541	116.81
232.775	107.81
233.009	114.81
233.243	106.81
233.477	112.81
233.711	110.81
233.945	123.81
234.179	102.81
234.413	120.81
234.647	123.81
234.881	115.81
235.115	124.81
235.349	88.81
235.583	118.81
235.817	114.81
236.051	114.81
236.285	123.81
236.519	116.81
236.753	128.81
236.987	135.81
237.221	180.81
237.455	220.81
237.689	169.81
237.922	127.81
238.156	121.81
238.39	113.81
238.624	116.81
238.858	126.81
239.091	118.81
239.325	109.81
239.559	126.81
239.793	123.81
240.027	122.81
240.26	141.81
240.494	156.81
240.728	150.81
240.961	150.81
241.195	134.81
241.429	135.81
241.662	131.81
241.896	126.81
242.13	135.81
242.363	133.81
242.597	135.81
242.83	130.81
243.064	132.81
243.298	140.81
243.531	127.81
243.765	125.81
243.998	128.81
244.232	132.81
244.465	124.81
244.699	123.81
244.932	128.81
245.166	137.81
245.399	141.81
245.633	145.81
245.866	138.81
246.099	121.81
246.333	110.81
246.566	151.81
246.8	142.81
247.033	158.81
247.266	154.81
247.5	144.81
247.733	164.81
247.966	159.81
248.2	168.81
248.433	163.81
248.666	183.81
248.899	188.81
249.133	166.81
249.366	190.81
249.599	188.81
249.832	182.81
250.066	188.81
250.299	183.81
250.532	200.81
250.765	208.81
250.998	226.81
251.231	220.81
251.465	192.81
251.698	190.81
251.931	191.81
252.164	184.81
252.397	191.81
252.63	196.81
252.863	189.81
253.096	206.81
253.329	224.81
253.562	202.81
253.795	197.81
254.028	201.81
254.261	181.81
254.494	214.81
254.727	236.81
254.96	262.81
255.193	267.81
255.426	225.81
255.659	204.81
255.892	219.81
256.124	243.81
256.357	221.81
256.59	242.81
256.823	219.81
257.056	194.81
257.289	204.81
257.521	211.81
257.754	194.81
257.987	178.81
258.22	173.81
258.452	184.81
258.685	186.81
258.918	199.81
259.151	182.81
259.383	190.81
259.616	188.81
259.849	203.81
260.081	215.81
260.314	246.81
260.547	244.81
260.779	237.81
261.012	212.81
261.244	223.81
261.477	213.81
261.71	209.81
261.942	215.81
262.175	235.81
262.407	224.81
262.64	200.81
262.872	199.81
263.105	207.81
263.337	179.81
263.57	196.81
263.802	179.81
264.035	186.81
264.267	202.81
264.499	200.81
264.732	204.81
264.964	188.81
265.197	187.81
265.429	197.81
265.661	198.81
265.894	205.81
266.126	206.81
266.358	217.81
266.591	222.81
266.823	194.81
267.055	202.81
267.287	221.81
267.52	211.81
267.752	203.81
267.984	226.81
268.216	198.81
268.448	205.81
268.681	229.81
268.913	223.81
269.145	242.81
269.377	255.81
269.609	260.81
269.841	258.81
270.073	244.81
270.306	271.81
270.538	290.81
270.77	274.81
271.002	272.81
271.234	267.81
271.466	272.81
271.698	288.81
271.93	296.81
272.162	299.81
272.394	278.81
272.626	313.81
272.858	264.81
273.09	269.81
273.322	266.81
273.553	264.81
273.785	242.81
274.017	247.81
274.249	237.81
274.481	245.81
274.713	242.81
274.945	248.81
275.176	224.81
275.408	250.81
275.64	234.81
275.872	238.81
276.104	256.81
276.335	248.81
276.567	256.81
276.799	286.81
277.031	275.81
277.262	290.81
277.494	300.81
277.726	267.81
277.957	275.81
278.189	248.81
278.421	242.81
278.652	263.81
278.884	250.81
279.115	238.81
279.347	244.81
279.579	254.81
279.81	242.81
280.042	252.81
280.273	238.81
280.505	256.81
280.736	242.81
280.968	255.81
281.199	250.81
281.431	246.81
281.662	265.81
281.894	259.81
282.125	260.81
282.356	271.81
282.588	303.81
282.819	279.81
283.051	261.81
283.282	246.81
283.513	250.81
283.745	246.81
283.976	253.81
284.207	249.81
284.439	253.81
284.67	271.81
284.901	264.81
285.132	248.81
285.364	251.81
285.595	242.81
285.826	252.81
286.057	272.81
286.288	244.81
286.52	250.81
286.751	276.81
286.982	255.81
287.213	260.81
287.444	260.81
287.675	270.81
287.906	282.81
288.138	280.81
288.369	283.81
288.6	277.81
288.831	274.81
289.062	279.81
289.293	252.81
289.524	285.81
289.755	268.81
289.986	278.81
290.217	262.81
290.448	256.81
290.679	250.81
290.91	275.81
291.141	272.81
291.371	256.81
291.602	248.81
291.833	260.81
292.064	270.81
292.295	255.81
292.526	247.81
292.757	260.81
292.987	244.81
293.218	259.81
293.449	266.81
293.68	266.81
293.91	254.81
294.141	264.81
294.372	266.81
294.603	275.81
294.833	271.81
295.064	267.81
295.295	291.81
295.525	236.81
295.756	288.81
295.987	270.81
296.217	294.81
296.448	303.81
296.679	294.81
296.909	262.81
297.14	248.81
297.37	268.81
297.601	259.81
297.831	248.81
298.062	272.81
298.292	276.81
298.523	284.81
298.753	262.81
298.984	268.81
299.214	285.81
299.445	282.81
299.675	283.81
299.905	271.81
300.136	285.81
300.366	269.81
300.597	287.81
300.827	282.81
301.057	282.81
301.288	298.81
301.518	295.81
301.748	296.81
301.979	283.81
302.209	299.81
302.439	290.81
302.669	290.81
302.9	294.81
303.13	301.81
303.36	303.81
303.59	294.81
303.82	296.81
304.051	319.81
304.281	322.81
304.511	306.81
304.741	272.81
304.971	294.81
305.201	303.81
305.431	293.81
305.661	284.81
305.891	308.81
306.121	300.81
306.352	316.81
306.582	301.81
306.812	297.81
307.042	324.81
307.272	314.81
307.502	313.81
307.731	314.81
307.961	318.81
308.191	303.81
308.421	302.81
308.651	328.81
308.881	312.81
309.111	332.81
309.341	323.81
309.571	317.81
309.8	334.81
310.03	318.81
310.26	355.81
310.49	355.81
310.72	363.81
310.949	373.81
311.179	364.81
311.409	329.81
311.639	342.81
311.868	358.81
312.098	357.81
312.328	373.81
312.557	367.81
312.787	386.81
313.017	370.81
313.246	346.81
313.476	334.81
313.706	340.81
313.935	328.81
314.165	343.81
314.394	389.81
314.624	380.81
314.853	358.81
315.083	359.81
315.312	346.81
315.542	352.81
315.771	361.81
316.001	333.81
316.23	338.81
316.46	344.81
316.689	366.81
316.919	328.81
317.148	348.81
317.377	354.81
317.607	359.81
317.836	354.81
318.065	324.81
318.295	348.81
318.524	343.81
318.753	343.81
318.983	335.81
319.212	329.81
319.441	345.81
319.67	360.81
319.9	358.81
320.129	346.81
320.358	362.81
320.587	333.81
320.816	383.81
321.046	376.81
321.275	383.81
321.504	372.81
321.733	380.81
321.962	373.81
322.191	378.81
322.42	392.81
322.649	398.81
322.878	412.81
323.108	427.81
323.337	460.81
323.566	477.81
323.795	506.81
324.024	554.81
324.253	702.81
324.482	985.81
324.71	1474.81
324.939	1958.81
325.168	1655.81
325.397	878.81
325.626	608.81
325.855	533.81
326.084	466.81
326.313	493.81
326.542	479.81
326.77	538.81
326.999	645.81
327.228	872.81
327.457	1286.81
327.686	1460.81
327.914	981.81
328.143	706.81
328.372	622.81
328.6	576.81
328.829	559.81
329.058	582.81
329.287	528.81
329.515	536.81
329.744	497.81
329.972	510.81
330.201	555.81
330.43	619.81
330.658	610.81
330.887	589.81
331.115	591.81
331.344	492.81
331.572	475.81
331.801	467.81
332.03	470.81
332.258	445.81
332.486	426.81
332.715	424.81
332.943	434.81
333.172	446.81
333.4	435.81
333.629	447.81
333.857	456.81
334.085	471.81
334.314	534.81
334.542	608.81
334.771	605.81
334.999	512.81
335.227	446.81
335.455	417.81
335.684	422.81
335.912	404.81
336.14	399.81
336.369	424.81
336.597	418.81
336.825	426.81
337.053	407.81
337.281	390.81
337.51	393.81
337.738	396.81
337.966	421.81
338.194	400.81
338.422	396.81
338.65	405.81
338.878	381.81
339.106	386.81
339.334	400.81
339.562	361.81
339.79	394.81
340.018	390.81
340.246	400.81
340.474	399.81
340.702	414.81
340.93	375.81
341.158	379.81
341.386	390.81
341.614	373.81
341.842	371.81
342.07	390.81
342.298	373.81
342.526	374.81
342.754	367.81
342.981	357.81
343.209	368.81
343.437	371.81
343.665	384.81
343.893	385.81
344.12	380.81
344.348	389.81
344.576	397.81
344.804	402.81
345.031	414.81
345.259	423.81
345.487	398.81
345.714	370.81
345.942	361.81
346.17	368.81
346.397	380.81
346.625	384.81
346.853	397.81
347.08	365.81
347.308	379.81
347.535	388.81
347.763	396.81
347.99	386.81
348.218	388.81
348.445	414.81
348.673	389.81
348.9	378.81
349.128	374.81
349.355	350.81
349.583	359.81
349.81	384.81
350.037	371.81
350.265	360.81
350.492	363.81
350.72	373.81
350.947	373.81
351.174	394.81
351.402	384.81
351.629	388.81
351.856	375.81
352.083	387.81
352.311	378.81
352.538	396.81
352.765	392.81
352.992	395.81
353.22	390.81
353.447	382.81
353.674	363.81
353.901	359.81
354.128	359.81
354.355	360.81
354.583	365.81
354.81	378.81
355.037	360.81
355.264	338.81
355.491	338.81
355.718	347.81
355.945	362.81
356.172	326.81
356.399	348.81
356.626	348.81
356.853	346.81
357.08	347.81
357.307	334.81
357.534	310.81
357.761	336.81
357.988	353.81
358.215	364.81
358.441	348.81
358.668	341.81
358.895	364.81
359.122	352.81
359.349	371.81
359.576	370.81
359.802	416.81
360.029	441.81
360.256	449.81
360.483	431.81
360.709	365.81
360.936	387.81
361.163	374.81
361.39	382.81
361.616	365.81
361.843	366.81
362.07	359.81
362.296	379.81
362.523	374.81
362.749	374.81
362.976	356.81
363.203	358.81
363.429	347.81
363.656	342.81
363.882	359.81
364.109	346.81
364.335	350.81
364.562	357.81
364.788	346.81
365.015	373.81
365.241	374.81
365.468	366.81
365.694	365.81
365.92	364.81
366.147	337.81
366.373	362.81
366.599	346.81
366.826	345.81
367.052	356.81
367.278	359.81
367.505	367.81
367.731	349.81
367.957	345.81
368.184	354.81
368.41	360.81
368.636	365.81
368.862	377.81
369.089	356.81
369.315	366.81
369.541	349.81
369.767	342.81
369.993	354.81
370.219	352.81
370.445	363.81
370.672	354.81
370.898	332.81
371.124	349.81
371.35	324.81
371.576	350.81
371.802	341.81
372.028	330.81
372.254	346.81
372.48	342.81
372.706	352.81
372.932	353.81
373.158	353.81
373.384	369.81
373.61	342.81
373.835	352.81
374.061	354.81
374.287	361.81
374.513	342.81
374.739	351.81
374.965	345.81
375.191	363.81
375.416	345.81
375.642	359.81
375.868	352.81
376.094	342.81
376.319	357.81
376.545	357.81
376.771	346.81
376.997	355.81
377.222	355.81
377.448	330.81
377.674	365.81
377.899	325.81
378.125	327.81
378.35	332.81
378.576	333.81
378.802	334.81
379.027	336.81
379.253	339.81
379.478	344.81
379.704	346.81
379.929	347.81
380.155	355.81
380.38	354.81
380.606	358.81
380.831	338.81
381.057	359.81
381.282	338.81
381.507	334.81
381.733	344.81
381.958	352.81
382.184	341.81
382.409	353.81
382.634	347.81
382.86	348.81
383.085	349.81
383.31	357.81
383.535	356.81
383.761	360.81
383.986	357.81
384.211	354.81
384.436	358.81
384.662	366.81
384.887	380.81
385.112	352.81
385.337	349.81
385.562	354.81
385.787	356.81
386.013	387.81
386.238	367.81
386.463	358.81
386.688	374.81
386.913	384.81
387.138	358.81
387.363	354.81
387.588	359.81
387.813	358.81
388.038	357.81
388.263	361.81
388.488	346.81
388.713	358.81
388.938	364.81
389.163	360.81
389.387	355.81
389.612	368.81
389.837	375.81
390.062	392.81
390.287	367.81
390.512	358.81
390.736	371.81
390.961	348.81
391.186	365.81
391.411	370.81
391.636	367.81
391.86	398.81
392.085	384.81
392.31	392.81
392.534	371.81
392.759	371.81
392.984	383.81
393.208	364.81
393.433	378.81
393.658	374.81
393.882	379.81
394.107	363.81
394.331	364.81
394.556	368.81
394.78	379.81
395.005	354.81
395.229	379.81
395.454	382.81
395.678	379.81
395.903	398.81
396.127	393.81
396.352	411.81
396.576	406.81
396.801	378.81
397.025	386.81
397.249	378.81
397.474	387.81
397.698	396.81
397.922	405.81
398.147	406.81
398.371	428.81
398.595	422.81
398.82	404.81
399.044	415.81
399.268	405.81
399.492	461.81
399.717	465.81
399.941	491.81
400.165	490.81
400.389	502.81
400.613	460.81
400.837	411.81
401.062	425.81
401.286	441.81
401.51	388.81
401.734	403.81
401.958	434.81
402.182	434.81
402.406	436.81
402.63	441.81
402.854	417.81
403.078	428.81
403.302	422.81
403.526	452.81
403.75	439.81
403.974	434.81
404.198	436.81
404.422	445.81
404.645	452.81
404.869	450.81
405.093	470.81
405.317	517.81
405.541	557.81
405.765	498.81
405.988	482.81
406.212	491.81
406.436	516.81
406.66	492.81
406.883	458.81
407.107	498.81
407.331	525.81
407.555	552.81
407.778	536.81
408.002	491.81
408.226	480.81
408.449	493.81
408.673	476.81
408.896	503.81
409.12	516.81
409.344	489.81
409.567	454.81
409.791	444.81
410.014	437.81
410.238	433.81
410.461	432.81
410.685	452.81
410.908	447.81
411.132	461.81
411.355	491.81
411.578	472.81
411.802	446.81
412.025	431.81
412.249	464.81
412.472	500.81
412.695	518.81
412.919	500.81
413.142	431.81
413.365	438.81
413.589	436.81
413.812	422.81
414.035	429.81
414.258	406.81
414.482	421.81
414.705	412.81
414.928	422.81
415.151	415.81
415.374	406.81
415.597	393.81
415.821	395.81
416.044	428.81
416.267	402.81
416.49	414.81
416.713	395.81
416.936	399.81
417.159	410.81
417.382	418.81
417.605	413.81
417.828	441.81
418.051	429.81
418.274	424.81
418.497	400.81
418.72	412.81
418.943	426.81
419.166	436.81
419.389	463.81
419.611	442.81
419.834	441.81
420.057	454.81
420.28	448.81
420.503	449.81
420.726	446.81
420.948	454.81
421.171	488.81
421.394	499.81
421.617	440.81
421.839	419.81
422.062	431.81
422.285	439.81
422.507	470.81
422.73	518.81
422.953	515.81
423.175	445.81
423.398	451.81
423.621	441.81
423.843	449.81
424.066	440.81
424.288	470.81
424.511	464.81
424.733	505.81
424.956	569.81
425.178	564.81
425.401	548.81
425.623	542.81
425.846	460.81
426.068	450.81
426.291	470.81
426.513	466.81
426.735	476.81
426.958	472.81
427.18	545.81
427.402	662.81
427.625	717.81
427.847	644.81
428.069	586.81
428.292	518.81
428.514	459.81
428.736	436.81
428.958	440.81
429.181	418.81
429.403	410.81
429.625	450.81
429.847	435.81
430.069	491.81
430.292	504.81
430.514	440.81
430.736	434.81
430.958	422.81
431.18	404.81
431.402	405.81
431.624	404.81
431.846	393.81
432.068	399.81
432.29	407.81
432.512	416.81
432.734	427.81
432.956	404.81
433.178	410.81
433.4	415.81
433.622	409.81
433.844	397.81
434.066	400.81
434.287	400.81
434.509	411.81
434.731	434.81
434.953	407.81
435.175	452.81
435.397	466.81
435.618	462.81
435.84	500.81
436.062	558.81
436.284	595.81
436.505	495.81
436.727	466.81
436.949	450.81
437.17	446.81
437.392	430.81
437.614	442.81
437.835	468.81
438.057	536.81
438.278	621.81
438.5	578.81
438.721	650.81
438.943	630.81
439.165	506.81
439.386	478.81
439.608	459.81
439.829	474.81
440.05	492.81
440.272	527.81
440.493	507.81
440.715	449.81
440.936	438.81
441.158	439.81
441.379	447.81
441.6	446.81
441.822	467.81
442.043	496.81
442.264	543.81
442.486	560.81
442.707	495.81
442.928	473.81
443.149	482.81
443.371	476.81
443.592	510.81
443.813	591.81
444.034	619.81
444.255	536.81
444.476	468.81
444.698	467.81
444.919	474.81
445.14	591.81
445.361	536.81
445.582	522.81
445.803	556.81
446.024	637.81
446.245	622.81
446.466	592.81
446.687	489.81
446.908	462.81
447.129	434.81
447.35	434.81
447.571	428.81
447.792	416.81
448.013	416.81
448.234	457.81
448.455	478.81
448.675	564.81
448.896	640.81
449.117	553.81
449.338	524.81
449.559	620.81
449.779	676.81
450	549.81
450.221	470.81
450.442	452.81
450.662	427.81
450.883	442.81
451.104	428.81
451.324	452.81
451.545	430.81
451.766	399.81
451.986	411.81
452.207	390.81
452.428	397.81
452.648	386.81
452.869	391.81
453.089	412.81
453.31	408.81
453.53	386.81
453.751	388.81
453.971	387.81
454.192	412.81
454.412	406.81
454.633	396.81
454.853	384.81
455.073	390.81
455.294	401.81
455.514	470.81
455.734	458.81
455.955	403.81
456.175	372.81
456.395	374.81
456.616	371.81
456.836	370.81
457.056	357.81
457.276	360.81
457.497	360.81
457.717	375.81
457.937	374.81
458.157	361.81
458.377	356.81
458.598	404.81
458.818	444.81
459.038	531.81
459.258	540.81
459.478	459.81
459.698	412.81
459.918	440.81
460.138	401.81
460.358	393.81
460.578	420.81
460.798	409.81
461.018	425.81
461.238	421.81
461.458	406.81
461.678	395.81
461.898	394.81
462.118	386.81
462.338	413.81
462.558	416.81
462.777	411.81
462.997	436.81
463.217	425.81
463.437	416.81
463.657	422.81
463.876	418.81
464.096	436.81
464.316	444.81
464.536	454.81
464.755	434.81
464.975	455.81
465.195	494.81
465.414	548.81
465.634	469.81
465.854	460.81
466.073	423.81
466.293	399.81
466.512	401.81
466.732	389.81
466.951	399.81
467.171	400.81
467.391	383.81
467.61	423.81
467.829	418.81
468.049	421.81
468.268	426.81
468.488	398.81
468.707	390.81
468.927	376.81
469.146	379.81
469.365	388.81
469.585	407.81
469.804	404.81
470.023	420.81
470.243	401.81
470.462	409.81
470.681	431.81
470.901	406.81
471.12	419.81
471.339	424.81
471.558	397.81
471.777	410.81
471.997	408.81
472.216	440.81
472.435	497.81
472.654	494.81
472.873	424.81
473.092	408.81
473.311	396.81
473.53	395.81
473.749	406.81
473.968	452.81
474.187	552.81
474.406	531.81
474.625	441.81
474.844	414.81
475.063	424.81
475.282	404.81
475.501	411.81
475.72	413.81
475.939	410.81
476.158	409.81
476.377	417.81
476.596	417.81
476.814	431.81
477.033	439.81
477.252	449.81
477.471	427.81
477.69	441.81
477.908	444.81
478.127	428.81
478.346	436.81
478.564	458.81
478.783	454.81
479.002	435.81
479.22	470.81
479.439	479.81
479.658	479.81
479.876	495.81
480.095	485.81
480.313	512.81
480.532	498.81
480.751	510.81
480.969	504.81
481.188	651.81
481.406	720.81
481.624	576.81
481.843	525.81
482.061	510.81
482.28	496.81
482.498	498.81
482.717	462.81
482.935	450.81
483.153	470.81
483.372	468.81
483.59	460.81
483.808	482.81
484.027	451.81
484.245	447.81
484.463	486.81
484.681	483.81
484.9	487.81
485.118	476.81
485.336	469.81
485.554	494.81
485.772	512.81
485.99	493.81
486.209	482.81
486.427	502.81
486.645	509.81
486.863	507.81
487.081	513.81
487.299	510.81
487.517	529.81
487.735	507.81
487.953	515.81
488.171	500.81
488.389	510.81
488.607	519.81
488.825	512.81
489.043	489.81
489.261	512.81
489.479	512.81
489.696	520.81
489.914	511.81
490.132	540.81
490.35	539.81
490.568	556.81
490.786	554.81
491.003	557.81
491.221	570.81
491.439	578.81
491.657	582.81
491.874	580.81
492.092	567.81
492.31	606.81
492.527	628.81
492.745	601.81
492.963	628.81
493.18	607.81
493.398	609.81
493.615	628.81
493.833	614.81
494.05	594.81
494.268	606.81
494.485	605.81
494.703	598.81
494.92	631.81
495.138	612.81
495.355	616.81
495.573	614.81
495.79	614.81
496.008	614.81
496.225	600.81
496.442	613.81
496.66	619.81
496.877	606.81
497.094	613.81
497.312	613.81
497.529	622.81
497.746	638.81
497.963	633.81
498.181	634.81
498.398	640.81
498.615	662.81
498.832	653.81
499.049	703.81
499.267	672.81
499.484	669.81
499.701	693.81
499.918	719.81
500.135	743.81
500.352	758.81
500.569	800.81
500.786	804.81
501.003	790.81
501.22	762.81
501.437	734.81
501.654	722.81
501.871	735.81
502.088	716.81
502.305	690.81
502.522	653.81
502.739	644.81
502.956	648.81
503.172	627.81
503.389	607.81
503.606	619.81
503.823	615.81
504.04	606.81
504.256	616.81
504.473	580.81
504.69	580.81
504.907	581.81
505.123	585.81
505.34	561.81
505.557	558.81
505.773	577.81
505.99	566.81
506.207	571.81
506.423	572.81
506.64	562.81
506.856	544.81
507.073	566.81
507.289	552.81
507.506	540.81
507.722	562.81
507.939	593.81
508.155	571.81
508.372	544.81
508.588	546.81
508.805	541.81
509.021	558.81
509.238	543.81
509.454	542.81
509.67	554.81
509.887	533.81
510.103	548.81
510.319	570.81
510.536	647.81
510.752	1129.81
510.968	902.81
511.184	596.81
511.401	530.81
511.617	534.81
511.833	522.81
512.049	576.81
512.265	543.81
512.481	507.81
512.698	529.81
512.914	533.81
513.13	520.81
513.346	532.81
513.562	530.81
513.778	519.81
513.994	525.81
514.21	525.81
514.426	566.81
514.642	599.81
514.858	633.81
515.074	660.81
515.29	812.81
515.506	1277.81
515.721	1014.81
515.937	670.81
516.153	590.81
516.369	544.81
516.585	546.81
516.801	534.81
517.016	530.81
517.232	514.81
517.448	534.81
517.664	501.81
517.879	523.81
518.095	510.81
518.311	517.81
518.527	513.81
518.742	525.81
518.958	532.81
519.173	514.81
519.389	519.81
519.605	519.81
519.82	521.81
520.036	531.81
520.251	559.81
520.467	572.81
520.682	574.81
520.898	584.81
521.113	607.81
521.329	648.81
521.544	780.81
521.76	992.81
521.975	1709.81
522.19	1638.81
522.406	861.81
522.621	638.81
522.836	547.81
523.052	510.81
523.267	524.81
523.482	477.81
523.698	492.81
523.913	479.81
524.128	473.81
524.343	453.81
524.559	471.81
524.774	451.81
524.989	461.81
525.204	459.81
525.419	453.81
525.634	459.81
525.849	458.81
526.064	422.81
526.28	429.81
526.495	422.81
526.71	432.81
526.925	409.81
527.14	431.81
527.355	437.81
527.57	414.81
527.785	424.81
527.999	425.81
528.214	416.81
528.429	430.81
528.644	414.81
528.859	408.81
529.074	397.81
529.289	430.81
529.503	513.81
529.718	506.81
529.933	450.81
530.148	422.81
530.363	432.81
530.577	402.81
530.792	423.81
531.007	418.81
531.221	406.81
531.436	412.81
531.651	420.81
531.865	421.81
532.08	416.81
532.295	411.81
532.509	382.81
532.724	396.81
532.938	400.81
533.153	406.81
533.367	392.81
533.582	387.81
533.796	366.81
534.011	411.81
534.225	383.81
534.44	403.81
534.654	398.81
534.868	391.81
535.083	374.81
535.297	384.81
535.511	416.81
535.726	428.81
535.94	412.81
536.154	402.81
536.369	399.81
536.583	408.81
536.797	383.81
537.011	384.81
537.225	376.81
537.44	383.81
537.654	392.81
537.868	384.81
538.082	383.81
538.296	412.81
538.51	381.81
538.724	386.81
538.938	378.81
539.153	386.81
539.367	400.81
539.581	400.81
539.795	389.81
540.009	370.81
540.222	362.81
540.436	366.81
540.65	395.81
540.864	390.81
541.078	382.81
541.292	361.81
541.506	394.81
541.72	375.81
541.934	381.81
542.147	397.81
542.361	380.81
542.575	391.81
542.789	351.81
543.002	367.81
543.216	382.81
543.43	375.81
543.644	366.81
543.857	374.81
544.071	384.81
544.285	388.81
544.498	388.81
544.712	356.81
544.925	360.81
545.139	353.81
545.352	359.81
545.566	350.81
545.779	346.81
545.993	353.81
546.206	373.81
546.42	386.81
546.633	372.81
546.847	371.81
547.06	334.81
547.274	367.81
547.487	376.81
547.7	362.81
547.914	363.81
548.127	347.81
548.34	381.81
548.554	367.81
548.767	372.81
548.98	367.81
549.193	349.81
549.407	354.81
549.62	346.81
549.833	355.81
550.046	354.81
550.259	358.81
550.473	352.81
550.686	347.81
550.899	355.81
551.112	365.81
551.325	348.81
551.538	360.81
551.751	332.81
551.964	352.81
552.177	359.81
552.39	359.81
552.603	350.81
552.816	363.81
553.029	348.81
553.242	344.81
553.455	358.81
553.667	379.81
553.88	384.81
554.093	359.81
554.306	373.81
554.519	346.81
554.732	370.81
554.944	358.81
555.157	340.81
555.37	334.81
555.583	327.81
555.795	354.81
556.008	352.81
556.221	326.81
556.433	321.81
556.646	345.81
556.859	341.81
557.071	318.81
557.284	324.81
557.496	322.81
557.709	330.81
557.921	322.81
558.134	322.81
558.346	313.81
558.559	325.81
558.771	328.81
558.984	329.81
559.196	318.81
559.409	319.81
559.621	315.81
559.833	325.81
560.046	304.81
560.258	326.81
560.47	319.81
560.683	320.81
560.895	319.81
561.107	308.81
561.32	294.81
561.532	318.81
561.744	309.81
561.956	327.81
562.168	319.81
562.381	317.81
562.593	304.81
562.805	302.81
563.017	322.81
563.229	320.81
563.441	306.81
563.653	317.81
563.865	326.81
564.077	318.81
564.289	311.81
564.501	323.81
564.713	304.81
564.925	338.81
565.137	341.81
565.349	336.81
565.561	326.81
565.773	356.81
565.985	333.81
566.197	331.81
566.408	338.81
566.62	354.81
566.832	378.81
567.044	351.81
567.255	369.81
567.467	381.81
567.679	372.81
567.891	376.81
568.102	372.81
568.314	382.81
568.526	358.81
568.737	360.81
568.949	352.81
569.161	322.81
569.372	345.81
569.584	323.81
569.795	322.81
570.007	319.81
570.218	351.81
570.43	351.81
570.641	312.81
570.853	307.81
571.064	306.81
571.276	310.81
571.487	297.81
571.698	320.81
571.91	308.81
572.121	295.81
572.333	285.81
572.544	293.81
572.755	289.81
572.966	288.81
573.178	290.81
573.389	284.81
573.6	274.81
573.811	277.81
574.023	277.81
574.234	273.81
574.445	265.81
574.656	278.81
574.867	279.81
575.078	277.81
575.289	271.81
575.501	271.81
575.712	269.81
575.923	270.81
576.134	264.81
576.345	272.81
576.556	268.81
576.767	279.81
576.978	264.81
577.188	262.81
577.399	267.81
577.61	262.81
577.821	271.81
578.032	264.81
578.243	312.81
578.454	533.81
578.665	380.81
578.875	280.81
579.086	251.81
579.297	266.81
579.508	248.81
579.718	258.81
579.929	260.81
580.14	245.81
580.35	260.81
580.561	245.81
580.772	260.81
580.982	239.81
581.193	258.81
581.403	258.81
581.614	249.81
581.825	234.81
582.035	239.81
582.246	250.81
582.456	239.81
582.667	222.81
582.877	253.81
583.087	239.81
583.298	254.81
583.508	250.81
583.719	257.81
583.929	253.81
584.139	260.81
584.35	260.81
584.56	228.81
584.77	229.81
584.981	262.81
585.191	250.81
585.401	261.81
585.611	244.81
585.821	246.81
586.032	242.81
586.242	246.81
586.452	247.81
586.662	240.81
586.872	245.81
587.082	234.81
587.292	235.81
587.502	238.81
587.713	235.81
587.923	246.81
588.133	234.81
588.343	228.81
588.553	228.81
588.762	235.81
588.972	250.81
589.182	242.81
589.392	238.81
589.602	248.81
589.812	232.81
590.022	232.81
590.232	230.81
590.441	246.81
590.651	227.81
590.861	246.81
591.071	229.81
591.281	244.81
591.49	244.81
591.7	243.81
591.91	234.81
592.119	216.81
592.329	226.81
592.539	233.81
592.748	253.81
592.958	229.81
593.167	229.81
593.377	224.81
593.587	242.81
593.796	262.81
594.006	250.81
594.215	229.81
594.424	233.81
594.634	248.81
594.843	225.81
595.053	234.81
595.262	249.81
595.472	244.81
595.681	240.81
595.89	240.81
596.1	220.81
596.309	223.81
596.518	228.81
596.727	236.81
596.937	219.81
597.146	214.81
597.355	228.81
597.564	227.81
597.774	223.81
597.983	218.81
598.192	211.81
598.401	225.81
598.61	213.81
598.819	210.81
599.028	218.81
599.237	209.81
599.446	210.81
599.655	218.81
599.864	221.81
600.073	206.81
600.282	222.81
600.491	202.81
600.7	222.81
600.909	211.81
601.118	203.81
601.327	208.81
601.536	204.81
601.745	217.81
601.953	226.81
602.162	218.81
602.371	208.81
602.58	213.81
602.789	207.81
602.997	204.81
603.206	217.81
603.415	221.81
603.623	202.81
603.832	219.81
604.041	223.81
604.249	218.81
604.458	211.81
604.666	203.81
604.875	208.81
605.084	205.81
605.292	202.81
605.501	214.81
605.709	203.81
605.918	190.81
606.126	203.81
606.334	204.81
606.543	196.81
606.751	207.81
606.96	200.81
607.168	209.81
607.376	194.81
607.585	201.81
607.793	199.81
608.001	202.81
608.21	208.81
608.418	198.81
608.626	199.81
608.834	201.81
609.043	187.81
609.251	186.81
609.459	199.81
609.667	202.81
609.875	215.81
610.083	195.81
610.291	194.81
610.499	195.81
610.707	206.81
610.916	210.81
611.124	202.81
611.332	217.81
611.54	213.81
611.748	208.81
611.955	210.81
612.163	207.81
612.371	200.81
612.579	195.81
612.787	194.81
612.995	205.81
613.203	207.81
613.411	192.81
613.618	195.81
613.826	189.81
614.034	209.81
614.242	189.81
614.449	204.81
614.657	198.81
614.865	202.81
615.072	189.81
615.28	173.81
615.488	199.81
615.695	202.81
615.903	200.81
616.111	202.81
616.318	211.81
616.526	202.81
616.733	205.81
616.941	187.81
617.148	197.81
617.356	188.81
617.563	184.81
617.771	186.81
617.978	202.81
618.185	198.81
618.393	194.81
618.6	191.81
618.807	195.81
619.015	187.81
619.222	176.81
619.429	198.81
619.637	179.81
619.844	187.81
620.051	191.81
620.258	178.81
620.466	167.81
620.673	178.81
620.88	170.81
621.087	169.81
621.294	189.81
621.501	199.81
621.708	184.81
621.915	197.81
622.122	182.81
622.329	182.81
622.536	183.81
622.743	185.81
622.95	192.81
623.157	190.81
623.364	179.81
623.571	203.81
623.778	192.81
623.985	176.81
624.192	183.81
624.399	165.81
624.606	187.81
624.812	174.81
625.019	180.81
625.226	171.81
625.433	156.81
625.639	174.81
625.846	183.81
626.053	164.81
626.259	178.81
626.466	189.81
626.673	174.81
626.879	173.81
627.086	165.81
627.293	184.81
627.499	170.81
627.706	171.81
627.912	178.81
628.119	182.81
628.325	172.81
628.532	172.81
628.738	158.81
628.945	186.81
629.151	152.81
629.357	167.81
629.564	160.81
629.77	163.81
629.976	166.81
630.183	175.81
630.389	170.81
630.595	167.81
630.802	176.81
631.008	159.81
631.214	159.81
631.42	169.81
631.627	165.81
631.833	147.81
632.039	168.81
632.245	168.81
632.451	157.81
632.657	148.81
632.863	146.81
633.069	169.81
633.275	163.81
633.481	157.81
633.688	186.81
633.893	166.81
634.099	170.81
634.305	147.81
634.511	159.81
634.717	169.81
634.923	141.81
635.129	156.81
635.335	146.81
635.541	162.81
635.747	149.81
635.952	159.81
636.158	159.81
636.364	151.81
636.57	171.81
636.775	173.81
636.981	145.81
637.187	151.81
637.392	153.81
637.598	167.81
637.804	163.81
638.009	162.81
638.215	167.81
638.421	136.81
638.626	152.81
638.832	142.81
639.037	158.81
639.243	156.81
639.448	147.81
639.654	164.81
639.859	143.81
640.065	154.81
640.27	160.81
640.475	136.81
640.681	148.81
640.886	142.81
641.091	132.81
641.297	144.81
641.502	169.81
641.707	162.81
641.913	158.81
642.118	144.81
642.323	154.81
642.528	154.81
642.733	150.81
642.939	149.81
643.144	149.81
643.349	151.81
643.554	152.81
643.759	148.81
643.964	149.81
644.169	142.81
644.374	145.81
644.579	144.81
644.784	151.81
644.989	140.81
645.194	140.81
645.399	146.81
645.604	152.81
645.809	149.81
646.014	143.81
646.219	145.81
646.423	136.81
646.628	143.81
646.833	134.81
647.038	165.81
647.243	135.81
647.447	144.81
647.652	155.81
647.857	154.81
648.062	141.81
648.266	145.81
648.471	153.81
648.676	157.81
648.88	156.81
649.085	154.81
649.289	153.81
649.494	142.81
649.698	172.81
649.903	169.81
650.107	134.81
650.312	144.81
650.516	129.81
650.721	146.81
650.925	134.81
651.13	126.81
651.334	136.81
651.539	138.81
651.743	121.81
651.947	125.81
652.152	150.81
652.356	130.81
652.56	117.81
652.764	128.81
652.969	137.81
653.173	130.81
653.377	132.81
653.581	128.81
653.785	123.81
653.99	125.81
654.194	119.81
654.398	128.81
654.602	116.81
654.806	135.81
655.01	133.81
655.214	128.81
655.418	134.81
655.622	125.81
655.826	111.81
656.03	140.81
656.234	131.81
656.438	127.81
656.642	118.81
656.846	130.81
657.049	123.81
657.253	115.81
657.457	102.81
657.661	119.81
657.865	113.81
658.068	104.81
658.272	114.81
658.476	111.81
658.68	108.81
658.883	118.81
659.087	95.81
659.291	94.81
659.494	95.81
659.698	97.81
659.901	105.81
660.105	98.81
660.309	93.81
660.512	116.81
660.716	97.81
660.919	98.81
661.123	101.81
661.326	75.81
661.53	79.81
661.733	83.81
661.936	96.81
662.14	74.81
662.343	74.81
662.546	93.81
662.75	72.81
662.953	80.81
663.156	78.81
663.36	88.81
663.563	77.81
663.766	87.81
663.969	77.81
664.173	84.81
664.376	86.81
664.579	86.81
664.782	65.81
664.985	73.81
665.188	82.81
665.391	93.81
665.594	72.81
665.797	86.81
666	97.81
666.203	85.81
666.406	93.81
666.609	100.81
666.812	87.81
667.015	80.81
667.218	90.81
667.421	95.81
667.624	77.81
667.827	80.81
668.03	76.81
668.232	65.81
668.435	96.81
668.638	90.81
668.841	93.81
669.043	74.81
669.246	91.81
669.449	80.81
669.651	88.81
669.854	86.81
670.057	96.81
670.259	82.81
670.462	85.81
670.665	80.81
670.867	90.81
671.07	79.81
671.272	80.81
671.475	107.81
671.677	74.81
671.88	72.81
672.082	95.81
672.284	87.81
672.487	86.81
672.689	76.81
672.892	84.81
