Data from 1983.PennyLincolnUp.Lamp.En5.5.200Scan.071819.P1_HRD10591_16-53-15-965.txt Node
Date: Thu Jul 18 16:53:15 EDT 2019
User: cochatt
Spectrometer: HR+D1059
Trigger mode: 1
Integration Time (sec): 1.000000E-1
Scans to average: 1
Electric dark correction enabled: true
Nonlinearity correction enabled: false
Boxcar width: 0
XAxis mode: Wavelengths
Number of Pixels in Spectrum: 2048
>>>>>Begin Spectral Data<<<<<
223.165	-16.81
223.4	-16.81
223.635	-16.81
223.869	-21.81
224.104	-20.81
224.338	-20.81
224.573	-24.81
224.808	-2.81
225.042	-5.81
225.277	-13.81
225.511	3.19
225.746	9.19
225.98	-0.81
226.215	12.19
226.449	17.19
226.683	30.19
226.918	19.19
227.152	37.19
227.387	29.19
227.621	58.19
227.856	46.19
228.09	47.19
228.324	53.19
228.559	46.19
228.793	61.19
229.027	95.19
229.262	108.19
229.496	102.19
229.73	129.19
229.964	147.19
230.199	109.19
230.433	121.19
230.667	110.19
230.901	99.19
231.136	116.19
231.37	91.19
231.604	95.19
231.838	93.19
232.072	102.19
232.306	107.19
232.541	118.19
232.775	118.19
233.009	109.19
233.243	113.19
233.477	110.19
233.711	126.19
233.945	114.19
234.179	117.19
234.413	106.19
234.647	116.19
234.881	117.19
235.115	118.19
235.349	117.19
235.583	117.19
235.817	113.19
236.051	122.19
236.285	118.19
236.519	101.19
236.753	129.19
236.987	137.19
237.221	169.19
237.455	213.19
237.689	160.19
237.922	140.19
238.156	133.19
238.39	129.19
238.624	129.19
238.858	117.19
239.091	109.19
239.325	129.19
239.559	125.19
239.793	116.19
240.027	130.19
240.26	135.19
240.494	147.19
240.728	131.19
240.961	136.19
241.195	138.19
241.429	141.19
241.662	126.19
241.896	127.19
242.13	133.19
242.363	112.19
242.597	123.19
242.83	151.19
243.064	129.19
243.298	138.19
243.531	130.19
243.765	139.19
243.998	135.19
244.232	129.19
244.465	129.19
244.699	130.19
244.932	142.19
245.166	133.19
245.399	135.19
245.633	146.19
245.866	141.19
246.099	147.19
246.333	141.19
246.566	137.19
246.8	148.19
247.033	136.19
247.266	150.19
247.5	129.19
247.733	163.19
247.966	156.19
248.2	168.19
248.433	153.19
248.666	161.19
248.899	173.19
249.133	173.19
249.366	192.19
249.599	181.19
249.832	181.19
250.066	180.19
250.299	183.19
250.532	177.19
250.765	188.19
250.998	199.19
251.231	206.19
251.465	181.19
251.698	205.19
251.931	193.19
252.164	170.19
252.397	199.19
252.63	196.19
252.863	205.19
253.096	210.19
253.329	217.19
253.562	217.19
253.795	204.19
254.028	206.19
254.261	199.19
254.494	205.19
254.727	225.19
254.96	251.19
255.193	233.19
255.426	214.19
255.659	217.19
255.892	200.19
256.124	188.19
256.357	195.19
256.59	200.19
256.823	177.19
257.056	177.19
257.289	190.19
257.521	202.19
257.754	194.19
257.987	188.19
258.22	180.19
258.452	197.19
258.685	197.19
258.918	186.19
259.151	195.19
259.383	204.19
259.616	191.19
259.849	187.19
260.081	217.19
260.314	227.19
260.547	222.19
260.779	217.19
261.012	218.19
261.244	191.19
261.477	211.19
261.71	223.19
261.942	205.19
262.175	211.19
262.407	215.19
262.64	191.19
262.872	194.19
263.105	182.19
263.337	194.19
263.57	198.19
263.802	202.19
264.035	202.19
264.267	198.19
264.499	198.19
264.732	193.19
264.964	196.19
265.197	195.19
265.429	211.19
265.661	182.19
265.894	198.19
266.126	191.19
266.358	205.19
266.591	190.19
266.823	208.19
267.055	203.19
267.287	223.19
267.52	212.19
267.752	209.19
267.984	220.19
268.216	218.19
268.448	229.19
268.681	214.19
268.913	202.19
269.145	248.19
269.377	250.19
269.609	238.19
269.841	245.19
270.073	230.19
270.306	251.19
270.538	294.19
270.77	291.19
271.002	269.19
271.234	274.19
271.466	290.19
271.698	274.19
271.93	292.19
272.162	286.19
272.394	299.19
272.626	277.19
272.858	255.19
273.09	262.19
273.322	240.19
273.553	257.19
273.785	253.19
274.017	237.19
274.249	249.19
274.481	234.19
274.713	242.19
274.945	253.19
275.176	242.19
275.408	233.19
275.64	246.19
275.872	250.19
276.104	246.19
276.335	235.19
276.567	227.19
276.799	256.19
277.031	279.19
277.262	284.19
277.494	288.19
277.726	269.19
277.957	251.19
278.189	257.19
278.421	268.19
278.652	257.19
278.884	254.19
279.115	259.19
279.347	243.19
279.579	224.19
279.81	218.19
280.042	230.19
280.273	263.19
280.505	237.19
280.736	246.19
280.968	244.19
281.199	249.19
281.431	253.19
281.662	233.19
281.894	254.19
282.125	228.19
282.356	254.19
282.588	289.19
282.819	277.19
283.051	269.19
283.282	254.19
283.513	251.19
283.745	267.19
283.976	244.19
284.207	264.19
284.439	279.19
284.67	241.19
284.901	254.19
285.132	258.19
285.364	257.19
285.595	239.19
285.826	252.19
286.057	255.19
286.288	241.19
286.52	262.19
286.751	250.19
286.982	248.19
287.213	259.19
287.444	236.19
287.675	277.19
287.906	286.19
288.138	270.19
288.369	277.19
288.6	281.19
288.831	281.19
289.062	269.19
289.293	264.19
289.524	282.19
289.755	267.19
289.986	259.19
290.217	250.19
290.448	259.19
290.679	263.19
290.91	255.19
291.141	274.19
291.371	244.19
291.602	279.19
291.833	271.19
292.064	263.19
292.295	275.19
292.526	279.19
292.757	263.19
292.987	272.19
293.218	271.19
293.449	281.19
293.68	263.19
293.91	263.19
294.141	282.19
294.372	250.19
294.603	262.19
294.833	274.19
295.064	265.19
295.295	248.19
295.525	272.19
295.756	292.19
295.987	280.19
296.217	294.19
296.448	294.19
296.679	280.19
296.909	270.19
297.14	266.19
297.37	271.19
297.601	267.19
297.831	263.19
298.062	264.19
298.292	272.19
298.523	295.19
298.753	279.19
298.984	285.19
299.214	278.19
299.445	275.19
299.675	300.19
299.905	288.19
300.136	289.19
300.366	264.19
300.597	273.19
300.827	283.19
301.057	292.19
301.288	303.19
301.518	311.19
301.748	316.19
301.979	291.19
302.209	291.19
302.439	300.19
302.669	310.19
302.9	270.19
303.13	296.19
303.36	306.19
303.59	293.19
303.82	310.19
304.051	305.19
304.281	297.19
304.511	277.19
304.741	291.19
304.971	299.19
305.201	294.19
305.431	292.19
305.661	308.19
305.891	292.19
306.121	304.19
306.352	311.19
306.582	310.19
306.812	310.19
307.042	293.19
307.272	320.19
307.502	292.19
307.731	300.19
307.961	300.19
308.191	305.19
308.421	302.19
308.651	309.19
308.881	299.19
309.111	320.19
309.341	303.19
309.571	321.19
309.8	334.19
310.03	328.19
310.26	336.19
310.49	339.19
310.72	343.19
310.949	355.19
311.179	349.19
311.409	358.19
311.639	352.19
311.868	360.19
312.098	350.19
312.328	344.19
312.557	375.19
312.787	381.19
313.017	372.19
313.246	355.19
313.476	355.19
313.706	364.19
313.935	367.19
314.165	347.19
314.394	370.19
314.624	371.19
314.853	351.19
315.083	339.19
315.312	327.19
315.542	349.19
315.771	334.19
316.001	323.19
316.23	338.19
316.46	339.19
316.689	353.19
316.919	342.19
317.148	366.19
317.377	359.19
317.607	340.19
317.836	350.19
318.065	358.19
318.295	336.19
318.524	333.19
318.753	327.19
318.983	337.19
319.212	345.19
319.441	363.19
319.67	381.19
319.9	355.19
320.129	346.19
320.358	349.19
320.587	356.19
320.816	345.19
321.046	353.19
321.275	375.19
321.504	366.19
321.733	362.19
321.962	380.19
322.191	409.19
322.42	415.19
322.649	423.19
322.878	410.19
323.108	431.19
323.337	445.19
323.566	476.19
323.795	471.19
324.024	532.19
324.253	659.19
324.482	953.19
324.71	1455.19
324.939	1953.19
325.168	1570.19
325.397	832.19
325.626	579.19
325.855	498.19
326.084	468.19
326.313	459.19
326.542	483.19
326.77	515.19
326.999	628.19
327.228	871.19
327.457	1242.19
327.686	1411.19
327.914	947.19
328.143	659.19
328.372	546.19
328.6	537.19
328.829	521.19
329.058	538.19
329.287	538.19
329.515	507.19
329.744	447.19
329.972	443.19
330.201	445.19
330.43	469.19
330.658	513.19
330.887	554.19
331.115	541.19
331.344	470.19
331.572	428.19
331.801	435.19
332.03	458.19
332.258	427.19
332.486	393.19
332.715	377.19
332.943	388.19
333.172	415.19
333.4	399.19
333.629	416.19
333.857	411.19
334.085	424.19
334.314	439.19
334.542	427.19
334.771	438.19
334.999	419.19
335.227	413.19
335.455	418.19
335.684	399.19
335.912	411.19
336.14	378.19
336.369	414.19
336.597	408.19
336.825	407.19
337.053	413.19
337.281	403.19
337.51	399.19
337.738	394.19
337.966	400.19
338.194	428.19
338.422	395.19
338.65	396.19
338.878	397.19
339.106	379.19
339.334	381.19
339.562	383.19
339.79	394.19
340.018	386.19
340.246	391.19
340.474	417.19
340.702	390.19
340.93	409.19
341.158	373.19
341.386	376.19
341.614	389.19
341.842	385.19
342.07	382.19
342.298	388.19
342.526	384.19
342.754	386.19
342.981	392.19
343.209	366.19
343.437	395.19
343.665	379.19
343.893	387.19
344.12	398.19
344.348	375.19
344.576	404.19
344.804	403.19
345.031	407.19
345.259	411.19
345.487	398.19
345.714	387.19
345.942	392.19
346.17	371.19
346.397	374.19
346.625	361.19
346.853	365.19
347.08	374.19
347.308	387.19
347.535	362.19
347.763	383.19
347.99	393.19
348.218	387.19
348.445	394.19
348.673	399.19
348.9	386.19
349.128	382.19
349.355	360.19
349.583	369.19
349.81	362.19
350.037	357.19
350.265	350.19
350.492	347.19
350.72	377.19
350.947	357.19
351.174	385.19
351.402	388.19
351.629	379.19
351.856	375.19
352.083	381.19
352.311	369.19
352.538	380.19
352.765	401.19
352.992	371.19
353.22	390.19
353.447	386.19
353.674	368.19
353.901	370.19
354.128	350.19
354.355	362.19
354.583	372.19
354.81	353.19
355.037	361.19
355.264	354.19
355.491	324.19
355.718	346.19
355.945	343.19
356.172	349.19
356.399	335.19
356.626	347.19
356.853	341.19
357.08	345.19
357.307	342.19
357.534	344.19
357.761	326.19
357.988	342.19
358.215	356.19
358.441	335.19
358.668	351.19
358.895	359.19
359.122	328.19
359.349	371.19
359.576	365.19
359.802	397.19
360.029	430.19
360.256	436.19
360.483	424.19
360.709	404.19
360.936	375.19
361.163	383.19
361.39	392.19
361.616	379.19
361.843	377.19
362.07	367.19
362.296	381.19
362.523	355.19
362.749	367.19
362.976	378.19
363.203	364.19
363.429	376.19
363.656	346.19
363.882	355.19
364.109	364.19
364.335	346.19
364.562	368.19
364.788	333.19
365.015	357.19
365.241	370.19
365.468	358.19
365.694	379.19
365.92	358.19
366.147	367.19
366.373	342.19
366.599	345.19
366.826	354.19
367.052	354.19
367.278	358.19
367.505	369.19
367.731	361.19
367.957	363.19
368.184	380.19
368.41	349.19
368.636	373.19
368.862	376.19
369.089	341.19
369.315	351.19
369.541	349.19
369.767	344.19
369.993	343.19
370.219	356.19
370.445	365.19
370.672	335.19
370.898	365.19
371.124	339.19
371.35	361.19
371.576	358.19
371.802	343.19
372.028	350.19
372.254	353.19
372.48	343.19
372.706	342.19
372.932	356.19
373.158	354.19
373.384	346.19
373.61	361.19
373.835	354.19
374.061	349.19
374.287	356.19
374.513	334.19
374.739	365.19
374.965	375.19
375.191	343.19
375.416	371.19
375.642	357.19
375.868	354.19
376.094	344.19
376.319	346.19
376.545	362.19
376.771	343.19
376.997	339.19
377.222	335.19
377.448	346.19
377.674	345.19
377.899	350.19
378.125	363.19
378.35	336.19
378.576	349.19
378.802	350.19
379.027	367.19
379.253	348.19
379.478	334.19
379.704	350.19
379.929	341.19
380.155	362.19
380.38	361.19
380.606	353.19
380.831	351.19
381.057	372.19
381.282	363.19
381.507	366.19
381.733	341.19
381.958	349.19
382.184	348.19
382.409	369.19
382.634	373.19
382.86	334.19
383.085	357.19
383.31	342.19
383.535	352.19
383.761	355.19
383.986	370.19
384.211	363.19
384.436	366.19
384.662	362.19
384.887	379.19
385.112	366.19
385.337	381.19
385.562	381.19
385.787	370.19
386.013	392.19
386.238	371.19
386.463	371.19
386.688	378.19
386.913	359.19
387.138	379.19
387.363	363.19
387.588	371.19
387.813	369.19
388.038	355.19
388.263	401.19
388.488	371.19
388.713	388.19
388.938	373.19
389.163	390.19
389.387	395.19
389.612	382.19
389.837	380.19
390.062	371.19
390.287	382.19
390.512	377.19
390.736	382.19
390.961	379.19
391.186	378.19
391.411	376.19
391.636	380.19
391.86	390.19
392.085	386.19
392.31	387.19
392.534	381.19
392.759	364.19
392.984	374.19
393.208	375.19
393.433	362.19
393.658	351.19
393.882	378.19
394.107	381.19
394.331	381.19
394.556	375.19
394.78	386.19
395.005	383.19
395.229	381.19
395.454	391.19
395.678	383.19
395.903	407.19
396.127	405.19
396.352	402.19
396.576	390.19
396.801	373.19
397.025	389.19
397.249	399.19
397.474	399.19
397.698	409.19
397.922	435.19
398.147	417.19
398.371	421.19
398.595	413.19
398.82	414.19
399.044	406.19
399.268	444.19
399.492	465.19
399.717	483.19
399.941	493.19
400.165	526.19
400.389	532.19
400.613	477.19
400.837	445.19
401.062	443.19
401.286	442.19
401.51	437.19
401.734	400.19
401.958	444.19
402.182	423.19
402.406	445.19
402.63	439.19
402.854	448.19
403.078	452.19
403.302	448.19
403.526	448.19
403.75	460.19
403.974	466.19
404.198	442.19
404.422	444.19
404.645	455.19
404.869	420.19
405.093	475.19
405.317	464.19
405.541	485.19
405.765	459.19
405.988	462.19
406.212	491.19
406.436	504.19
406.66	494.19
406.883	506.19
407.107	504.19
407.331	506.19
407.555	573.19
407.778	565.19
408.002	512.19
408.226	504.19
408.449	486.19
408.673	480.19
408.896	520.19
409.12	528.19
409.344	492.19
409.567	451.19
409.791	448.19
410.014	429.19
410.238	436.19
410.461	435.19
410.685	442.19
410.908	458.19
411.132	475.19
411.355	504.19
411.578	491.19
411.802	455.19
412.025	437.19
412.249	436.19
412.472	447.19
412.695	437.19
412.919	444.19
413.142	420.19
413.365	420.19
413.589	417.19
413.812	422.19
414.035	404.19
414.258	406.19
414.482	427.19
414.705	419.19
414.928	428.19
415.151	396.19
415.374	418.19
415.597	412.19
415.821	411.19
416.044	403.19
416.267	417.19
416.49	422.19
416.713	405.19
416.936	409.19
417.159	411.19
417.382	411.19
417.605	408.19
417.828	428.19
418.051	432.19
418.274	434.19
418.497	418.19
418.72	423.19
418.943	396.19
419.166	429.19
419.389	459.19
419.611	449.19
419.834	431.19
420.057	435.19
420.28	426.19
420.503	424.19
420.726	435.19
420.948	431.19
421.171	471.19
421.394	487.19
421.617	441.19
421.839	456.19
422.062	437.19
422.285	453.19
422.507	494.19
422.73	561.19
422.953	552.19
423.175	478.19
423.398	458.19
423.621	445.19
423.843	477.19
424.066	478.19
424.288	478.19
424.511	466.19
424.733	517.19
424.956	581.19
425.178	562.19
425.401	579.19
425.623	566.19
425.846	487.19
426.068	476.19
426.291	450.19
426.513	450.19
426.735	481.19
426.958	505.19
427.18	546.19
427.402	675.19
427.625	722.19
427.847	646.19
428.069	551.19
428.292	499.19
428.514	451.19
428.736	451.19
428.958	443.19
429.181	443.19
429.403	433.19
429.625	446.19
429.847	486.19
430.069	510.19
430.292	523.19
430.514	444.19
430.736	442.19
430.958	427.19
431.18	427.19
431.402	419.19
431.624	403.19
431.846	417.19
432.068	386.19
432.29	418.19
432.512	411.19
432.734	435.19
432.956	436.19
433.178	426.19
433.4	421.19
433.622	420.19
433.844	421.19
434.066	407.19
434.287	422.19
434.509	397.19
434.731	433.19
434.953	427.19
435.175	441.19
435.397	453.19
435.618	478.19
435.84	509.19
436.062	597.19
436.284	618.19
436.505	537.19
436.727	480.19
436.949	455.19
437.17	415.19
437.392	428.19
437.614	439.19
437.835	467.19
438.057	571.19
438.278	640.19
438.5	633.19
438.721	679.19
438.943	621.19
439.165	524.19
439.386	468.19
439.608	486.19
439.829	485.19
440.05	508.19
440.272	553.19
440.493	517.19
440.715	463.19
440.936	454.19
441.158	455.19
441.379	465.19
441.6	451.19
441.822	469.19
442.043	499.19
442.264	592.19
442.486	611.19
442.707	510.19
442.928	516.19
443.149	492.19
443.371	524.19
443.592	542.19
443.813	593.19
444.034	645.19
444.255	544.19
444.476	481.19
444.698	484.19
444.919	491.19
445.14	585.19
445.361	533.19
445.582	513.19
445.803	555.19
446.024	637.19
446.245	636.19
446.466	591.19
446.687	503.19
446.908	470.19
447.129	454.19
447.35	435.19
447.571	429.19
447.792	435.19
448.013	439.19
448.234	470.19
448.455	498.19
448.675	566.19
448.896	649.19
449.117	561.19
449.338	558.19
449.559	635.19
449.779	681.19
450	555.19
450.221	481.19
450.442	455.19
450.662	438.19
450.883	421.19
451.104	459.19
451.324	441.19
451.545	441.19
451.766	421.19
451.986	409.19
452.207	407.19
452.428	397.19
452.648	371.19
452.869	401.19
453.089	411.19
453.31	397.19
453.53	395.19
453.751	413.19
453.971	408.19
454.192	406.19
454.412	400.19
454.633	406.19
454.853	382.19
455.073	390.19
455.294	421.19
455.514	476.19
455.734	454.19
455.955	419.19
456.175	387.19
456.395	360.19
456.616	375.19
456.836	377.19
457.056	360.19
457.276	369.19
457.497	381.19
457.717	383.19
457.937	382.19
458.157	375.19
458.377	398.19
458.598	412.19
458.818	456.19
459.038	525.19
459.258	532.19
459.478	453.19
459.698	410.19
459.918	402.19
460.138	399.19
460.358	414.19
460.578	413.19
460.798	422.19
461.018	405.19
461.238	423.19
461.458	411.19
461.678	404.19
461.898	409.19
462.118	403.19
462.338	409.19
462.558	430.19
462.777	419.19
462.997	446.19
463.217	475.19
463.437	435.19
463.657	452.19
463.876	443.19
464.096	439.19
464.316	461.19
464.536	433.19
464.755	439.19
464.975	439.19
465.195	522.19
465.414	585.19
465.634	498.19
465.854	448.19
466.073	417.19
466.293	428.19
466.512	424.19
466.732	412.19
466.951	402.19
467.171	414.19
467.391	405.19
467.61	415.19
467.829	420.19
468.049	413.19
468.268	400.19
468.488	409.19
468.707	409.19
468.927	414.19
469.146	379.19
469.365	399.19
469.585	387.19
469.804	392.19
470.023	414.19
470.243	406.19
470.462	408.19
470.681	442.19
470.901	430.19
471.12	417.19
471.339	405.19
471.558	411.19
471.777	402.19
471.997	392.19
472.216	387.19
472.435	399.19
472.654	412.19
472.873	393.19
473.092	413.19
473.311	403.19
473.53	395.19
473.749	422.19
473.968	457.19
474.187	527.19
474.406	541.19
474.625	440.19
474.844	414.19
475.063	404.19
475.282	404.19
475.501	414.19
475.72	430.19
475.939	418.19
476.158	407.19
476.377	430.19
476.596	415.19
476.814	449.19
477.033	425.19
477.252	424.19
477.471	454.19
477.69	449.19
477.908	439.19
478.127	423.19
478.346	445.19
478.564	449.19
478.783	454.19
479.002	459.19
479.22	463.19
479.439	480.19
479.658	494.19
479.876	473.19
480.095	450.19
480.313	499.19
480.532	518.19
480.751	485.19
480.969	479.19
481.188	476.19
481.406	494.19
481.624	467.19
481.843	481.19
482.061	495.19
482.28	478.19
482.498	478.19
482.717	469.19
482.935	445.19
483.153	472.19
483.372	485.19
483.59	456.19
483.808	462.19
484.027	474.19
484.245	477.19
484.463	482.19
484.681	463.19
484.9	479.19
485.118	485.19
485.336	496.19
485.554	483.19
485.772	496.19
485.99	475.19
486.209	482.19
486.427	482.19
486.645	499.19
486.863	530.19
487.081	522.19
487.299	492.19
487.517	507.19
487.735	517.19
487.953	498.19
488.171	492.19
488.389	499.19
488.607	521.19
488.825	513.19
489.043	521.19
489.261	502.19
489.479	520.19
489.696	525.19
489.914	494.19
490.132	506.19
490.35	521.19
490.568	533.19
490.786	522.19
491.003	550.19
491.221	547.19
491.439	557.19
491.657	566.19
491.874	560.19
492.092	584.19
492.31	579.19
492.527	591.19
492.745	555.19
492.963	587.19
493.18	610.19
493.398	594.19
493.615	588.19
493.833	601.19
494.05	601.19
494.268	597.19
494.485	586.19
494.703	590.19
494.92	594.19
495.138	592.19
495.355	598.19
495.573	618.19
495.79	609.19
496.008	605.19
496.225	608.19
496.442	602.19
496.66	610.19
496.877	578.19
497.094	616.19
497.312	603.19
497.529	626.19
497.746	637.19
497.963	648.19
498.181	657.19
498.398	666.19
498.615	693.19
498.832	677.19
499.049	691.19
499.267	681.19
499.484	688.19
499.701	728.19
499.918	730.19
500.135	778.19
500.352	833.19
500.569	814.19
500.786	814.19
501.003	789.19
501.22	761.19
501.437	759.19
501.654	745.19
501.871	746.19
502.088	698.19
502.305	693.19
502.522	685.19
502.739	675.19
502.956	620.19
503.172	649.19
503.389	629.19
503.606	625.19
503.823	650.19
504.04	603.19
504.256	616.19
504.473	625.19
504.69	597.19
504.907	594.19
505.123	583.19
505.34	581.19
505.557	573.19
505.773	579.19
505.99	578.19
506.207	563.19
506.423	573.19
506.64	547.19
506.856	569.19
507.073	546.19
507.289	542.19
507.506	575.19
507.722	572.19
507.939	593.19
508.155	557.19
508.372	545.19
508.588	542.19
508.805	538.19
509.021	556.19
509.238	556.19
509.454	557.19
509.67	537.19
509.887	574.19
510.103	575.19
510.319	570.19
510.536	663.19
510.752	1153.19
510.968	881.19
511.184	550.19
511.401	516.19
511.617	541.19
511.833	517.19
512.049	512.19
512.265	508.19
512.481	526.19
512.698	522.19
512.914	516.19
513.13	538.19
513.346	504.19
513.562	531.19
513.778	540.19
513.994	536.19
514.21	561.19
514.426	558.19
514.642	607.19
514.858	631.19
515.074	680.19
515.29	837.19
515.506	1273.19
515.721	1001.19
515.937	673.19
516.153	577.19
516.369	561.19
516.585	540.19
516.801	535.19
517.016	523.19
517.232	535.19
517.448	519.19
517.664	543.19
517.879	523.19
518.095	545.19
518.311	534.19
518.527	528.19
518.742	545.19
518.958	522.19
519.173	527.19
519.389	533.19
519.605	530.19
519.82	542.19
520.036	554.19
520.251	539.19
520.467	572.19
520.682	578.19
520.898	579.19
521.113	626.19
521.329	672.19
521.544	770.19
521.76	982.19
521.975	1684.19
522.19	1636.19
522.406	839.19
522.621	615.19
522.836	566.19
523.052	520.19
523.267	508.19
523.482	469.19
523.698	484.19
523.913	499.19
524.128	477.19
524.343	468.19
524.559	475.19
524.774	486.19
524.989	472.19
525.204	457.19
525.419	478.19
525.634	445.19
525.849	451.19
526.064	435.19
526.28	429.19
526.495	424.19
526.71	420.19
526.925	440.19
527.14	426.19
527.355	443.19
527.57	435.19
527.785	434.19
527.999	415.19
528.214	419.19
528.429	423.19
528.644	438.19
528.859	437.19
529.074	436.19
529.289	460.19
529.503	532.19
529.718	517.19
529.933	452.19
530.148	435.19
530.363	429.19
530.577	416.19
530.792	408.19
531.007	424.19
531.221	422.19
531.436	417.19
531.651	402.19
531.865	407.19
532.08	412.19
532.295	424.19
532.509	382.19
532.724	423.19
532.938	427.19
533.153	416.19
533.367	399.19
533.582	398.19
533.796	381.19
534.011	405.19
534.225	410.19
534.44	381.19
534.654	397.19
534.868	382.19
535.083	397.19
535.297	397.19
535.511	406.19
535.726	406.19
535.94	414.19
536.154	395.19
536.369	400.19
536.583	403.19
536.797	395.19
537.011	394.19
537.225	372.19
537.44	383.19
537.654	401.19
537.868	407.19
538.082	395.19
538.296	402.19
538.51	378.19
538.724	412.19
538.938	405.19
539.153	390.19
539.367	409.19
539.581	409.19
539.795	392.19
540.009	401.19
540.222	397.19
540.436	385.19
540.65	379.19
540.864	413.19
541.078	383.19
541.292	404.19
541.506	396.19
541.72	392.19
541.934	391.19
542.147	388.19
542.361	378.19
542.575	393.19
542.789	369.19
543.002	392.19
543.216	381.19
543.43	392.19
543.644	410.19
543.857	391.19
544.071	389.19
544.285	388.19
544.498	376.19
544.712	398.19
544.925	387.19
545.139	396.19
545.352	373.19
545.566	366.19
545.779	391.19
545.993	387.19
546.206	386.19
546.42	388.19
546.633	365.19
546.847	371.19
547.06	381.19
547.274	357.19
547.487	374.19
547.7	374.19
547.914	378.19
548.127	358.19
548.34	379.19
548.554	383.19
548.767	363.19
548.98	377.19
549.193	369.19
549.407	380.19
549.62	358.19
549.833	382.19
550.046	359.19
550.259	353.19
550.473	366.19
550.686	370.19
550.899	373.19
551.112	366.19
551.325	358.19
551.538	352.19
551.751	370.19
551.964	364.19
552.177	331.19
552.39	359.19
552.603	373.19
552.816	362.19
553.029	364.19
553.242	349.19
553.455	374.19
553.667	395.19
553.88	374.19
554.093	365.19
554.306	360.19
554.519	381.19
554.732	373.19
554.944	358.19
555.157	344.19
555.37	334.19
555.583	343.19
555.795	345.19
556.008	329.19
556.221	354.19
556.433	310.19
556.646	339.19
556.859	330.19
557.071	334.19
557.284	341.19
557.496	332.19
557.709	325.19
557.921	327.19
558.134	320.19
558.346	322.19
558.559	317.19
558.771	327.19
558.984	310.19
559.196	347.19
559.409	334.19
559.621	328.19
559.833	323.19
560.046	311.19
560.258	331.19
560.47	315.19
560.683	318.19
560.895	331.19
561.107	310.19
561.32	321.19
561.532	316.19
561.744	340.19
561.956	326.19
562.168	327.19
562.381	323.19
562.593	314.19
562.805	321.19
563.017	321.19
563.229	323.19
563.441	321.19
563.653	317.19
563.865	336.19
564.077	318.19
564.289	351.19
564.501	317.19
564.713	345.19
564.925	325.19
565.137	347.19
565.349	342.19
565.561	337.19
565.773	347.19
565.985	355.19
566.197	349.19
566.408	357.19
566.62	375.19
566.832	371.19
567.044	391.19
567.255	390.19
567.467	394.19
567.679	391.19
567.891	388.19
568.102	389.19
568.314	402.19
568.526	395.19
568.737	359.19
568.949	373.19
569.161	363.19
569.372	345.19
569.584	332.19
569.795	322.19
570.007	336.19
570.218	389.19
570.43	363.19
570.641	315.19
570.853	292.19
571.064	313.19
571.276	307.19
571.487	314.19
571.698	313.19
571.91	326.19
572.121	301.19
572.333	301.19
572.544	301.19
572.755	293.19
572.966	287.19
573.178	302.19
573.389	284.19
573.6	293.19
573.811	287.19
574.023	281.19
574.234	279.19
574.445	257.19
574.656	276.19
574.867	283.19
575.078	281.19
575.289	274.19
575.501	282.19
575.712	269.19
575.923	266.19
576.134	275.19
576.345	269.19
576.556	289.19
576.767	269.19
576.978	264.19
577.188	270.19
577.399	288.19
577.61	271.19
577.821	288.19
578.032	280.19
578.243	314.19
578.454	545.19
578.665	377.19
578.875	263.19
579.086	275.19
579.297	270.19
579.508	259.19
579.718	251.19
579.929	271.19
580.14	268.19
580.35	249.19
580.561	260.19
580.772	253.19
580.982	248.19
581.193	246.19
581.403	246.19
581.614	242.19
581.825	261.19
582.035	259.19
582.246	256.19
582.456	233.19
582.667	265.19
582.877	260.19
583.087	247.19
583.298	262.19
583.508	225.19
583.719	237.19
583.929	261.19
584.139	241.19
584.35	230.19
584.56	246.19
584.77	259.19
584.981	236.19
585.191	248.19
585.401	248.19
585.611	232.19
585.821	246.19
586.032	250.19
586.242	259.19
586.452	248.19
586.662	244.19
586.872	231.19
587.082	232.19
587.292	252.19
587.502	234.19
587.713	252.19
587.923	243.19
588.133	231.19
588.343	261.19
588.553	242.19
588.762	253.19
588.972	244.19
589.182	228.19
589.392	232.19
589.602	222.19
589.812	237.19
590.022	254.19
590.232	239.19
590.441	238.19
590.651	244.19
590.861	246.19
591.071	234.19
591.281	251.19
591.49	242.19
591.7	255.19
591.91	245.19
592.119	251.19
592.329	226.19
592.539	259.19
592.748	251.19
592.958	250.19
593.167	230.19
593.377	241.19
593.587	249.19
593.796	250.19
594.006	252.19
594.215	261.19
594.424	249.19
594.634	248.19
594.843	232.19
595.053	237.19
595.262	235.19
595.472	241.19
595.681	238.19
595.89	236.19
596.1	234.19
596.309	220.19
596.518	232.19
596.727	230.19
596.937	233.19
597.146	215.19
597.355	217.19
597.564	218.19
597.774	234.19
597.983	233.19
598.192	216.19
598.401	233.19
598.61	226.19
598.819	214.19
599.028	221.19
599.237	214.19
599.446	215.19
599.655	220.19
599.864	219.19
600.073	212.19
600.282	216.19
600.491	213.19
600.7	233.19
600.909	208.19
601.118	218.19
601.327	219.19
601.536	218.19
601.745	206.19
601.953	214.19
602.162	225.19
602.371	215.19
602.58	221.19
602.789	226.19
602.997	227.19
603.206	211.19
603.415	215.19
603.623	198.19
603.832	221.19
604.041	212.19
604.249	217.19
604.458	207.19
604.666	213.19
604.875	200.19
605.084	205.19
605.292	198.19
605.501	199.19
605.709	205.19
605.918	193.19
606.126	185.19
606.334	205.19
606.543	220.19
606.751	202.19
606.96	191.19
607.168	217.19
607.376	211.19
607.585	198.19
607.793	221.19
608.001	195.19
608.21	200.19
608.418	208.19
608.626	205.19
608.834	195.19
609.043	196.19
609.251	200.19
609.459	215.19
609.667	216.19
609.875	210.19
610.083	204.19
610.291	199.19
610.499	208.19
610.707	207.19
610.916	211.19
611.124	194.19
611.332	209.19
611.54	216.19
611.748	214.19
611.955	194.19
612.163	201.19
612.371	214.19
612.579	211.19
612.787	206.19
612.995	210.19
613.203	205.19
613.411	200.19
613.618	192.19
613.826	196.19
614.034	215.19
614.242	178.19
614.449	186.19
614.657	195.19
614.865	211.19
615.072	208.19
615.28	188.19
615.488	191.19
615.695	211.19
615.903	205.19
616.111	196.19
616.318	202.19
616.526	193.19
616.733	186.19
616.941	190.19
617.148	190.19
617.356	207.19
617.563	201.19
617.771	192.19
617.978	191.19
618.185	173.19
618.393	193.19
618.6	189.19
618.807	184.19
619.015	189.19
619.222	183.19
619.429	205.19
619.637	189.19
619.844	187.19
620.051	192.19
620.258	179.19
620.466	184.19
620.673	182.19
620.88	185.19
621.087	174.19
621.294	199.19
621.501	182.19
621.708	201.19
621.915	177.19
622.122	199.19
622.329	181.19
622.536	187.19
622.743	191.19
622.95	178.19
623.157	194.19
623.364	194.19
623.571	191.19
623.778	188.19
623.985	198.19
624.192	178.19
624.399	183.19
624.606	196.19
624.812	177.19
625.019	185.19
625.226	187.19
625.433	190.19
625.639	180.19
625.846	177.19
626.053	177.19
626.259	171.19
626.466	188.19
626.673	165.19
626.879	175.19
627.086	182.19
627.293	181.19
627.499	170.19
627.706	180.19
627.912	172.19
628.119	173.19
628.325	189.19
628.532	166.19
628.738	164.19
628.945	175.19
629.151	177.19
629.357	168.19
629.564	181.19
629.77	185.19
629.976	183.19
630.183	181.19
630.389	159.19
630.595	163.19
630.802	177.19
631.008	181.19
631.214	174.19
631.42	163.19
631.627	177.19
631.833	173.19
632.039	149.19
632.245	163.19
632.451	166.19
632.657	160.19
632.863	165.19
633.069	168.19
633.275	153.19
633.481	157.19
633.688	178.19
633.893	167.19
634.099	155.19
634.305	155.19
634.511	155.19
634.717	151.19
634.923	151.19
635.129	175.19
635.335	137.19
635.541	176.19
635.747	145.19
635.952	165.19
636.158	157.19
636.364	170.19
636.57	169.19
636.775	158.19
636.981	155.19
637.187	157.19
637.392	163.19
637.598	154.19
637.804	161.19
638.009	165.19
638.215	150.19
638.421	158.19
638.626	162.19
638.832	160.19
639.037	154.19
639.243	163.19
639.448	166.19
639.654	148.19
639.859	141.19
640.065	148.19
640.27	161.19
640.475	152.19
640.681	162.19
640.886	141.19
641.091	162.19
641.297	149.19
641.502	146.19
641.707	161.19
641.913	156.19
642.118	156.19
642.323	141.19
642.528	147.19
642.733	142.19
642.939	157.19
643.144	156.19
643.349	151.19
643.554	151.19
643.759	147.19
643.964	141.19
644.169	145.19
644.374	142.19
644.579	139.19
644.784	148.19
644.989	151.19
645.194	153.19
645.399	156.19
645.604	155.19
645.809	152.19
646.014	152.19
646.219	141.19
646.423	151.19
646.628	155.19
646.833	165.19
647.038	143.19
647.243	145.19
647.447	153.19
647.652	152.19
647.857	150.19
648.062	137.19
648.266	161.19
648.471	137.19
648.676	155.19
648.88	145.19
649.085	145.19
649.289	150.19
649.494	153.19
649.698	169.19
649.903	174.19
650.107	155.19
650.312	153.19
650.516	149.19
650.721	137.19
650.925	120.19
651.13	130.19
651.334	137.19
651.539	133.19
651.743	148.19
651.947	151.19
652.152	149.19
652.356	142.19
652.56	152.19
652.764	117.19
652.969	127.19
653.173	127.19
653.377	121.19
653.581	119.19
653.785	127.19
653.99	124.19
654.194	143.19
654.398	121.19
654.602	113.19
654.806	120.19
655.01	129.19
655.214	128.19
655.418	142.19
655.622	106.19
655.826	131.19
656.03	129.19
656.234	126.19
656.438	125.19
656.642	131.19
656.846	125.19
657.049	104.19
657.253	109.19
657.457	128.19
657.661	117.19
657.865	122.19
658.068	110.19
658.272	106.19
658.476	101.19
658.68	107.19
658.883	113.19
659.087	99.19
659.291	101.19
659.494	89.19
659.698	101.19
659.901	99.19
660.105	104.19
660.309	98.19
660.512	110.19
660.716	95.19
660.919	79.19
661.123	95.19
661.326	94.19
661.53	90.19
661.733	90.19
661.936	79.19
662.14	84.19
662.343	89.19
662.546	71.19
662.75	72.19
662.953	97.19
663.156	77.19
663.36	90.19
663.563	90.19
663.766	83.19
663.969	90.19
664.173	90.19
664.376	87.19
664.579	70.19
664.782	81.19
664.985	77.19
665.188	69.19
665.391	67.19
665.594	86.19
665.797	75.19
666	79.19
666.203	81.19
666.406	87.19
666.609	91.19
666.812	70.19
667.015	77.19
667.218	77.19
667.421	84.19
667.624	83.19
667.827	86.19
668.03	85.19
668.232	83.19
668.435	86.19
668.638	75.19
668.841	84.19
669.043	93.19
669.246	86.19
669.449	80.19
669.651	75.19
669.854	79.19
670.057	88.19
670.259	80.19
670.462	77.19
670.665	89.19
670.867	104.19
671.07	82.19
671.272	79.19
671.475	83.19
671.677	92.19
671.88	85.19
672.082	78.19
672.284	78.19
672.487	85.19
672.689	85.19
672.892	87.19
