Data from 1984.PennyLincolnUp.Lamp.En5.5.200Scan.071819.P1_HRD10591_16-58-58-977.txt Node
Date: Thu Jul 18 16:58:58 EDT 2019
User: cochatt
Spectrometer: HR+D1059
Trigger mode: 1
Integration Time (sec): 1.000000E-1
Scans to average: 1
Electric dark correction enabled: true
Nonlinearity correction enabled: false
Boxcar width: 0
XAxis mode: Wavelengths
Number of Pixels in Spectrum: 2048
>>>>>Begin Spectral Data<<<<<
223.165	-14.56
223.4	-14.56
223.635	-14.56
223.869	-10.56
224.104	-14.56
224.338	-14.56
224.573	-5.56
224.808	-19.56
225.042	-19.56
225.277	-5.56
225.511	-7.56
225.746	9.44
225.98	0.44
226.215	7.44
226.449	13.44
226.683	13.44
226.918	26.44
227.152	41.44
227.387	40.44
227.621	45.44
227.856	42.44
228.09	50.44
228.324	55.44
228.559	52.44
228.793	62.44
229.027	88.44
229.262	95.44
229.496	103.44
229.73	117.44
229.964	129.44
230.199	124.44
230.433	112.44
230.667	112.44
230.901	116.44
231.136	98.44
231.37	101.44
231.604	109.44
231.838	124.44
232.072	118.44
232.306	110.44
232.541	119.44
232.775	119.44
233.009	125.44
233.243	110.44
233.477	132.44
233.711	123.44
233.945	99.44
234.179	119.44
234.413	102.44
234.647	120.44
234.881	123.44
235.115	124.44
235.349	121.44
235.583	109.44
235.817	110.44
236.051	117.44
236.285	126.44
236.519	121.44
236.753	109.44
236.987	137.44
237.221	148.44
237.455	183.44
237.689	140.44
237.922	132.44
238.156	125.44
238.39	108.44
238.624	113.44
238.858	123.44
239.091	114.44
239.325	117.44
239.559	136.44
239.793	126.44
240.027	133.44
240.26	136.44
240.494	145.44
240.728	147.44
240.961	132.44
241.195	128.44
241.429	128.44
241.662	119.44
241.896	128.44
242.13	134.44
242.363	117.44
242.597	131.44
242.83	136.44
243.064	133.44
243.298	144.44
243.531	137.44
243.765	119.44
243.998	141.44
244.232	119.44
244.465	144.44
244.699	132.44
244.932	138.44
245.166	128.44
245.399	143.44
245.633	125.44
245.866	148.44
246.099	151.44
246.333	146.44
246.566	144.44
246.8	139.44
247.033	145.44
247.266	161.44
247.5	158.44
247.733	158.44
247.966	151.44
248.2	141.44
248.433	146.44
248.666	169.44
248.899	166.44
249.133	185.44
249.366	179.44
249.599	175.44
249.832	180.44
250.066	162.44
250.299	164.44
250.532	167.44
250.765	186.44
250.998	204.44
251.231	194.44
251.465	187.44
251.698	197.44
251.931	181.44
252.164	182.44
252.397	174.44
252.63	186.44
252.863	186.44
253.096	171.44
253.329	188.44
253.562	182.44
253.795	194.44
254.028	187.44
254.261	188.44
254.494	182.44
254.727	213.44
254.96	225.44
255.193	221.44
255.426	199.44
255.659	208.44
255.892	215.44
256.124	230.44
256.357	258.44
256.59	233.44
256.823	215.44
257.056	208.44
257.289	200.44
257.521	196.44
257.754	209.44
257.987	200.44
258.22	196.44
258.452	197.44
258.685	191.44
258.918	196.44
259.151	190.44
259.383	195.44
259.616	208.44
259.849	193.44
260.081	227.44
260.314	226.44
260.547	211.44
260.779	217.44
261.012	204.44
261.244	201.44
261.477	191.44
261.71	200.44
261.942	200.44
262.175	192.44
262.407	197.44
262.64	190.44
262.872	207.44
263.105	196.44
263.337	197.44
263.57	197.44
263.802	205.44
264.035	189.44
264.267	207.44
264.499	219.44
264.732	215.44
264.964	194.44
265.197	200.44
265.429	216.44
265.661	212.44
265.894	216.44
266.126	220.44
266.358	194.44
266.591	190.44
266.823	202.44
267.055	212.44
267.287	211.44
267.52	203.44
267.752	216.44
267.984	212.44
268.216	217.44
268.448	220.44
268.681	226.44
268.913	230.44
269.145	232.44
269.377	258.44
269.609	241.44
269.841	232.44
270.073	251.44
270.306	240.44
270.538	265.44
270.77	247.44
271.002	246.44
271.234	239.44
271.466	277.44
271.698	283.44
271.93	264.44
272.162	291.44
272.394	277.44
272.626	254.44
272.858	248.44
273.09	234.44
273.322	236.44
273.553	256.44
273.785	246.44
274.017	222.44
274.249	242.44
274.481	238.44
274.713	241.44
274.945	254.44
275.176	242.44
275.408	248.44
275.64	250.44
275.872	229.44
276.104	246.44
276.335	264.44
276.567	242.44
276.799	269.44
277.031	272.44
277.262	284.44
277.494	282.44
277.726	276.44
277.957	278.44
278.189	270.44
278.421	244.44
278.652	278.44
278.884	262.44
279.115	255.44
279.347	252.44
279.579	255.44
279.81	260.44
280.042	262.44
280.273	252.44
280.505	261.44
280.736	269.44
280.968	263.44
281.199	264.44
281.431	260.44
281.662	252.44
281.894	269.44
282.125	277.44
282.356	275.44
282.588	274.44
282.819	264.44
283.051	265.44
283.282	261.44
283.513	266.44
283.745	274.44
283.976	271.44
284.207	266.44
284.439	268.44
284.67	270.44
284.901	268.44
285.132	274.44
285.364	274.44
285.595	275.44
285.826	276.44
286.057	285.44
286.288	281.44
286.52	289.44
286.751	272.44
286.982	280.44
287.213	264.44
287.444	281.44
287.675	290.44
287.906	264.44
288.138	280.44
288.369	289.44
288.6	296.44
288.831	288.44
289.062	279.44
289.293	281.44
289.524	281.44
289.755	293.44
289.986	286.44
290.217	285.44
290.448	276.44
290.679	279.44
290.91	277.44
291.141	272.44
291.371	277.44
291.602	282.44
291.833	293.44
292.064	286.44
292.295	271.44
292.526	280.44
292.757	283.44
292.987	277.44
293.218	286.44
293.449	264.44
293.68	302.44
293.91	289.44
294.141	294.44
294.372	272.44
294.603	292.44
294.833	278.44
295.064	273.44
295.295	273.44
295.525	300.44
295.756	294.44
295.987	308.44
296.217	325.44
296.448	326.44
296.679	313.44
296.909	296.44
297.14	301.44
297.37	306.44
297.601	289.44
297.831	303.44
298.062	289.44
298.292	292.44
298.523	288.44
298.753	292.44
298.984	311.44
299.214	294.44
299.445	306.44
299.675	310.44
299.905	299.44
300.136	334.44
300.366	309.44
300.597	315.44
300.827	336.44
301.057	310.44
301.288	301.44
301.518	296.44
301.748	304.44
301.979	305.44
302.209	319.44
302.439	312.44
302.669	322.44
302.9	316.44
303.13	329.44
303.36	341.44
303.59	320.44
303.82	326.44
304.051	344.44
304.281	317.44
304.511	305.44
304.741	321.44
304.971	310.44
305.201	319.44
305.431	305.44
305.661	317.44
305.891	324.44
306.121	325.44
306.352	315.44
306.582	346.44
306.812	333.44
307.042	316.44
307.272	334.44
307.502	332.44
307.731	312.44
307.961	332.44
308.191	320.44
308.421	326.44
308.651	335.44
308.881	310.44
309.111	333.44
309.341	337.44
309.571	318.44
309.8	344.44
310.03	336.44
310.26	336.44
310.49	356.44
310.72	340.44
310.949	357.44
311.179	342.44
311.409	354.44
311.639	356.44
311.868	331.44
312.098	342.44
312.328	349.44
312.557	380.44
312.787	355.44
313.017	352.44
313.246	342.44
313.476	350.44
313.706	348.44
313.935	351.44
314.165	358.44
314.394	379.44
314.624	344.44
314.853	350.44
315.083	361.44
315.312	332.44
315.542	353.44
315.771	335.44
316.001	354.44
316.23	361.44
316.46	359.44
316.689	345.44
316.919	343.44
317.148	353.44
317.377	356.44
317.607	350.44
317.836	367.44
318.065	344.44
318.295	352.44
318.524	342.44
318.753	329.44
318.983	339.44
319.212	354.44
319.441	376.44
319.67	360.44
319.9	362.44
320.129	354.44
320.358	366.44
320.587	355.44
320.816	368.44
321.046	365.44
321.275	337.44
321.504	353.44
321.733	378.44
321.962	349.44
322.191	378.44
322.42	372.44
322.649	375.44
322.878	401.44
323.108	403.44
323.337	402.44
323.566	417.44
323.795	422.44
324.024	479.44
324.253	530.44
324.482	696.44
324.71	997.44
324.939	1363.44
325.168	1187.44
325.397	654.44
325.626	529.44
325.855	460.44
326.084	431.44
326.313	429.44
326.542	462.44
326.77	471.44
326.999	520.44
327.228	652.44
327.457	909.44
327.686	1094.44
327.914	761.44
328.143	585.44
328.372	529.44
328.6	495.44
328.829	465.44
329.058	484.44
329.287	479.44
329.515	476.44
329.744	484.44
329.972	469.44
330.201	502.44
330.43	555.44
330.658	543.44
330.887	534.44
331.115	511.44
331.344	454.44
331.572	418.44
331.801	447.44
332.03	456.44
332.258	442.44
332.486	461.44
332.715	465.44
332.943	449.44
333.172	460.44
333.4	485.44
333.629	455.44
333.857	497.44
334.085	535.44
334.314	551.44
334.542	598.44
334.771	614.44
334.999	552.44
335.227	497.44
335.455	453.44
335.684	454.44
335.912	440.44
336.14	424.44
336.369	430.44
336.597	448.44
336.825	441.44
337.053	432.44
337.281	410.44
337.51	424.44
337.738	405.44
337.966	408.44
338.194	401.44
338.422	412.44
338.65	408.44
338.878	411.44
339.106	426.44
339.334	401.44
339.562	386.44
339.79	381.44
340.018	392.44
340.246	397.44
340.474	401.44
340.702	393.44
340.93	405.44
341.158	383.44
341.386	406.44
341.614	392.44
341.842	381.44
342.07	390.44
342.298	395.44
342.526	384.44
342.754	374.44
342.981	390.44
343.209	374.44
343.437	402.44
343.665	409.44
343.893	434.44
344.12	427.44
344.348	436.44
344.576	406.44
344.804	427.44
345.031	411.44
345.259	383.44
345.487	389.44
345.714	396.44
345.942	373.44
346.17	391.44
346.397	386.44
346.625	370.44
346.853	372.44
347.08	382.44
347.308	368.44
347.535	369.44
347.763	386.44
347.99	389.44
348.218	378.44
348.445	402.44
348.673	372.44
348.9	378.44
349.128	377.44
349.355	376.44
349.583	366.44
349.81	362.44
350.037	372.44
350.265	357.44
350.492	372.44
350.72	361.44
350.947	371.44
351.174	376.44
351.402	365.44
351.629	390.44
351.856	374.44
352.083	382.44
352.311	356.44
352.538	357.44
352.765	372.44
352.992	365.44
353.22	380.44
353.447	376.44
353.674	339.44
353.901	346.44
354.128	351.44
354.355	356.44
354.583	357.44
354.81	348.44
355.037	344.44
355.264	349.44
355.491	346.44
355.718	349.44
355.945	359.44
356.172	356.44
356.399	332.44
356.626	357.44
356.853	349.44
357.08	346.44
357.307	355.44
357.534	338.44
357.761	329.44
357.988	366.44
358.215	364.44
358.441	358.44
358.668	330.44
358.895	349.44
359.122	356.44
359.349	361.44
359.576	334.44
359.802	394.44
360.029	394.44
360.256	379.44
360.483	392.44
360.709	375.44
360.936	367.44
361.163	361.44
361.39	356.44
361.616	353.44
361.843	354.44
362.07	343.44
362.296	362.44
362.523	369.44
362.749	351.44
362.976	361.44
363.203	356.44
363.429	356.44
363.656	342.44
363.882	359.44
364.109	359.44
364.335	354.44
364.562	346.44
364.788	358.44
365.015	357.44
365.241	364.44
365.468	338.44
365.694	358.44
365.92	350.44
366.147	346.44
366.373	357.44
366.599	347.44
366.826	336.44
367.052	368.44
367.278	357.44
367.505	356.44
367.731	347.44
367.957	329.44
368.184	337.44
368.41	343.44
368.636	353.44
368.862	385.44
369.089	356.44
369.315	346.44
369.541	348.44
369.767	344.44
369.993	356.44
370.219	348.44
370.445	384.44
370.672	356.44
370.898	361.44
371.124	357.44
371.35	365.44
371.576	367.44
371.802	371.44
372.028	360.44
372.254	352.44
372.48	361.44
372.706	378.44
372.932	374.44
373.158	381.44
373.384	369.44
373.61	358.44
373.835	352.44
374.061	367.44
374.287	349.44
374.513	369.44
374.739	370.44
374.965	400.44
375.191	382.44
375.416	381.44
375.642	373.44
375.868	386.44
376.094	369.44
376.319	356.44
376.545	361.44
376.771	374.44
376.997	345.44
377.222	350.44
377.448	344.44
377.674	363.44
377.899	375.44
378.125	348.44
378.35	332.44
378.576	360.44
378.802	322.44
379.027	344.44
379.253	361.44
379.478	359.44
379.704	350.44
379.929	357.44
380.155	361.44
380.38	345.44
380.606	352.44
380.831	362.44
381.057	355.44
381.282	354.44
381.507	359.44
381.733	359.44
381.958	357.44
382.184	364.44
382.409	365.44
382.634	354.44
382.86	360.44
383.085	379.44
383.31	362.44
383.535	378.44
383.761	402.44
383.986	381.44
384.211	398.44
384.436	379.44
384.662	400.44
384.887	389.44
385.112	391.44
385.337	384.44
385.562	398.44
385.787	403.44
386.013	411.44
386.238	382.44
386.463	402.44
386.688	407.44
386.913	422.44
387.138	390.44
387.363	406.44
387.588	415.44
387.813	406.44
388.038	425.44
388.263	414.44
388.488	397.44
388.713	402.44
388.938	395.44
389.163	414.44
389.387	393.44
389.612	408.44
389.837	386.44
390.062	400.44
390.287	414.44
390.512	405.44
390.736	395.44
390.961	392.44
391.186	407.44
391.411	409.44
391.636	398.44
391.86	404.44
392.085	436.44
392.31	432.44
392.534	436.44
392.759	410.44
392.984	421.44
393.208	408.44
393.433	417.44
393.658	404.44
393.882	426.44
394.107	392.44
394.331	416.44
394.556	422.44
394.78	431.44
395.005	402.44
395.229	406.44
395.454	416.44
395.678	431.44
395.903	446.44
396.127	443.44
396.352	442.44
396.576	416.44
396.801	440.44
397.025	423.44
397.249	422.44
397.474	422.44
397.698	429.44
397.922	445.44
398.147	451.44
398.371	471.44
398.595	477.44
398.82	474.44
399.044	468.44
399.268	505.44
399.492	578.44
399.717	612.44
399.941	638.44
400.165	610.44
400.389	590.44
400.613	568.44
400.837	500.44
401.062	478.44
401.286	487.44
401.51	502.44
401.734	476.44
401.958	474.44
402.182	485.44
402.406	500.44
402.63	465.44
402.854	500.44
403.078	493.44
403.302	512.44
403.526	513.44
403.75	518.44
403.974	519.44
404.198	510.44
404.422	520.44
404.645	528.44
404.869	519.44
405.093	550.44
405.317	576.44
405.541	600.44
405.765	554.44
405.988	521.44
406.212	560.44
406.436	553.44
406.66	565.44
406.883	536.44
407.107	557.44
407.331	611.44
407.555	644.44
407.778	632.44
408.002	582.44
408.226	565.44
408.449	545.44
408.673	536.44
408.896	561.44
409.12	589.44
409.344	566.44
409.567	524.44
409.791	503.44
410.014	511.44
410.238	512.44
410.461	509.44
410.685	519.44
410.908	502.44
411.132	536.44
411.355	541.44
411.578	532.44
411.802	496.44
412.025	491.44
412.249	520.44
412.472	516.44
412.695	552.44
412.919	553.44
413.142	525.44
413.365	515.44
413.589	472.44
413.812	493.44
414.035	476.44
414.258	483.44
414.482	459.44
414.705	481.44
414.928	470.44
415.151	478.44
415.374	453.44
415.597	474.44
415.821	444.44
416.044	447.44
416.267	463.44
416.49	469.44
416.713	466.44
416.936	470.44
417.159	456.44
417.382	471.44
417.605	452.44
417.828	475.44
418.051	485.44
418.274	473.44
418.497	473.44
418.72	471.44
418.943	470.44
419.166	490.44
419.389	506.44
419.611	516.44
419.834	492.44
420.057	508.44
420.28	524.44
420.503	521.44
420.726	495.44
420.948	512.44
421.171	525.44
421.394	529.44
421.617	497.44
421.839	484.44
422.062	481.44
422.285	476.44
422.507	520.44
422.73	567.44
422.953	557.44
423.175	513.44
423.398	493.44
423.621	519.44
423.843	518.44
424.066	484.44
424.288	503.44
424.511	510.44
424.733	545.44
424.956	575.44
425.178	548.44
425.401	548.44
425.623	577.44
425.846	530.44
426.068	482.44
426.291	479.44
426.513	472.44
426.735	480.44
426.958	497.44
427.18	559.44
427.402	636.44
427.625	684.44
427.847	589.44
428.069	548.44
428.292	496.44
428.514	482.44
428.736	468.44
428.958	457.44
429.181	426.44
429.403	441.44
429.625	452.44
429.847	462.44
430.069	506.44
430.292	506.44
430.514	445.44
430.736	439.44
430.958	436.44
431.18	442.44
431.402	424.44
431.624	428.44
431.846	438.44
432.068	440.44
432.29	423.44
432.512	423.44
432.734	439.44
432.956	434.44
433.178	438.44
433.4	460.44
433.622	427.44
433.844	426.44
434.066	427.44
434.287	432.44
434.509	457.44
434.731	470.44
434.953	460.44
435.175	461.44
435.397	486.44
435.618	490.44
435.84	490.44
436.062	557.44
436.284	577.44
436.505	488.44
436.727	464.44
436.949	461.44
437.17	444.44
437.392	438.44
437.614	464.44
437.835	461.44
438.057	494.44
438.278	580.44
438.5	554.44
438.721	602.44
438.943	592.44
439.165	489.44
439.386	484.44
439.608	462.44
439.829	447.44
440.05	487.44
440.272	516.44
440.493	484.44
440.715	474.44
440.936	474.44
441.158	456.44
441.379	447.44
441.6	468.44
441.822	475.44
442.043	536.44
442.264	537.44
442.486	574.44
442.707	509.44
442.928	508.44
443.149	480.44
443.371	498.44
443.592	537.44
443.813	565.44
444.034	609.44
444.255	555.44
444.476	531.44
444.698	514.44
444.919	553.44
445.14	594.44
445.361	578.44
445.582	540.44
445.803	539.44
446.024	585.44
446.245	585.44
446.466	544.44
446.687	495.44
446.908	483.44
447.129	441.44
447.35	447.44
447.571	447.44
447.792	427.44
448.013	417.44
448.234	415.44
448.455	485.44
448.675	528.44
448.896	596.44
449.117	508.44
449.338	490.44
449.559	557.44
449.779	611.44
450	516.44
450.221	453.44
450.442	423.44
450.662	406.44
450.883	422.44
451.104	420.44
451.324	401.44
451.545	411.44
451.766	401.44
451.986	410.44
452.207	401.44
452.428	386.44
452.648	406.44
452.869	389.44
453.089	404.44
453.31	438.44
453.53	397.44
453.751	385.44
453.971	386.44
454.192	428.44
454.412	386.44
454.633	375.44
454.853	394.44
455.073	383.44
455.294	395.44
455.514	424.44
455.734	433.44
455.955	412.44
456.175	379.44
456.395	372.44
456.616	375.44
456.836	378.44
457.056	372.44
457.276	382.44
457.497	382.44
457.717	378.44
457.937	367.44
458.157	384.44
458.377	390.44
458.598	395.44
458.818	438.44
459.038	467.44
459.258	488.44
459.478	466.44
459.698	436.44
459.918	437.44
460.138	429.44
460.358	466.44
460.578	474.44
460.798	460.44
461.018	494.44
461.238	492.44
461.458	450.44
461.678	441.44
461.898	466.44
462.118	461.44
462.338	493.44
462.558	498.44
462.777	497.44
462.997	537.44
463.217	560.44
463.437	540.44
463.657	535.44
463.876	520.44
464.096	554.44
464.316	527.44
464.536	509.44
464.755	495.44
464.975	495.44
465.195	494.44
465.414	504.44
465.634	484.44
465.854	445.44
466.073	448.44
466.293	411.44
466.512	422.44
466.732	422.44
466.951	424.44
467.171	405.44
467.391	416.44
467.61	411.44
467.829	413.44
468.049	428.44
468.268	439.44
468.488	417.44
468.707	413.44
468.927	409.44
469.146	405.44
469.365	392.44
469.585	394.44
469.804	406.44
470.023	424.44
470.243	417.44
470.462	442.44
470.681	456.44
470.901	441.44
471.12	418.44
471.339	418.44
471.558	403.44
471.777	431.44
471.997	431.44
472.216	440.44
472.435	475.44
472.654	453.44
472.873	441.44
473.092	414.44
473.311	400.44
473.53	402.44
473.749	402.44
473.968	433.44
474.187	447.44
474.406	493.44
474.625	444.44
474.844	414.44
475.063	400.44
475.282	426.44
475.501	413.44
475.72	416.44
475.939	412.44
476.158	428.44
476.377	420.44
476.596	410.44
476.814	428.44
477.033	412.44
477.252	421.44
477.471	444.44
477.69	447.44
477.908	455.44
478.127	461.44
478.346	454.44
478.564	447.44
478.783	490.44
479.002	470.44
479.22	490.44
479.439	507.44
479.658	478.44
479.876	494.44
480.095	516.44
480.313	530.44
480.532	530.44
480.751	536.44
480.969	548.44
481.188	600.44
481.406	652.44
481.624	564.44
481.843	529.44
482.061	490.44
482.28	497.44
482.498	471.44
482.717	479.44
482.935	469.44
483.153	474.44
483.372	478.44
483.59	465.44
483.808	460.44
484.027	481.44
484.245	472.44
484.463	461.44
484.681	460.44
484.9	501.44
485.118	474.44
485.336	486.44
485.554	489.44
485.772	485.44
485.99	480.44
486.209	482.44
486.427	489.44
486.645	489.44
486.863	496.44
487.081	519.44
487.299	497.44
487.517	504.44
487.735	496.44
487.953	491.44
488.171	482.44
488.389	477.44
488.607	503.44
488.825	507.44
489.043	507.44
489.261	489.44
489.479	502.44
489.696	516.44
489.914	507.44
490.132	511.44
490.35	518.44
490.568	520.44
490.786	535.44
491.003	571.44
491.221	550.44
491.439	554.44
491.657	545.44
491.874	544.44
492.092	562.44
492.31	581.44
492.527	582.44
492.745	612.44
492.963	604.44
493.18	593.44
493.398	577.44
493.615	568.44
493.833	573.44
494.05	556.44
494.268	592.44
494.485	576.44
494.703	564.44
494.92	567.44
495.138	560.44
495.355	579.44
495.573	567.44
495.79	566.44
496.008	567.44
496.225	555.44
496.442	554.44
496.66	561.44
496.877	584.44
497.094	600.44
497.312	581.44
497.529	578.44
497.746	615.44
497.963	606.44
498.181	630.44
498.398	646.44
498.615	681.44
498.832	685.44
499.049	717.44
499.267	745.44
499.484	800.44
499.701	852.44
499.918	902.44
500.135	988.44
500.352	1067.44
500.569	1103.44
500.786	1131.44
501.003	1060.44
501.22	974.44
501.437	923.44
501.654	863.44
501.871	810.44
502.088	764.44
502.305	724.44
502.522	691.44
502.739	696.44
502.956	653.44
503.172	623.44
503.389	638.44
503.606	616.44
503.823	620.44
504.04	611.44
504.256	610.44
504.473	605.44
504.69	579.44
504.907	598.44
505.123	590.44
505.34	566.44
505.557	536.44
505.773	526.44
505.99	542.44
506.207	529.44
506.423	532.44
506.64	503.44
506.856	508.44
507.073	497.44
507.289	482.44
507.506	485.44
507.722	491.44
507.939	508.44
508.155	509.44
508.372	488.44
508.588	472.44
508.805	479.44
509.021	504.44
509.238	504.44
509.454	515.44
509.67	487.44
509.887	498.44
510.103	468.44
510.319	480.44
510.536	547.44
510.752	818.44
510.968	648.44
511.184	496.44
511.401	478.44
511.617	485.44
511.833	487.44
512.049	477.44
512.265	502.44
512.481	489.44
512.698	476.44
512.914	444.44
513.13	435.44
513.346	468.44
513.562	461.44
513.778	476.44
513.994	470.44
514.21	463.44
514.426	487.44
514.642	504.44
514.858	512.44
515.074	535.44
515.29	606.44
515.506	808.44
515.721	678.44
515.937	528.44
516.153	510.44
516.369	509.44
516.585	501.44
516.801	497.44
517.016	542.44
517.232	546.44
517.448	528.44
517.664	552.44
517.879	558.44
518.095	579.44
518.311	543.44
518.527	537.44
518.742	526.44
518.958	499.44
519.173	509.44
519.389	497.44
519.605	485.44
519.82	477.44
520.036	473.44
520.251	486.44
520.467	487.44
520.682	493.44
520.898	465.44
521.113	501.44
521.329	496.44
521.544	570.44
521.76	669.44
521.975	952.44
522.19	930.44
522.406	602.44
522.621	501.44
522.836	468.44
523.052	456.44
523.267	426.44
523.482	437.44
523.698	436.44
523.913	409.44
524.128	465.44
524.343	442.44
524.559	423.44
524.774	421.44
524.989	416.44
525.204	422.44
525.419	422.44
525.634	406.44
525.849	408.44
526.064	402.44
526.28	405.44
526.495	394.44
526.71	396.44
526.925	412.44
527.14	399.44
527.355	396.44
527.57	397.44
527.785	417.44
527.999	390.44
528.214	382.44
528.429	405.44
528.644	398.44
528.859	426.44
529.074	400.44
529.289	397.44
529.503	450.44
529.718	428.44
529.933	416.44
530.148	392.44
530.363	403.44
530.577	393.44
530.792	380.44
531.007	392.44
531.221	386.44
531.436	399.44
531.651	388.44
531.865	414.44
532.08	396.44
532.295	409.44
532.509	381.44
532.724	398.44
532.938	402.44
533.153	397.44
533.367	386.44
533.582	403.44
533.796	406.44
534.011	411.44
534.225	390.44
534.44	392.44
534.654	399.44
534.868	395.44
535.083	394.44
535.297	365.44
535.511	394.44
535.726	376.44
535.94	376.44
536.154	400.44
536.369	378.44
536.583	389.44
536.797	378.44
537.011	374.44
537.225	375.44
537.44	378.44
537.654	382.44
537.868	384.44
538.082	377.44
538.296	375.44
538.51	384.44
538.724	336.44
538.938	363.44
539.153	390.44
539.367	368.44
539.581	368.44
539.795	354.44
540.009	371.44
540.222	368.44
540.436	354.44
540.65	367.44
540.864	373.44
541.078	359.44
541.292	353.44
541.506	371.44
541.72	356.44
541.934	372.44
542.147	390.44
542.361	372.44
542.575	368.44
542.789	370.44
543.002	377.44
543.216	363.44
543.43	370.44
543.644	374.44
543.857	372.44
544.071	348.44
544.285	390.44
544.498	366.44
544.712	376.44
544.925	372.44
545.139	373.44
545.352	378.44
545.566	369.44
545.779	377.44
545.993	397.44
546.206	359.44
546.42	355.44
546.633	364.44
546.847	376.44
547.06	377.44
547.274	354.44
547.487	367.44
547.7	367.44
547.914	360.44
548.127	372.44
548.34	365.44
548.554	355.44
548.767	368.44
548.98	367.44
549.193	369.44
549.407	357.44
549.62	350.44
549.833	365.44
550.046	371.44
550.259	382.44
550.473	372.44
550.686	356.44
550.899	366.44
551.112	342.44
551.325	332.44
551.538	354.44
551.751	365.44
551.964	361.44
552.177	364.44
552.39	373.44
552.603	389.44
552.816	373.44
553.029	394.44
553.242	391.44
553.455	393.44
553.667	408.44
553.88	396.44
554.093	409.44
554.306	390.44
554.519	401.44
554.732	381.44
554.944	350.44
555.157	373.44
555.37	348.44
555.583	364.44
555.795	350.44
556.008	333.44
556.221	357.44
556.433	340.44
556.646	341.44
556.859	324.44
557.071	331.44
557.284	327.44
557.496	322.44
557.709	322.44
557.921	341.44
558.134	326.44
558.346	337.44
558.559	333.44
558.771	320.44
558.984	326.44
559.196	328.44
559.409	329.44
559.621	305.44
559.833	328.44
560.046	329.44
560.258	318.44
560.47	321.44
560.683	314.44
560.895	325.44
561.107	328.44
561.32	321.44
561.532	311.44
561.744	335.44
561.956	313.44
562.168	324.44
562.381	325.44
562.593	341.44
562.805	337.44
563.017	334.44
563.229	332.44
563.441	344.44
563.653	343.44
563.865	334.44
564.077	328.44
564.289	350.44
564.501	332.44
564.713	340.44
564.925	352.44
565.137	353.44
565.349	363.44
565.561	375.44
565.773	367.44
565.985	379.44
566.197	380.44
566.408	437.44
566.62	442.44
566.832	440.44
567.044	460.44
567.255	445.44
567.467	453.44
567.679	498.44
567.891	496.44
568.102	500.44
568.314	506.44
568.526	460.44
568.737	431.44
568.949	417.44
569.161	410.44
569.372	358.44
569.584	359.44
569.795	356.44
570.007	356.44
570.218	382.44
570.43	359.44
570.641	367.44
570.853	346.44
571.064	349.44
571.276	342.44
571.487	317.44
571.698	342.44
571.91	306.44
572.121	319.44
572.333	300.44
572.544	302.44
572.755	305.44
572.966	305.44
573.178	287.44
573.389	303.44
573.6	281.44
573.811	284.44
574.023	290.44
574.234	272.44
574.445	282.44
574.656	308.44
574.867	298.44
575.078	295.44
575.289	309.44
575.501	292.44
575.712	304.44
575.923	273.44
576.134	286.44
576.345	282.44
576.556	280.44
576.767	273.44
576.978	292.44
577.188	281.44
577.399	281.44
577.61	253.44
577.821	264.44
578.032	260.44
578.243	286.44
578.454	389.44
578.665	320.44
578.875	288.44
579.086	287.44
579.297	267.44
579.508	283.44
579.718	264.44
579.929	269.44
580.14	275.44
580.35	261.44
580.561	251.44
580.772	253.44
580.982	263.44
581.193	249.44
581.403	272.44
581.614	274.44
581.825	268.44
582.035	253.44
582.246	245.44
582.456	261.44
582.667	267.44
582.877	255.44
583.087	253.44
583.298	275.44
583.508	261.44
583.719	262.44
583.929	256.44
584.139	253.44
584.35	234.44
584.56	266.44
584.77	258.44
584.981	239.44
585.191	267.44
585.401	253.44
585.611	240.44
585.821	248.44
586.032	265.44
586.242	254.44
586.452	229.44
586.662	246.44
586.872	251.44
587.082	252.44
587.292	240.44
587.502	254.44
587.713	249.44
587.923	252.44
588.133	253.44
588.343	253.44
588.553	252.44
588.762	249.44
588.972	239.44
589.182	265.44
589.392	263.44
589.602	249.44
589.812	262.44
590.022	278.44
590.232	241.44
590.441	264.44
590.651	242.44
590.861	244.44
591.071	262.44
591.281	249.44
591.49	260.44
591.7	264.44
591.91	266.44
592.119	271.44
592.329	279.44
592.539	276.44
592.748	283.44
592.958	299.44
593.167	273.44
593.377	284.44
593.587	286.44
593.796	292.44
594.006	291.44
594.215	307.44
594.424	310.44
594.634	281.44
594.843	275.44
595.053	280.44
595.262	289.44
595.472	277.44
595.681	242.44
595.89	271.44
596.1	266.44
596.309	247.44
596.518	245.44
596.727	246.44
596.937	240.44
597.146	242.44
597.355	232.44
597.564	240.44
597.774	222.44
597.983	220.44
598.192	247.44
598.401	230.44
598.61	228.44
598.819	232.44
599.028	219.44
599.237	233.44
599.446	223.44
599.655	227.44
599.864	231.44
600.073	218.44
600.282	239.44
600.491	221.44
600.7	219.44
600.909	224.44
601.118	217.44
601.327	214.44
601.536	218.44
601.745	208.44
601.953	225.44
602.162	222.44
602.371	223.44
602.58	214.44
602.789	221.44
602.997	223.44
603.206	209.44
603.415	217.44
603.623	212.44
603.832	214.44
604.041	209.44
604.249	219.44
604.458	200.44
604.666	208.44
604.875	209.44
605.084	213.44
605.292	218.44
605.501	199.44
605.709	215.44
605.918	226.44
606.126	221.44
606.334	216.44
606.543	198.44
606.751	214.44
606.96	229.44
607.168	204.44
607.376	204.44
607.585	214.44
607.793	207.44
608.001	206.44
608.21	190.44
608.418	200.44
608.626	204.44
608.834	195.44
609.043	202.44
609.251	205.44
609.459	198.44
609.667	207.44
609.875	223.44
610.083	211.44
610.291	210.44
610.499	206.44
610.707	218.44
610.916	191.44
611.124	223.44
611.332	215.44
611.54	225.44
611.748	217.44
611.955	203.44
612.163	215.44
612.371	227.44
612.579	220.44
612.787	199.44
612.995	210.44
613.203	206.44
613.411	206.44
613.618	219.44
613.826	197.44
614.034	210.44
614.242	214.44
614.449	202.44
614.657	199.44
614.865	194.44
615.072	214.44
615.28	218.44
615.488	198.44
615.695	185.44
615.903	202.44
616.111	209.44
616.318	202.44
616.526	200.44
616.733	196.44
616.941	206.44
617.148	218.44
617.356	200.44
617.563	197.44
617.771	183.44
617.978	193.44
618.185	197.44
618.393	216.44
618.6	194.44
618.807	203.44
619.015	201.44
619.222	190.44
619.429	189.44
619.637	208.44
619.844	204.44
620.051	205.44
620.258	176.44
620.466	182.44
620.673	194.44
620.88	182.44
621.087	184.44
621.294	186.44
621.501	205.44
621.708	177.44
621.915	192.44
622.122	194.44
622.329	202.44
622.536	188.44
622.743	184.44
622.95	198.44
623.157	188.44
623.364	185.44
623.571	186.44
623.778	195.44
623.985	197.44
624.192	182.44
624.399	204.44
624.606	194.44
624.812	183.44
625.019	194.44
625.226	189.44
625.433	188.44
625.639	185.44
625.846	167.44
626.053	172.44
626.259	185.44
626.466	164.44
626.673	195.44
626.879	170.44
627.086	175.44
627.293	181.44
627.499	168.44
627.706	160.44
627.912	174.44
628.119	172.44
628.325	187.44
628.532	189.44
628.738	181.44
628.945	184.44
629.151	184.44
629.357	165.44
629.564	168.44
629.77	170.44
629.976	167.44
630.183	174.44
630.389	166.44
630.595	183.44
630.802	171.44
631.008	186.44
631.214	176.44
631.42	182.44
631.627	170.44
631.833	175.44
632.039	175.44
632.245	185.44
632.451	184.44
632.657	184.44
632.863	171.44
633.069	182.44
633.275	174.44
633.481	184.44
633.688	154.44
633.893	188.44
634.099	158.44
634.305	161.44
634.511	149.44
634.717	168.44
634.923	166.44
635.129	160.44
635.335	140.44
635.541	155.44
635.747	168.44
635.952	162.44
636.158	163.44
636.364	184.44
636.57	176.44
636.775	175.44
636.981	161.44
637.187	152.44
637.392	157.44
637.598	161.44
637.804	169.44
638.009	165.44
638.215	160.44
638.421	153.44
638.626	147.44
638.832	156.44
639.037	161.44
639.243	166.44
639.448	178.44
639.654	154.44
639.859	165.44
640.065	144.44
640.27	156.44
640.475	160.44
640.681	155.44
640.886	149.44
641.091	166.44
641.297	154.44
641.502	160.44
641.707	159.44
641.913	149.44
642.118	143.44
642.323	145.44
642.528	144.44
642.733	159.44
642.939	160.44
643.144	147.44
643.349	156.44
643.554	142.44
643.759	144.44
643.964	146.44
644.169	158.44
644.374	157.44
644.579	181.44
644.784	152.44
644.989	149.44
645.194	143.44
645.399	145.44
645.604	152.44
645.809	140.44
646.014	146.44
646.219	145.44
646.423	155.44
646.628	140.44
646.833	150.44
647.038	162.44
647.243	151.44
647.447	166.44
647.652	168.44
647.857	138.44
648.062	172.44
648.266	178.44
648.471	153.44
648.676	161.44
648.88	149.44
649.085	160.44
649.289	152.44
649.494	162.44
649.698	163.44
649.903	162.44
650.107	143.44
650.312	138.44
650.516	136.44
650.721	143.44
650.925	139.44
651.13	154.44
651.334	144.44
651.539	139.44
651.743	136.44
651.947	148.44
652.152	122.44
652.356	125.44
652.56	131.44
652.764	134.44
652.969	140.44
653.173	130.44
653.377	132.44
653.581	132.44
653.785	129.44
653.99	135.44
654.194	135.44
654.398	137.44
654.602	120.44
654.806	137.44
655.01	134.44
655.214	144.44
655.418	138.44
655.622	132.44
655.826	128.44
656.03	119.44
656.234	126.44
656.438	140.44
656.642	129.44
656.846	132.44
657.049	127.44
657.253	124.44
657.457	116.44
657.661	113.44
657.865	101.44
658.068	109.44
658.272	132.44
658.476	112.44
658.68	110.44
658.883	97.44
659.087	111.44
659.291	97.44
659.494	99.44
659.698	95.44
659.901	95.44
660.105	82.44
660.309	103.44
660.512	80.44
660.716	99.44
660.919	84.44
661.123	96.44
661.326	96.44
661.53	91.44
661.733	104.44
661.936	97.44
662.14	90.44
662.343	81.44
662.546	91.44
662.75	99.44
662.953	100.44
663.156	97.44
663.36	89.44
663.563	91.44
663.766	91.44
663.969	94.44
664.173	87.44
664.376	82.44
664.579	78.44
664.782	85.44
664.985	70.44
665.188	65.44
665.391	101.44
665.594	98.44
665.797	87.44
666	85.44
666.203	91.44
666.406	86.44
666.609	97.44
666.812	91.44
667.015	92.44
667.218	80.44
667.421	81.44
667.624	85.44
667.827	97.44
668.03	90.44
668.232	89.44
668.435	83.44
668.638	85.44
668.841	78.44
669.043	81.44
669.246	92.44
669.449	73.44
669.651	90.44
669.854	91.44
670.057	93.44
670.259	79.44
670.462	97.44
670.665	96.44
670.867	88.44
671.07	92.44
671.272	100.44
671.475	92.44
671.677	86.44
671.88	97.44
672.082	81.44
672.284	77.44
672.487	103.44
672.689	81.44
672.892	97.44
