Data from 1985.PennyLincolnUp.Lamp.En5.5.200Scan.071819.P1_HRD10591_17-01-53-970.txt Node
Date: Thu Jul 18 17:01:53 EDT 2019
User: cochatt
Spectrometer: HR+D1059
Trigger mode: 1
Integration Time (sec): 1.000000E-1
Scans to average: 1
Electric dark correction enabled: true
Nonlinearity correction enabled: false
Boxcar width: 0
XAxis mode: Wavelengths
Number of Pixels in Spectrum: 2048
>>>>>Begin Spectral Data<<<<<
223.165	-11.44
223.4	-11.44
223.635	-11.44
223.869	-19.44
224.104	-21.44
224.338	-5.44
224.573	-17.44
224.808	-19.44
225.042	-4.44
225.277	2.56
225.511	-8.44
225.746	-11.44
225.98	5.56
226.215	19.56
226.449	26.56
226.683	11.56
226.918	22.56
227.152	30.56
227.387	40.56
227.621	28.56
227.856	23.56
228.09	53.56
228.324	42.56
228.559	55.56
228.793	62.56
229.027	94.56
229.262	101.56
229.496	106.56
229.73	124.56
229.964	139.56
230.199	128.56
230.433	124.56
230.667	125.56
230.901	106.56
231.136	120.56
231.37	108.56
231.604	127.56
231.838	124.56
232.072	114.56
232.306	106.56
232.541	104.56
232.775	116.56
233.009	119.56
233.243	132.56
233.477	119.56
233.711	96.56
233.945	123.56
234.179	130.56
234.413	129.56
234.647	127.56
234.881	129.56
235.115	118.56
235.349	121.56
235.583	118.56
235.817	116.56
236.051	130.56
236.285	120.56
236.519	122.56
236.753	124.56
236.987	149.56
237.221	183.56
237.455	230.56
237.689	162.56
237.922	122.56
238.156	146.56
238.39	142.56
238.624	122.56
238.858	122.56
239.091	117.56
239.325	138.56
239.559	139.56
239.793	130.56
240.027	150.56
240.26	139.56
240.494	143.56
240.728	147.56
240.961	155.56
241.195	142.56
241.429	142.56
241.662	132.56
241.896	134.56
242.13	127.56
242.363	128.56
242.597	133.56
242.83	148.56
243.064	130.56
243.298	141.56
243.531	134.56
243.765	140.56
243.998	136.56
244.232	143.56
244.465	160.56
244.699	148.56
244.932	145.56
245.166	137.56
245.399	150.56
245.633	144.56
245.866	156.56
246.099	153.56
246.333	164.56
246.566	152.56
246.8	142.56
247.033	150.56
247.266	162.56
247.5	168.56
247.733	168.56
247.966	166.56
248.2	191.56
248.433	169.56
248.666	172.56
248.899	190.56
249.133	191.56
249.366	203.56
249.599	171.56
249.832	160.56
250.066	170.56
250.299	186.56
250.532	173.56
250.765	201.56
250.998	205.56
251.231	220.56
251.465	205.56
251.698	163.56
251.931	194.56
252.164	189.56
252.397	181.56
252.63	200.56
252.863	190.56
253.096	207.56
253.329	218.56
253.562	213.56
253.795	187.56
254.028	213.56
254.261	206.56
254.494	229.56
254.727	244.56
254.96	270.56
255.193	246.56
255.426	225.56
255.659	216.56
255.892	213.56
256.124	216.56
256.357	219.56
256.59	211.56
256.823	212.56
257.056	205.56
257.289	196.56
257.521	205.56
257.754	197.56
257.987	197.56
258.22	197.56
258.452	215.56
258.685	196.56
258.918	182.56
259.151	194.56
259.383	228.56
259.616	218.56
259.849	218.56
260.081	219.56
260.314	244.56
260.547	228.56
260.779	246.56
261.012	228.56
261.244	231.56
261.477	226.56
261.71	211.56
261.942	221.56
262.175	226.56
262.407	239.56
262.64	227.56
262.872	214.56
263.105	216.56
263.337	208.56
263.57	207.56
263.802	212.56
264.035	234.56
264.267	218.56
264.499	213.56
264.732	220.56
264.964	227.56
265.197	220.56
265.429	247.56
265.661	215.56
265.894	211.56
266.126	217.56
266.358	217.56
266.591	230.56
266.823	239.56
267.055	215.56
267.287	245.56
267.52	234.56
267.752	244.56
267.984	260.56
268.216	246.56
268.448	266.56
268.681	259.56
268.913	242.56
269.145	270.56
269.377	284.56
269.609	265.56
269.841	260.56
270.073	281.56
270.306	289.56
270.538	309.56
270.77	319.56
271.002	317.56
271.234	298.56
271.466	306.56
271.698	304.56
271.93	298.56
272.162	301.56
272.394	303.56
272.626	302.56
272.858	294.56
273.09	281.56
273.322	282.56
273.553	258.56
273.785	272.56
274.017	266.56
274.249	271.56
274.481	269.56
274.713	276.56
274.945	284.56
275.176	278.56
275.408	278.56
275.64	271.56
275.872	271.56
276.104	291.56
276.335	280.56
276.567	283.56
276.799	288.56
277.031	317.56
277.262	331.56
277.494	340.56
277.726	318.56
277.957	296.56
278.189	293.56
278.421	298.56
278.652	309.56
278.884	284.56
279.115	276.56
279.347	283.56
279.579	289.56
279.81	291.56
280.042	280.56
280.273	287.56
280.505	275.56
280.736	307.56
280.968	292.56
281.199	285.56
281.431	301.56
281.662	280.56
281.894	274.56
282.125	301.56
282.356	306.56
282.588	326.56
282.819	317.56
283.051	301.56
283.282	299.56
283.513	315.56
283.745	287.56
283.976	301.56
284.207	319.56
284.439	300.56
284.67	310.56
284.901	295.56
285.132	300.56
285.364	310.56
285.595	307.56
285.826	292.56
286.057	306.56
286.288	310.56
286.52	296.56
286.751	300.56
286.982	322.56
287.213	322.56
287.444	313.56
287.675	309.56
287.906	339.56
288.138	323.56
288.369	319.56
288.6	339.56
288.831	330.56
289.062	320.56
289.293	303.56
289.524	320.56
289.755	319.56
289.986	319.56
290.217	311.56
290.448	316.56
290.679	319.56
290.91	299.56
291.141	319.56
291.371	320.56
291.602	322.56
291.833	324.56
292.064	333.56
292.295	324.56
292.526	308.56
292.757	323.56
292.987	327.56
293.218	317.56
293.449	322.56
293.68	316.56
293.91	334.56
294.141	333.56
294.372	328.56
294.603	323.56
294.833	327.56
295.064	317.56
295.295	336.56
295.525	323.56
295.756	336.56
295.987	333.56
296.217	352.56
296.448	365.56
296.679	347.56
296.909	318.56
297.14	324.56
297.37	314.56
297.601	335.56
297.831	329.56
298.062	341.56
298.292	331.56
298.523	360.56
298.753	335.56
298.984	340.56
299.214	354.56
299.445	355.56
299.675	335.56
299.905	357.56
300.136	342.56
300.366	351.56
300.597	370.56
300.827	370.56
301.057	370.56
301.288	374.56
301.518	356.56
301.748	347.56
301.979	363.56
302.209	360.56
302.439	365.56
302.669	366.56
302.9	367.56
303.13	362.56
303.36	373.56
303.59	357.56
303.82	364.56
304.051	382.56
304.281	338.56
304.511	364.56
304.741	364.56
304.971	379.56
305.201	366.56
305.431	376.56
305.661	372.56
305.891	363.56
306.121	360.56
306.352	380.56
306.582	353.56
306.812	370.56
307.042	365.56
307.272	374.56
307.502	356.56
307.731	349.56
307.961	376.56
308.191	370.56
308.421	380.56
308.651	371.56
308.881	355.56
309.111	372.56
309.341	384.56
309.571	381.56
309.8	379.56
310.03	387.56
310.26	379.56
310.49	380.56
310.72	404.56
310.949	424.56
311.179	414.56
311.409	402.56
311.639	374.56
311.868	426.56
312.098	410.56
312.328	420.56
312.557	408.56
312.787	437.56
313.017	419.56
313.246	408.56
313.476	411.56
313.706	405.56
313.935	408.56
314.165	420.56
314.394	413.56
314.624	411.56
314.853	406.56
315.083	406.56
315.312	406.56
315.542	403.56
315.771	411.56
316.001	415.56
316.23	396.56
316.46	416.56
316.689	421.56
316.919	405.56
317.148	406.56
317.377	431.56
317.607	427.56
317.836	423.56
318.065	418.56
318.295	421.56
318.524	410.56
318.753	398.56
318.983	404.56
319.212	397.56
319.441	410.56
319.67	443.56
319.9	422.56
320.129	425.56
320.358	397.56
320.587	429.56
320.816	413.56
321.046	435.56
321.275	436.56
321.504	422.56
321.733	437.56
321.962	420.56
322.191	440.56
322.42	454.56
322.649	464.56
322.878	456.56
323.108	467.56
323.337	469.56
323.566	529.56
323.795	543.56
324.024	564.56
324.253	638.56
324.482	891.56
324.71	1292.56
324.939	1833.56
325.168	1561.56
325.397	845.56
325.626	636.56
325.855	548.56
326.084	534.56
326.313	515.56
326.542	523.56
326.77	554.56
326.999	618.56
327.228	823.56
327.457	1194.56
327.686	1352.56
327.914	948.56
328.143	677.56
328.372	605.56
328.6	559.56
328.829	549.56
329.058	563.56
329.287	552.56
329.515	574.56
329.744	526.56
329.972	505.56
330.201	506.56
330.43	523.56
330.658	535.56
330.887	585.56
331.115	581.56
331.344	525.56
331.572	520.56
331.801	480.56
332.03	510.56
332.258	507.56
332.486	513.56
332.715	489.56
332.943	502.56
333.172	510.56
333.4	493.56
333.629	491.56
333.857	526.56
334.085	524.56
334.314	544.56
334.542	528.56
334.771	529.56
334.999	499.56
335.227	512.56
335.455	509.56
335.684	493.56
335.912	510.56
336.14	478.56
336.369	484.56
336.597	500.56
336.825	498.56
337.053	495.56
337.281	499.56
337.51	486.56
337.738	516.56
337.966	489.56
338.194	482.56
338.422	482.56
338.65	474.56
338.878	483.56
339.106	474.56
339.334	468.56
339.562	466.56
339.79	452.56
340.018	471.56
340.246	464.56
340.474	473.56
340.702	477.56
340.93	469.56
341.158	449.56
341.386	461.56
341.614	475.56
341.842	492.56
342.07	443.56
342.298	447.56
342.526	452.56
342.754	459.56
342.981	439.56
343.209	451.56
343.437	460.56
343.665	486.56
343.893	503.56
344.12	492.56
344.348	506.56
344.576	471.56
344.804	487.56
345.031	456.56
345.259	472.56
345.487	448.56
345.714	468.56
345.942	470.56
346.17	429.56
346.397	442.56
346.625	442.56
346.853	421.56
347.08	442.56
347.308	452.56
347.535	442.56
347.763	445.56
347.99	454.56
348.218	442.56
348.445	454.56
348.673	475.56
348.9	447.56
349.128	435.56
349.355	414.56
349.583	414.56
349.81	440.56
350.037	435.56
350.265	424.56
350.492	442.56
350.72	439.56
350.947	436.56
351.174	452.56
351.402	446.56
351.629	436.56
351.856	430.56
352.083	422.56
352.311	429.56
352.538	450.56
352.765	446.56
352.992	447.56
353.22	438.56
353.447	456.56
353.674	430.56
353.901	422.56
354.128	400.56
354.355	422.56
354.583	421.56
354.81	407.56
355.037	418.56
355.264	430.56
355.491	424.56
355.718	408.56
355.945	440.56
356.172	411.56
356.399	431.56
356.626	407.56
356.853	393.56
357.08	386.56
357.307	413.56
357.534	413.56
357.761	416.56
357.988	414.56
358.215	427.56
358.441	414.56
358.668	400.56
358.895	429.56
359.122	414.56
359.349	442.56
359.576	442.56
359.802	435.56
360.029	474.56
360.256	463.56
360.483	448.56
360.709	418.56
360.936	437.56
361.163	414.56
361.39	425.56
361.616	444.56
361.843	447.56
362.07	426.56
362.296	428.56
362.523	431.56
362.749	434.56
362.976	422.56
363.203	438.56
363.429	423.56
363.656	408.56
363.882	428.56
364.109	412.56
364.335	407.56
364.562	416.56
364.788	410.56
365.015	422.56
365.241	428.56
365.468	431.56
365.694	451.56
365.92	418.56
366.147	407.56
366.373	427.56
366.599	428.56
366.826	431.56
367.052	400.56
367.278	426.56
367.505	420.56
367.731	406.56
367.957	441.56
368.184	413.56
368.41	414.56
368.636	424.56
368.862	431.56
369.089	421.56
369.315	414.56
369.541	416.56
369.767	393.56
369.993	416.56
370.219	409.56
370.445	420.56
370.672	416.56
370.898	429.56
371.124	400.56
371.35	432.56
371.576	414.56
371.802	408.56
372.028	423.56
372.254	415.56
372.48	416.56
372.706	412.56
372.932	419.56
373.158	425.56
373.384	419.56
373.61	416.56
373.835	430.56
374.061	403.56
374.287	420.56
374.513	427.56
374.739	424.56
374.965	455.56
375.191	464.56
375.416	447.56
375.642	428.56
375.868	432.56
376.094	411.56
376.319	432.56
376.545	428.56
376.771	439.56
376.997	406.56
377.222	424.56
377.448	403.56
377.674	411.56
377.899	413.56
378.125	414.56
378.35	409.56
378.576	431.56
378.802	422.56
379.027	451.56
379.253	404.56
379.478	412.56
379.704	420.56
379.929	428.56
380.155	424.56
380.38	419.56
380.606	434.56
380.831	406.56
381.057	435.56
381.282	427.56
381.507	407.56
381.733	439.56
381.958	437.56
382.184	418.56
382.409	438.56
382.634	454.56
382.86	438.56
383.085	436.56
383.31	451.56
383.535	441.56
383.761	466.56
383.986	435.56
384.211	455.56
384.436	447.56
384.662	465.56
384.887	470.56
385.112	453.56
385.337	452.56
385.562	456.56
385.787	464.56
386.013	495.56
386.238	497.56
386.463	484.56
386.688	458.56
386.913	457.56
387.138	481.56
387.363	464.56
387.588	465.56
387.813	459.56
388.038	468.56
388.263	483.56
388.488	468.56
388.713	462.56
388.938	477.56
389.163	460.56
389.387	469.56
389.612	463.56
389.837	454.56
390.062	450.56
390.287	455.56
390.512	467.56
390.736	478.56
390.961	471.56
391.186	466.56
391.411	484.56
391.636	470.56
391.86	486.56
392.085	528.56
392.31	493.56
392.534	491.56
392.759	484.56
392.984	494.56
393.208	465.56
393.433	461.56
393.658	494.56
393.882	481.56
394.107	479.56
394.331	492.56
394.556	461.56
394.78	485.56
395.005	502.56
395.229	506.56
395.454	515.56
395.678	478.56
395.903	493.56
396.127	527.56
396.352	505.56
396.576	480.56
396.801	487.56
397.025	475.56
397.249	496.56
397.474	500.56
397.698	500.56
397.922	501.56
398.147	535.56
398.371	542.56
398.595	528.56
398.82	546.56
399.044	548.56
399.268	579.56
399.492	648.56
399.717	698.56
399.941	682.56
400.165	707.56
400.389	682.56
400.613	616.56
400.837	563.56
401.062	570.56
401.286	560.56
401.51	559.56
401.734	549.56
401.958	575.56
402.182	549.56
402.406	572.56
402.63	561.56
402.854	558.56
403.078	562.56
403.302	544.56
403.526	585.56
403.75	592.56
403.974	590.56
404.198	580.56
404.422	587.56
404.645	575.56
404.869	582.56
405.093	605.56
405.317	613.56
405.541	638.56
405.765	578.56
405.988	573.56
406.212	574.56
406.436	621.56
406.66	632.56
406.883	628.56
407.107	639.56
407.331	691.56
407.555	744.56
407.778	730.56
408.002	671.56
408.226	638.56
408.449	616.56
408.673	622.56
408.896	624.56
409.12	662.56
409.344	629.56
409.567	596.56
409.791	560.56
410.014	567.56
410.238	582.56
410.461	567.56
410.685	572.56
410.908	576.56
411.132	597.56
411.355	629.56
411.578	602.56
411.802	568.56
412.025	565.56
412.249	571.56
412.472	552.56
412.695	560.56
412.919	555.56
413.142	556.56
413.365	524.56
413.589	547.56
413.812	527.56
414.035	533.56
414.258	528.56
414.482	532.56
414.705	519.56
414.928	515.56
415.151	527.56
415.374	529.56
415.597	519.56
415.821	520.56
416.044	535.56
416.267	525.56
416.49	524.56
416.713	508.56
416.936	521.56
417.159	523.56
417.382	516.56
417.605	526.56
417.828	530.56
418.051	554.56
418.274	544.56
418.497	526.56
418.72	533.56
418.943	539.56
419.166	536.56
419.389	567.56
419.611	570.56
419.834	568.56
420.057	564.56
420.28	558.56
420.503	547.56
420.726	543.56
420.948	541.56
421.171	599.56
421.394	630.56
421.617	541.56
421.839	533.56
422.062	551.56
422.285	566.56
422.507	597.56
422.73	670.56
422.953	642.56
423.175	608.56
423.398	590.56
423.621	577.56
423.843	592.56
424.066	592.56
424.288	573.56
424.511	584.56
424.733	635.56
424.956	685.56
425.178	648.56
425.401	683.56
425.623	688.56
425.846	608.56
426.068	591.56
426.291	576.56
426.513	563.56
426.735	555.56
426.958	597.56
427.18	674.56
427.402	800.56
427.625	853.56
427.847	716.56
428.069	613.56
428.292	558.56
428.514	533.56
428.736	521.56
428.958	527.56
429.181	489.56
429.403	513.56
429.625	528.56
429.847	545.56
430.069	617.56
430.292	607.56
430.514	527.56
430.736	531.56
430.958	511.56
431.18	500.56
431.402	504.56
431.624	481.56
431.846	498.56
432.068	493.56
432.29	514.56
432.512	504.56
432.734	513.56
432.956	493.56
433.178	516.56
433.4	525.56
433.622	508.56
433.844	523.56
434.066	504.56
434.287	494.56
434.509	518.56
434.731	518.56
434.953	531.56
435.175	534.56
435.397	563.56
435.618	578.56
435.84	600.56
436.062	666.56
436.284	724.56
436.505	624.56
436.727	580.56
436.949	533.56
437.17	519.56
437.392	504.56
437.614	545.56
437.835	566.56
438.057	642.56
438.278	704.56
438.5	709.56
438.721	776.56
438.943	744.56
439.165	594.56
439.386	564.56
439.608	566.56
439.829	529.56
440.05	602.56
440.272	614.56
440.493	570.56
440.715	576.56
440.936	522.56
441.158	522.56
441.379	544.56
441.6	542.56
441.822	590.56
442.043	595.56
442.264	662.56
442.486	709.56
442.707	604.56
442.928	578.56
443.149	581.56
443.371	606.56
443.592	655.56
443.813	722.56
444.034	778.56
444.255	661.56
444.476	602.56
444.698	615.56
444.919	610.56
445.14	724.56
445.361	640.56
445.582	598.56
445.803	657.56
446.024	738.56
446.245	733.56
446.466	675.56
446.687	592.56
446.908	572.56
447.129	504.56
447.35	520.56
447.571	495.56
447.792	487.56
448.013	511.56
448.234	532.56
448.455	569.56
448.675	679.56
448.896	772.56
449.117	673.56
449.338	610.56
449.559	737.56
449.779	815.56
450	650.56
450.221	562.56
450.442	528.56
450.662	515.56
450.883	528.56
451.104	517.56
451.324	488.56
451.545	474.56
451.766	465.56
451.986	476.56
452.207	464.56
452.428	464.56
452.648	483.56
452.869	499.56
453.089	484.56
453.31	471.56
453.53	485.56
453.751	463.56
453.971	455.56
454.192	477.56
454.412	475.56
454.633	452.56
454.853	456.56
455.073	459.56
455.294	483.56
455.514	555.56
455.734	513.56
455.955	443.56
456.175	428.56
456.395	447.56
456.616	446.56
456.836	438.56
457.056	418.56
457.276	440.56
457.497	452.56
457.717	448.56
457.937	446.56
458.157	431.56
458.377	469.56
458.598	463.56
458.818	522.56
459.038	604.56
459.258	606.56
459.478	518.56
459.698	503.56
459.918	513.56
460.138	518.56
460.358	514.56
460.578	546.56
460.798	528.56
461.018	533.56
461.238	527.56
461.458	552.56
461.678	542.56
461.898	549.56
462.118	523.56
462.338	534.56
462.558	551.56
462.777	565.56
462.997	570.56
463.217	610.56
463.437	605.56
463.657	569.56
463.876	557.56
464.096	576.56
464.316	579.56
464.536	600.56
464.755	575.56
464.975	578.56
465.195	602.56
465.414	610.56
465.634	600.56
465.854	542.56
466.073	524.56
466.293	502.56
466.512	476.56
466.732	479.56
466.951	498.56
467.171	473.56
467.391	466.56
467.61	489.56
467.829	494.56
468.049	488.56
468.268	482.56
468.488	479.56
468.707	491.56
468.927	461.56
469.146	454.56
469.365	469.56
469.585	467.56
469.804	459.56
470.023	490.56
470.243	489.56
470.462	498.56
470.681	499.56
470.901	492.56
471.12	480.56
471.339	474.56
471.558	487.56
471.777	470.56
471.997	486.56
472.216	502.56
472.435	466.56
472.654	474.56
472.873	489.56
473.092	454.56
473.311	487.56
473.53	490.56
473.749	475.56
473.968	514.56
474.187	590.56
474.406	628.56
474.625	538.56
474.844	501.56
475.063	469.56
475.282	459.56
475.501	482.56
475.72	487.56
475.939	499.56
476.158	500.56
476.377	496.56
476.596	493.56
476.814	508.56
477.033	520.56
477.252	517.56
477.471	528.56
477.69	534.56
477.908	532.56
478.127	549.56
478.346	558.56
478.564	533.56
478.783	557.56
479.002	563.56
479.22	569.56
479.439	572.56
479.658	583.56
479.876	578.56
480.095	592.56
480.313	620.56
480.532	630.56
480.751	586.56
480.969	599.56
481.188	588.56
481.406	592.56
481.624	601.56
481.843	554.56
482.061	542.56
482.28	551.56
482.498	547.56
482.717	554.56
482.935	558.56
483.153	558.56
483.372	544.56
483.59	557.56
483.808	566.56
484.027	570.56
484.245	565.56
484.463	573.56
484.681	572.56
484.9	577.56
485.118	594.56
485.336	578.56
485.554	567.56
485.772	579.56
485.99	571.56
486.209	553.56
486.427	580.56
486.645	581.56
486.863	599.56
487.081	600.56
487.299	590.56
487.517	606.56
487.735	579.56
487.953	578.56
488.171	580.56
488.389	576.56
488.607	589.56
488.825	594.56
489.043	619.56
489.261	612.56
489.479	583.56
489.696	585.56
489.914	600.56
490.132	600.56
490.35	624.56
490.568	626.56
490.786	612.56
491.003	636.56
491.221	638.56
491.439	644.56
491.657	659.56
491.874	674.56
492.092	652.56
492.31	640.56
492.527	650.56
492.745	682.56
492.963	662.56
493.18	686.56
493.398	674.56
493.615	702.56
493.833	716.56
494.05	697.56
494.268	680.56
494.485	692.56
494.703	694.56
494.92	675.56
495.138	677.56
495.355	683.56
495.573	697.56
495.79	686.56
496.008	701.56
496.225	717.56
496.442	695.56
496.66	712.56
496.877	718.56
497.094	713.56
497.312	730.56
497.529	710.56
497.746	743.56
497.963	743.56
498.181	791.56
498.398	758.56
498.615	822.56
498.832	841.56
499.049	896.56
499.267	890.56
499.484	940.56
499.701	987.56
499.918	1036.56
500.135	1106.56
500.352	1183.56
500.569	1224.56
500.786	1199.56
501.003	1152.56
501.22	1118.56
501.437	1054.56
501.654	1002.56
501.871	975.56
502.088	909.56
502.305	883.56
502.522	836.56
502.739	823.56
502.956	804.56
503.172	794.56
503.389	746.56
503.606	728.56
503.823	741.56
504.04	752.56
504.256	740.56
504.473	740.56
504.69	731.56
504.907	702.56
505.123	719.56
505.34	714.56
505.557	681.56
505.773	688.56
505.99	663.56
506.207	674.56
506.423	690.56
506.64	651.56
506.856	637.56
507.073	651.56
507.289	633.56
507.506	609.56
507.722	670.56
507.939	660.56
508.155	628.56
508.372	637.56
508.588	633.56
508.805	611.56
509.021	607.56
509.238	659.56
509.454	643.56
509.67	660.56
509.887	634.56
510.103	620.56
510.319	637.56
510.536	716.56
510.752	1111.56
510.968	914.56
511.184	631.56
511.401	602.56
511.617	613.56
511.833	579.56
512.049	572.56
512.265	552.56
512.481	572.56
512.698	564.56
512.914	595.56
513.13	578.56
513.346	574.56
513.562	563.56
513.778	583.56
513.994	564.56
514.21	581.56
514.426	599.56
514.642	652.56
514.858	667.56
515.074	683.56
515.29	798.56
515.506	1150.56
515.721	979.56
515.937	696.56
516.153	647.56
516.369	642.56
516.585	618.56
516.801	638.56
517.016	637.56
517.232	633.56
517.448	662.56
517.664	661.56
517.879	654.56
518.095	667.56
518.311	648.56
518.527	642.56
518.742	637.56
518.958	619.56
519.173	607.56
519.389	620.56
519.605	598.56
519.82	583.56
520.036	609.56
520.251	601.56
520.467	653.56
520.682	586.56
520.898	613.56
521.113	626.56
521.329	671.56
521.544	745.56
521.76	914.56
521.975	1453.56
522.19	1464.56
522.406	841.56
522.621	618.56
522.836	594.56
523.052	575.56
523.267	553.56
523.482	524.56
523.698	530.56
523.913	543.56
524.128	541.56
524.343	538.56
524.559	528.56
524.774	518.56
524.989	502.56
525.204	515.56
525.419	532.56
525.634	509.56
525.849	510.56
526.064	526.56
526.28	506.56
526.495	481.56
526.71	508.56
526.925	492.56
527.14	473.56
527.355	486.56
527.57	506.56
527.785	486.56
527.999	480.56
528.214	506.56
528.429	503.56
528.644	476.56
528.859	503.56
529.074	480.56
529.289	511.56
529.503	566.56
529.718	555.56
529.933	502.56
530.148	492.56
530.363	504.56
530.577	485.56
530.792	474.56
531.007	469.56
531.221	502.56
531.436	487.56
531.651	494.56
531.865	487.56
532.08	454.56
532.295	468.56
532.509	471.56
532.724	482.56
532.938	471.56
533.153	474.56
533.367	473.56
533.582	468.56
533.796	462.56
534.011	493.56
534.225	467.56
534.44	463.56
534.654	461.56
534.868	461.56
535.083	454.56
535.297	456.56
535.511	475.56
535.726	472.56
535.94	459.56
536.154	489.56
536.369	456.56
536.583	453.56
536.797	463.56
537.011	464.56
537.225	470.56
537.44	450.56
537.654	447.56
537.868	443.56
538.082	444.56
538.296	453.56
538.51	455.56
538.724	453.56
538.938	442.56
539.153	458.56
539.367	447.56
539.581	446.56
539.795	434.56
540.009	455.56
540.222	445.56
540.436	436.56
540.65	432.56
540.864	456.56
541.078	454.56
541.292	455.56
541.506	439.56
541.72	436.56
541.934	443.56
542.147	435.56
542.361	453.56
542.575	441.56
542.789	446.56
543.002	452.56
543.216	454.56
543.43	460.56
543.644	435.56
543.857	445.56
544.071	439.56
544.285	445.56
544.498	446.56
544.712	461.56
544.925	448.56
545.139	455.56
545.352	440.56
545.566	437.56
545.779	438.56
545.993	446.56
546.206	453.56
546.42	457.56
546.633	440.56
546.847	426.56
547.06	458.56
547.274	420.56
547.487	437.56
547.7	432.56
547.914	435.56
548.127	452.56
548.34	445.56
548.554	431.56
548.767	438.56
548.98	444.56
549.193	436.56
549.407	447.56
549.62	446.56
549.833	449.56
550.046	422.56
550.259	432.56
550.473	427.56
550.686	435.56
550.899	438.56
551.112	437.56
551.325	440.56
551.538	430.56
551.751	448.56
551.964	449.56
552.177	423.56
552.39	422.56
552.603	430.56
552.816	461.56
553.029	454.56
553.242	429.56
553.455	444.56
553.667	469.56
553.88	465.56
554.093	463.56
554.306	452.56
554.519	438.56
554.732	418.56
554.944	409.56
555.157	418.56
555.37	423.56
555.583	431.56
555.795	411.56
556.008	424.56
556.221	406.56
556.433	396.56
556.646	388.56
556.859	402.56
557.071	387.56
557.284	392.56
557.496	400.56
557.709	380.56
557.921	372.56
558.134	375.56
558.346	375.56
558.559	374.56
558.771	381.56
558.984	411.56
559.196	379.56
559.409	388.56
559.621	378.56
559.833	364.56
560.046	378.56
560.258	367.56
560.47	358.56
560.683	387.56
560.895	380.56
561.107	381.56
561.32	363.56
561.532	375.56
561.744	378.56
561.956	383.56
562.168	379.56
562.381	397.56
562.593	399.56
562.805	388.56
563.017	378.56
563.229	372.56
563.441	383.56
563.653	383.56
563.865	379.56
564.077	391.56
564.289	398.56
564.501	403.56
564.713	417.56
564.925	427.56
565.137	420.56
565.349	404.56
565.561	417.56
565.773	425.56
565.985	453.56
566.197	443.56
566.408	470.56
566.62	512.56
566.832	492.56
567.044	498.56
567.255	523.56
567.467	512.56
567.679	529.56
567.891	557.56
568.102	554.56
568.314	548.56
568.526	517.56
568.737	471.56
568.949	479.56
569.161	424.56
569.372	410.56
569.584	408.56
569.795	394.56
570.007	411.56
570.218	450.56
570.43	432.56
570.641	379.56
570.853	380.56
571.064	381.56
571.276	396.56
571.487	377.56
571.698	353.56
571.91	374.56
572.121	354.56
572.333	343.56
572.544	345.56
572.755	343.56
572.966	334.56
573.178	354.56
573.389	339.56
573.6	349.56
573.811	334.56
574.023	341.56
574.234	353.56
574.445	349.56
574.656	335.56
574.867	335.56
575.078	350.56
575.289	345.56
575.501	337.56
575.712	328.56
575.923	327.56
576.134	319.56
576.345	316.56
576.556	341.56
576.767	328.56
576.978	324.56
577.188	322.56
577.399	316.56
577.61	314.56
577.821	308.56
578.032	315.56
578.243	339.56
578.454	514.56
578.665	398.56
578.875	340.56
579.086	322.56
579.297	298.56
579.508	303.56
579.718	317.56
579.929	293.56
580.14	299.56
580.35	298.56
580.561	314.56
580.772	299.56
580.982	315.56
581.193	299.56
581.403	296.56
581.614	299.56
581.825	305.56
582.035	297.56
582.246	309.56
582.456	308.56
582.667	288.56
582.877	304.56
583.087	297.56
583.298	288.56
583.508	287.56
583.719	290.56
583.929	291.56
584.139	278.56
584.35	294.56
584.56	291.56
584.77	285.56
584.981	275.56
585.191	286.56
585.401	298.56
585.611	283.56
585.821	280.56
586.032	318.56
586.242	302.56
586.452	293.56
586.662	281.56
586.872	287.56
587.082	284.56
587.292	282.56
587.502	295.56
587.713	299.56
587.923	286.56
588.133	287.56
588.343	286.56
588.553	293.56
588.762	291.56
588.972	295.56
589.182	322.56
589.392	301.56
589.602	281.56
589.812	287.56
590.022	297.56
590.232	281.56
590.441	281.56
590.651	298.56
590.861	287.56
591.071	291.56
591.281	288.56
591.49	310.56
591.7	301.56
591.91	290.56
592.119	295.56
592.329	313.56
592.539	319.56
592.748	312.56
592.958	334.56
593.167	317.56
593.377	299.56
593.587	314.56
593.796	336.56
594.006	323.56
594.215	343.56
594.424	339.56
594.634	329.56
594.843	320.56
595.053	329.56
595.262	302.56
595.472	287.56
595.681	302.56
595.89	290.56
596.1	287.56
596.309	296.56
596.518	284.56
596.727	293.56
596.937	277.56
597.146	280.56
597.355	284.56
597.564	271.56
597.774	270.56
597.983	272.56
598.192	257.56
598.401	274.56
598.61	270.56
598.819	258.56
599.028	271.56
599.237	263.56
599.446	240.56
599.655	260.56
599.864	272.56
600.073	269.56
600.282	266.56
600.491	267.56
600.7	232.56
600.909	229.56
601.118	242.56
601.327	237.56
601.536	250.56
601.745	248.56
601.953	256.56
602.162	239.56
602.371	250.56
602.58	242.56
602.789	256.56
602.997	254.56
603.206	245.56
603.415	240.56
603.623	242.56
603.832	250.56
604.041	248.56
604.249	233.56
604.458	242.56
604.666	242.56
604.875	251.56
605.084	224.56
605.292	244.56
605.501	246.56
605.709	255.56
605.918	228.56
606.126	221.56
606.334	237.56
606.543	234.56
606.751	224.56
606.96	236.56
607.168	226.56
607.376	249.56
607.585	244.56
607.793	244.56
608.001	235.56
608.21	249.56
608.418	235.56
608.626	219.56
608.834	239.56
609.043	227.56
609.251	250.56
609.459	220.56
609.667	238.56
609.875	239.56
610.083	222.56
610.291	232.56
610.499	220.56
610.707	232.56
610.916	242.56
611.124	243.56
611.332	238.56
611.54	218.56
611.748	239.56
611.955	234.56
612.163	233.56
612.371	225.56
612.579	218.56
612.787	237.56
612.995	237.56
613.203	216.56
613.411	211.56
613.618	238.56
613.826	229.56
614.034	236.56
614.242	226.56
614.449	230.56
614.657	223.56
614.865	225.56
615.072	242.56
615.28	244.56
615.488	218.56
615.695	229.56
615.903	211.56
616.111	229.56
616.318	242.56
616.526	233.56
616.733	230.56
616.941	231.56
617.148	218.56
617.356	228.56
617.563	226.56
617.771	222.56
617.978	213.56
618.185	223.56
618.393	220.56
618.6	238.56
618.807	231.56
619.015	235.56
619.222	217.56
619.429	210.56
619.637	231.56
619.844	230.56
620.051	224.56
620.258	205.56
620.466	228.56
620.673	224.56
620.88	232.56
621.087	223.56
621.294	213.56
621.501	205.56
621.708	212.56
621.915	204.56
622.122	221.56
622.329	219.56
622.536	219.56
622.743	201.56
622.95	223.56
623.157	222.56
623.364	239.56
623.571	221.56
623.778	207.56
623.985	204.56
624.192	215.56
624.399	210.56
624.606	200.56
624.812	221.56
625.019	195.56
625.226	208.56
625.433	201.56
625.639	214.56
625.846	194.56
626.053	199.56
626.259	206.56
626.466	185.56
626.673	188.56
626.879	198.56
627.086	201.56
627.293	221.56
627.499	215.56
627.706	194.56
627.912	196.56
628.119	196.56
628.325	206.56
628.532	201.56
628.738	205.56
628.945	176.56
629.151	189.56
629.357	201.56
629.564	190.56
629.77	180.56
629.976	191.56
630.183	196.56
630.389	188.56
630.595	193.56
630.802	184.56
631.008	200.56
631.214	198.56
631.42	198.56
631.627	182.56
631.833	193.56
632.039	174.56
632.245	194.56
632.451	180.56
632.657	175.56
632.863	190.56
633.069	191.56
633.275	194.56
633.481	194.56
633.688	185.56
633.893	194.56
634.099	182.56
634.305	169.56
634.511	170.56
634.717	193.56
634.923	188.56
635.129	174.56
635.335	171.56
635.541	180.56
635.747	174.56
635.952	174.56
636.158	182.56
636.364	185.56
636.57	180.56
636.775	179.56
636.981	156.56
637.187	176.56
637.392	185.56
637.598	162.56
637.804	182.56
638.009	164.56
638.215	163.56
638.421	171.56
638.626	174.56
638.832	188.56
639.037	170.56
639.243	161.56
639.448	168.56
639.654	181.56
639.859	165.56
640.065	172.56
640.27	173.56
640.475	171.56
640.681	176.56
640.886	173.56
641.091	165.56
641.297	170.56
641.502	166.56
641.707	170.56
641.913	148.56
642.118	162.56
642.323	164.56
642.528	159.56
642.733	168.56
642.939	178.56
643.144	155.56
643.349	173.56
643.554	157.56
643.759	160.56
643.964	162.56
644.169	156.56
644.374	160.56
644.579	184.56
644.784	168.56
644.989	171.56
645.194	162.56
645.399	162.56
645.604	162.56
645.809	159.56
646.014	171.56
646.219	162.56
646.423	162.56
646.628	167.56
646.833	165.56
647.038	151.56
647.243	152.56
647.447	165.56
647.652	145.56
647.857	162.56
648.062	164.56
648.266	163.56
648.471	169.56
648.676	169.56
648.88	186.56
649.085	179.56
649.289	166.56
649.494	154.56
649.698	168.56
649.903	175.56
650.107	159.56
650.312	157.56
650.516	155.56
650.721	151.56
650.925	159.56
651.13	141.56
651.334	149.56
651.539	158.56
651.743	165.56
651.947	154.56
652.152	157.56
652.356	157.56
652.56	141.56
652.764	134.56
652.969	138.56
653.173	134.56
653.377	142.56
653.581	137.56
653.785	142.56
653.99	160.56
654.194	135.56
654.398	138.56
654.602	134.56
654.806	139.56
655.01	154.56
655.214	159.56
655.418	136.56
655.622	136.56
655.826	140.56
656.03	137.56
656.234	146.56
656.438	135.56
656.642	138.56
656.846	144.56
657.049	134.56
657.253	137.56
657.457	123.56
657.661	138.56
657.865	116.56
658.068	127.56
658.272	110.56
658.476	119.56
658.68	100.56
658.883	111.56
659.087	120.56
659.291	92.56
659.494	108.56
659.698	101.56
659.901	109.56
660.105	100.56
660.309	85.56
660.512	93.56
660.716	105.56
660.919	104.56
661.123	102.56
661.326	95.56
661.53	89.56
661.733	99.56
661.936	88.56
662.14	93.56
662.343	92.56
662.546	107.56
662.75	91.56
662.953	89.56
663.156	83.56
663.36	92.56
663.563	98.56
663.766	95.56
663.969	76.56
664.173	99.56
664.376	81.56
664.579	80.56
664.782	83.56
664.985	99.56
665.188	82.56
665.391	100.56
665.594	87.56
665.797	68.56
666	90.56
666.203	88.56
666.406	94.56
666.609	85.56
666.812	82.56
667.015	90.56
667.218	83.56
667.421	80.56
667.624	74.56
667.827	78.56
668.03	86.56
668.232	84.56
668.435	85.56
668.638	84.56
668.841	92.56
669.043	86.56
669.246	80.56
669.449	83.56
669.651	75.56
669.854	70.56
670.057	98.56
670.259	81.56
670.462	102.56
670.665	88.56
670.867	78.56
671.07	88.56
671.272	92.56
671.475	97.56
671.677	83.56
671.88	89.56
672.082	89.56
672.284	82.56
672.487	98.56
672.689	84.56
672.892	91.56
