Data from 1985.PennyLincolnUp.Lamp.En5.5.200Scan.071819.P1_HRD10591_17-02-05-970.txt Node
Date: Thu Jul 18 17:02:05 EDT 2019
User: cochatt
Spectrometer: HR+D1059
Trigger mode: 1
Integration Time (sec): 1.000000E-1
Scans to average: 1
Electric dark correction enabled: true
Nonlinearity correction enabled: false
Boxcar width: 0
XAxis mode: Wavelengths
Number of Pixels in Spectrum: 2048
>>>>>Begin Spectral Data<<<<<
223.165	-10.69
223.4	-10.69
223.635	-10.69
223.869	-26.69
224.104	-10.69
224.338	-12.69
224.573	-23.69
224.808	-8.69
225.042	-11.69
225.277	1.31
225.511	-7.69
225.746	-5.69
225.98	2.31
226.215	7.31
226.449	23.31
226.683	25.31
226.918	24.31
227.152	34.31
227.387	42.31
227.621	47.31
227.856	35.31
228.09	42.31
228.324	47.31
228.559	58.31
228.793	68.31
229.027	97.31
229.262	85.31
229.496	111.31
229.73	130.31
229.964	135.31
230.199	123.31
230.433	116.31
230.667	103.31
230.901	100.31
231.136	104.31
231.37	115.31
231.604	122.31
231.838	101.31
232.072	103.31
232.306	107.31
232.541	111.31
232.775	102.31
233.009	123.31
233.243	112.31
233.477	115.31
233.711	120.31
233.945	120.31
234.179	111.31
234.413	124.31
234.647	112.31
234.881	113.31
235.115	114.31
235.349	120.31
235.583	124.31
235.817	130.31
236.051	119.31
236.285	125.31
236.519	126.31
236.753	130.31
236.987	148.31
237.221	182.31
237.455	208.31
237.689	186.31
237.922	124.31
238.156	131.31
238.39	140.31
238.624	128.31
238.858	131.31
239.091	125.31
239.325	124.31
239.559	123.31
239.793	131.31
240.027	125.31
240.26	134.31
240.494	161.31
240.728	155.31
240.961	155.31
241.195	139.31
241.429	133.31
241.662	134.31
241.896	121.31
242.13	126.31
242.363	123.31
242.597	145.31
242.83	145.31
243.064	145.31
243.298	135.31
243.531	155.31
243.765	131.31
243.998	139.31
244.232	139.31
244.465	134.31
244.699	143.31
244.932	138.31
245.166	156.31
245.399	153.31
245.633	135.31
245.866	133.31
246.099	149.31
246.333	142.31
246.566	147.31
246.8	141.31
247.033	152.31
247.266	160.31
247.5	164.31
247.733	162.31
247.966	161.31
248.2	166.31
248.433	154.31
248.666	179.31
248.899	181.31
249.133	183.31
249.366	205.31
249.599	193.31
249.832	170.31
250.066	185.31
250.299	178.31
250.532	191.31
250.765	200.31
250.998	212.31
251.231	207.31
251.465	205.31
251.698	183.31
251.931	186.31
252.164	190.31
252.397	177.31
252.63	188.31
252.863	189.31
253.096	212.31
253.329	232.31
253.562	225.31
253.795	232.31
254.028	207.31
254.261	223.31
254.494	220.31
254.727	247.31
254.96	259.31
255.193	254.31
255.426	245.31
255.659	206.31
255.892	208.31
256.124	198.31
256.357	209.31
256.59	217.31
256.823	189.31
257.056	199.31
257.289	203.31
257.521	196.31
257.754	205.31
257.987	209.31
258.22	204.31
258.452	217.31
258.685	217.31
258.918	205.31
259.151	203.31
259.383	217.31
259.616	225.31
259.849	232.31
260.081	251.31
260.314	229.31
260.547	258.31
260.779	247.31
261.012	241.31
261.244	225.31
261.477	212.31
261.71	210.31
261.942	227.31
262.175	229.31
262.407	232.31
262.64	223.31
262.872	212.31
263.105	201.31
263.337	228.31
263.57	207.31
263.802	216.31
264.035	224.31
264.267	216.31
264.499	216.31
264.732	215.31
264.964	220.31
265.197	230.31
265.429	217.31
265.661	232.31
265.894	227.31
266.126	220.31
266.358	213.31
266.591	217.31
266.823	231.31
267.055	226.31
267.287	240.31
267.52	213.31
267.752	229.31
267.984	249.31
268.216	243.31
268.448	235.31
268.681	247.31
268.913	257.31
269.145	258.31
269.377	273.31
269.609	273.31
269.841	278.31
270.073	290.31
270.306	298.31
270.538	322.31
270.77	312.31
271.002	299.31
271.234	287.31
271.466	303.31
271.698	315.31
271.93	342.31
272.162	335.31
272.394	316.31
272.626	309.31
272.858	288.31
273.09	287.31
273.322	279.31
273.553	268.31
273.785	285.31
274.017	259.31
274.249	275.31
274.481	265.31
274.713	279.31
274.945	279.31
275.176	281.31
275.408	267.31
275.64	281.31
275.872	275.31
276.104	258.31
276.335	282.31
276.567	301.31
276.799	291.31
277.031	308.31
277.262	332.31
277.494	340.31
277.726	299.31
277.957	287.31
278.189	290.31
278.421	290.31
278.652	275.31
278.884	293.31
279.115	279.31
279.347	284.31
279.579	276.31
279.81	282.31
280.042	272.31
280.273	289.31
280.505	279.31
280.736	283.31
280.968	274.31
281.199	285.31
281.431	269.31
281.662	283.31
281.894	309.31
282.125	281.31
282.356	305.31
282.588	313.31
282.819	329.31
283.051	305.31
283.282	295.31
283.513	295.31
283.745	295.31
283.976	292.31
284.207	281.31
284.439	325.31
284.67	307.31
284.901	299.31
285.132	317.31
285.364	303.31
285.595	299.31
285.826	293.31
286.057	304.31
286.288	298.31
286.52	300.31
286.751	324.31
286.982	301.31
287.213	307.31
287.444	298.31
287.675	316.31
287.906	328.31
288.138	321.31
288.369	324.31
288.6	337.31
288.831	334.31
289.062	321.31
289.293	295.31
289.524	296.31
289.755	318.31
289.986	319.31
290.217	311.31
290.448	317.31
290.679	301.31
290.91	313.31
291.141	327.31
291.371	313.31
291.602	313.31
291.833	300.31
292.064	338.31
292.295	319.31
292.526	319.31
292.757	312.31
292.987	326.31
293.218	330.31
293.449	319.31
293.68	343.31
293.91	317.31
294.141	317.31
294.372	321.31
294.603	309.31
294.833	311.31
295.064	327.31
295.295	339.31
295.525	349.31
295.756	323.31
295.987	346.31
296.217	339.31
296.448	335.31
296.679	344.31
296.909	322.31
297.14	327.31
297.37	345.31
297.601	324.31
297.831	339.31
298.062	334.31
298.292	325.31
298.523	345.31
298.753	341.31
298.984	326.31
299.214	333.31
299.445	332.31
299.675	337.31
299.905	364.31
300.136	347.31
300.366	345.31
300.597	349.31
300.827	369.31
301.057	366.31
301.288	348.31
301.518	362.31
301.748	349.31
301.979	379.31
302.209	367.31
302.439	377.31
302.669	363.31
302.9	336.31
303.13	364.31
303.36	337.31
303.59	359.31
303.82	365.31
304.051	367.31
304.281	364.31
304.511	356.31
304.741	372.31
304.971	375.31
305.201	358.31
305.431	359.31
305.661	373.31
305.891	377.31
306.121	346.31
306.352	348.31
306.582	357.31
306.812	377.31
307.042	345.31
307.272	359.31
307.502	339.31
307.731	349.31
307.961	381.31
308.191	380.31
308.421	370.31
308.651	355.31
308.881	388.31
309.111	387.31
309.341	362.31
309.571	381.31
309.8	392.31
310.03	400.31
310.26	418.31
310.49	414.31
310.72	408.31
310.949	419.31
311.179	403.31
311.409	413.31
311.639	409.31
311.868	397.31
312.098	402.31
312.328	416.31
312.557	412.31
312.787	437.31
313.017	436.31
313.246	429.31
313.476	414.31
313.706	408.31
313.935	425.31
314.165	424.31
314.394	420.31
314.624	435.31
314.853	439.31
315.083	397.31
315.312	417.31
315.542	412.31
315.771	421.31
316.001	417.31
316.23	410.31
316.46	415.31
316.689	397.31
316.919	396.31
317.148	422.31
317.377	420.31
317.607	393.31
317.836	413.31
318.065	413.31
318.295	410.31
318.524	419.31
318.753	418.31
318.983	418.31
319.212	415.31
319.441	400.31
319.67	408.31
319.9	400.31
320.129	425.31
320.358	400.31
320.587	431.31
320.816	421.31
321.046	422.31
321.275	416.31
321.504	439.31
321.733	425.31
321.962	420.31
322.191	440.31
322.42	461.31
322.649	458.31
322.878	473.31
323.108	472.31
323.337	504.31
323.566	536.31
323.795	539.31
324.024	581.31
324.253	663.31
324.482	920.31
324.71	1371.31
324.939	1945.31
325.168	1615.31
325.397	866.31
325.626	627.31
325.855	552.31
326.084	535.31
326.313	513.31
326.542	501.31
326.77	546.31
326.999	644.31
327.228	837.31
327.457	1232.31
327.686	1461.31
327.914	974.31
328.143	671.31
328.372	595.31
328.6	569.31
328.829	562.31
329.058	557.31
329.287	573.31
329.515	575.31
329.744	546.31
329.972	505.31
330.201	507.31
330.43	525.31
330.658	546.31
330.887	600.31
331.115	627.31
331.344	540.31
331.572	523.31
331.801	509.31
332.03	527.31
332.258	516.31
332.486	526.31
332.715	514.31
332.943	490.31
333.172	495.31
333.4	521.31
333.629	543.31
333.857	525.31
334.085	531.31
334.314	527.31
334.542	518.31
334.771	501.31
334.999	529.31
335.227	512.31
335.455	508.31
335.684	489.31
335.912	490.31
336.14	498.31
336.369	502.31
336.597	493.31
336.825	497.31
337.053	490.31
337.281	480.31
337.51	481.31
337.738	466.31
337.966	497.31
338.194	473.31
338.422	464.31
338.65	448.31
338.878	474.31
339.106	461.31
339.334	495.31
339.562	465.31
339.79	454.31
340.018	469.31
340.246	453.31
340.474	467.31
340.702	464.31
340.93	486.31
341.158	482.31
341.386	442.31
341.614	461.31
341.842	456.31
342.07	465.31
342.298	460.31
342.526	476.31
342.754	439.31
342.981	451.31
343.209	450.31
343.437	458.31
343.665	471.31
343.893	499.31
344.12	517.31
344.348	475.31
344.576	489.31
344.804	475.31
345.031	452.31
345.259	463.31
345.487	487.31
345.714	469.31
345.942	453.31
346.17	446.31
346.397	434.31
346.625	427.31
346.853	433.31
347.08	433.31
347.308	439.31
347.535	436.31
347.763	457.31
347.99	463.31
348.218	441.31
348.445	459.31
348.673	451.31
348.9	418.31
349.128	443.31
349.355	423.31
349.583	436.31
349.81	406.31
350.037	421.31
350.265	425.31
350.492	418.31
350.72	423.31
350.947	434.31
351.174	447.31
351.402	450.31
351.629	431.31
351.856	436.31
352.083	445.31
352.311	458.31
352.538	439.31
352.765	447.31
352.992	446.31
353.22	452.31
353.447	432.31
353.674	441.31
353.901	435.31
354.128	427.31
354.355	422.31
354.583	424.31
354.81	443.31
355.037	407.31
355.264	424.31
355.491	394.31
355.718	391.31
355.945	405.31
356.172	416.31
356.399	407.31
356.626	436.31
356.853	406.31
357.08	401.31
357.307	404.31
357.534	399.31
357.761	389.31
357.988	404.31
358.215	417.31
358.441	429.31
358.668	425.31
358.895	434.31
359.122	401.31
359.349	417.31
359.576	418.31
359.802	456.31
360.029	452.31
360.256	501.31
360.483	468.31
360.709	436.31
360.936	442.31
361.163	426.31
361.39	423.31
361.616	436.31
361.843	439.31
362.07	429.31
362.296	442.31
362.523	423.31
362.749	433.31
362.976	435.31
363.203	428.31
363.429	430.31
363.656	425.31
363.882	425.31
364.109	412.31
364.335	416.31
364.562	434.31
364.788	442.31
365.015	426.31
365.241	427.31
365.468	432.31
365.694	412.31
365.92	422.31
366.147	426.31
366.373	414.31
366.599	405.31
366.826	439.31
367.052	428.31
367.278	419.31
367.505	426.31
367.731	422.31
367.957	421.31
368.184	402.31
368.41	417.31
368.636	435.31
368.862	411.31
369.089	434.31
369.315	419.31
369.541	434.31
369.767	420.31
369.993	417.31
370.219	410.31
370.445	408.31
370.672	401.31
370.898	421.31
371.124	429.31
371.35	421.31
371.576	418.31
371.802	409.31
372.028	427.31
372.254	426.31
372.48	439.31
372.706	422.31
372.932	422.31
373.158	423.31
373.384	425.31
373.61	432.31
373.835	441.31
374.061	427.31
374.287	424.31
374.513	435.31
374.739	421.31
374.965	445.31
375.191	416.31
375.416	421.31
375.642	411.31
375.868	428.31
376.094	434.31
376.319	431.31
376.545	442.31
376.771	427.31
376.997	416.31
377.222	419.31
377.448	407.31
377.674	428.31
377.899	420.31
378.125	429.31
378.35	411.31
378.576	388.31
378.802	405.31
379.027	416.31
379.253	403.31
379.478	411.31
379.704	417.31
379.929	425.31
380.155	428.31
380.38	420.31
380.606	409.31
380.831	413.31
381.057	420.31
381.282	424.31
381.507	427.31
381.733	411.31
381.958	416.31
382.184	431.31
382.409	439.31
382.634	432.31
382.86	433.31
383.085	418.31
383.31	462.31
383.535	459.31
383.761	453.31
383.986	439.31
384.211	465.31
384.436	456.31
384.662	446.31
384.887	448.31
385.112	467.31
385.337	469.31
385.562	476.31
385.787	461.31
386.013	480.31
386.238	498.31
386.463	469.31
386.688	451.31
386.913	468.31
387.138	446.31
387.363	482.31
387.588	463.31
387.813	449.31
388.038	456.31
388.263	460.31
388.488	455.31
388.713	465.31
388.938	468.31
389.163	458.31
389.387	504.31
389.612	467.31
389.837	451.31
390.062	451.31
390.287	429.31
390.512	461.31
390.736	467.31
390.961	454.31
391.186	485.31
391.411	475.31
391.636	490.31
391.86	491.31
392.085	499.31
392.31	500.31
392.534	498.31
392.759	490.31
392.984	472.31
393.208	484.31
393.433	490.31
393.658	506.31
393.882	472.31
394.107	461.31
394.331	470.31
394.556	461.31
394.78	491.31
395.005	498.31
395.229	497.31
395.454	470.31
395.678	487.31
395.903	493.31
396.127	540.31
396.352	521.31
396.576	489.31
396.801	496.31
397.025	471.31
397.249	497.31
397.474	521.31
397.698	514.31
397.922	535.31
398.147	528.31
398.371	540.31
398.595	549.31
398.82	542.31
399.044	561.31
399.268	593.31
399.492	662.31
399.717	685.31
399.941	684.31
400.165	693.31
400.389	700.31
400.613	631.31
400.837	570.31
401.062	564.31
401.286	580.31
401.51	539.31
401.734	554.31
401.958	532.31
402.182	554.31
402.406	580.31
402.63	551.31
402.854	563.31
403.078	589.31
403.302	572.31
403.526	563.31
403.75	575.31
403.974	563.31
404.198	555.31
404.422	583.31
404.645	592.31
404.869	563.31
405.093	620.31
405.317	618.31
405.541	619.31
405.765	592.31
405.988	586.31
406.212	613.31
406.436	635.31
406.66	611.31
406.883	604.31
407.107	653.31
407.331	677.31
407.555	744.31
407.778	754.31
408.002	665.31
408.226	625.31
408.449	637.31
408.673	614.31
408.896	635.31
409.12	646.31
409.344	636.31
409.567	581.31
409.791	572.31
410.014	561.31
410.238	568.31
410.461	546.31
410.685	563.31
410.908	565.31
411.132	604.31
411.355	614.31
411.578	591.31
411.802	550.31
412.025	551.31
412.249	549.31
412.472	545.31
412.695	557.31
412.919	548.31
413.142	544.31
413.365	542.31
413.589	516.31
413.812	544.31
414.035	532.31
414.258	525.31
414.482	526.31
414.705	544.31
414.928	529.31
415.151	531.31
415.374	541.31
415.597	517.31
415.821	523.31
416.044	524.31
416.267	546.31
416.49	507.31
416.713	527.31
416.936	531.31
417.159	522.31
417.382	536.31
417.605	526.31
417.828	536.31
418.051	553.31
418.274	565.31
418.497	537.31
418.72	529.31
418.943	536.31
419.166	549.31
419.389	564.31
419.611	576.31
419.834	568.31
420.057	549.31
420.28	550.31
420.503	549.31
420.726	564.31
420.948	559.31
421.171	585.31
421.394	625.31
421.617	562.31
421.839	568.31
422.062	533.31
422.285	541.31
422.507	624.31
422.73	681.31
422.953	655.31
423.175	582.31
423.398	588.31
423.621	559.31
423.843	591.31
424.066	571.31
424.288	593.31
424.511	608.31
424.733	640.31
424.956	710.31
425.178	675.31
425.401	689.31
425.623	693.31
425.846	619.31
426.068	587.31
426.291	540.31
426.513	570.31
426.735	569.31
426.958	633.31
427.18	678.31
427.402	788.31
427.625	860.31
427.847	723.31
428.069	641.31
428.292	593.31
428.514	542.31
428.736	521.31
428.958	530.31
429.181	499.31
429.403	513.31
429.625	522.31
429.847	572.31
430.069	623.31
430.292	593.31
430.514	532.31
430.736	533.31
430.958	532.31
431.18	509.31
431.402	513.31
431.624	479.31
431.846	487.31
432.068	498.31
432.29	482.31
432.512	492.31
432.734	482.31
432.956	525.31
433.178	499.31
433.4	503.31
433.622	490.31
433.844	489.31
434.066	503.31
434.287	503.31
434.509	513.31
434.731	513.31
434.953	544.31
435.175	538.31
435.397	558.31
435.618	567.31
435.84	589.31
436.062	680.31
436.284	733.31
436.505	630.31
436.727	567.31
436.949	527.31
437.17	519.31
437.392	542.31
437.614	521.31
437.835	550.31
438.057	660.31
438.278	733.31
438.5	713.31
438.721	787.31
438.943	757.31
439.165	608.31
439.386	557.31
439.608	559.31
439.829	555.31
440.05	587.31
440.272	596.31
440.493	587.31
440.715	563.31
440.936	536.31
441.158	554.31
441.379	523.31
441.6	543.31
441.822	579.31
442.043	607.31
442.264	691.31
442.486	733.31
442.707	605.31
442.928	568.31
443.149	588.31
443.371	605.31
443.592	665.31
443.813	723.31
444.034	790.31
444.255	664.31
444.476	617.31
444.698	607.31
444.919	579.31
445.14	743.31
445.361	643.31
445.582	623.31
445.803	663.31
446.024	732.31
446.245	771.31
446.466	676.31
446.687	580.31
446.908	531.31
447.129	529.31
447.35	503.31
447.571	511.31
447.792	505.31
448.013	516.31
448.234	545.31
448.455	591.31
448.675	671.31
448.896	759.31
449.117	657.31
449.338	612.31
449.559	719.31
449.779	815.31
450	619.31
450.221	548.31
450.442	507.31
450.662	490.31
450.883	489.31
451.104	517.31
451.324	511.31
451.545	473.31
451.766	487.31
451.986	459.31
452.207	451.31
452.428	428.31
452.648	460.31
452.869	456.31
453.089	461.31
453.31	484.31
453.53	461.31
453.751	451.31
453.971	472.31
454.192	471.31
454.412	474.31
454.633	481.31
454.853	455.31
455.073	447.31
455.294	492.31
455.514	544.31
455.734	515.31
455.955	463.31
456.175	444.31
456.395	424.31
456.616	418.31
456.836	433.31
457.056	427.31
457.276	410.31
457.497	435.31
457.717	433.31
457.937	445.31
458.157	467.31
458.377	452.31
458.598	497.31
458.818	548.31
459.038	599.31
459.258	607.31
459.478	524.31
459.698	501.31
459.918	517.31
460.138	498.31
460.358	528.31
460.578	521.31
460.798	532.31
461.018	556.31
461.238	548.31
461.458	543.31
461.678	524.31
461.898	517.31
462.118	543.31
462.338	557.31
462.558	556.31
462.777	578.31
462.997	575.31
463.217	629.31
463.437	617.31
463.657	609.31
463.876	586.31
464.096	574.31
464.316	581.31
464.536	593.31
464.755	575.31
464.975	579.31
465.195	612.31
465.414	660.31
465.634	566.31
465.854	532.31
466.073	508.31
466.293	484.31
466.512	483.31
466.732	475.31
466.951	493.31
467.171	485.31
467.391	451.31
467.61	484.31
467.829	515.31
468.049	496.31
468.268	467.31
468.488	467.31
468.707	459.31
468.927	458.31
469.146	458.31
469.365	468.31
469.585	471.31
469.804	478.31
470.023	489.31
470.243	481.31
470.462	507.31
470.681	507.31
470.901	510.31
471.12	483.31
471.339	492.31
471.558	489.31
471.777	501.31
471.997	484.31
472.216	485.31
472.435	471.31
472.654	471.31
472.873	467.31
473.092	473.31
473.311	469.31
473.53	483.31
473.749	470.31
473.968	508.31
474.187	600.31
474.406	617.31
474.625	523.31
474.844	486.31
475.063	490.31
475.282	488.31
475.501	477.31
475.72	495.31
475.939	504.31
476.158	487.31
476.377	486.31
476.596	468.31
476.814	513.31
477.033	499.31
477.252	519.31
477.471	509.31
477.69	531.31
477.908	534.31
478.127	532.31
478.346	546.31
478.564	569.31
478.783	553.31
479.002	557.31
479.22	574.31
479.439	577.31
479.658	589.31
479.876	601.31
480.095	601.31
480.313	625.31
480.532	621.31
480.751	595.31
480.969	592.31
481.188	586.31
481.406	595.31
481.624	547.31
481.843	581.31
482.061	544.31
482.28	553.31
482.498	559.31
482.717	561.31
482.935	553.31
483.153	548.31
483.372	556.31
483.59	561.31
483.808	547.31
484.027	570.31
484.245	559.31
484.463	571.31
484.681	572.31
484.9	568.31
485.118	578.31
485.336	570.31
485.554	560.31
485.772	577.31
485.99	564.31
486.209	601.31
486.427	582.31
486.645	573.31
486.863	597.31
487.081	585.31
487.299	587.31
487.517	592.31
487.735	590.31
487.953	589.31
488.171	591.31
488.389	598.31
488.607	584.31
488.825	576.31
489.043	580.31
489.261	584.31
489.479	571.31
489.696	583.31
489.914	609.31
490.132	600.31
490.35	630.31
490.568	618.31
490.786	613.31
491.003	624.31
491.221	624.31
491.439	652.31
491.657	668.31
491.874	663.31
492.092	645.31
492.31	673.31
492.527	666.31
492.745	676.31
492.963	650.31
493.18	680.31
493.398	693.31
493.615	701.31
493.833	695.31
494.05	714.31
494.268	695.31
494.485	661.31
494.703	679.31
494.92	678.31
495.138	717.31
495.355	707.31
495.573	675.31
495.79	674.31
496.008	733.31
496.225	714.31
496.442	703.31
496.66	723.31
496.877	688.31
497.094	714.31
497.312	750.31
497.529	732.31
497.746	764.31
497.963	777.31
498.181	794.31
498.398	820.31
498.615	826.31
498.832	831.31
499.049	859.31
499.267	870.31
499.484	956.31
499.701	986.31
499.918	1032.31
500.135	1149.31
500.352	1191.31
500.569	1217.31
500.786	1217.31
501.003	1151.31
501.22	1103.31
501.437	1066.31
501.654	1032.31
501.871	971.31
502.088	903.31
502.305	858.31
502.522	842.31
502.739	796.31
502.956	808.31
503.172	787.31
503.389	778.31
503.606	769.31
503.823	723.31
504.04	757.31
504.256	721.31
504.473	727.31
504.69	733.31
504.907	723.31
505.123	722.31
505.34	682.31
505.557	661.31
505.773	663.31
505.99	659.31
506.207	683.31
506.423	667.31
506.64	665.31
506.856	663.31
507.073	641.31
507.289	651.31
507.506	643.31
507.722	672.31
507.939	647.31
508.155	641.31
508.372	635.31
508.588	641.31
508.805	642.31
509.021	598.31
509.238	633.31
509.454	649.31
509.67	624.31
509.887	616.31
510.103	635.31
510.319	639.31
510.536	705.31
510.752	1142.31
510.968	927.31
511.184	631.31
511.401	607.31
511.617	627.31
511.833	582.31
512.049	604.31
512.265	599.31
512.481	611.31
512.698	597.31
512.914	578.31
513.13	574.31
513.346	596.31
513.562	593.31
513.778	598.31
513.994	604.31
514.21	597.31
514.426	604.31
514.642	631.31
514.858	670.31
515.074	707.31
515.29	799.31
515.506	1203.31
515.721	1019.31
515.937	729.31
516.153	675.31
516.369	645.31
516.585	645.31
516.801	641.31
517.016	644.31
517.232	662.31
517.448	634.31
517.664	648.31
517.879	647.31
518.095	635.31
518.311	676.31
518.527	645.31
518.742	641.31
518.958	612.31
519.173	609.31
519.389	620.31
519.605	614.31
519.82	598.31
520.036	629.31
520.251	610.31
520.467	631.31
520.682	641.31
520.898	606.31
521.113	643.31
521.329	681.31
521.544	741.31
521.76	917.31
521.975	1571.31
522.19	1553.31
522.406	857.31
522.621	636.31
522.836	619.31
523.052	588.31
523.267	577.31
523.482	539.31
523.698	530.31
523.913	555.31
524.128	533.31
524.343	521.31
524.559	532.31
524.774	517.31
524.989	526.31
525.204	527.31
525.419	532.31
525.634	518.31
525.849	518.31
526.064	510.31
526.28	509.31
526.495	485.31
526.71	485.31
526.925	498.31
527.14	497.31
527.355	492.31
527.57	498.31
527.785	506.31
527.999	477.31
528.214	481.31
528.429	497.31
528.644	515.31
528.859	487.31
529.074	487.31
529.289	512.31
529.503	593.31
529.718	561.31
529.933	500.31
530.148	493.31
530.363	508.31
530.577	499.31
530.792	478.31
531.007	470.31
531.221	471.31
531.436	474.31
531.651	486.31
531.865	489.31
532.08	474.31
532.295	460.31
532.509	468.31
532.724	468.31
532.938	471.31
533.153	460.31
533.367	477.31
533.582	480.31
533.796	484.31
534.011	462.31
534.225	458.31
534.44	450.31
534.654	478.31
534.868	478.31
535.083	474.31
535.297	459.31
535.511	469.31
535.726	485.31
535.94	471.31
536.154	473.31
536.369	469.31
536.583	456.31
536.797	455.31
537.011	445.31
537.225	454.31
537.44	445.31
537.654	459.31
537.868	469.31
538.082	460.31
538.296	451.31
538.51	449.31
538.724	460.31
538.938	453.31
539.153	460.31
539.367	447.31
539.581	450.31
539.795	435.31
540.009	461.31
540.222	467.31
540.436	455.31
540.65	452.31
540.864	437.31
541.078	451.31
541.292	444.31
541.506	450.31
541.72	443.31
541.934	441.31
542.147	433.31
542.361	434.31
542.575	448.31
542.789	440.31
543.002	431.31
543.216	454.31
543.43	436.31
543.644	460.31
543.857	431.31
544.071	445.31
544.285	450.31
544.498	412.31
544.712	439.31
544.925	452.31
545.139	452.31
545.352	432.31
545.566	438.31
545.779	436.31
545.993	447.31
546.206	427.31
546.42	445.31
546.633	443.31
546.847	440.31
547.06	440.31
547.274	432.31
547.487	429.31
547.7	428.31
547.914	450.31
548.127	448.31
548.34	441.31
548.554	421.31
548.767	433.31
548.98	450.31
549.193	445.31
549.407	437.31
549.62	440.31
549.833	463.31
550.046	430.31
550.259	427.31
550.473	413.31
550.686	444.31
550.899	439.31
551.112	411.31
551.325	416.31
551.538	437.31
551.751	411.31
551.964	440.31
552.177	425.31
552.39	442.31
552.603	444.31
552.816	450.31
553.029	469.31
553.242	449.31
553.455	456.31
553.667	482.31
553.88	463.31
554.093	477.31
554.306	445.31
554.519	443.31
554.732	450.31
554.944	433.31
555.157	421.31
555.37	427.31
555.583	414.31
555.795	425.31
556.008	417.31
556.221	400.31
556.433	395.31
556.646	407.31
556.859	406.31
557.071	382.31
557.284	395.31
557.496	379.31
557.709	397.31
557.921	376.31
558.134	377.31
558.346	386.31
558.559	393.31
558.771	392.31
558.984	389.31
559.196	375.31
559.409	378.31
559.621	387.31
559.833	372.31
560.046	386.31
560.258	383.31
560.47	385.31
560.683	363.31
560.895	377.31
561.107	369.31
561.32	372.31
561.532	376.31
561.744	379.31
561.956	377.31
562.168	370.31
562.381	381.31
562.593	384.31
562.805	379.31
563.017	376.31
563.229	385.31
563.441	379.31
563.653	389.31
563.865	397.31
564.077	377.31
564.289	401.31
564.501	392.31
564.713	392.31
564.925	386.31
565.137	421.31
565.349	420.31
565.561	425.31
565.773	449.31
565.985	434.31
566.197	432.31
566.408	477.31
566.62	489.31
566.832	526.31
567.044	510.31
567.255	490.31
567.467	509.31
567.679	528.31
567.891	562.31
568.102	553.31
568.314	554.31
568.526	496.31
568.737	477.31
568.949	467.31
569.161	462.31
569.372	434.31
569.584	429.31
569.795	412.31
570.007	387.31
570.218	465.31
570.43	414.31
570.641	392.31
570.853	402.31
571.064	408.31
571.276	359.31
571.487	383.31
571.698	374.31
571.91	360.31
572.121	367.31
572.333	366.31
572.544	355.31
572.755	348.31
572.966	339.31
573.178	333.31
573.389	345.31
573.6	339.31
573.811	342.31
574.023	339.31
574.234	353.31
574.445	320.31
574.656	320.31
574.867	322.31
575.078	336.31
575.289	330.31
575.501	337.31
575.712	337.31
575.923	322.31
576.134	321.31
576.345	301.31
576.556	313.31
576.767	331.31
576.978	316.31
577.188	317.31
577.399	318.31
577.61	325.31
577.821	333.31
578.032	303.31
578.243	350.31
578.454	560.31
578.665	419.31
578.875	303.31
579.086	319.31
579.297	308.31
579.508	316.31
579.718	316.31
579.929	290.31
580.14	298.31
580.35	309.31
580.561	291.31
580.772	289.31
580.982	287.31
581.193	311.31
581.403	289.31
581.614	294.31
581.825	298.31
582.035	291.31
582.246	287.31
582.456	275.31
582.667	288.31
582.877	291.31
583.087	305.31
583.298	295.31
583.508	282.31
583.719	281.31
583.929	280.31
584.139	288.31
584.35	284.31
584.56	285.31
584.77	290.31
584.981	295.31
585.191	289.31
585.401	281.31
585.611	285.31
585.821	284.31
586.032	300.31
586.242	273.31
586.452	270.31
586.662	282.31
586.872	283.31
587.082	284.31
587.292	281.31
587.502	277.31
587.713	295.31
587.923	296.31
588.133	299.31
588.343	294.31
588.553	272.31
588.762	280.31
588.972	280.31
589.182	289.31
589.392	290.31
589.602	295.31
589.812	281.31
590.022	289.31
590.232	280.31
590.441	281.31
590.651	257.31
590.861	306.31
591.071	284.31
591.281	313.31
591.49	278.31
591.7	315.31
591.91	284.31
592.119	308.31
592.329	301.31
592.539	311.31
592.748	309.31
592.958	307.31
593.167	297.31
593.377	327.31
593.587	337.31
593.796	325.31
594.006	325.31
594.215	319.31
594.424	313.31
594.634	309.31
594.843	295.31
595.053	303.31
595.262	299.31
595.472	291.31
595.681	279.31
595.89	292.31
596.1	287.31
596.309	272.31
596.518	267.31
596.727	290.31
596.937	275.31
597.146	282.31
597.355	262.31
597.564	261.31
597.774	261.31
597.983	276.31
598.192	264.31
598.401	257.31
598.61	244.31
598.819	262.31
599.028	259.31
599.237	261.31
599.446	245.31
599.655	273.31
599.864	269.31
600.073	255.31
600.282	261.31
600.491	252.31
600.7	262.31
600.909	239.31
601.118	231.31
601.327	242.31
601.536	253.31
601.745	247.31
601.953	249.31
602.162	247.31
602.371	226.31
602.58	237.31
602.789	250.31
602.997	247.31
603.206	239.31
603.415	231.31
603.623	234.31
603.832	236.31
604.041	251.31
604.249	231.31
604.458	217.31
604.666	237.31
604.875	248.31
605.084	237.31
605.292	232.31
605.501	234.31
605.709	241.31
605.918	231.31
606.126	239.31
606.334	231.31
606.543	231.31
606.751	222.31
606.96	228.31
607.168	219.31
607.376	225.31
607.585	245.31
607.793	239.31
608.001	228.31
608.21	222.31
608.418	221.31
608.626	222.31
608.834	229.31
609.043	228.31
609.251	232.31
609.459	225.31
609.667	223.31
609.875	218.31
610.083	210.31
610.291	220.31
610.499	226.31
610.707	228.31
610.916	244.31
611.124	230.31
611.332	232.31
611.54	230.31
611.748	232.31
611.955	224.31
612.163	233.31
612.371	226.31
612.579	232.31
612.787	232.31
612.995	232.31
613.203	228.31
613.411	225.31
613.618	223.31
613.826	223.31
614.034	233.31
614.242	231.31
614.449	228.31
614.657	225.31
614.865	229.31
615.072	225.31
615.28	215.31
615.488	216.31
615.695	213.31
615.903	236.31
616.111	227.31
616.318	225.31
616.526	225.31
616.733	225.31
616.941	224.31
617.148	221.31
617.356	217.31
617.563	220.31
617.771	205.31
617.978	215.31
618.185	227.31
618.393	202.31
618.6	235.31
618.807	198.31
619.015	227.31
619.222	208.31
619.429	186.31
619.637	222.31
619.844	206.31
620.051	210.31
620.258	197.31
620.466	182.31
620.673	199.31
620.88	201.31
621.087	223.31
621.294	208.31
621.501	217.31
621.708	201.31
621.915	216.31
622.122	231.31
622.329	217.31
622.536	230.31
622.743	210.31
622.95	211.31
623.157	202.31
623.364	209.31
623.571	198.31
623.778	201.31
623.985	207.31
624.192	208.31
624.399	213.31
624.606	203.31
624.812	199.31
625.019	209.31
625.226	205.31
625.433	206.31
625.639	204.31
625.846	204.31
626.053	197.31
626.259	195.31
626.466	209.31
626.673	212.31
626.879	205.31
627.086	208.31
627.293	201.31
627.499	188.31
627.706	201.31
627.912	203.31
628.119	197.31
628.325	204.31
628.532	192.31
628.738	200.31
628.945	198.31
629.151	196.31
629.357	207.31
629.564	187.31
629.77	179.31
629.976	169.31
630.183	181.31
630.389	196.31
630.595	190.31
630.802	185.31
631.008	187.31
631.214	195.31
631.42	195.31
631.627	184.31
631.833	181.31
632.039	165.31
632.245	165.31
632.451	180.31
632.657	176.31
632.863	181.31
633.069	176.31
633.275	195.31
633.481	173.31
633.688	169.31
633.893	186.31
634.099	167.31
634.305	176.31
634.511	171.31
634.717	183.31
634.923	181.31
635.129	152.31
635.335	169.31
635.541	181.31
635.747	185.31
635.952	160.31
636.158	179.31
636.364	165.31
636.57	167.31
636.775	153.31
636.981	167.31
637.187	170.31
637.392	159.31
637.598	171.31
637.804	174.31
638.009	167.31
638.215	189.31
638.421	162.31
638.626	153.31
638.832	163.31
639.037	152.31
639.243	156.31
639.448	164.31
639.654	165.31
639.859	149.31
640.065	158.31
640.27	173.31
640.475	167.31
640.681	172.31
640.886	176.31
641.091	164.31
641.297	161.31
641.502	148.31
641.707	156.31
641.913	175.31
642.118	170.31
642.323	167.31
642.528	155.31
642.733	154.31
642.939	156.31
643.144	165.31
643.349	155.31
643.554	164.31
643.759	156.31
643.964	166.31
644.169	165.31
644.374	156.31
644.579	150.31
644.784	154.31
644.989	155.31
645.194	150.31
645.399	152.31
645.604	163.31
645.809	159.31
646.014	167.31
646.219	148.31
646.423	147.31
646.628	149.31
646.833	147.31
647.038	159.31
647.243	156.31
647.447	143.31
647.652	160.31
647.857	157.31
648.062	165.31
648.266	171.31
648.471	168.31
648.676	163.31
648.88	172.31
649.085	180.31
649.289	157.31
649.494	169.31
649.698	171.31
649.903	176.31
650.107	164.31
650.312	164.31
650.516	153.31
650.721	152.31
650.925	160.31
651.13	155.31
651.334	166.31
651.539	152.31
651.743	159.31
651.947	147.31
652.152	121.31
652.356	139.31
652.56	138.31
652.764	153.31
652.969	139.31
653.173	138.31
653.377	121.31
653.581	127.31
653.785	119.31
653.99	145.31
654.194	135.31
654.398	124.31
654.602	117.31
654.806	135.31
655.01	145.31
655.214	143.31
655.418	134.31
655.622	122.31
655.826	138.31
656.03	136.31
656.234	133.31
656.438	137.31
656.642	142.31
656.846	124.31
657.049	119.31
657.253	125.31
657.457	123.31
657.661	127.31
657.865	122.31
658.068	112.31
658.272	119.31
658.476	95.31
658.68	113.31
658.883	112.31
659.087	105.31
659.291	81.31
659.494	113.31
659.698	115.31
659.901	119.31
660.105	97.31
660.309	91.31
660.512	103.31
660.716	97.31
660.919	96.31
661.123	86.31
661.326	85.31
661.53	90.31
661.733	90.31
661.936	86.31
662.14	81.31
662.343	100.31
662.546	73.31
662.75	92.31
662.953	99.31
663.156	89.31
663.36	76.31
663.563	93.31
663.766	74.31
663.969	70.31
664.173	73.31
664.376	85.31
664.579	77.31
664.782	85.31
664.985	85.31
665.188	87.31
665.391	80.31
665.594	80.31
665.797	69.31
666	81.31
666.203	69.31
666.406	81.31
666.609	80.31
666.812	84.31
667.015	88.31
667.218	72.31
667.421	83.31
667.624	79.31
667.827	79.31
668.03	66.31
668.232	87.31
668.435	58.31
668.638	83.31
668.841	90.31
669.043	91.31
669.246	75.31
669.449	70.31
669.651	83.31
669.854	79.31
670.057	76.31
670.259	80.31
670.462	76.31
670.665	83.31
670.867	87.31
671.07	93.31
671.272	86.31
671.475	91.31
671.677	95.31
671.88	81.31
672.082	85.31
672.284	82.31
672.487	81.31
672.689	84.31
672.892	83.31
