Data from 1985.PennyLincolnUp.Lamp.En5.5.200Scan.071819.P1_HRD10591_17-02-27-970.txt Node
Date: Thu Jul 18 17:02:27 EDT 2019
User: cochatt
Spectrometer: HR+D1059
Trigger mode: 1
Integration Time (sec): 1.000000E-1
Scans to average: 1
Electric dark correction enabled: true
Nonlinearity correction enabled: false
Boxcar width: 0
XAxis mode: Wavelengths
Number of Pixels in Spectrum: 2048
>>>>>Begin Spectral Data<<<<<
223.165	-12.44
223.4	-12.44
223.635	-12.44
223.869	-17.44
224.104	-15.44
224.338	-14.44
224.573	-7.44
224.808	-1.44
225.042	-15.44
225.277	-8.44
225.511	-7.44
225.746	1.56
225.98	16.56
226.215	2.56
226.449	10.56
226.683	22.56
226.918	24.56
227.152	21.56
227.387	26.56
227.621	34.56
227.856	46.56
228.09	54.56
228.324	48.56
228.559	50.56
228.793	60.56
229.027	90.56
229.262	122.56
229.496	123.56
229.73	133.56
229.964	125.56
230.199	113.56
230.433	108.56
230.667	97.56
230.901	117.56
231.136	123.56
231.37	122.56
231.604	113.56
231.838	101.56
232.072	114.56
232.306	120.56
232.541	114.56
232.775	121.56
233.009	99.56
233.243	106.56
233.477	120.56
233.711	114.56
233.945	104.56
234.179	116.56
234.413	124.56
234.647	115.56
234.881	129.56
235.115	105.56
235.349	118.56
235.583	112.56
235.817	121.56
236.051	114.56
236.285	127.56
236.519	128.56
236.753	127.56
236.987	145.56
237.221	181.56
237.455	215.56
237.689	158.56
237.922	141.56
238.156	119.56
238.39	119.56
238.624	119.56
238.858	131.56
239.091	119.56
239.325	110.56
239.559	124.56
239.793	132.56
240.027	126.56
240.26	125.56
240.494	159.56
240.728	141.56
240.961	130.56
241.195	145.56
241.429	130.56
241.662	131.56
241.896	127.56
242.13	143.56
242.363	136.56
242.597	139.56
242.83	134.56
243.064	140.56
243.298	134.56
243.531	126.56
243.765	153.56
243.998	149.56
244.232	138.56
244.465	146.56
244.699	146.56
244.932	160.56
245.166	142.56
245.399	140.56
245.633	150.56
245.866	148.56
246.099	134.56
246.333	147.56
246.566	142.56
246.8	148.56
247.033	140.56
247.266	155.56
247.5	164.56
247.733	154.56
247.966	148.56
248.2	163.56
248.433	168.56
248.666	179.56
248.899	172.56
249.133	190.56
249.366	207.56
249.599	195.56
249.832	186.56
250.066	169.56
250.299	172.56
250.532	196.56
250.765	179.56
250.998	203.56
251.231	208.56
251.465	198.56
251.698	193.56
251.931	194.56
252.164	183.56
252.397	200.56
252.63	193.56
252.863	202.56
253.096	208.56
253.329	223.56
253.562	221.56
253.795	215.56
254.028	185.56
254.261	210.56
254.494	224.56
254.727	262.56
254.96	266.56
255.193	274.56
255.426	240.56
255.659	228.56
255.892	217.56
256.124	228.56
256.357	217.56
256.59	195.56
256.823	187.56
257.056	199.56
257.289	185.56
257.521	206.56
257.754	211.56
257.987	191.56
258.22	214.56
258.452	199.56
258.685	199.56
258.918	225.56
259.151	203.56
259.383	216.56
259.616	216.56
259.849	230.56
260.081	238.56
260.314	236.56
260.547	251.56
260.779	249.56
261.012	239.56
261.244	225.56
261.477	223.56
261.71	213.56
261.942	220.56
262.175	235.56
262.407	227.56
262.64	211.56
262.872	228.56
263.105	223.56
263.337	233.56
263.57	223.56
263.802	230.56
264.035	218.56
264.267	209.56
264.499	207.56
264.732	219.56
264.964	203.56
265.197	237.56
265.429	211.56
265.661	213.56
265.894	207.56
266.126	212.56
266.358	228.56
266.591	231.56
266.823	219.56
267.055	229.56
267.287	225.56
267.52	233.56
267.752	247.56
267.984	238.56
268.216	228.56
268.448	254.56
268.681	258.56
268.913	255.56
269.145	274.56
269.377	280.56
269.609	274.56
269.841	281.56
270.073	284.56
270.306	294.56
270.538	320.56
270.77	302.56
271.002	308.56
271.234	298.56
271.466	302.56
271.698	298.56
271.93	311.56
272.162	338.56
272.394	327.56
272.626	311.56
272.858	285.56
273.09	294.56
273.322	294.56
273.553	277.56
273.785	275.56
274.017	272.56
274.249	277.56
274.481	277.56
274.713	272.56
274.945	273.56
275.176	266.56
275.408	268.56
275.64	283.56
275.872	269.56
276.104	273.56
276.335	275.56
276.567	281.56
276.799	299.56
277.031	312.56
277.262	325.56
277.494	321.56
277.726	302.56
277.957	311.56
278.189	296.56
278.421	284.56
278.652	297.56
278.884	283.56
279.115	276.56
279.347	293.56
279.579	273.56
279.81	284.56
280.042	284.56
280.273	288.56
280.505	287.56
280.736	292.56
280.968	297.56
281.199	290.56
281.431	288.56
281.662	286.56
281.894	291.56
282.125	268.56
282.356	283.56
282.588	318.56
282.819	331.56
283.051	299.56
283.282	299.56
283.513	301.56
283.745	304.56
283.976	309.56
284.207	322.56
284.439	309.56
284.67	302.56
284.901	300.56
285.132	304.56
285.364	305.56
285.595	303.56
285.826	317.56
286.057	296.56
286.288	294.56
286.52	308.56
286.751	311.56
286.982	300.56
287.213	307.56
287.444	313.56
287.675	334.56
287.906	294.56
288.138	335.56
288.369	344.56
288.6	318.56
288.831	329.56
289.062	310.56
289.293	325.56
289.524	341.56
289.755	303.56
289.986	318.56
290.217	331.56
290.448	305.56
290.679	307.56
290.91	309.56
291.141	318.56
291.371	323.56
291.602	312.56
291.833	316.56
292.064	327.56
292.295	303.56
292.526	326.56
292.757	279.56
292.987	323.56
293.218	327.56
293.449	333.56
293.68	328.56
293.91	338.56
294.141	318.56
294.372	318.56
294.603	341.56
294.833	322.56
295.064	329.56
295.295	314.56
295.525	332.56
295.756	309.56
295.987	331.56
296.217	340.56
296.448	375.56
296.679	338.56
296.909	335.56
297.14	336.56
297.37	326.56
297.601	342.56
297.831	328.56
298.062	322.56
298.292	338.56
298.523	339.56
298.753	343.56
298.984	342.56
299.214	347.56
299.445	343.56
299.675	358.56
299.905	360.56
300.136	351.56
300.366	351.56
300.597	350.56
300.827	343.56
301.057	366.56
301.288	374.56
301.518	379.56
301.748	371.56
301.979	367.56
302.209	371.56
302.439	366.56
302.669	372.56
302.9	353.56
303.13	374.56
303.36	361.56
303.59	366.56
303.82	375.56
304.051	363.56
304.281	370.56
304.511	362.56
304.741	336.56
304.971	366.56
305.201	358.56
305.431	380.56
305.661	386.56
305.891	345.56
306.121	368.56
306.352	358.56
306.582	355.56
306.812	366.56
307.042	374.56
307.272	376.56
307.502	374.56
307.731	378.56
307.961	383.56
308.191	363.56
308.421	375.56
308.651	354.56
308.881	360.56
309.111	372.56
309.341	381.56
309.571	400.56
309.8	395.56
310.03	388.56
310.26	371.56
310.49	402.56
310.72	411.56
310.949	406.56
311.179	420.56
311.409	401.56
311.639	406.56
311.868	391.56
312.098	392.56
312.328	412.56
312.557	432.56
312.787	455.56
313.017	438.56
313.246	412.56
313.476	404.56
313.706	410.56
313.935	423.56
314.165	434.56
314.394	430.56
314.624	452.56
314.853	415.56
315.083	411.56
315.312	415.56
315.542	445.56
315.771	408.56
316.001	397.56
316.23	411.56
316.46	413.56
316.689	421.56
316.919	423.56
317.148	425.56
317.377	404.56
317.607	405.56
317.836	399.56
318.065	408.56
318.295	411.56
318.524	395.56
318.753	430.56
318.983	395.56
319.212	403.56
319.441	434.56
319.67	428.56
319.9	422.56
320.129	410.56
320.358	425.56
320.587	412.56
320.816	416.56
321.046	435.56
321.275	451.56
321.504	418.56
321.733	438.56
321.962	460.56
322.191	446.56
322.42	443.56
322.649	468.56
322.878	490.56
323.108	502.56
323.337	499.56
323.566	493.56
323.795	542.56
324.024	596.56
324.253	676.56
324.482	938.56
324.71	1414.56
324.939	1983.56
325.168	1706.56
325.397	892.56
325.626	676.56
325.855	574.56
326.084	539.56
326.313	498.56
326.542	512.56
326.77	557.56
326.999	631.56
327.228	859.56
327.457	1323.56
327.686	1514.56
327.914	1030.56
328.143	706.56
328.372	636.56
328.6	599.56
328.829	583.56
329.058	581.56
329.287	601.56
329.515	571.56
329.744	515.56
329.972	494.56
330.201	548.56
330.43	537.56
330.658	582.56
330.887	604.56
331.115	616.56
331.344	552.56
331.572	511.56
331.801	516.56
332.03	539.56
332.258	527.56
332.486	502.56
332.715	514.56
332.943	496.56
333.172	515.56
333.4	505.56
333.629	522.56
333.857	539.56
334.085	536.56
334.314	504.56
334.542	521.56
334.771	534.56
334.999	527.56
335.227	504.56
335.455	520.56
335.684	502.56
335.912	515.56
336.14	497.56
336.369	476.56
336.597	484.56
336.825	524.56
337.053	481.56
337.281	503.56
337.51	489.56
337.738	492.56
337.966	473.56
338.194	490.56
338.422	486.56
338.65	466.56
338.878	448.56
339.106	497.56
339.334	471.56
339.562	468.56
339.79	481.56
340.018	472.56
340.246	449.56
340.474	487.56
340.702	469.56
340.93	458.56
341.158	481.56
341.386	486.56
341.614	464.56
341.842	481.56
342.07	446.56
342.298	461.56
342.526	456.56
342.754	452.56
342.981	469.56
343.209	466.56
343.437	451.56
343.665	489.56
343.893	488.56
344.12	495.56
344.348	510.56
344.576	495.56
344.804	467.56
345.031	472.56
345.259	513.56
345.487	467.56
345.714	475.56
345.942	468.56
346.17	455.56
346.397	434.56
346.625	459.56
346.853	470.56
347.08	444.56
347.308	446.56
347.535	447.56
347.763	478.56
347.99	458.56
348.218	468.56
348.445	447.56
348.673	460.56
348.9	446.56
349.128	430.56
349.355	426.56
349.583	441.56
349.81	438.56
350.037	431.56
350.265	452.56
350.492	447.56
350.72	444.56
350.947	436.56
351.174	452.56
351.402	445.56
351.629	444.56
351.856	434.56
352.083	445.56
352.311	463.56
352.538	455.56
352.765	454.56
352.992	437.56
353.22	452.56
353.447	427.56
353.674	433.56
353.901	414.56
354.128	410.56
354.355	416.56
354.583	430.56
354.81	418.56
355.037	425.56
355.264	411.56
355.491	401.56
355.718	410.56
355.945	399.56
356.172	411.56
356.399	415.56
356.626	420.56
356.853	406.56
357.08	402.56
357.307	416.56
357.534	402.56
357.761	399.56
357.988	414.56
358.215	422.56
358.441	400.56
358.668	417.56
358.895	420.56
359.122	432.56
359.349	438.56
359.576	427.56
359.802	454.56
360.029	466.56
360.256	485.56
360.483	479.56
360.709	442.56
360.936	471.56
361.163	441.56
361.39	450.56
361.616	444.56
361.843	441.56
362.07	441.56
362.296	440.56
362.523	447.56
362.749	435.56
362.976	409.56
363.203	417.56
363.429	394.56
363.656	418.56
363.882	415.56
364.109	425.56
364.335	424.56
364.562	417.56
364.788	425.56
365.015	423.56
365.241	416.56
365.468	434.56
365.694	422.56
365.92	432.56
366.147	411.56
366.373	407.56
366.599	434.56
366.826	398.56
367.052	412.56
367.278	406.56
367.505	413.56
367.731	395.56
367.957	402.56
368.184	411.56
368.41	437.56
368.636	436.56
368.862	444.56
369.089	424.56
369.315	426.56
369.541	408.56
369.767	432.56
369.993	421.56
370.219	435.56
370.445	419.56
370.672	432.56
370.898	430.56
371.124	437.56
371.35	412.56
371.576	435.56
371.802	437.56
372.028	422.56
372.254	422.56
372.48	420.56
372.706	450.56
372.932	415.56
373.158	443.56
373.384	432.56
373.61	435.56
373.835	437.56
374.061	431.56
374.287	430.56
374.513	419.56
374.739	431.56
374.965	442.56
375.191	438.56
375.416	428.56
375.642	408.56
375.868	429.56
376.094	432.56
376.319	433.56
376.545	418.56
376.771	434.56
376.997	417.56
377.222	394.56
377.448	419.56
377.674	419.56
377.899	407.56
378.125	424.56
378.35	434.56
378.576	439.56
378.802	396.56
379.027	412.56
379.253	408.56
379.478	422.56
379.704	430.56
379.929	402.56
380.155	419.56
380.38	410.56
380.606	431.56
380.831	415.56
381.057	423.56
381.282	413.56
381.507	434.56
381.733	419.56
381.958	409.56
382.184	421.56
382.409	428.56
382.634	443.56
382.86	421.56
383.085	449.56
383.31	441.56
383.535	427.56
383.761	434.56
383.986	464.56
384.211	489.56
384.436	444.56
384.662	465.56
384.887	458.56
385.112	455.56
385.337	454.56
385.562	460.56
385.787	476.56
386.013	483.56
386.238	459.56
386.463	495.56
386.688	464.56
386.913	457.56
387.138	484.56
387.363	471.56
387.588	476.56
387.813	476.56
388.038	453.56
388.263	463.56
388.488	455.56
388.713	467.56
388.938	476.56
389.163	471.56
389.387	452.56
389.612	452.56
389.837	469.56
390.062	438.56
390.287	474.56
390.512	478.56
390.736	467.56
390.961	472.56
391.186	451.56
391.411	479.56
391.636	477.56
391.86	500.56
392.085	503.56
392.31	482.56
392.534	471.56
392.759	474.56
392.984	481.56
393.208	493.56
393.433	505.56
393.658	485.56
393.882	494.56
394.107	466.56
394.331	482.56
394.556	479.56
394.78	478.56
395.005	502.56
395.229	462.56
395.454	506.56
395.678	514.56
395.903	506.56
396.127	495.56
396.352	526.56
396.576	506.56
396.801	496.56
397.025	500.56
397.249	496.56
397.474	508.56
397.698	497.56
397.922	513.56
398.147	509.56
398.371	519.56
398.595	529.56
398.82	513.56
399.044	559.56
399.268	596.56
399.492	636.56
399.717	690.56
399.941	695.56
400.165	683.56
400.389	680.56
400.613	609.56
400.837	579.56
401.062	575.56
401.286	570.56
401.51	561.56
401.734	547.56
401.958	546.56
402.182	564.56
402.406	572.56
402.63	569.56
402.854	556.56
403.078	551.56
403.302	569.56
403.526	568.56
403.75	584.56
403.974	578.56
404.198	584.56
404.422	591.56
404.645	588.56
404.869	579.56
405.093	583.56
405.317	624.56
405.541	640.56
405.765	608.56
405.988	589.56
406.212	596.56
406.436	615.56
406.66	638.56
406.883	615.56
407.107	656.56
407.331	700.56
407.555	740.56
407.778	744.56
408.002	685.56
408.226	641.56
408.449	640.56
408.673	620.56
408.896	636.56
409.12	692.56
409.344	647.56
409.567	592.56
409.791	575.56
410.014	563.56
410.238	562.56
410.461	563.56
410.685	559.56
410.908	593.56
411.132	605.56
411.355	630.56
411.578	594.56
411.802	554.56
412.025	536.56
412.249	550.56
412.472	557.56
412.695	572.56
412.919	570.56
413.142	530.56
413.365	550.56
413.589	530.56
413.812	535.56
414.035	520.56
414.258	501.56
414.482	526.56
414.705	540.56
414.928	522.56
415.151	534.56
415.374	519.56
415.597	522.56
415.821	543.56
416.044	515.56
416.267	545.56
416.49	515.56
416.713	528.56
416.936	514.56
417.159	512.56
417.382	530.56
417.605	534.56
417.828	547.56
418.051	539.56
418.274	529.56
418.497	524.56
418.72	548.56
418.943	523.56
419.166	550.56
419.389	576.56
419.611	563.56
419.834	552.56
420.057	564.56
420.28	539.56
420.503	545.56
420.726	530.56
420.948	564.56
421.171	591.56
421.394	626.56
421.617	556.56
421.839	546.56
422.062	557.56
422.285	555.56
422.507	607.56
422.73	672.56
422.953	634.56
423.175	583.56
423.398	578.56
423.621	569.56
423.843	603.56
424.066	593.56
424.288	565.56
424.511	607.56
424.733	644.56
424.956	713.56
425.178	682.56
425.401	674.56
425.623	695.56
425.846	603.56
426.068	563.56
426.291	519.56
426.513	582.56
426.735	571.56
426.958	611.56
427.18	666.56
427.402	780.56
427.625	892.56
427.847	728.56
428.069	635.56
428.292	573.56
428.514	530.56
428.736	528.56
428.958	538.56
429.181	518.56
429.403	519.56
429.625	538.56
429.847	532.56
430.069	627.56
430.292	596.56
430.514	541.56
430.736	528.56
430.958	525.56
431.18	505.56
431.402	483.56
431.624	496.56
431.846	494.56
432.068	480.56
432.29	520.56
432.512	487.56
432.734	516.56
432.956	507.56
433.178	506.56
433.4	522.56
433.622	499.56
433.844	509.56
434.066	519.56
434.287	518.56
434.509	540.56
434.731	533.56
434.953	544.56
435.175	538.56
435.397	553.56
435.618	568.56
435.84	632.56
436.062	659.56
436.284	732.56
436.505	622.56
436.727	560.56
436.949	524.56
437.17	524.56
437.392	530.56
437.614	532.56
437.835	558.56
438.057	638.56
438.278	731.56
438.5	747.56
438.721	803.56
438.943	749.56
439.165	586.56
439.386	577.56
439.608	562.56
439.829	581.56
440.05	588.56
440.272	650.56
440.493	590.56
440.715	555.56
440.936	536.56
441.158	533.56
441.379	530.56
441.6	562.56
441.822	593.56
442.043	610.56
442.264	669.56
442.486	703.56
442.707	620.56
442.928	606.56
443.149	582.56
443.371	605.56
443.592	636.56
443.813	738.56
444.034	770.56
444.255	690.56
444.476	585.56
444.698	600.56
444.919	581.56
445.14	688.56
445.361	640.56
445.582	621.56
445.803	657.56
446.024	740.56
446.245	754.56
446.466	687.56
446.687	599.56
446.908	536.56
447.129	534.56
447.35	514.56
447.571	528.56
447.792	516.56
448.013	514.56
448.234	536.56
448.455	566.56
448.675	674.56
448.896	774.56
449.117	648.56
449.338	615.56
449.559	730.56
449.779	834.56
450	662.56
450.221	584.56
450.442	520.56
450.662	487.56
450.883	500.56
451.104	485.56
451.324	497.56
451.545	506.56
451.766	500.56
451.986	478.56
452.207	451.56
452.428	448.56
452.648	471.56
452.869	462.56
453.089	482.56
453.31	501.56
453.53	461.56
453.751	456.56
453.971	461.56
454.192	488.56
454.412	482.56
454.633	477.56
454.853	466.56
455.073	451.56
455.294	488.56
455.514	538.56
455.734	540.56
455.955	471.56
456.175	464.56
456.395	441.56
456.616	438.56
456.836	457.56
457.056	450.56
457.276	441.56
457.497	450.56
457.717	473.56
457.937	457.56
458.157	436.56
458.377	436.56
458.598	480.56
458.818	521.56
459.038	608.56
459.258	612.56
459.478	545.56
459.698	493.56
459.918	520.56
460.138	510.56
460.358	540.56
460.578	528.56
460.798	537.56
461.018	546.56
461.238	551.56
461.458	510.56
461.678	534.56
461.898	538.56
462.118	528.56
462.338	550.56
462.558	568.56
462.777	567.56
462.997	610.56
463.217	632.56
463.437	618.56
463.657	600.56
463.876	578.56
464.096	573.56
464.316	582.56
464.536	592.56
464.755	576.56
464.975	562.56
465.195	587.56
465.414	683.56
465.634	598.56
465.854	539.56
466.073	509.56
466.293	504.56
466.512	518.56
466.732	484.56
466.951	478.56
467.171	477.56
467.391	472.56
467.61	464.56
467.829	480.56
468.049	494.56
468.268	472.56
468.488	481.56
468.707	454.56
468.927	451.56
469.146	473.56
469.365	475.56
469.585	472.56
469.804	492.56
470.023	511.56
470.243	486.56
470.462	484.56
470.681	513.56
470.901	502.56
471.12	486.56
471.339	474.56
471.558	493.56
471.777	510.56
471.997	485.56
472.216	480.56
472.435	475.56
472.654	467.56
472.873	473.56
473.092	457.56
473.311	498.56
473.53	474.56
473.749	481.56
473.968	496.56
474.187	615.56
474.406	648.56
474.625	544.56
474.844	506.56
475.063	469.56
475.282	492.56
475.501	487.56
475.72	510.56
475.939	480.56
476.158	486.56
476.377	496.56
476.596	483.56
476.814	510.56
477.033	508.56
477.252	491.56
477.471	525.56
477.69	514.56
477.908	530.56
478.127	542.56
478.346	536.56
478.564	533.56
478.783	544.56
479.002	542.56
479.22	572.56
479.439	595.56
479.658	567.56
479.876	566.56
480.095	593.56
480.313	602.56
480.532	614.56
480.751	613.56
480.969	574.56
481.188	571.56
481.406	595.56
481.624	576.56
481.843	572.56
482.061	566.56
482.28	570.56
482.498	551.56
482.717	548.56
482.935	566.56
483.153	554.56
483.372	566.56
483.59	538.56
483.808	560.56
484.027	559.56
484.245	590.56
484.463	563.56
484.681	536.56
484.9	570.56
485.118	574.56
485.336	556.56
485.554	580.56
485.772	584.56
485.99	578.56
486.209	588.56
486.427	580.56
486.645	607.56
486.863	598.56
487.081	623.56
487.299	599.56
487.517	592.56
487.735	578.56
487.953	588.56
488.171	596.56
488.389	578.56
488.607	606.56
488.825	577.56
489.043	604.56
489.261	578.56
489.479	602.56
489.696	614.56
489.914	592.56
490.132	609.56
490.35	619.56
490.568	620.56
490.786	633.56
491.003	626.56
491.221	659.56
491.439	663.56
491.657	675.56
491.874	662.56
492.092	666.56
492.31	662.56
492.527	635.56
492.745	662.56
492.963	662.56
493.18	696.56
493.398	664.56
493.615	680.56
493.833	704.56
494.05	677.56
494.268	690.56
494.485	705.56
494.703	670.56
494.92	696.56
495.138	693.56
495.355	711.56
495.573	706.56
495.79	698.56
496.008	699.56
496.225	680.56
496.442	689.56
496.66	689.56
496.877	706.56
497.094	698.56
497.312	703.56
497.529	709.56
497.746	733.56
497.963	756.56
498.181	807.56
498.398	795.56
498.615	825.56
498.832	824.56
499.049	886.56
499.267	893.56
499.484	930.56
499.701	985.56
499.918	1042.56
500.135	1127.56
500.352	1195.56
500.569	1212.56
500.786	1215.56
501.003	1185.56
501.22	1123.56
501.437	1088.56
501.654	1042.56
501.871	963.56
502.088	921.56
502.305	877.56
502.522	858.56
502.739	843.56
502.956	798.56
503.172	800.56
503.389	781.56
503.606	779.56
503.823	775.56
504.04	726.56
504.256	737.56
504.473	729.56
504.69	727.56
504.907	700.56
505.123	712.56
505.34	700.56
505.557	671.56
505.773	686.56
505.99	675.56
506.207	674.56
506.423	688.56
506.64	666.56
506.856	654.56
507.073	637.56
507.289	648.56
507.506	630.56
507.722	651.56
507.939	662.56
508.155	672.56
508.372	633.56
508.588	633.56
508.805	624.56
509.021	593.56
509.238	629.56
509.454	629.56
509.67	628.56
509.887	615.56
510.103	648.56
510.319	637.56
510.536	721.56
510.752	1159.56
510.968	973.56
511.184	643.56
511.401	601.56
511.617	598.56
511.833	597.56
512.049	581.56
512.265	582.56
512.481	583.56
512.698	582.56
512.914	587.56
513.13	589.56
513.346	579.56
513.562	593.56
513.778	599.56
513.994	581.56
514.21	598.56
514.426	626.56
514.642	659.56
514.858	654.56
515.074	707.56
515.29	855.56
515.506	1252.56
515.721	1062.56
515.937	731.56
516.153	664.56
516.369	632.56
516.585	666.56
516.801	642.56
517.016	646.56
517.232	671.56
517.448	673.56
517.664	656.56
517.879	666.56
518.095	650.56
518.311	640.56
518.527	638.56
518.742	664.56
518.958	640.56
519.173	619.56
519.389	612.56
519.605	600.56
519.82	611.56
520.036	617.56
520.251	610.56
520.467	624.56
520.682	642.56
520.898	630.56
521.113	651.56
521.329	684.56
521.544	785.56
521.76	959.56
521.975	1616.56
522.19	1648.56
522.406	854.56
522.621	656.56
522.836	622.56
523.052	610.56
523.267	590.56
523.482	554.56
523.698	524.56
523.913	536.56
524.128	537.56
524.343	541.56
524.559	537.56
524.774	512.56
524.989	536.56
525.204	533.56
525.419	535.56
525.634	507.56
525.849	504.56
526.064	494.56
526.28	523.56
526.495	482.56
526.71	491.56
526.925	501.56
527.14	486.56
527.355	482.56
527.57	483.56
527.785	506.56
527.999	489.56
528.214	480.56
528.429	483.56
528.644	484.56
528.859	490.56
529.074	502.56
529.289	519.56
529.503	576.56
529.718	578.56
529.933	510.56
530.148	516.56
530.363	505.56
530.577	478.56
530.792	492.56
531.007	494.56
531.221	504.56
531.436	484.56
531.651	497.56
531.865	473.56
532.08	474.56
532.295	484.56
532.509	488.56
532.724	481.56
532.938	494.56
533.153	472.56
533.367	465.56
533.582	479.56
533.796	479.56
534.011	483.56
534.225	459.56
534.44	458.56
534.654	456.56
534.868	441.56
535.083	467.56
535.297	475.56
535.511	467.56
535.726	494.56
535.94	476.56
536.154	465.56
536.369	468.56
536.583	448.56
536.797	453.56
537.011	441.56
537.225	438.56
537.44	452.56
537.654	435.56
537.868	446.56
538.082	438.56
538.296	450.56
538.51	457.56
538.724	442.56
538.938	454.56
539.153	452.56
539.367	459.56
539.581	482.56
539.795	431.56
540.009	456.56
540.222	455.56
540.436	478.56
540.65	454.56
540.864	458.56
541.078	484.56
541.292	458.56
541.506	451.56
541.72	448.56
541.934	435.56
542.147	437.56
542.361	425.56
542.575	442.56
542.789	443.56
543.002	432.56
543.216	439.56
543.43	453.56
543.644	430.56
543.857	458.56
544.071	438.56
544.285	443.56
544.498	432.56
544.712	450.56
544.925	449.56
545.139	450.56
545.352	441.56
545.566	421.56
545.779	446.56
545.993	447.56
546.206	460.56
546.42	446.56
546.633	450.56
546.847	427.56
547.06	448.56
547.274	427.56
547.487	423.56
547.7	411.56
547.914	440.56
548.127	428.56
548.34	463.56
548.554	449.56
548.767	430.56
548.98	440.56
549.193	434.56
549.407	452.56
549.62	432.56
549.833	450.56
550.046	451.56
550.259	440.56
550.473	423.56
550.686	432.56
550.899	449.56
551.112	446.56
551.325	421.56
551.538	430.56
551.751	416.56
551.964	410.56
552.177	416.56
552.39	443.56
552.603	430.56
552.816	464.56
553.029	451.56
553.242	465.56
553.455	456.56
553.667	449.56
553.88	475.56
554.093	457.56
554.306	426.56
554.519	431.56
554.732	443.56
554.944	426.56
555.157	401.56
555.37	416.56
555.583	415.56
555.795	414.56
556.008	408.56
556.221	407.56
556.433	415.56
556.646	395.56
556.859	394.56
557.071	388.56
557.284	401.56
557.496	386.56
557.709	382.56
557.921	402.56
558.134	377.56
558.346	380.56
558.559	378.56
558.771	364.56
558.984	372.56
559.196	363.56
559.409	378.56
559.621	370.56
559.833	378.56
560.046	374.56
560.258	381.56
560.47	370.56
560.683	356.56
560.895	369.56
561.107	370.56
561.32	376.56
561.532	363.56
561.744	376.56
561.956	370.56
562.168	372.56
562.381	366.56
562.593	376.56
562.805	392.56
563.017	372.56
563.229	412.56
563.441	379.56
563.653	388.56
563.865	397.56
564.077	385.56
564.289	377.56
564.501	402.56
564.713	409.56
564.925	419.56
565.137	411.56
565.349	418.56
565.561	438.56
565.773	436.56
565.985	416.56
566.197	447.56
566.408	473.56
566.62	483.56
566.832	505.56
567.044	514.56
567.255	498.56
567.467	523.56
567.679	556.56
567.891	554.56
568.102	555.56
568.314	546.56
568.526	525.56
568.737	491.56
568.949	459.56
569.161	457.56
569.372	437.56
569.584	436.56
569.795	409.56
570.007	399.56
570.218	422.56
570.43	440.56
570.641	396.56
570.853	389.56
571.064	391.56
571.276	384.56
571.487	364.56
571.698	366.56
571.91	359.56
572.121	358.56
572.333	332.56
572.544	350.56
572.755	355.56
572.966	336.56
573.178	333.56
573.389	358.56
573.6	342.56
573.811	336.56
574.023	322.56
574.234	324.56
574.445	334.56
574.656	322.56
574.867	328.56
575.078	352.56
575.289	319.56
575.501	332.56
575.712	322.56
575.923	319.56
576.134	323.56
576.345	327.56
576.556	311.56
576.767	322.56
576.978	303.56
577.188	323.56
577.399	314.56
577.61	309.56
577.821	329.56
578.032	321.56
578.243	338.56
578.454	542.56
578.665	418.56
578.875	339.56
579.086	304.56
579.297	287.56
579.508	290.56
579.718	319.56
579.929	299.56
580.14	306.56
580.35	298.56
580.561	284.56
580.772	289.56
580.982	287.56
581.193	301.56
581.403	292.56
581.614	302.56
581.825	306.56
582.035	286.56
582.246	304.56
582.456	307.56
582.667	303.56
582.877	290.56
583.087	291.56
583.298	282.56
583.508	298.56
583.719	292.56
583.929	283.56
584.139	283.56
584.35	282.56
584.56	276.56
584.77	283.56
584.981	291.56
585.191	298.56
585.401	293.56
585.611	306.56
585.821	306.56
586.032	289.56
586.242	285.56
586.452	275.56
586.662	305.56
586.872	291.56
587.082	297.56
587.292	290.56
587.502	282.56
587.713	274.56
587.923	284.56
588.133	292.56
588.343	281.56
588.553	281.56
588.762	285.56
588.972	285.56
589.182	303.56
589.392	270.56
589.602	283.56
589.812	299.56
590.022	276.56
590.232	296.56
590.441	303.56
590.651	294.56
590.861	287.56
591.071	285.56
591.281	297.56
591.49	289.56
591.7	292.56
591.91	297.56
592.119	283.56
592.329	304.56
592.539	312.56
592.748	308.56
592.958	319.56
593.167	320.56
593.377	329.56
593.587	320.56
593.796	327.56
594.006	338.56
594.215	327.56
594.424	306.56
594.634	315.56
594.843	290.56
595.053	292.56
595.262	295.56
595.472	318.56
595.681	283.56
595.89	295.56
596.1	291.56
596.309	290.56
596.518	259.56
596.727	286.56
596.937	274.56
597.146	274.56
597.355	274.56
597.564	248.56
597.774	250.56
597.983	267.56
598.192	254.56
598.401	270.56
598.61	258.56
598.819	248.56
599.028	234.56
599.237	248.56
599.446	242.56
599.655	244.56
599.864	241.56
600.073	240.56
600.282	236.56
600.491	235.56
600.7	273.56
600.909	251.56
601.118	250.56
601.327	256.56
601.536	251.56
601.745	251.56
601.953	251.56
602.162	246.56
602.371	234.56
602.58	241.56
602.789	250.56
602.997	241.56
603.206	238.56
603.415	249.56
603.623	232.56
603.832	245.56
604.041	237.56
604.249	222.56
604.458	223.56
604.666	242.56
604.875	218.56
605.084	234.56
605.292	226.56
605.501	227.56
605.709	258.56
605.918	235.56
606.126	247.56
606.334	228.56
606.543	223.56
606.751	236.56
606.96	231.56
607.168	243.56
607.376	245.56
607.585	220.56
607.793	245.56
608.001	227.56
608.21	224.56
608.418	219.56
608.626	224.56
608.834	225.56
609.043	222.56
609.251	230.56
609.459	238.56
609.667	241.56
609.875	233.56
610.083	214.56
610.291	229.56
610.499	255.56
610.707	225.56
610.916	235.56
611.124	257.56
611.332	241.56
611.54	220.56
611.748	250.56
611.955	241.56
612.163	229.56
612.371	235.56
612.579	231.56
612.787	241.56
612.995	244.56
613.203	226.56
613.411	232.56
613.618	239.56
613.826	231.56
614.034	225.56
614.242	206.56
614.449	220.56
614.657	224.56
614.865	231.56
615.072	222.56
615.28	222.56
615.488	213.56
615.695	234.56
615.903	205.56
616.111	217.56
616.318	230.56
616.526	239.56
616.733	224.56
616.941	219.56
617.148	227.56
617.356	217.56
617.563	240.56
617.771	230.56
617.978	214.56
618.185	214.56
618.393	202.56
618.6	243.56
618.807	203.56
619.015	215.56
619.222	209.56
619.429	232.56
619.637	228.56
619.844	222.56
620.051	197.56
620.258	219.56
620.466	210.56
620.673	213.56
620.88	211.56
621.087	208.56
621.294	195.56
621.501	209.56
621.708	236.56
621.915	204.56
622.122	216.56
622.329	222.56
622.536	220.56
622.743	210.56
622.95	203.56
623.157	217.56
623.364	203.56
623.571	205.56
623.778	198.56
623.985	198.56
624.192	201.56
624.399	205.56
624.606	208.56
624.812	201.56
625.019	201.56
625.226	212.56
625.433	212.56
625.639	204.56
625.846	204.56
626.053	211.56
626.259	181.56
626.466	203.56
626.673	200.56
626.879	197.56
627.086	192.56
627.293	199.56
627.499	202.56
627.706	192.56
627.912	193.56
628.119	189.56
628.325	202.56
628.532	187.56
628.738	194.56
628.945	209.56
629.151	187.56
629.357	194.56
629.564	184.56
629.77	186.56
629.976	183.56
630.183	192.56
630.389	185.56
630.595	197.56
630.802	197.56
631.008	182.56
631.214	199.56
631.42	198.56
631.627	193.56
631.833	182.56
632.039	169.56
632.245	172.56
632.451	180.56
632.657	158.56
632.863	181.56
633.069	174.56
633.275	186.56
633.481	160.56
633.688	171.56
633.893	182.56
634.099	185.56
634.305	177.56
634.511	167.56
634.717	178.56
634.923	178.56
635.129	188.56
635.335	169.56
635.541	172.56
635.747	184.56
635.952	171.56
636.158	170.56
636.364	172.56
636.57	180.56
636.775	162.56
636.981	185.56
637.187	164.56
637.392	179.56
637.598	166.56
637.804	186.56
638.009	187.56
638.215	169.56
638.421	168.56
638.626	166.56
638.832	167.56
639.037	159.56
639.243	158.56
639.448	156.56
639.654	191.56
639.859	156.56
640.065	168.56
640.27	170.56
640.475	177.56
640.681	168.56
640.886	156.56
641.091	156.56
641.297	173.56
641.502	168.56
641.707	165.56
641.913	152.56
642.118	163.56
642.323	155.56
642.528	167.56
642.733	154.56
642.939	163.56
643.144	148.56
643.349	163.56
643.554	164.56
643.759	164.56
643.964	147.56
644.169	181.56
644.374	163.56
644.579	162.56
644.784	169.56
644.989	174.56
645.194	167.56
645.399	165.56
645.604	166.56
645.809	150.56
646.014	175.56
646.219	182.56
646.423	170.56
646.628	160.56
646.833	161.56
647.038	159.56
647.243	167.56
647.447	146.56
647.652	160.56
647.857	176.56
648.062	163.56
648.266	182.56
648.471	170.56
648.676	166.56
648.88	172.56
649.085	162.56
649.289	158.56
649.494	174.56
649.698	188.56
649.903	191.56
650.107	158.56
650.312	150.56
650.516	155.56
650.721	154.56
650.925	150.56
651.13	145.56
651.334	155.56
651.539	134.56
651.743	147.56
651.947	149.56
652.152	146.56
652.356	135.56
652.56	142.56
652.764	135.56
652.969	153.56
653.173	130.56
653.377	131.56
653.581	144.56
653.785	136.56
653.99	125.56
654.194	137.56
654.398	128.56
654.602	142.56
654.806	137.56
655.01	141.56
655.214	142.56
655.418	131.56
655.622	135.56
655.826	134.56
656.03	141.56
656.234	149.56
656.438	132.56
656.642	144.56
656.846	141.56
657.049	138.56
657.253	120.56
657.457	122.56
657.661	106.56
657.865	115.56
658.068	116.56
658.272	102.56
658.476	127.56
658.68	112.56
658.883	107.56
659.087	100.56
659.291	98.56
659.494	99.56
659.698	97.56
659.901	88.56
660.105	103.56
660.309	98.56
660.512	92.56
660.716	104.56
660.919	83.56
661.123	92.56
661.326	96.56
661.53	92.56
661.733	94.56
661.936	92.56
662.14	81.56
662.343	99.56
662.546	84.56
662.75	95.56
662.953	87.56
663.156	76.56
663.36	82.56
663.563	84.56
663.766	78.56
663.969	84.56
664.173	79.56
664.376	81.56
664.579	89.56
664.782	71.56
664.985	76.56
665.188	82.56
665.391	88.56
665.594	74.56
665.797	73.56
666	86.56
666.203	83.56
666.406	90.56
666.609	81.56
666.812	78.56
667.015	73.56
667.218	75.56
667.421	83.56
667.624	81.56
667.827	78.56
668.03	80.56
668.232	90.56
668.435	87.56
668.638	80.56
668.841	99.56
669.043	84.56
669.246	89.56
669.449	84.56
669.651	85.56
669.854	75.56
670.057	89.56
670.259	78.56
670.462	79.56
670.665	84.56
670.867	67.56
671.07	90.56
671.272	76.56
671.475	79.56
671.677	87.56
671.88	73.56
672.082	87.56
672.284	91.56
672.487	91.56
672.689	82.56
672.892	72.56
