Data from 1985.PennyLincolnUp.Lamp.En5.5.200Scan.071819.P1_HRD10591_17-03-54-971.txt Node
Date: Thu Jul 18 17:03:54 EDT 2019
User: cochatt
Spectrometer: HR+D1059
Trigger mode: 1
Integration Time (sec): 1.000000E-1
Scans to average: 1
Electric dark correction enabled: true
Nonlinearity correction enabled: false
Boxcar width: 0
XAxis mode: Wavelengths
Number of Pixels in Spectrum: 2048
>>>>>Begin Spectral Data<<<<<
223.165	-11.44
223.4	-11.44
223.635	-11.44
223.869	-23.44
224.104	-18.44
224.338	-9.44
224.573	-11.44
224.808	-13.44
225.042	-10.44
225.277	-12.44
225.511	9.56
225.746	3.56
225.98	-12.44
226.215	14.56
226.449	18.56
226.683	23.56
226.918	14.56
227.152	38.56
227.387	42.56
227.621	44.56
227.856	37.56
228.09	50.56
228.324	54.56
228.559	46.56
228.793	66.56
229.027	105.56
229.262	96.56
229.496	107.56
229.73	125.56
229.964	147.56
230.199	111.56
230.433	108.56
230.667	101.56
230.901	115.56
231.136	104.56
231.37	106.56
231.604	127.56
231.838	110.56
232.072	110.56
232.306	113.56
232.541	124.56
232.775	117.56
233.009	115.56
233.243	117.56
233.477	115.56
233.711	105.56
233.945	123.56
234.179	116.56
234.413	115.56
234.647	117.56
234.881	125.56
235.115	124.56
235.349	100.56
235.583	117.56
235.817	123.56
236.051	118.56
236.285	124.56
236.519	135.56
236.753	144.56
236.987	137.56
237.221	171.56
237.455	218.56
237.689	177.56
237.922	145.56
238.156	119.56
238.39	137.56
238.624	124.56
238.858	132.56
239.091	125.56
239.325	130.56
239.559	127.56
239.793	144.56
240.027	122.56
240.26	152.56
240.494	168.56
240.728	154.56
240.961	160.56
241.195	142.56
241.429	135.56
241.662	143.56
241.896	140.56
242.13	139.56
242.363	133.56
242.597	131.56
242.83	146.56
243.064	139.56
243.298	159.56
243.531	143.56
243.765	155.56
243.998	157.56
244.232	149.56
244.465	143.56
244.699	149.56
244.932	149.56
245.166	140.56
245.399	154.56
245.633	146.56
245.866	143.56
246.099	135.56
246.333	155.56
246.566	157.56
246.8	133.56
247.033	150.56
247.266	158.56
247.5	167.56
247.733	183.56
247.966	169.56
248.2	157.56
248.433	173.56
248.666	175.56
248.899	183.56
249.133	202.56
249.366	212.56
249.599	195.56
249.832	172.56
250.066	196.56
250.299	189.56
250.532	215.56
250.765	219.56
250.998	231.56
251.231	222.56
251.465	186.56
251.698	214.56
251.931	211.56
252.164	179.56
252.397	192.56
252.63	214.56
252.863	189.56
253.096	201.56
253.329	217.56
253.562	217.56
253.795	213.56
254.028	186.56
254.261	228.56
254.494	226.56
254.727	260.56
254.96	274.56
255.193	268.56
255.426	232.56
255.659	217.56
255.892	251.56
256.124	259.56
256.357	235.56
256.59	226.56
256.823	235.56
257.056	218.56
257.289	220.56
257.521	204.56
257.754	207.56
257.987	209.56
258.22	198.56
258.452	202.56
258.685	221.56
258.918	206.56
259.151	213.56
259.383	232.56
259.616	218.56
259.849	228.56
260.081	229.56
260.314	249.56
260.547	259.56
260.779	227.56
261.012	220.56
261.244	231.56
261.477	226.56
261.71	217.56
261.942	225.56
262.175	238.56
262.407	233.56
262.64	213.56
262.872	209.56
263.105	217.56
263.337	214.56
263.57	205.56
263.802	212.56
264.035	215.56
264.267	227.56
264.499	208.56
264.732	228.56
264.964	221.56
265.197	235.56
265.429	234.56
265.661	223.56
265.894	222.56
266.126	238.56
266.358	236.56
266.591	228.56
266.823	245.56
267.055	245.56
267.287	230.56
267.52	234.56
267.752	219.56
267.984	239.56
268.216	234.56
268.448	245.56
268.681	244.56
268.913	278.56
269.145	274.56
269.377	285.56
269.609	269.56
269.841	282.56
270.073	293.56
270.306	293.56
270.538	307.56
270.77	322.56
271.002	299.56
271.234	290.56
271.466	300.56
271.698	310.56
271.93	339.56
272.162	308.56
272.394	317.56
272.626	315.56
272.858	316.56
273.09	289.56
273.322	281.56
273.553	281.56
273.785	265.56
274.017	266.56
274.249	267.56
274.481	276.56
274.713	280.56
274.945	284.56
275.176	296.56
275.408	292.56
275.64	293.56
275.872	287.56
276.104	283.56
276.335	276.56
276.567	284.56
276.799	301.56
277.031	321.56
277.262	334.56
277.494	321.56
277.726	305.56
277.957	290.56
278.189	288.56
278.421	285.56
278.652	293.56
278.884	269.56
279.115	272.56
279.347	278.56
279.579	295.56
279.81	299.56
280.042	298.56
280.273	271.56
280.505	290.56
280.736	285.56
280.968	290.56
281.199	286.56
281.431	281.56
281.662	293.56
281.894	275.56
282.125	297.56
282.356	326.56
282.588	326.56
282.819	316.56
283.051	318.56
283.282	292.56
283.513	305.56
283.745	311.56
283.976	305.56
284.207	316.56
284.439	305.56
284.67	294.56
284.901	315.56
285.132	301.56
285.364	287.56
285.595	311.56
285.826	300.56
286.057	323.56
286.288	307.56
286.52	295.56
286.751	306.56
286.982	316.56
287.213	314.56
287.444	312.56
287.675	319.56
287.906	316.56
288.138	310.56
288.369	334.56
288.6	332.56
288.831	318.56
289.062	340.56
289.293	325.56
289.524	318.56
289.755	305.56
289.986	306.56
290.217	325.56
290.448	323.56
290.679	334.56
290.91	303.56
291.141	314.56
291.371	318.56
291.602	322.56
291.833	320.56
292.064	327.56
292.295	314.56
292.526	327.56
292.757	313.56
292.987	321.56
293.218	327.56
293.449	333.56
293.68	325.56
293.91	319.56
294.141	314.56
294.372	327.56
294.603	329.56
294.833	331.56
295.064	329.56
295.295	340.56
295.525	339.56
295.756	335.56
295.987	320.56
296.217	359.56
296.448	355.56
296.679	336.56
296.909	325.56
297.14	336.56
297.37	342.56
297.601	335.56
297.831	327.56
298.062	335.56
298.292	337.56
298.523	346.56
298.753	341.56
298.984	358.56
299.214	345.56
299.445	338.56
299.675	342.56
299.905	348.56
300.136	365.56
300.366	359.56
300.597	341.56
300.827	353.56
301.057	346.56
301.288	365.56
301.518	370.56
301.748	382.56
301.979	366.56
302.209	374.56
302.439	362.56
302.669	364.56
302.9	348.56
303.13	363.56
303.36	355.56
303.59	369.56
303.82	372.56
304.051	374.56
304.281	367.56
304.511	355.56
304.741	365.56
304.971	383.56
305.201	358.56
305.431	364.56
305.661	362.56
305.891	371.56
306.121	353.56
306.352	383.56
306.582	377.56
306.812	359.56
307.042	360.56
307.272	373.56
307.502	375.56
307.731	375.56
307.961	366.56
308.191	362.56
308.421	361.56
308.651	359.56
308.881	389.56
309.111	379.56
309.341	354.56
309.571	395.56
309.8	421.56
310.03	387.56
310.26	391.56
310.49	400.56
310.72	411.56
310.949	420.56
311.179	419.56
311.409	394.56
311.639	392.56
311.868	414.56
312.098	405.56
312.328	388.56
312.557	421.56
312.787	433.56
313.017	413.56
313.246	399.56
313.476	406.56
313.706	420.56
313.935	419.56
314.165	419.56
314.394	435.56
314.624	419.56
314.853	422.56
315.083	439.56
315.312	417.56
315.542	410.56
315.771	409.56
316.001	413.56
316.23	418.56
316.46	401.56
316.689	414.56
316.919	425.56
317.148	422.56
317.377	421.56
317.607	418.56
317.836	431.56
318.065	394.56
318.295	404.56
318.524	417.56
318.753	416.56
318.983	428.56
319.212	395.56
319.441	419.56
319.67	421.56
319.9	410.56
320.129	417.56
320.358	419.56
320.587	421.56
320.816	440.56
321.046	443.56
321.275	420.56
321.504	433.56
321.733	411.56
321.962	437.56
322.191	455.56
322.42	475.56
322.649	452.56
322.878	476.56
323.108	473.56
323.337	498.56
323.566	517.56
323.795	547.56
324.024	572.56
324.253	689.56
324.482	937.56
324.71	1421.56
324.939	2006.56
325.168	1683.56
325.397	901.56
325.626	637.56
325.855	550.56
326.084	519.56
326.313	531.56
326.542	549.56
326.77	563.56
326.999	654.56
327.228	848.56
327.457	1268.56
327.686	1493.56
327.914	1037.56
328.143	717.56
328.372	635.56
328.6	615.56
328.829	597.56
329.058	596.56
329.287	586.56
329.515	571.56
329.744	537.56
329.972	561.56
330.201	565.56
330.43	608.56
330.658	653.56
330.887	641.56
331.115	611.56
331.344	559.56
331.572	537.56
331.801	517.56
332.03	528.56
332.258	509.56
332.486	486.56
332.715	499.56
332.943	527.56
333.172	528.56
333.4	529.56
333.629	548.56
333.857	536.56
334.085	561.56
334.314	575.56
334.542	595.56
334.771	630.56
334.999	577.56
335.227	549.56
335.455	516.56
335.684	515.56
335.912	507.56
336.14	509.56
336.369	513.56
336.597	499.56
336.825	485.56
337.053	482.56
337.281	482.56
337.51	501.56
337.738	501.56
337.966	469.56
338.194	467.56
338.422	480.56
338.65	476.56
338.878	449.56
339.106	479.56
339.334	475.56
339.562	468.56
339.79	439.56
340.018	462.56
340.246	469.56
340.474	482.56
340.702	474.56
340.93	444.56
341.158	458.56
341.386	472.56
341.614	479.56
341.842	460.56
342.07	449.56
342.298	445.56
342.526	446.56
342.754	444.56
342.981	451.56
343.209	453.56
343.437	449.56
343.665	492.56
343.893	498.56
344.12	486.56
344.348	480.56
344.576	472.56
344.804	504.56
345.031	463.56
345.259	494.56
345.487	479.56
345.714	494.56
345.942	458.56
346.17	442.56
346.397	449.56
346.625	465.56
346.853	444.56
347.08	441.56
347.308	442.56
347.535	454.56
347.763	447.56
347.99	470.56
348.218	449.56
348.445	455.56
348.673	457.56
348.9	440.56
349.128	414.56
349.355	430.56
349.583	435.56
349.81	433.56
350.037	425.56
350.265	443.56
350.492	435.56
350.72	427.56
350.947	448.56
351.174	454.56
351.402	478.56
351.629	438.56
351.856	437.56
352.083	455.56
352.311	445.56
352.538	441.56
352.765	446.56
352.992	438.56
353.22	431.56
353.447	430.56
353.674	423.56
353.901	431.56
354.128	407.56
354.355	414.56
354.583	424.56
354.81	422.56
355.037	423.56
355.264	420.56
355.491	419.56
355.718	416.56
355.945	421.56
356.172	398.56
356.399	415.56
356.626	431.56
356.853	408.56
357.08	404.56
357.307	399.56
357.534	428.56
357.761	419.56
357.988	417.56
358.215	415.56
358.441	442.56
358.668	401.56
358.895	439.56
359.122	430.56
359.349	412.56
359.576	451.56
359.802	455.56
360.029	478.56
360.256	479.56
360.483	467.56
360.709	425.56
360.936	444.56
361.163	421.56
361.39	433.56
361.616	428.56
361.843	439.56
362.07	420.56
362.296	426.56
362.523	442.56
362.749	451.56
362.976	417.56
363.203	434.56
363.429	417.56
363.656	419.56
363.882	428.56
364.109	408.56
364.335	418.56
364.562	436.56
364.788	435.56
365.015	421.56
365.241	418.56
365.468	416.56
365.694	440.56
365.92	411.56
366.147	422.56
366.373	425.56
366.599	425.56
366.826	400.56
367.052	412.56
367.278	398.56
367.505	419.56
367.731	422.56
367.957	423.56
368.184	424.56
368.41	423.56
368.636	443.56
368.862	435.56
369.089	434.56
369.315	431.56
369.541	405.56
369.767	413.56
369.993	419.56
370.219	414.56
370.445	403.56
370.672	431.56
370.898	412.56
371.124	405.56
371.35	433.56
371.576	423.56
371.802	430.56
372.028	423.56
372.254	412.56
372.48	409.56
372.706	431.56
372.932	429.56
373.158	428.56
373.384	431.56
373.61	435.56
373.835	427.56
374.061	452.56
374.287	418.56
374.513	437.56
374.739	425.56
374.965	455.56
375.191	443.56
375.416	442.56
375.642	411.56
375.868	418.56
376.094	406.56
376.319	427.56
376.545	397.56
376.771	419.56
376.997	426.56
377.222	424.56
377.448	400.56
377.674	407.56
377.899	413.56
378.125	406.56
378.35	389.56
378.576	393.56
378.802	420.56
379.027	389.56
379.253	403.56
379.478	387.56
379.704	411.56
379.929	395.56
380.155	414.56
380.38	426.56
380.606	426.56
380.831	424.56
381.057	415.56
381.282	404.56
381.507	403.56
381.733	431.56
381.958	437.56
382.184	444.56
382.409	427.56
382.634	422.56
382.86	443.56
383.085	436.56
383.31	438.56
383.535	435.56
383.761	442.56
383.986	429.56
384.211	441.56
384.436	463.56
384.662	446.56
384.887	473.56
385.112	455.56
385.337	474.56
385.562	438.56
385.787	472.56
386.013	480.56
386.238	470.56
386.463	466.56
386.688	467.56
386.913	459.56
387.138	464.56
387.363	452.56
387.588	447.56
387.813	476.56
388.038	464.56
388.263	451.56
388.488	452.56
388.713	442.56
388.938	460.56
389.163	475.56
389.387	483.56
389.612	434.56
389.837	456.56
390.062	429.56
390.287	449.56
390.512	468.56
390.736	465.56
390.961	474.56
391.186	476.56
391.411	476.56
391.636	471.56
391.86	491.56
392.085	492.56
392.31	506.56
392.534	494.56
392.759	461.56
392.984	461.56
393.208	484.56
393.433	488.56
393.658	487.56
393.882	462.56
394.107	462.56
394.331	467.56
394.556	475.56
394.78	477.56
395.005	464.56
395.229	479.56
395.454	484.56
395.678	498.56
395.903	491.56
396.127	508.56
396.352	499.56
396.576	505.56
396.801	475.56
397.025	469.56
397.249	489.56
397.474	502.56
397.698	474.56
397.922	521.56
398.147	513.56
398.371	525.56
398.595	540.56
398.82	528.56
399.044	558.56
399.268	602.56
399.492	631.56
399.717	662.56
399.941	673.56
400.165	717.56
400.389	675.56
400.613	643.56
400.837	570.56
401.062	556.56
401.286	569.56
401.51	536.56
401.734	517.56
401.958	531.56
402.182	527.56
402.406	551.56
402.63	562.56
402.854	568.56
403.078	548.56
403.302	560.56
403.526	578.56
403.75	580.56
403.974	603.56
404.198	616.56
404.422	601.56
404.645	583.56
404.869	597.56
405.093	613.56
405.317	637.56
405.541	661.56
405.765	628.56
405.988	600.56
406.212	592.56
406.436	639.56
406.66	627.56
406.883	606.56
407.107	632.56
407.331	671.56
407.555	732.56
407.778	707.56
408.002	677.56
408.226	635.56
408.449	620.56
408.673	610.56
408.896	633.56
409.12	643.56
409.344	640.56
409.567	572.56
409.791	565.56
410.014	548.56
410.238	535.56
410.461	554.56
410.685	563.56
410.908	593.56
411.132	596.56
411.355	639.56
411.578	611.56
411.802	555.56
412.025	540.56
412.249	571.56
412.472	594.56
412.695	633.56
412.919	617.56
413.142	567.56
413.365	552.56
413.589	555.56
413.812	518.56
414.035	513.56
414.258	522.56
414.482	527.56
414.705	534.56
414.928	527.56
415.151	537.56
415.374	535.56
415.597	526.56
415.821	520.56
416.044	522.56
416.267	524.56
416.49	494.56
416.713	515.56
416.936	511.56
417.159	518.56
417.382	517.56
417.605	533.56
417.828	521.56
418.051	529.56
418.274	537.56
418.497	486.56
418.72	534.56
418.943	513.56
419.166	538.56
419.389	557.56
419.611	555.56
419.834	538.56
420.057	570.56
420.28	562.56
420.503	547.56
420.726	530.56
420.948	545.56
421.171	602.56
421.394	612.56
421.617	567.56
421.839	545.56
422.062	549.56
422.285	555.56
422.507	600.56
422.73	681.56
422.953	631.56
423.175	566.56
423.398	553.56
423.621	570.56
423.843	579.56
424.066	607.56
424.288	547.56
424.511	578.56
424.733	617.56
424.956	685.56
425.178	673.56
425.401	658.56
425.623	703.56
425.846	599.56
426.068	574.56
426.291	553.56
426.513	567.56
426.735	579.56
426.958	592.56
427.18	666.56
427.402	797.56
427.625	876.56
427.847	751.56
428.069	671.56
428.292	606.56
428.514	570.56
428.736	524.56
428.958	519.56
429.181	521.56
429.403	506.56
429.625	532.56
429.847	542.56
430.069	613.56
430.292	604.56
430.514	529.56
430.736	542.56
430.958	496.56
431.18	513.56
431.402	486.56
431.624	512.56
431.846	486.56
432.068	491.56
432.29	491.56
432.512	509.56
432.734	494.56
432.956	487.56
433.178	489.56
433.4	520.56
433.622	508.56
433.844	471.56
434.066	490.56
434.287	498.56
434.509	506.56
434.731	534.56
434.953	540.56
435.175	540.56
435.397	562.56
435.618	589.56
435.84	606.56
436.062	668.56
436.284	720.56
436.505	618.56
436.727	563.56
436.949	519.56
437.17	532.56
437.392	509.56
437.614	533.56
437.835	538.56
438.057	641.56
438.278	718.56
438.5	726.56
438.721	777.56
438.943	753.56
439.165	618.56
439.386	579.56
439.608	555.56
439.829	542.56
440.05	582.56
440.272	610.56
440.493	588.56
440.715	556.56
440.936	527.56
441.158	521.56
441.379	522.56
441.6	518.56
441.822	540.56
442.043	598.56
442.264	668.56
442.486	702.56
442.707	599.56
442.928	583.56
443.149	566.56
443.371	585.56
443.592	634.56
443.813	723.56
444.034	791.56
444.255	674.56
444.476	607.56
444.698	602.56
444.919	592.56
445.14	716.56
445.361	661.56
445.582	625.56
445.803	658.56
446.024	707.56
446.245	741.56
446.466	694.56
446.687	565.56
446.908	556.56
447.129	519.56
447.35	518.56
447.571	521.56
447.792	505.56
448.013	502.56
448.234	520.56
448.455	572.56
448.675	653.56
448.896	745.56
449.117	648.56
449.338	632.56
449.559	741.56
449.779	817.56
450	645.56
450.221	541.56
450.442	509.56
450.662	495.56
450.883	491.56
451.104	521.56
451.324	503.56
451.545	489.56
451.766	474.56
451.986	448.56
452.207	457.56
452.428	464.56
452.648	452.56
452.869	455.56
453.089	478.56
453.31	467.56
453.53	477.56
453.751	454.56
453.971	467.56
454.192	466.56
454.412	473.56
454.633	441.56
454.853	453.56
455.073	451.56
455.294	481.56
455.514	520.56
455.734	511.56
455.955	470.56
456.175	455.56
456.395	436.56
456.616	434.56
456.836	442.56
457.056	434.56
457.276	423.56
457.497	421.56
457.717	430.56
457.937	421.56
458.157	448.56
458.377	474.56
458.598	462.56
458.818	543.56
459.038	581.56
459.258	611.56
459.478	528.56
459.698	504.56
459.918	491.56
460.138	512.56
460.358	516.56
460.578	537.56
460.798	500.56
461.018	530.56
461.238	521.56
461.458	511.56
461.678	527.56
461.898	527.56
462.118	531.56
462.338	532.56
462.558	546.56
462.777	566.56
462.997	583.56
463.217	605.56
463.437	634.56
463.657	603.56
463.876	580.56
464.096	571.56
464.316	562.56
464.536	597.56
464.755	565.56
464.975	557.56
465.195	591.56
465.414	659.56
465.634	598.56
465.854	537.56
466.073	514.56
466.293	511.56
466.512	499.56
466.732	478.56
466.951	484.56
467.171	485.56
467.391	489.56
467.61	484.56
467.829	499.56
468.049	483.56
468.268	485.56
468.488	471.56
468.707	467.56
468.927	462.56
469.146	472.56
469.365	471.56
469.585	459.56
469.804	489.56
470.023	480.56
470.243	500.56
470.462	476.56
470.681	497.56
470.901	499.56
471.12	499.56
471.339	485.56
471.558	517.56
471.777	470.56
471.997	469.56
472.216	500.56
472.435	543.56
472.654	495.56
472.873	481.56
473.092	483.56
473.311	476.56
473.53	464.56
473.749	478.56
473.968	528.56
474.187	610.56
474.406	614.56
474.625	532.56
474.844	494.56
475.063	482.56
475.282	477.56
475.501	478.56
475.72	488.56
475.939	486.56
476.158	515.56
476.377	515.56
476.596	489.56
476.814	502.56
477.033	500.56
477.252	520.56
477.471	510.56
477.69	531.56
477.908	524.56
478.127	514.56
478.346	546.56
478.564	536.56
478.783	548.56
479.002	562.56
479.22	564.56
479.439	549.56
479.658	591.56
479.876	586.56
480.095	598.56
480.313	635.56
480.532	607.56
480.751	611.56
480.969	623.56
481.188	655.56
481.406	709.56
481.624	671.56
481.843	593.56
482.061	595.56
482.28	581.56
482.498	574.56
482.717	565.56
482.935	549.56
483.153	543.56
483.372	549.56
483.59	544.56
483.808	563.56
484.027	572.56
484.245	565.56
484.463	547.56
484.681	578.56
484.9	566.56
485.118	574.56
485.336	569.56
485.554	577.56
485.772	582.56
485.99	565.56
486.209	613.56
486.427	585.56
486.645	584.56
486.863	581.56
487.081	600.56
487.299	608.56
487.517	582.56
487.735	591.56
487.953	605.56
488.171	591.56
488.389	618.56
488.607	578.56
488.825	602.56
489.043	587.56
489.261	637.56
489.479	609.56
489.696	589.56
489.914	600.56
490.132	599.56
490.35	618.56
490.568	641.56
490.786	641.56
491.003	639.56
491.221	635.56
491.439	686.56
491.657	666.56
491.874	679.56
492.092	707.56
492.31	694.56
492.527	713.56
492.745	723.56
492.963	695.56
493.18	703.56
493.398	697.56
493.615	713.56
493.833	712.56
494.05	718.56
494.268	706.56
494.485	705.56
494.703	717.56
494.92	710.56
495.138	690.56
495.355	683.56
495.573	718.56
495.79	731.56
496.008	705.56
496.225	702.56
496.442	698.56
496.66	707.56
496.877	689.56
497.094	709.56
497.312	719.56
497.529	727.56
497.746	749.56
497.963	735.56
498.181	773.56
498.398	817.56
498.615	830.56
498.832	819.56
499.049	873.56
499.267	886.56
499.484	911.56
499.701	965.56
499.918	1022.56
500.135	1107.56
500.352	1151.56
500.569	1187.56
500.786	1198.56
501.003	1172.56
501.22	1123.56
501.437	1065.56
501.654	981.56
501.871	984.56
502.088	912.56
502.305	884.56
502.522	838.56
502.739	826.56
502.956	773.56
503.172	761.56
503.389	730.56
503.606	758.56
503.823	744.56
504.04	738.56
504.256	750.56
504.473	731.56
504.69	704.56
504.907	735.56
505.123	735.56
505.34	714.56
505.557	682.56
505.773	687.56
505.99	671.56
506.207	660.56
506.423	670.56
506.64	659.56
506.856	653.56
507.073	655.56
507.289	650.56
507.506	660.56
507.722	657.56
507.939	681.56
508.155	660.56
508.372	617.56
508.588	630.56
508.805	635.56
509.021	614.56
509.238	618.56
509.454	651.56
509.67	627.56
509.887	617.56
510.103	631.56
510.319	626.56
510.536	695.56
510.752	1134.56
510.968	932.56
511.184	627.56
511.401	606.56
511.617	611.56
511.833	617.56
512.049	616.56
512.265	609.56
512.481	587.56
512.698	600.56
512.914	600.56
513.13	600.56
513.346	580.56
513.562	555.56
513.778	572.56
513.994	616.56
514.21	572.56
514.426	602.56
514.642	661.56
514.858	663.56
515.074	690.56
515.29	818.56
515.506	1163.56
515.721	1008.56
515.937	725.56
516.153	645.56
516.369	645.56
516.585	640.56
516.801	629.56
517.016	629.56
517.232	659.56
517.448	643.56
517.664	654.56
517.879	661.56
518.095	659.56
518.311	650.56
518.527	654.56
518.742	622.56
518.958	641.56
519.173	611.56
519.389	637.56
519.605	615.56
519.82	626.56
520.036	603.56
520.251	620.56
520.467	648.56
520.682	617.56
520.898	643.56
521.113	647.56
521.329	683.56
521.544	757.56
521.76	901.56
521.975	1481.56
522.19	1503.56
522.406	819.56
522.621	661.56
522.836	629.56
523.052	582.56
523.267	581.56
523.482	553.56
523.698	539.56
523.913	549.56
524.128	543.56
524.343	506.56
524.559	510.56
524.774	507.56
524.989	545.56
525.204	515.56
525.419	524.56
525.634	515.56
525.849	510.56
526.064	490.56
526.28	500.56
526.495	500.56
526.71	518.56
526.925	490.56
527.14	478.56
527.355	482.56
527.57	505.56
527.785	483.56
527.999	464.56
528.214	478.56
528.429	488.56
528.644	499.56
528.859	487.56
529.074	470.56
529.289	490.56
529.503	579.56
529.718	571.56
529.933	519.56
530.148	491.56
530.363	468.56
530.577	489.56
530.792	495.56
531.007	476.56
531.221	478.56
531.436	470.56
531.651	466.56
531.865	469.56
532.08	469.56
532.295	463.56
532.509	443.56
532.724	481.56
532.938	455.56
533.153	455.56
533.367	460.56
533.582	457.56
533.796	486.56
534.011	488.56
534.225	466.56
534.44	454.56
534.654	455.56
534.868	457.56
535.083	459.56
535.297	435.56
535.511	460.56
535.726	469.56
535.94	467.56
536.154	457.56
536.369	468.56
536.583	446.56
536.797	449.56
537.011	464.56
537.225	453.56
537.44	436.56
537.654	452.56
537.868	435.56
538.082	428.56
538.296	477.56
538.51	465.56
538.724	443.56
538.938	441.56
539.153	462.56
539.367	488.56
539.581	444.56
539.795	442.56
540.009	452.56
540.222	446.56
540.436	437.56
540.65	443.56
540.864	449.56
541.078	451.56
541.292	439.56
541.506	442.56
541.72	444.56
541.934	416.56
542.147	437.56
542.361	437.56
542.575	428.56
542.789	440.56
543.002	449.56
543.216	453.56
543.43	430.56
543.644	457.56
543.857	465.56
544.071	436.56
544.285	450.56
544.498	428.56
544.712	436.56
544.925	435.56
545.139	421.56
545.352	413.56
545.566	458.56
545.779	443.56
545.993	422.56
546.206	447.56
546.42	462.56
546.633	443.56
546.847	419.56
547.06	439.56
547.274	442.56
547.487	433.56
547.7	445.56
547.914	439.56
548.127	443.56
548.34	442.56
548.554	429.56
548.767	444.56
548.98	422.56
549.193	433.56
549.407	452.56
549.62	441.56
549.833	434.56
550.046	448.56
550.259	421.56
550.473	430.56
550.686	445.56
550.899	428.56
551.112	431.56
551.325	421.56
551.538	424.56
551.751	415.56
551.964	423.56
552.177	428.56
552.39	419.56
552.603	438.56
552.816	434.56
553.029	429.56
553.242	448.56
553.455	449.56
553.667	456.56
553.88	455.56
554.093	448.56
554.306	461.56
554.519	433.56
554.732	423.56
554.944	397.56
555.157	427.56
555.37	413.56
555.583	432.56
555.795	403.56
556.008	391.56
556.221	394.56
556.433	414.56
556.646	390.56
556.859	380.56
557.071	382.56
557.284	382.56
557.496	398.56
557.709	388.56
557.921	401.56
558.134	391.56
558.346	372.56
558.559	369.56
558.771	375.56
558.984	363.56
559.196	365.56
559.409	377.56
559.621	381.56
559.833	370.56
560.046	391.56
560.258	380.56
560.47	366.56
560.683	375.56
560.895	377.56
561.107	402.56
561.32	361.56
561.532	375.56
561.744	388.56
561.956	392.56
562.168	374.56
562.381	367.56
562.593	370.56
562.805	381.56
563.017	363.56
563.229	374.56
563.441	393.56
563.653	391.56
563.865	391.56
564.077	382.56
564.289	378.56
564.501	400.56
564.713	388.56
564.925	417.56
565.137	409.56
565.349	417.56
565.561	427.56
565.773	432.56
565.985	457.56
566.197	459.56
566.408	467.56
566.62	505.56
566.832	505.56
567.044	534.56
567.255	508.56
567.467	521.56
567.679	522.56
567.891	537.56
568.102	555.56
568.314	515.56
568.526	494.56
568.737	489.56
568.949	454.56
569.161	455.56
569.372	436.56
569.584	408.56
569.795	412.56
570.007	405.56
570.218	445.56
570.43	421.56
570.641	391.56
570.853	381.56
571.064	372.56
571.276	359.56
571.487	371.56
571.698	370.56
571.91	366.56
572.121	349.56
572.333	360.56
572.544	357.56
572.755	339.56
572.966	335.56
573.178	326.56
573.389	340.56
573.6	354.56
573.811	327.56
574.023	323.56
574.234	341.56
574.445	334.56
574.656	339.56
574.867	322.56
575.078	322.56
575.289	329.56
575.501	326.56
575.712	320.56
575.923	317.56
576.134	319.56
576.345	316.56
576.556	314.56
576.767	312.56
576.978	322.56
577.188	331.56
577.399	322.56
577.61	316.56
577.821	304.56
578.032	294.56
578.243	338.56
578.454	545.56
578.665	403.56
578.875	333.56
579.086	298.56
579.297	323.56
579.508	317.56
579.718	288.56
579.929	323.56
580.14	322.56
580.35	291.56
580.561	301.56
580.772	298.56
580.982	306.56
581.193	295.56
581.403	313.56
581.614	309.56
581.825	307.56
582.035	284.56
582.246	307.56
582.456	307.56
582.667	293.56
582.877	287.56
583.087	299.56
583.298	296.56
583.508	281.56
583.719	299.56
583.929	300.56
584.139	276.56
584.35	266.56
584.56	284.56
584.77	277.56
584.981	261.56
585.191	295.56
585.401	294.56
585.611	281.56
585.821	295.56
586.032	278.56
586.242	281.56
586.452	285.56
586.662	269.56
586.872	277.56
587.082	296.56
587.292	287.56
587.502	300.56
587.713	271.56
587.923	283.56
588.133	280.56
588.343	287.56
588.553	295.56
588.762	301.56
588.972	303.56
589.182	279.56
589.392	278.56
589.602	285.56
589.812	273.56
590.022	285.56
590.232	284.56
590.441	286.56
590.651	279.56
590.861	277.56
591.071	296.56
591.281	295.56
591.49	287.56
591.7	310.56
591.91	294.56
592.119	299.56
592.329	311.56
592.539	303.56
592.748	313.56
592.958	309.56
593.167	319.56
593.377	295.56
593.587	329.56
593.796	325.56
594.006	325.56
594.215	317.56
594.424	342.56
594.634	320.56
594.843	314.56
595.053	307.56
595.262	309.56
595.472	282.56
595.681	305.56
595.89	283.56
596.1	284.56
596.309	287.56
596.518	269.56
596.727	267.56
596.937	268.56
597.146	275.56
597.355	278.56
597.564	254.56
597.774	271.56
597.983	271.56
598.192	247.56
598.401	247.56
598.61	249.56
598.819	257.56
599.028	242.56
599.237	261.56
599.446	254.56
599.655	254.56
599.864	249.56
600.073	263.56
600.282	253.56
600.491	248.56
600.7	241.56
600.909	236.56
601.118	245.56
601.327	263.56
601.536	267.56
601.745	246.56
601.953	243.56
602.162	234.56
602.371	237.56
602.58	245.56
602.789	225.56
602.997	240.56
603.206	252.56
603.415	238.56
603.623	253.56
603.832	242.56
604.041	229.56
604.249	247.56
604.458	224.56
604.666	246.56
604.875	231.56
605.084	245.56
605.292	248.56
605.501	220.56
605.709	245.56
605.918	218.56
606.126	245.56
606.334	236.56
606.543	231.56
606.751	229.56
606.96	216.56
607.168	233.56
607.376	238.56
607.585	230.56
607.793	235.56
608.001	230.56
608.21	224.56
608.418	227.56
608.626	225.56
608.834	226.56
609.043	229.56
609.251	234.56
609.459	234.56
609.667	220.56
609.875	224.56
610.083	244.56
610.291	231.56
610.499	235.56
610.707	218.56
610.916	226.56
611.124	238.56
611.332	250.56
611.54	245.56
611.748	253.56
611.955	248.56
612.163	231.56
612.371	223.56
612.579	229.56
612.787	221.56
612.995	240.56
613.203	243.56
613.411	236.56
613.618	241.56
613.826	237.56
614.034	240.56
614.242	233.56
614.449	217.56
614.657	210.56
614.865	227.56
615.072	227.56
615.28	221.56
615.488	229.56
615.695	234.56
615.903	227.56
616.111	238.56
616.318	234.56
616.526	207.56
616.733	221.56
616.941	204.56
617.148	226.56
617.356	220.56
617.563	229.56
617.771	206.56
617.978	215.56
618.185	217.56
618.393	208.56
618.6	236.56
618.807	212.56
619.015	222.56
619.222	217.56
619.429	207.56
619.637	225.56
619.844	217.56
620.051	205.56
620.258	199.56
620.466	234.56
620.673	216.56
620.88	211.56
621.087	217.56
621.294	218.56
621.501	219.56
621.708	212.56
621.915	212.56
622.122	204.56
622.329	213.56
622.536	203.56
622.743	209.56
622.95	201.56
623.157	186.56
623.364	203.56
623.571	206.56
623.778	212.56
623.985	220.56
624.192	213.56
624.399	206.56
624.606	229.56
624.812	202.56
625.019	196.56
625.226	207.56
625.433	205.56
625.639	199.56
625.846	221.56
626.053	192.56
626.259	201.56
626.466	195.56
626.673	186.56
626.879	187.56
627.086	212.56
627.293	205.56
627.499	217.56
627.706	193.56
627.912	195.56
628.119	196.56
628.325	206.56
628.532	196.56
628.738	196.56
628.945	193.56
629.151	198.56
629.357	200.56
629.564	207.56
629.77	198.56
629.976	188.56
630.183	187.56
630.389	200.56
630.595	179.56
630.802	187.56
631.008	188.56
631.214	188.56
631.42	190.56
631.627	182.56
631.833	171.56
632.039	177.56
632.245	195.56
632.451	187.56
632.657	158.56
632.863	177.56
633.069	183.56
633.275	174.56
633.481	190.56
633.688	179.56
633.893	173.56
634.099	177.56
634.305	175.56
634.511	201.56
634.717	159.56
634.923	181.56
635.129	179.56
635.335	177.56
635.541	162.56
635.747	190.56
635.952	186.56
636.158	184.56
636.364	190.56
636.57	176.56
636.775	162.56
636.981	177.56
637.187	179.56
637.392	178.56
637.598	160.56
637.804	177.56
638.009	183.56
638.215	179.56
638.421	172.56
638.626	159.56
638.832	157.56
639.037	159.56
639.243	172.56
639.448	161.56
639.654	169.56
639.859	160.56
640.065	178.56
640.27	176.56
640.475	158.56
640.681	153.56
640.886	161.56
641.091	179.56
641.297	163.56
641.502	171.56
641.707	167.56
641.913	156.56
642.118	147.56
642.323	151.56
642.528	164.56
642.733	163.56
642.939	155.56
643.144	150.56
643.349	166.56
643.554	165.56
643.759	173.56
643.964	166.56
644.169	173.56
644.374	161.56
644.579	160.56
644.784	151.56
644.989	143.56
645.194	164.56
645.399	147.56
645.604	163.56
645.809	166.56
646.014	177.56
646.219	145.56
646.423	154.56
646.628	165.56
646.833	165.56
647.038	151.56
647.243	158.56
647.447	168.56
647.652	157.56
647.857	169.56
648.062	158.56
648.266	169.56
648.471	166.56
648.676	154.56
648.88	176.56
649.085	149.56
649.289	154.56
649.494	163.56
649.698	189.56
649.903	190.56
650.107	180.56
650.312	156.56
650.516	153.56
650.721	142.56
650.925	154.56
651.13	151.56
651.334	143.56
651.539	130.56
651.743	144.56
651.947	147.56
652.152	146.56
652.356	142.56
652.56	139.56
652.764	147.56
652.969	143.56
653.173	137.56
653.377	141.56
653.581	134.56
653.785	132.56
653.99	152.56
654.194	155.56
654.398	129.56
654.602	133.56
654.806	138.56
655.01	127.56
655.214	143.56
655.418	145.56
655.622	148.56
655.826	133.56
656.03	134.56
656.234	141.56
656.438	155.56
656.642	133.56
656.846	129.56
657.049	125.56
657.253	137.56
657.457	117.56
657.661	109.56
657.865	125.56
658.068	106.56
658.272	120.56
658.476	113.56
658.68	119.56
658.883	103.56
659.087	82.56
659.291	109.56
659.494	93.56
659.698	108.56
659.901	92.56
660.105	90.56
660.309	106.56
660.512	102.56
660.716	91.56
660.919	101.56
661.123	97.56
661.326	87.56
661.53	99.56
661.733	93.56
661.936	96.56
662.14	99.56
662.343	83.56
662.546	84.56
662.75	89.56
662.953	81.56
663.156	74.56
663.36	78.56
663.563	86.56
663.766	77.56
663.969	77.56
664.173	81.56
664.376	82.56
664.579	90.56
664.782	77.56
664.985	74.56
665.188	85.56
665.391	79.56
665.594	83.56
665.797	84.56
666	77.56
666.203	78.56
666.406	83.56
666.609	86.56
666.812	74.56
667.015	72.56
667.218	82.56
667.421	89.56
667.624	87.56
667.827	92.56
668.03	93.56
668.232	79.56
668.435	62.56
668.638	78.56
668.841	105.56
669.043	84.56
669.246	78.56
669.449	84.56
669.651	83.56
669.854	83.56
670.057	83.56
670.259	89.56
670.462	93.56
670.665	81.56
670.867	81.56
671.07	101.56
671.272	91.56
671.475	78.56
671.677	93.56
671.88	89.56
672.082	82.56
672.284	70.56
672.487	85.56
672.689	88.56
672.892	78.56
