Data from 1985.PennyLincolnUp.Lamp.En5.5.200Scan.071819.P1_HRD10591_17-01-43-969.txt Node
Date: Thu Jul 18 17:01:43 EDT 2019
User: cochatt
Spectrometer: HR+D1059
Trigger mode: 1
Integration Time (sec): 1.000000E-1
Scans to average: 1
Electric dark correction enabled: true
Nonlinearity correction enabled: false
Boxcar width: 0
XAxis mode: Wavelengths
Number of Pixels in Spectrum: 2048
>>>>>Begin Spectral Data<<<<<
223.165	-14.75
223.4	-14.75
223.635	-14.75
223.869	-23.75
224.104	-27.75
224.338	-14.75
224.573	-8.75
224.808	-10.75
225.042	-10.75
225.277	-16.75
225.511	-1.75
225.746	2.25
225.98	5.25
226.215	17.25
226.449	28.25
226.683	24.25
226.918	23.25
227.152	29.25
227.387	24.25
227.621	40.25
227.856	43.25
228.09	45.25
228.324	59.25
228.559	63.25
228.793	74.25
229.027	99.25
229.262	107.25
229.496	116.25
229.73	120.25
229.964	146.25
230.199	119.25
230.433	104.25
230.667	106.25
230.901	111.25
231.136	101.25
231.37	104.25
231.604	115.25
231.838	109.25
232.072	115.25
232.306	115.25
232.541	130.25
232.775	109.25
233.009	120.25
233.243	111.25
233.477	105.25
233.711	115.25
233.945	125.25
234.179	115.25
234.413	119.25
234.647	120.25
234.881	115.25
235.115	101.25
235.349	118.25
235.583	123.25
235.817	111.25
236.051	120.25
236.285	136.25
236.519	121.25
236.753	132.25
236.987	141.25
237.221	185.25
237.455	223.25
237.689	179.25
237.922	153.25
238.156	122.25
238.39	137.25
238.624	129.25
238.858	136.25
239.091	118.25
239.325	127.25
239.559	126.25
239.793	114.25
240.027	135.25
240.26	147.25
240.494	157.25
240.728	141.25
240.961	155.25
241.195	143.25
241.429	139.25
241.662	138.25
241.896	136.25
242.13	130.25
242.363	131.25
242.597	129.25
242.83	143.25
243.064	137.25
243.298	142.25
243.531	141.25
243.765	154.25
243.998	159.25
244.232	135.25
244.465	161.25
244.699	143.25
244.932	150.25
245.166	156.25
245.399	159.25
245.633	146.25
245.866	150.25
246.099	152.25
246.333	151.25
246.566	146.25
246.8	148.25
247.033	155.25
247.266	167.25
247.5	155.25
247.733	163.25
247.966	167.25
248.2	170.25
248.433	176.25
248.666	188.25
248.899	180.25
249.133	203.25
249.366	209.25
249.599	188.25
249.832	168.25
250.066	171.25
250.299	180.25
250.532	187.25
250.765	206.25
250.998	211.25
251.231	223.25
251.465	209.25
251.698	199.25
251.931	194.25
252.164	202.25
252.397	191.25
252.63	194.25
252.863	194.25
253.096	205.25
253.329	211.25
253.562	208.25
253.795	207.25
254.028	218.25
254.261	215.25
254.494	217.25
254.727	260.25
254.96	263.25
255.193	254.25
255.426	227.25
255.659	232.25
255.892	223.25
256.124	224.25
256.357	202.25
256.59	208.25
256.823	219.25
257.056	207.25
257.289	198.25
257.521	202.25
257.754	202.25
257.987	205.25
258.22	219.25
258.452	211.25
258.685	218.25
258.918	206.25
259.151	218.25
259.383	218.25
259.616	228.25
259.849	227.25
260.081	232.25
260.314	247.25
260.547	257.25
260.779	233.25
261.012	231.25
261.244	215.25
261.477	257.25
261.71	237.25
261.942	227.25
262.175	231.25
262.407	227.25
262.64	228.25
262.872	225.25
263.105	213.25
263.337	237.25
263.57	211.25
263.802	211.25
264.035	205.25
264.267	223.25
264.499	219.25
264.732	208.25
264.964	228.25
265.197	226.25
265.429	227.25
265.661	200.25
265.894	237.25
266.126	230.25
266.358	221.25
266.591	220.25
266.823	239.25
267.055	243.25
267.287	223.25
267.52	230.25
267.752	230.25
267.984	223.25
268.216	235.25
268.448	236.25
268.681	239.25
268.913	252.25
269.145	265.25
269.377	271.25
269.609	288.25
269.841	285.25
270.073	272.25
270.306	293.25
270.538	318.25
270.77	319.25
271.002	310.25
271.234	302.25
271.466	319.25
271.698	315.25
271.93	328.25
272.162	316.25
272.394	318.25
272.626	309.25
272.858	300.25
273.09	287.25
273.322	279.25
273.553	289.25
273.785	287.25
274.017	282.25
274.249	286.25
274.481	263.25
274.713	292.25
274.945	275.25
275.176	280.25
275.408	273.25
275.64	270.25
275.872	272.25
276.104	290.25
276.335	244.25
276.567	279.25
276.799	283.25
277.031	299.25
277.262	320.25
277.494	315.25
277.726	311.25
277.957	306.25
278.189	270.25
278.421	278.25
278.652	265.25
278.884	291.25
279.115	271.25
279.347	299.25
279.579	281.25
279.81	298.25
280.042	286.25
280.273	291.25
280.505	281.25
280.736	294.25
280.968	291.25
281.199	281.25
281.431	270.25
281.662	295.25
281.894	298.25
282.125	316.25
282.356	317.25
282.588	328.25
282.819	327.25
283.051	302.25
283.282	281.25
283.513	293.25
283.745	291.25
283.976	306.25
284.207	285.25
284.439	314.25
284.67	292.25
284.901	312.25
285.132	320.25
285.364	303.25
285.595	302.25
285.826	296.25
286.057	309.25
286.288	320.25
286.52	283.25
286.751	307.25
286.982	320.25
287.213	311.25
287.444	303.25
287.675	308.25
287.906	327.25
288.138	328.25
288.369	337.25
288.6	328.25
288.831	321.25
289.062	330.25
289.293	304.25
289.524	313.25
289.755	323.25
289.986	305.25
290.217	321.25
290.448	309.25
290.679	323.25
290.91	307.25
291.141	335.25
291.371	326.25
291.602	343.25
291.833	320.25
292.064	327.25
292.295	303.25
292.526	333.25
292.757	338.25
292.987	328.25
293.218	320.25
293.449	334.25
293.68	345.25
293.91	323.25
294.141	317.25
294.372	325.25
294.603	325.25
294.833	318.25
295.064	301.25
295.295	326.25
295.525	309.25
295.756	335.25
295.987	343.25
296.217	367.25
296.448	360.25
296.679	334.25
296.909	331.25
297.14	337.25
297.37	335.25
297.601	341.25
297.831	318.25
298.062	341.25
298.292	323.25
298.523	339.25
298.753	326.25
298.984	337.25
299.214	328.25
299.445	350.25
299.675	334.25
299.905	348.25
300.136	346.25
300.366	361.25
300.597	346.25
300.827	348.25
301.057	355.25
301.288	379.25
301.518	361.25
301.748	353.25
301.979	352.25
302.209	370.25
302.439	387.25
302.669	377.25
302.9	368.25
303.13	357.25
303.36	383.25
303.59	377.25
303.82	382.25
304.051	367.25
304.281	377.25
304.511	376.25
304.741	362.25
304.971	371.25
305.201	355.25
305.431	348.25
305.661	362.25
305.891	366.25
306.121	366.25
306.352	363.25
306.582	357.25
306.812	355.25
307.042	364.25
307.272	355.25
307.502	360.25
307.731	352.25
307.961	354.25
308.191	367.25
308.421	368.25
308.651	366.25
308.881	373.25
309.111	367.25
309.341	346.25
309.571	368.25
309.8	407.25
310.03	400.25
310.26	392.25
310.49	394.25
310.72	415.25
310.949	414.25
311.179	424.25
311.409	385.25
311.639	405.25
311.868	409.25
312.098	438.25
312.328	416.25
312.557	437.25
312.787	443.25
313.017	430.25
313.246	419.25
313.476	423.25
313.706	410.25
313.935	409.25
314.165	417.25
314.394	435.25
314.624	441.25
314.853	417.25
315.083	421.25
315.312	430.25
315.542	407.25
315.771	421.25
316.001	411.25
316.23	410.25
316.46	406.25
316.689	405.25
316.919	413.25
317.148	409.25
317.377	411.25
317.607	417.25
317.836	420.25
318.065	415.25
318.295	425.25
318.524	413.25
318.753	418.25
318.983	423.25
319.212	403.25
319.441	428.25
319.67	410.25
319.9	421.25
320.129	421.25
320.358	405.25
320.587	407.25
320.816	425.25
321.046	433.25
321.275	437.25
321.504	425.25
321.733	444.25
321.962	435.25
322.191	440.25
322.42	461.25
322.649	470.25
322.878	471.25
323.108	466.25
323.337	494.25
323.566	510.25
323.795	537.25
324.024	571.25
324.253	610.25
324.482	855.25
324.71	1300.25
324.939	1835.25
325.168	1552.25
325.397	832.25
325.626	623.25
325.855	522.25
326.084	527.25
326.313	511.25
326.542	516.25
326.77	558.25
326.999	632.25
327.228	782.25
327.457	1159.25
327.686	1407.25
327.914	925.25
328.143	655.25
328.372	596.25
328.6	560.25
328.829	551.25
329.058	570.25
329.287	553.25
329.515	551.25
329.744	507.25
329.972	492.25
330.201	530.25
330.43	522.25
330.658	544.25
330.887	600.25
331.115	576.25
331.344	532.25
331.572	527.25
331.801	511.25
332.03	520.25
332.258	500.25
332.486	486.25
332.715	506.25
332.943	472.25
333.172	506.25
333.4	513.25
333.629	519.25
333.857	533.25
334.085	529.25
334.314	522.25
334.542	516.25
334.771	516.25
334.999	515.25
335.227	508.25
335.455	519.25
335.684	507.25
335.912	499.25
336.14	506.25
336.369	478.25
336.597	508.25
336.825	500.25
337.053	506.25
337.281	470.25
337.51	485.25
337.738	477.25
337.966	478.25
338.194	485.25
338.422	465.25
338.65	483.25
338.878	487.25
339.106	476.25
339.334	471.25
339.562	467.25
339.79	460.25
340.018	475.25
340.246	472.25
340.474	463.25
340.702	480.25
340.93	476.25
341.158	475.25
341.386	454.25
341.614	448.25
341.842	465.25
342.07	475.25
342.298	435.25
342.526	460.25
342.754	437.25
342.981	446.25
343.209	453.25
343.437	449.25
343.665	476.25
343.893	511.25
344.12	477.25
344.348	491.25
344.576	488.25
344.804	475.25
345.031	477.25
345.259	470.25
345.487	482.25
345.714	473.25
345.942	450.25
346.17	439.25
346.397	428.25
346.625	450.25
346.853	441.25
347.08	425.25
347.308	418.25
347.535	452.25
347.763	443.25
347.99	454.25
348.218	457.25
348.445	452.25
348.673	426.25
348.9	443.25
349.128	439.25
349.355	413.25
349.583	445.25
349.81	435.25
350.037	445.25
350.265	441.25
350.492	415.25
350.72	421.25
350.947	439.25
351.174	438.25
351.402	456.25
351.629	456.25
351.856	444.25
352.083	443.25
352.311	437.25
352.538	448.25
352.765	446.25
352.992	450.25
353.22	439.25
353.447	431.25
353.674	426.25
353.901	434.25
354.128	421.25
354.355	431.25
354.583	418.25
354.81	420.25
355.037	418.25
355.264	414.25
355.491	398.25
355.718	409.25
355.945	405.25
356.172	413.25
356.399	407.25
356.626	415.25
356.853	428.25
357.08	401.25
357.307	416.25
357.534	439.25
357.761	407.25
357.988	422.25
358.215	419.25
358.441	422.25
358.668	431.25
358.895	451.25
359.122	434.25
359.349	424.25
359.576	437.25
359.802	443.25
360.029	480.25
360.256	494.25
360.483	457.25
360.709	438.25
360.936	454.25
361.163	430.25
361.39	433.25
361.616	452.25
361.843	423.25
362.07	449.25
362.296	438.25
362.523	445.25
362.749	437.25
362.976	425.25
363.203	445.25
363.429	443.25
363.656	418.25
363.882	415.25
364.109	412.25
364.335	409.25
364.562	427.25
364.788	413.25
365.015	410.25
365.241	422.25
365.468	421.25
365.694	418.25
365.92	429.25
366.147	422.25
366.373	422.25
366.599	412.25
366.826	414.25
367.052	439.25
367.278	429.25
367.505	430.25
367.731	422.25
367.957	407.25
368.184	422.25
368.41	440.25
368.636	461.25
368.862	441.25
369.089	413.25
369.315	420.25
369.541	404.25
369.767	435.25
369.993	409.25
370.219	415.25
370.445	419.25
370.672	416.25
370.898	429.25
371.124	414.25
371.35	446.25
371.576	427.25
371.802	429.25
372.028	421.25
372.254	407.25
372.48	416.25
372.706	428.25
372.932	420.25
373.158	432.25
373.384	424.25
373.61	420.25
373.835	426.25
374.061	431.25
374.287	444.25
374.513	431.25
374.739	430.25
374.965	444.25
375.191	457.25
375.416	446.25
375.642	435.25
375.868	453.25
376.094	439.25
376.319	444.25
376.545	429.25
376.771	410.25
376.997	427.25
377.222	433.25
377.448	428.25
377.674	438.25
377.899	399.25
378.125	406.25
378.35	421.25
378.576	430.25
378.802	411.25
379.027	409.25
379.253	413.25
379.478	393.25
379.704	428.25
379.929	409.25
380.155	419.25
380.38	411.25
380.606	427.25
380.831	413.25
381.057	446.25
381.282	403.25
381.507	428.25
381.733	441.25
381.958	435.25
382.184	439.25
382.409	421.25
382.634	448.25
382.86	459.25
383.085	446.25
383.31	443.25
383.535	446.25
383.761	451.25
383.986	430.25
384.211	431.25
384.436	453.25
384.662	471.25
384.887	441.25
385.112	446.25
385.337	467.25
385.562	465.25
385.787	463.25
386.013	478.25
386.238	486.25
386.463	502.25
386.688	453.25
386.913	469.25
387.138	460.25
387.363	472.25
387.588	472.25
387.813	485.25
388.038	464.25
388.263	463.25
388.488	476.25
388.713	481.25
388.938	451.25
389.163	480.25
389.387	455.25
389.612	455.25
389.837	444.25
390.062	481.25
390.287	459.25
390.512	455.25
390.736	459.25
390.961	485.25
391.186	457.25
391.411	476.25
391.636	478.25
391.86	490.25
392.085	488.25
392.31	517.25
392.534	489.25
392.759	504.25
392.984	499.25
393.208	480.25
393.433	500.25
393.658	467.25
393.882	501.25
394.107	476.25
394.331	471.25
394.556	473.25
394.78	495.25
395.005	505.25
395.229	520.25
395.454	499.25
395.678	501.25
395.903	527.25
396.127	525.25
396.352	525.25
396.576	506.25
396.801	482.25
397.025	499.25
397.249	493.25
397.474	477.25
397.698	536.25
397.922	510.25
398.147	517.25
398.371	523.25
398.595	541.25
398.82	546.25
399.044	560.25
399.268	600.25
399.492	640.25
399.717	659.25
399.941	711.25
400.165	688.25
400.389	699.25
400.613	613.25
400.837	586.25
401.062	569.25
401.286	559.25
401.51	538.25
401.734	535.25
401.958	543.25
402.182	560.25
402.406	569.25
402.63	579.25
402.854	567.25
403.078	561.25
403.302	569.25
403.526	587.25
403.75	574.25
403.974	608.25
404.198	573.25
404.422	591.25
404.645	565.25
404.869	579.25
405.093	581.25
405.317	600.25
405.541	615.25
405.765	598.25
405.988	590.25
406.212	590.25
406.436	615.25
406.66	611.25
406.883	618.25
407.107	643.25
407.331	676.25
407.555	750.25
407.778	760.25
408.002	679.25
408.226	659.25
408.449	631.25
408.673	606.25
408.896	645.25
409.12	663.25
409.344	620.25
409.567	613.25
409.791	580.25
410.014	556.25
410.238	561.25
410.461	555.25
410.685	574.25
410.908	595.25
411.132	598.25
411.355	639.25
411.578	620.25
411.802	568.25
412.025	567.25
412.249	540.25
412.472	556.25
412.695	546.25
412.919	549.25
413.142	534.25
413.365	533.25
413.589	552.25
413.812	530.25
414.035	506.25
414.258	534.25
414.482	512.25
414.705	549.25
414.928	530.25
415.151	544.25
415.374	542.25
415.597	535.25
415.821	520.25
416.044	523.25
416.267	512.25
416.49	524.25
416.713	511.25
416.936	511.25
417.159	527.25
417.382	519.25
417.605	549.25
417.828	543.25
418.051	573.25
418.274	549.25
418.497	531.25
418.72	536.25
418.943	539.25
419.166	539.25
419.389	568.25
419.611	571.25
419.834	548.25
420.057	559.25
420.28	565.25
420.503	531.25
420.726	537.25
420.948	549.25
421.171	595.25
421.394	614.25
421.617	529.25
421.839	520.25
422.062	531.25
422.285	567.25
422.507	594.25
422.73	672.25
422.953	642.25
423.175	587.25
423.398	556.25
423.621	563.25
423.843	599.25
424.066	604.25
424.288	592.25
424.511	613.25
424.733	640.25
424.956	691.25
425.178	682.25
425.401	677.25
425.623	675.25
425.846	617.25
426.068	583.25
426.291	552.25
426.513	538.25
426.735	577.25
426.958	627.25
427.18	686.25
427.402	809.25
427.625	878.25
427.847	739.25
428.069	635.25
428.292	564.25
428.514	563.25
428.736	541.25
428.958	541.25
429.181	506.25
429.403	503.25
429.625	539.25
429.847	566.25
430.069	606.25
430.292	606.25
430.514	527.25
430.736	532.25
430.958	501.25
431.18	511.25
431.402	494.25
431.624	501.25
431.846	489.25
432.068	489.25
432.29	516.25
432.512	507.25
432.734	519.25
432.956	497.25
433.178	502.25
433.4	500.25
433.622	505.25
433.844	519.25
434.066	495.25
434.287	516.25
434.509	519.25
434.731	516.25
434.953	539.25
435.175	539.25
435.397	569.25
435.618	587.25
435.84	607.25
436.062	665.25
436.284	736.25
436.505	624.25
436.727	544.25
436.949	563.25
437.17	530.25
437.392	513.25
437.614	529.25
437.835	548.25
438.057	645.25
438.278	716.25
438.5	707.25
438.721	785.25
438.943	780.25
439.165	619.25
439.386	552.25
439.608	563.25
439.829	537.25
440.05	591.25
440.272	606.25
440.493	596.25
440.715	561.25
440.936	522.25
441.158	502.25
441.379	517.25
441.6	543.25
441.822	580.25
442.043	597.25
442.264	650.25
442.486	697.25
442.707	605.25
442.928	593.25
443.149	595.25
443.371	587.25
443.592	635.25
443.813	704.25
444.034	780.25
444.255	659.25
444.476	616.25
444.698	590.25
444.919	608.25
445.14	711.25
445.361	649.25
445.582	600.25
445.803	657.25
446.024	731.25
446.245	760.25
446.466	655.25
446.687	577.25
446.908	543.25
447.129	534.25
447.35	517.25
447.571	498.25
447.792	515.25
448.013	502.25
448.234	531.25
448.455	563.25
448.675	657.25
448.896	746.25
449.117	663.25
449.338	612.25
449.559	691.25
449.779	789.25
450	650.25
450.221	549.25
450.442	504.25
450.662	487.25
450.883	485.25
451.104	518.25
451.324	510.25
451.545	499.25
451.766	488.25
451.986	474.25
452.207	445.25
452.428	451.25
452.648	450.25
452.869	456.25
453.089	451.25
453.31	479.25
453.53	478.25
453.751	473.25
453.971	447.25
454.192	459.25
454.412	472.25
454.633	465.25
454.853	459.25
455.073	463.25
455.294	491.25
455.514	557.25
455.734	534.25
455.955	453.25
456.175	442.25
456.395	447.25
456.616	441.25
456.836	425.25
457.056	433.25
457.276	428.25
457.497	436.25
457.717	436.25
457.937	456.25
458.157	474.25
458.377	449.25
458.598	463.25
458.818	540.25
459.038	607.25
459.258	615.25
459.478	553.25
459.698	492.25
459.918	500.25
460.138	501.25
460.358	543.25
460.578	524.25
460.798	541.25
461.018	535.25
461.238	530.25
461.458	526.25
461.678	534.25
461.898	523.25
462.118	540.25
462.338	558.25
462.558	573.25
462.777	598.25
462.997	594.25
463.217	641.25
463.437	641.25
463.657	604.25
463.876	580.25
464.096	588.25
464.316	575.25
464.536	594.25
464.755	598.25
464.975	570.25
465.195	581.25
465.414	654.25
465.634	597.25
465.854	550.25
466.073	520.25
466.293	491.25
466.512	507.25
466.732	484.25
466.951	477.25
467.171	477.25
467.391	499.25
467.61	467.25
467.829	481.25
468.049	490.25
468.268	488.25
468.488	464.25
468.707	461.25
468.927	453.25
469.146	460.25
469.365	465.25
469.585	484.25
469.804	481.25
470.023	484.25
470.243	481.25
470.462	457.25
470.681	516.25
470.901	501.25
471.12	499.25
471.339	487.25
471.558	501.25
471.777	489.25
471.997	484.25
472.216	486.25
472.435	492.25
472.654	476.25
472.873	473.25
473.092	467.25
473.311	491.25
473.53	476.25
473.749	479.25
473.968	501.25
474.187	609.25
474.406	644.25
474.625	531.25
474.844	471.25
475.063	477.25
475.282	459.25
475.501	473.25
475.72	501.25
475.939	494.25
476.158	467.25
476.377	485.25
476.596	494.25
476.814	499.25
477.033	513.25
477.252	501.25
477.471	508.25
477.69	525.25
477.908	547.25
478.127	546.25
478.346	537.25
478.564	553.25
478.783	545.25
479.002	561.25
479.22	564.25
479.439	578.25
479.658	565.25
479.876	577.25
480.095	578.25
480.313	626.25
480.532	591.25
480.751	585.25
480.969	596.25
481.188	614.25
481.406	598.25
481.624	570.25
481.843	566.25
482.061	566.25
482.28	554.25
482.498	565.25
482.717	556.25
482.935	533.25
483.153	565.25
483.372	554.25
483.59	567.25
483.808	559.25
484.027	537.25
484.245	520.25
484.463	542.25
484.681	595.25
484.9	593.25
485.118	555.25
485.336	547.25
485.554	575.25
485.772	590.25
485.99	573.25
486.209	553.25
486.427	568.25
486.645	582.25
486.863	628.25
487.081	602.25
487.299	591.25
487.517	596.25
487.735	591.25
487.953	579.25
488.171	569.25
488.389	607.25
488.607	590.25
488.825	580.25
489.043	581.25
489.261	596.25
489.479	616.25
489.696	608.25
489.914	593.25
490.132	593.25
490.35	624.25
490.568	612.25
490.786	622.25
491.003	637.25
491.221	655.25
491.439	648.25
491.657	675.25
491.874	673.25
492.092	655.25
492.31	649.25
492.527	677.25
492.745	664.25
492.963	685.25
493.18	682.25
493.398	672.25
493.615	672.25
493.833	679.25
494.05	686.25
494.268	674.25
494.485	682.25
494.703	680.25
494.92	680.25
495.138	681.25
495.355	685.25
495.573	719.25
495.79	678.25
496.008	695.25
496.225	709.25
496.442	707.25
496.66	691.25
496.877	704.25
497.094	696.25
497.312	725.25
497.529	720.25
497.746	750.25
497.963	745.25
498.181	773.25
498.398	815.25
498.615	818.25
498.832	802.25
499.049	862.25
499.267	893.25
499.484	923.25
499.701	999.25
499.918	1064.25
500.135	1132.25
500.352	1191.25
500.569	1211.25
500.786	1214.25
501.003	1176.25
501.22	1103.25
501.437	1076.25
501.654	1011.25
501.871	971.25
502.088	925.25
502.305	867.25
502.522	836.25
502.739	807.25
502.956	775.25
503.172	747.25
503.389	775.25
503.606	752.25
503.823	730.25
504.04	727.25
504.256	727.25
504.473	724.25
504.69	725.25
504.907	721.25
505.123	717.25
505.34	685.25
505.557	666.25
505.773	688.25
505.99	680.25
506.207	653.25
506.423	656.25
506.64	644.25
506.856	647.25
507.073	647.25
507.289	653.25
507.506	633.25
507.722	639.25
507.939	653.25
508.155	647.25
508.372	636.25
508.588	622.25
508.805	610.25
509.021	618.25
509.238	615.25
509.454	623.25
509.67	645.25
509.887	621.25
510.103	611.25
510.319	648.25
510.536	695.25
510.752	1099.25
510.968	901.25
511.184	608.25
511.401	573.25
511.617	627.25
511.833	585.25
512.049	584.25
512.265	590.25
512.481	566.25
512.698	558.25
512.914	580.25
513.13	592.25
513.346	559.25
513.562	583.25
513.778	579.25
513.994	611.25
514.21	585.25
514.426	609.25
514.642	640.25
514.858	680.25
515.074	667.25
515.29	774.25
515.506	1144.25
515.721	947.25
515.937	700.25
516.153	663.25
516.369	625.25
516.585	622.25
516.801	621.25
517.016	646.25
517.232	645.25
517.448	639.25
517.664	663.25
517.879	661.25
518.095	643.25
518.311	662.25
518.527	635.25
518.742	640.25
518.958	628.25
519.173	608.25
519.389	590.25
519.605	601.25
519.82	606.25
520.036	609.25
520.251	622.25
520.467	617.25
520.682	644.25
520.898	620.25
521.113	652.25
521.329	659.25
521.544	720.25
521.76	872.25
521.975	1397.25
522.19	1427.25
522.406	794.25
522.621	635.25
522.836	564.25
523.052	572.25
523.267	559.25
523.482	517.25
523.698	520.25
523.913	538.25
524.128	529.25
524.343	531.25
524.559	521.25
524.774	519.25
524.989	533.25
525.204	526.25
525.419	519.25
525.634	500.25
525.849	528.25
526.064	506.25
526.28	486.25
526.495	503.25
526.71	495.25
526.925	508.25
527.14	467.25
527.355	503.25
527.57	483.25
527.785	476.25
527.999	483.25
528.214	492.25
528.429	506.25
528.644	477.25
528.859	483.25
529.074	476.25
529.289	500.25
529.503	573.25
529.718	540.25
529.933	519.25
530.148	500.25
530.363	490.25
530.577	486.25
530.792	480.25
531.007	496.25
531.221	486.25
531.436	493.25
531.651	487.25
531.865	495.25
532.08	468.25
532.295	463.25
532.509	470.25
532.724	473.25
532.938	475.25
533.153	478.25
533.367	470.25
533.582	463.25
533.796	474.25
534.011	459.25
534.225	473.25
534.44	475.25
534.654	456.25
534.868	469.25
535.083	458.25
535.297	468.25
535.511	472.25
535.726	477.25
535.94	485.25
536.154	490.25
536.369	486.25
536.583	450.25
536.797	461.25
537.011	451.25
537.225	449.25
537.44	448.25
537.654	454.25
537.868	441.25
538.082	455.25
538.296	463.25
538.51	452.25
538.724	471.25
538.938	454.25
539.153	461.25
539.367	459.25
539.581	428.25
539.795	454.25
540.009	430.25
540.222	443.25
540.436	458.25
540.65	457.25
540.864	447.25
541.078	466.25
541.292	457.25
541.506	455.25
541.72	438.25
541.934	440.25
542.147	449.25
542.361	443.25
542.575	432.25
542.789	447.25
543.002	448.25
543.216	453.25
543.43	449.25
543.644	451.25
543.857	449.25
544.071	452.25
544.285	460.25
544.498	462.25
544.712	425.25
544.925	441.25
545.139	418.25
545.352	454.25
545.566	449.25
545.779	470.25
545.993	444.25
546.206	427.25
546.42	449.25
546.633	429.25
546.847	465.25
547.06	437.25
547.274	457.25
547.487	443.25
547.7	433.25
547.914	431.25
548.127	438.25
548.34	442.25
548.554	446.25
548.767	416.25
548.98	452.25
549.193	435.25
549.407	442.25
549.62	432.25
549.833	432.25
550.046	439.25
550.259	415.25
550.473	438.25
550.686	457.25
550.899	443.25
551.112	410.25
551.325	441.25
551.538	414.25
551.751	435.25
551.964	436.25
552.177	416.25
552.39	431.25
552.603	431.25
552.816	472.25
553.029	451.25
553.242	455.25
553.455	436.25
553.667	461.25
553.88	466.25
554.093	465.25
554.306	432.25
554.519	453.25
554.732	439.25
554.944	421.25
555.157	418.25
555.37	392.25
555.583	401.25
555.795	407.25
556.008	401.25
556.221	405.25
556.433	409.25
556.646	410.25
556.859	389.25
557.071	397.25
557.284	399.25
557.496	385.25
557.709	386.25
557.921	393.25
558.134	395.25
558.346	406.25
558.559	400.25
558.771	391.25
558.984	394.25
559.196	375.25
559.409	393.25
559.621	394.25
559.833	376.25
560.046	360.25
560.258	365.25
560.47	391.25
560.683	373.25
560.895	386.25
561.107	375.25
561.32	374.25
561.532	382.25
561.744	385.25
561.956	371.25
562.168	380.25
562.381	387.25
562.593	375.25
562.805	400.25
563.017	398.25
563.229	398.25
563.441	375.25
563.653	391.25
563.865	381.25
564.077	403.25
564.289	405.25
564.501	396.25
564.713	406.25
564.925	403.25
565.137	415.25
565.349	416.25
565.561	423.25
565.773	431.25
565.985	463.25
566.197	465.25
566.408	491.25
566.62	494.25
566.832	515.25
567.044	517.25
567.255	543.25
567.467	542.25
567.679	515.25
567.891	574.25
568.102	571.25
568.314	567.25
568.526	509.25
568.737	485.25
568.949	473.25
569.161	455.25
569.372	439.25
569.584	436.25
569.795	399.25
570.007	405.25
570.218	425.25
570.43	425.25
570.641	399.25
570.853	381.25
571.064	393.25
571.276	380.25
571.487	386.25
571.698	361.25
571.91	371.25
572.121	344.25
572.333	352.25
572.544	362.25
572.755	343.25
572.966	351.25
573.178	332.25
573.389	358.25
573.6	352.25
573.811	340.25
574.023	320.25
574.234	343.25
574.445	332.25
574.656	323.25
574.867	345.25
575.078	321.25
575.289	309.25
575.501	339.25
575.712	336.25
575.923	339.25
576.134	326.25
576.345	325.25
576.556	319.25
576.767	316.25
576.978	325.25
577.188	330.25
577.399	316.25
577.61	320.25
577.821	313.25
578.032	332.25
578.243	350.25
578.454	500.25
578.665	402.25
578.875	311.25
579.086	301.25
579.297	315.25
579.508	315.25
579.718	307.25
579.929	320.25
580.14	300.25
580.35	295.25
580.561	304.25
580.772	304.25
580.982	304.25
581.193	275.25
581.403	290.25
581.614	293.25
581.825	302.25
582.035	285.25
582.246	300.25
582.456	300.25
582.667	290.25
582.877	292.25
583.087	297.25
583.298	295.25
583.508	294.25
583.719	290.25
583.929	304.25
584.139	276.25
584.35	289.25
584.56	288.25
584.77	274.25
584.981	283.25
585.191	282.25
585.401	280.25
585.611	284.25
585.821	302.25
586.032	288.25
586.242	281.25
586.452	262.25
586.662	305.25
586.872	297.25
587.082	289.25
587.292	294.25
587.502	282.25
587.713	294.25
587.923	303.25
588.133	294.25
588.343	300.25
588.553	281.25
588.762	305.25
588.972	303.25
589.182	307.25
589.392	291.25
589.602	291.25
589.812	300.25
590.022	290.25
590.232	292.25
590.441	290.25
590.651	315.25
590.861	293.25
591.071	300.25
591.281	291.25
591.49	297.25
591.7	305.25
591.91	309.25
592.119	300.25
592.329	306.25
592.539	313.25
592.748	320.25
592.958	331.25
593.167	319.25
593.377	329.25
593.587	322.25
593.796	344.25
594.006	344.25
594.215	325.25
594.424	312.25
594.634	327.25
594.843	332.25
595.053	328.25
595.262	314.25
595.472	311.25
595.681	299.25
595.89	308.25
596.1	284.25
596.309	300.25
596.518	276.25
596.727	284.25
596.937	275.25
597.146	289.25
597.355	263.25
597.564	260.25
597.774	271.25
597.983	248.25
598.192	271.25
598.401	264.25
598.61	272.25
598.819	252.25
599.028	249.25
599.237	249.25
599.446	254.25
599.655	268.25
599.864	259.25
600.073	244.25
600.282	252.25
600.491	249.25
600.7	239.25
600.909	269.25
601.118	263.25
601.327	259.25
601.536	247.25
601.745	236.25
601.953	241.25
602.162	259.25
602.371	264.25
602.58	248.25
602.789	263.25
602.997	249.25
603.206	248.25
603.415	251.25
603.623	261.25
603.832	244.25
604.041	224.25
604.249	246.25
604.458	233.25
604.666	251.25
604.875	230.25
605.084	229.25
605.292	221.25
605.501	227.25
605.709	241.25
605.918	237.25
606.126	227.25
606.334	239.25
606.543	230.25
606.751	243.25
606.96	229.25
607.168	232.25
607.376	236.25
607.585	226.25
607.793	243.25
608.001	219.25
608.21	236.25
608.418	233.25
608.626	221.25
608.834	229.25
609.043	243.25
609.251	222.25
609.459	228.25
609.667	236.25
609.875	232.25
610.083	227.25
610.291	241.25
610.499	240.25
610.707	235.25
610.916	246.25
611.124	249.25
611.332	239.25
611.54	230.25
611.748	244.25
611.955	244.25
612.163	225.25
612.371	235.25
612.579	228.25
612.787	228.25
612.995	231.25
613.203	248.25
613.411	224.25
613.618	229.25
613.826	243.25
614.034	235.25
614.242	228.25
614.449	230.25
614.657	212.25
614.865	212.25
615.072	231.25
615.28	211.25
615.488	230.25
615.695	227.25
615.903	216.25
616.111	224.25
616.318	249.25
616.526	219.25
616.733	232.25
616.941	229.25
617.148	231.25
617.356	213.25
617.563	236.25
617.771	229.25
617.978	221.25
618.185	223.25
618.393	228.25
618.6	222.25
618.807	233.25
619.015	237.25
619.222	218.25
619.429	225.25
619.637	215.25
619.844	221.25
620.051	218.25
620.258	236.25
620.466	208.25
620.673	222.25
620.88	216.25
621.087	212.25
621.294	223.25
621.501	243.25
621.708	228.25
621.915	215.25
622.122	225.25
622.329	220.25
622.536	212.25
622.743	210.25
622.95	210.25
623.157	201.25
623.364	207.25
623.571	199.25
623.778	222.25
623.985	209.25
624.192	215.25
624.399	219.25
624.606	200.25
624.812	202.25
625.019	203.25
625.226	204.25
625.433	215.25
625.639	201.25
625.846	200.25
626.053	205.25
626.259	210.25
626.466	214.25
626.673	202.25
626.879	199.25
627.086	204.25
627.293	206.25
627.499	201.25
627.706	199.25
627.912	183.25
628.119	207.25
628.325	196.25
628.532	191.25
628.738	194.25
628.945	205.25
629.151	198.25
629.357	200.25
629.564	198.25
629.77	192.25
629.976	182.25
630.183	193.25
630.389	199.25
630.595	201.25
630.802	197.25
631.008	187.25
631.214	203.25
631.42	201.25
631.627	214.25
631.833	175.25
632.039	184.25
632.245	187.25
632.451	183.25
632.657	189.25
632.863	184.25
633.069	189.25
633.275	177.25
633.481	195.25
633.688	186.25
633.893	188.25
634.099	180.25
634.305	190.25
634.511	172.25
634.717	195.25
634.923	170.25
635.129	172.25
635.335	174.25
635.541	181.25
635.747	187.25
635.952	177.25
636.158	167.25
636.364	169.25
636.57	176.25
636.775	178.25
636.981	186.25
637.187	153.25
637.392	165.25
637.598	192.25
637.804	188.25
638.009	181.25
638.215	169.25
638.421	178.25
638.626	175.25
638.832	181.25
639.037	175.25
639.243	181.25
639.448	173.25
639.654	176.25
639.859	159.25
640.065	159.25
640.27	171.25
640.475	182.25
640.681	172.25
640.886	152.25
641.091	183.25
641.297	174.25
641.502	151.25
641.707	153.25
641.913	167.25
642.118	167.25
642.323	183.25
642.528	165.25
642.733	165.25
642.939	168.25
643.144	151.25
643.349	178.25
643.554	179.25
643.759	165.25
643.964	167.25
644.169	160.25
644.374	162.25
644.579	161.25
644.784	156.25
644.989	150.25
645.194	166.25
645.399	164.25
645.604	165.25
645.809	168.25
646.014	179.25
646.219	174.25
646.423	163.25
646.628	168.25
646.833	150.25
647.038	161.25
647.243	169.25
647.447	183.25
647.652	194.25
647.857	173.25
648.062	178.25
648.266	187.25
648.471	156.25
648.676	188.25
648.88	160.25
649.085	160.25
649.289	163.25
649.494	161.25
649.698	186.25
649.903	183.25
650.107	165.25
650.312	151.25
650.516	160.25
650.721	144.25
650.925	169.25
651.13	149.25
651.334	143.25
651.539	136.25
651.743	145.25
651.947	154.25
652.152	151.25
652.356	141.25
652.56	151.25
652.764	143.25
652.969	136.25
653.173	142.25
653.377	145.25
653.581	134.25
653.785	137.25
653.99	135.25
654.194	138.25
654.398	136.25
654.602	149.25
654.806	143.25
655.01	138.25
655.214	152.25
655.418	143.25
655.622	129.25
655.826	133.25
656.03	136.25
656.234	151.25
656.438	143.25
656.642	151.25
656.846	144.25
657.049	133.25
657.253	135.25
657.457	127.25
657.661	136.25
657.865	134.25
658.068	93.25
658.272	121.25
658.476	112.25
658.68	107.25
658.883	114.25
659.087	109.25
659.291	105.25
659.494	109.25
659.698	91.25
659.901	98.25
660.105	111.25
660.309	110.25
660.512	87.25
660.716	102.25
660.919	105.25
661.123	103.25
661.326	91.25
661.53	101.25
661.733	102.25
661.936	92.25
662.14	87.25
662.343	93.25
662.546	111.25
662.75	80.25
662.953	75.25
663.156	70.25
663.36	88.25
663.563	82.25
663.766	91.25
663.969	93.25
664.173	84.25
664.376	96.25
664.579	99.25
664.782	75.25
664.985	90.25
665.188	73.25
665.391	84.25
665.594	88.25
665.797	81.25
666	75.25
666.203	76.25
666.406	86.25
666.609	78.25
666.812	89.25
667.015	75.25
667.218	87.25
667.421	76.25
667.624	85.25
667.827	75.25
668.03	88.25
668.232	78.25
668.435	91.25
668.638	86.25
668.841	92.25
669.043	81.25
669.246	93.25
669.449	91.25
669.651	78.25
669.854	85.25
670.057	91.25
670.259	76.25
670.462	101.25
670.665	80.25
670.867	81.25
671.07	85.25
671.272	104.25
671.475	88.25
671.677	88.25
671.88	81.25
672.082	92.25
672.284	90.25
672.487	80.25
672.689	98.25
672.892	81.25
