Data from 1986.PennyLincolnUp.Lamp.En5.5.200Scan.071819.P2_HRD10591_17-10-39-974.txt Node
Date: Thu Jul 18 17:10:39 EDT 2019
User: cochatt
Spectrometer: HR+D1059
Trigger mode: 1
Integration Time (sec): 1.000000E-1
Scans to average: 1
Electric dark correction enabled: true
Nonlinearity correction enabled: false
Boxcar width: 0
XAxis mode: Wavelengths
Number of Pixels in Spectrum: 2048
>>>>>Begin Spectral Data<<<<<
223.165	2.5
223.4	2.5
223.635	2.5
223.869	-5.5
224.104	-17.5
224.338	-11.5
224.573	-11.5
224.808	-14.5
225.042	-18.5
225.277	-22.5
225.511	-9.5
225.746	3.5
225.98	6.5
226.215	4.5
226.449	22.5
226.683	24.5
226.918	18.5
227.152	28.5
227.387	25.5
227.621	23.5
227.856	39.5
228.09	34.5
228.324	46.5
228.559	44.5
228.793	50.5
229.027	103.5
229.262	108.5
229.496	112.5
229.73	128.5
229.964	135.5
230.199	130.5
230.433	110.5
230.667	125.5
230.901	102.5
231.136	110.5
231.37	94.5
231.604	107.5
231.838	113.5
232.072	101.5
232.306	115.5
232.541	115.5
232.775	105.5
233.009	105.5
233.243	96.5
233.477	101.5
233.711	118.5
233.945	105.5
234.179	94.5
234.413	110.5
234.647	115.5
234.881	117.5
235.115	119.5
235.349	105.5
235.583	107.5
235.817	122.5
236.051	124.5
236.285	118.5
236.519	119.5
236.753	127.5
236.987	139.5
237.221	189.5
237.455	240.5
237.689	194.5
237.922	137.5
238.156	132.5
238.39	122.5
238.624	131.5
238.858	120.5
239.091	113.5
239.325	125.5
239.559	112.5
239.793	117.5
240.027	126.5
240.26	133.5
240.494	160.5
240.728	167.5
240.961	145.5
241.195	133.5
241.429	145.5
241.662	115.5
241.896	125.5
242.13	131.5
242.363	130.5
242.597	124.5
242.83	116.5
243.064	139.5
243.298	126.5
243.531	135.5
243.765	115.5
243.998	125.5
244.232	139.5
244.465	144.5
244.699	143.5
244.932	133.5
245.166	140.5
245.399	128.5
245.633	139.5
245.866	139.5
246.099	152.5
246.333	144.5
246.566	139.5
246.8	148.5
247.033	133.5
247.266	149.5
247.5	168.5
247.733	155.5
247.966	173.5
248.2	164.5
248.433	177.5
248.666	176.5
248.899	180.5
249.133	200.5
249.366	225.5
249.599	197.5
249.832	172.5
250.066	183.5
250.299	173.5
250.532	181.5
250.765	195.5
250.998	234.5
251.231	214.5
251.465	222.5
251.698	206.5
251.931	210.5
252.164	188.5
252.397	203.5
252.63	197.5
252.863	211.5
253.096	238.5
253.329	241.5
253.562	219.5
253.795	221.5
254.028	224.5
254.261	202.5
254.494	230.5
254.727	254.5
254.96	275.5
255.193	275.5
255.426	258.5
255.659	240.5
255.892	225.5
256.124	248.5
256.357	232.5
256.59	239.5
256.823	227.5
257.056	226.5
257.289	209.5
257.521	217.5
257.754	199.5
257.987	205.5
258.22	210.5
258.452	222.5
258.685	213.5
258.918	213.5
259.151	224.5
259.383	216.5
259.616	199.5
259.849	200.5
260.081	229.5
260.314	237.5
260.547	259.5
260.779	255.5
261.012	239.5
261.244	233.5
261.477	207.5
261.71	230.5
261.942	219.5
262.175	236.5
262.407	226.5
262.64	206.5
262.872	214.5
263.105	211.5
263.337	227.5
263.57	211.5
263.802	195.5
264.035	192.5
264.267	209.5
264.499	195.5
264.732	214.5
264.964	207.5
265.197	198.5
265.429	193.5
265.661	197.5
265.894	207.5
266.126	220.5
266.358	216.5
266.591	218.5
266.823	209.5
267.055	209.5
267.287	212.5
267.52	213.5
267.752	215.5
267.984	220.5
268.216	214.5
268.448	219.5
268.681	218.5
268.913	242.5
269.145	239.5
269.377	264.5
269.609	249.5
269.841	257.5
270.073	274.5
270.306	309.5
270.538	331.5
270.77	322.5
271.002	324.5
271.234	279.5
271.466	302.5
271.698	306.5
271.93	322.5
272.162	316.5
272.394	322.5
272.626	306.5
272.858	293.5
273.09	261.5
273.322	274.5
273.553	250.5
273.785	252.5
274.017	252.5
274.249	254.5
274.481	266.5
274.713	244.5
274.945	261.5
275.176	257.5
275.408	255.5
275.64	254.5
275.872	242.5
276.104	243.5
276.335	268.5
276.567	256.5
276.799	284.5
277.031	301.5
277.262	309.5
277.494	294.5
277.726	285.5
277.957	269.5
278.189	272.5
278.421	265.5
278.652	241.5
278.884	245.5
279.115	271.5
279.347	260.5
279.579	237.5
279.81	239.5
280.042	245.5
280.273	241.5
280.505	241.5
280.736	241.5
280.968	243.5
281.199	255.5
281.431	240.5
281.662	270.5
281.894	232.5
282.125	265.5
282.356	267.5
282.588	298.5
282.819	291.5
283.051	279.5
283.282	255.5
283.513	230.5
283.745	246.5
283.976	259.5
284.207	257.5
284.439	247.5
284.67	268.5
284.901	243.5
285.132	243.5
285.364	226.5
285.595	252.5
285.826	259.5
286.057	261.5
286.288	261.5
286.52	260.5
286.751	259.5
286.982	253.5
287.213	234.5
287.444	237.5
287.675	249.5
287.906	266.5
288.138	283.5
288.369	290.5
288.6	266.5
288.831	282.5
289.062	263.5
289.293	255.5
289.524	258.5
289.755	255.5
289.986	260.5
290.217	253.5
290.448	237.5
290.679	244.5
290.91	257.5
291.141	252.5
291.371	261.5
291.602	256.5
291.833	255.5
292.064	249.5
292.295	253.5
292.526	249.5
292.757	258.5
292.987	259.5
293.218	241.5
293.449	267.5
293.68	267.5
293.91	266.5
294.141	246.5
294.372	266.5
294.603	253.5
294.833	249.5
295.064	243.5
295.295	243.5
295.525	254.5
295.756	249.5
295.987	276.5
296.217	300.5
296.448	313.5
296.679	287.5
296.909	267.5
297.14	265.5
297.37	279.5
297.601	269.5
297.831	263.5
298.062	266.5
298.292	270.5
298.523	269.5
298.753	270.5
298.984	268.5
299.214	265.5
299.445	261.5
299.675	279.5
299.905	288.5
300.136	262.5
300.366	275.5
300.597	285.5
300.827	280.5
301.057	279.5
301.288	281.5
301.518	284.5
301.748	287.5
301.979	278.5
302.209	290.5
302.439	287.5
302.669	309.5
302.9	281.5
303.13	271.5
303.36	288.5
303.59	297.5
303.82	289.5
304.051	310.5
304.281	305.5
304.511	311.5
304.741	298.5
304.971	281.5
305.201	273.5
305.431	294.5
305.661	282.5
305.891	281.5
306.121	289.5
306.352	280.5
306.582	289.5
306.812	307.5
307.042	299.5
307.272	308.5
307.502	296.5
307.731	285.5
307.961	289.5
308.191	283.5
308.421	268.5
308.651	299.5
308.881	310.5
309.111	309.5
309.341	312.5
309.571	342.5
309.8	339.5
310.03	335.5
310.26	331.5
310.49	342.5
310.72	344.5
310.949	377.5
311.179	367.5
311.409	350.5
311.639	348.5
311.868	345.5
312.098	343.5
312.328	346.5
312.557	390.5
312.787	387.5
313.017	403.5
313.246	354.5
313.476	337.5
313.706	344.5
313.935	356.5
314.165	370.5
314.394	376.5
314.624	370.5
314.853	345.5
315.083	345.5
315.312	341.5
315.542	344.5
315.771	333.5
316.001	342.5
316.23	324.5
316.46	332.5
316.689	337.5
316.919	329.5
317.148	341.5
317.377	360.5
317.607	355.5
317.836	343.5
318.065	337.5
318.295	338.5
318.524	319.5
318.753	333.5
318.983	342.5
319.212	334.5
319.441	350.5
319.67	387.5
319.9	363.5
320.129	331.5
320.358	331.5
320.587	355.5
320.816	358.5
321.046	373.5
321.275	374.5
321.504	365.5
321.733	396.5
321.962	387.5
322.191	407.5
322.42	409.5
322.649	429.5
322.878	434.5
323.108	477.5
323.337	471.5
323.566	499.5
323.795	536.5
324.024	606.5
324.253	740.5
324.482	1064.5
324.71	1603.5
324.939	2285.5
325.168	2045.5
325.397	1102.5
325.626	706.5
325.855	599.5
326.084	530.5
326.313	501.5
326.542	517.5
326.77	564.5
326.999	678.5
327.228	921.5
327.457	1380.5
327.686	1719.5
327.914	1181.5
328.143	774.5
328.372	686.5
328.6	617.5
328.829	593.5
329.058	597.5
329.287	597.5
329.515	550.5
329.744	515.5
329.972	518.5
330.201	531.5
330.43	564.5
330.658	611.5
330.887	633.5
331.115	601.5
331.344	503.5
331.572	501.5
331.801	499.5
332.03	471.5
332.258	445.5
332.486	410.5
332.715	413.5
332.943	418.5
333.172	424.5
333.4	399.5
333.629	395.5
333.857	418.5
334.085	450.5
334.314	456.5
334.542	497.5
334.771	527.5
334.999	452.5
335.227	424.5
335.455	407.5
335.684	383.5
335.912	379.5
336.14	367.5
336.369	410.5
336.597	378.5
336.825	394.5
337.053	403.5
337.281	392.5
337.51	385.5
337.738	373.5
337.966	410.5
338.194	413.5
338.422	391.5
338.65	381.5
338.878	389.5
339.106	383.5
339.334	376.5
339.562	374.5
339.79	382.5
340.018	359.5
340.246	373.5
340.474	405.5
340.702	395.5
340.93	387.5
341.158	379.5
341.386	362.5
341.614	373.5
341.842	367.5
342.07	386.5
342.298	362.5
342.526	359.5
342.754	353.5
342.981	368.5
343.209	361.5
343.437	362.5
343.665	362.5
343.893	367.5
344.12	370.5
344.348	386.5
344.576	376.5
344.804	391.5
345.031	413.5
345.259	408.5
345.487	390.5
345.714	385.5
345.942	363.5
346.17	362.5
346.397	360.5
346.625	383.5
346.853	373.5
347.08	380.5
347.308	379.5
347.535	391.5
347.763	392.5
347.99	392.5
348.218	403.5
348.445	384.5
348.673	395.5
348.9	367.5
349.128	367.5
349.355	345.5
349.583	358.5
349.81	341.5
350.037	361.5
350.265	350.5
350.492	350.5
350.72	354.5
350.947	331.5
351.174	357.5
351.402	400.5
351.629	384.5
351.856	376.5
352.083	386.5
352.311	387.5
352.538	406.5
352.765	397.5
352.992	365.5
353.22	363.5
353.447	370.5
353.674	371.5
353.901	353.5
354.128	328.5
354.355	343.5
354.583	371.5
354.81	334.5
355.037	326.5
355.264	353.5
355.491	348.5
355.718	336.5
355.945	332.5
356.172	342.5
356.399	328.5
356.626	322.5
356.853	340.5
357.08	330.5
357.307	339.5
357.534	315.5
357.761	331.5
357.988	321.5
358.215	341.5
358.441	329.5
358.668	336.5
358.895	333.5
359.122	325.5
359.349	356.5
359.576	357.5
359.802	391.5
360.029	431.5
360.256	423.5
360.483	405.5
360.709	390.5
360.936	393.5
361.163	389.5
361.39	390.5
361.616	371.5
361.843	383.5
362.07	387.5
362.296	363.5
362.523	371.5
362.749	370.5
362.976	358.5
363.203	349.5
363.429	353.5
363.656	343.5
363.882	344.5
364.109	340.5
364.335	345.5
364.562	359.5
364.788	344.5
365.015	356.5
365.241	346.5
365.468	359.5
365.694	359.5
365.92	366.5
366.147	367.5
366.373	339.5
366.599	340.5
366.826	338.5
367.052	351.5
367.278	345.5
367.505	346.5
367.731	340.5
367.957	339.5
368.184	349.5
368.41	341.5
368.636	354.5
368.862	368.5
369.089	361.5
369.315	332.5
369.541	352.5
369.767	317.5
369.993	344.5
370.219	353.5
370.445	341.5
370.672	318.5
370.898	323.5
371.124	325.5
371.35	338.5
371.576	323.5
371.802	334.5
372.028	308.5
372.254	316.5
372.48	315.5
372.706	329.5
372.932	318.5
373.158	324.5
373.384	337.5
373.61	338.5
373.835	328.5
374.061	341.5
374.287	334.5
374.513	338.5
374.739	348.5
374.965	322.5
375.191	321.5
375.416	339.5
375.642	336.5
375.868	322.5
376.094	318.5
376.319	332.5
376.545	328.5
376.771	330.5
376.997	343.5
377.222	335.5
377.448	331.5
377.674	308.5
377.899	336.5
378.125	331.5
378.35	307.5
378.576	318.5
378.802	313.5
379.027	316.5
379.253	321.5
379.478	303.5
379.704	308.5
379.929	327.5
380.155	323.5
380.38	339.5
380.606	331.5
380.831	322.5
381.057	342.5
381.282	344.5
381.507	349.5
381.733	313.5
381.958	337.5
382.184	328.5
382.409	338.5
382.634	329.5
382.86	335.5
383.085	339.5
383.31	331.5
383.535	337.5
383.761	346.5
383.986	332.5
384.211	344.5
384.436	333.5
384.662	324.5
384.887	321.5
385.112	342.5
385.337	344.5
385.562	344.5
385.787	336.5
386.013	344.5
386.238	352.5
386.463	362.5
386.688	362.5
386.913	351.5
387.138	355.5
387.363	331.5
387.588	346.5
387.813	342.5
388.038	342.5
388.263	341.5
388.488	346.5
388.713	340.5
388.938	345.5
389.163	343.5
389.387	351.5
389.612	343.5
389.837	349.5
390.062	336.5
390.287	348.5
390.512	349.5
390.736	342.5
390.961	346.5
391.186	341.5
391.411	352.5
391.636	339.5
391.86	360.5
392.085	352.5
392.31	338.5
392.534	354.5
392.759	349.5
392.984	352.5
393.208	345.5
393.433	336.5
393.658	341.5
393.882	341.5
394.107	342.5
394.331	348.5
394.556	341.5
394.78	339.5
395.005	360.5
395.229	355.5
395.454	371.5
395.678	344.5
395.903	355.5
396.127	394.5
396.352	393.5
396.576	375.5
396.801	366.5
397.025	343.5
397.249	350.5
397.474	344.5
397.698	354.5
397.922	388.5
398.147	379.5
398.371	400.5
398.595	376.5
398.82	395.5
399.044	354.5
399.268	416.5
399.492	421.5
399.717	418.5
399.941	448.5
400.165	463.5
400.389	472.5
400.613	428.5
400.837	394.5
401.062	401.5
401.286	406.5
401.51	373.5
401.734	376.5
401.958	384.5
402.182	413.5
402.406	418.5
402.63	410.5
402.854	438.5
403.078	389.5
403.302	403.5
403.526	407.5
403.75	391.5
403.974	413.5
404.198	386.5
404.422	416.5
404.645	419.5
404.869	410.5
405.093	447.5
405.317	466.5
405.541	507.5
405.765	464.5
405.988	453.5
406.212	444.5
406.436	468.5
406.66	477.5
406.883	473.5
407.107	455.5
407.331	514.5
407.555	561.5
407.778	567.5
408.002	501.5
408.226	487.5
408.449	454.5
408.673	432.5
408.896	487.5
409.12	501.5
409.344	501.5
409.567	427.5
409.791	426.5
410.014	402.5
410.238	399.5
410.461	427.5
410.685	411.5
410.908	427.5
411.132	452.5
411.355	483.5
411.578	477.5
411.802	403.5
412.025	422.5
412.249	420.5
412.472	417.5
412.695	446.5
412.919	457.5
413.142	429.5
413.365	406.5
413.589	386.5
413.812	398.5
414.035	372.5
414.258	377.5
414.482	377.5
414.705	371.5
414.928	402.5
415.151	387.5
415.374	390.5
415.597	383.5
415.821	359.5
416.044	385.5
416.267	372.5
416.49	384.5
416.713	383.5
416.936	388.5
417.159	398.5
417.382	395.5
417.605	391.5
417.828	403.5
418.051	417.5
418.274	396.5
418.497	391.5
418.72	398.5
418.943	375.5
419.166	388.5
419.389	405.5
419.611	427.5
419.834	395.5
420.057	410.5
420.28	414.5
420.503	396.5
420.726	417.5
420.948	426.5
421.171	462.5
421.394	513.5
421.617	429.5
421.839	403.5
422.062	425.5
422.285	417.5
422.507	479.5
422.73	551.5
422.953	546.5
423.175	453.5
423.398	433.5
423.621	424.5
423.843	455.5
424.066	453.5
424.288	456.5
424.511	472.5
424.733	527.5
424.956	579.5
425.178	591.5
425.401	577.5
425.623	607.5
425.846	482.5
426.068	479.5
426.291	462.5
426.513	469.5
426.735	486.5
426.958	500.5
427.18	595.5
427.402	677.5
427.625	768.5
427.847	697.5
428.069	621.5
428.292	526.5
428.514	473.5
428.736	461.5
428.958	459.5
429.181	441.5
429.403	435.5
429.625	469.5
429.847	482.5
430.069	523.5
430.292	523.5
430.514	455.5
430.736	433.5
430.958	421.5
431.18	399.5
431.402	400.5
431.624	382.5
431.846	384.5
432.068	405.5
432.29	407.5
432.512	401.5
432.734	405.5
432.956	414.5
433.178	406.5
433.4	418.5
433.622	403.5
433.844	385.5
434.066	409.5
434.287	413.5
434.509	386.5
434.731	391.5
434.953	394.5
435.175	425.5
435.397	431.5
435.618	453.5
435.84	509.5
436.062	574.5
436.284	619.5
436.505	534.5
436.727	498.5
436.949	451.5
437.17	441.5
437.392	432.5
437.614	459.5
437.835	480.5
438.057	585.5
438.278	659.5
438.5	661.5
438.721	707.5
438.943	676.5
439.165	543.5
439.386	527.5
439.608	507.5
439.829	477.5
440.05	506.5
440.272	537.5
440.493	527.5
440.715	459.5
440.936	447.5
441.158	440.5
441.379	436.5
441.6	460.5
441.822	458.5
442.043	520.5
442.264	577.5
442.486	624.5
442.707	523.5
442.928	497.5
443.149	479.5
443.371	519.5
443.592	560.5
443.813	617.5
444.034	667.5
444.255	555.5
444.476	479.5
444.698	465.5
444.919	456.5
445.14	546.5
445.361	500.5
445.582	493.5
445.803	561.5
446.024	643.5
446.245	666.5
446.466	595.5
446.687	519.5
446.908	490.5
447.129	468.5
447.35	426.5
447.571	426.5
447.792	417.5
448.013	451.5
448.234	463.5
448.455	524.5
448.675	605.5
448.896	691.5
449.117	573.5
449.338	565.5
449.559	651.5
449.779	719.5
450	596.5
450.221	470.5
450.442	451.5
450.662	420.5
450.883	434.5
451.104	469.5
451.324	447.5
451.545	428.5
451.766	422.5
451.986	414.5
452.207	372.5
452.428	374.5
452.648	381.5
452.869	359.5
453.089	410.5
453.31	411.5
453.53	404.5
453.751	385.5
453.971	389.5
454.192	425.5
454.412	395.5
454.633	403.5
454.853	373.5
455.073	379.5
455.294	418.5
455.514	485.5
455.734	465.5
455.955	394.5
456.175	379.5
456.395	368.5
456.616	353.5
456.836	356.5
457.056	351.5
457.276	331.5
457.497	370.5
457.717	359.5
457.937	357.5
458.157	376.5
458.377	379.5
458.598	394.5
458.818	455.5
459.038	530.5
459.258	533.5
459.478	471.5
459.698	403.5
459.918	404.5
460.138	385.5
460.358	375.5
460.578	397.5
460.798	407.5
461.018	401.5
461.238	375.5
461.458	375.5
461.678	361.5
461.898	396.5
462.118	383.5
462.338	385.5
462.558	378.5
462.777	369.5
462.997	399.5
463.217	405.5
463.437	394.5
463.657	392.5
463.876	395.5
464.096	398.5
464.316	399.5
464.536	401.5
464.755	427.5
464.975	433.5
465.195	512.5
465.414	577.5
465.634	502.5
465.854	439.5
466.073	421.5
466.293	381.5
466.512	372.5
466.732	371.5
466.951	386.5
467.171	376.5
467.391	391.5
467.61	394.5
467.829	407.5
468.049	392.5
468.268	402.5
468.488	402.5
468.707	382.5
468.927	374.5
469.146	376.5
469.365	370.5
469.585	368.5
469.804	370.5
470.023	391.5
470.243	395.5
470.462	399.5
470.681	433.5
470.901	418.5
471.12	374.5
471.339	371.5
471.558	404.5
471.777	413.5
471.997	375.5
472.216	391.5
472.435	434.5
472.654	423.5
472.873	401.5
473.092	383.5
473.311	399.5
473.53	395.5
473.749	403.5
473.968	457.5
474.187	546.5
474.406	575.5
474.625	458.5
474.844	411.5
475.063	395.5
475.282	395.5
475.501	386.5
475.72	429.5
475.939	400.5
476.158	392.5
476.377	409.5
476.596	400.5
476.814	402.5
477.033	431.5
477.252	409.5
477.471	431.5
477.69	411.5
477.908	420.5
478.127	408.5
478.346	419.5
478.564	406.5
478.783	419.5
479.002	439.5
479.22	448.5
479.439	450.5
479.658	467.5
479.876	484.5
480.095	480.5
480.313	493.5
480.532	513.5
480.751	492.5
480.969	470.5
481.188	537.5
481.406	622.5
481.624	527.5
481.843	488.5
482.061	461.5
482.28	474.5
482.498	484.5
482.717	462.5
482.935	469.5
483.153	457.5
483.372	446.5
483.59	467.5
483.808	476.5
484.027	444.5
484.245	482.5
484.463	473.5
484.681	462.5
484.9	480.5
485.118	497.5
485.336	484.5
485.554	484.5
485.772	490.5
485.99	480.5
486.209	488.5
486.427	480.5
486.645	485.5
486.863	510.5
487.081	531.5
487.299	526.5
487.517	511.5
487.735	486.5
487.953	499.5
488.171	495.5
488.389	496.5
488.607	503.5
488.825	496.5
489.043	486.5
489.261	498.5
489.479	537.5
489.696	521.5
489.914	524.5
490.132	515.5
490.35	533.5
490.568	517.5
490.786	540.5
491.003	527.5
491.221	567.5
491.439	575.5
491.657	581.5
491.874	581.5
492.092	604.5
492.31	605.5
492.527	561.5
492.745	593.5
492.963	575.5
493.18	603.5
493.398	593.5
493.615	601.5
493.833	623.5
494.05	625.5
494.268	625.5
494.485	591.5
494.703	585.5
494.92	615.5
495.138	598.5
495.355	598.5
495.573	610.5
495.79	631.5
496.008	642.5
496.225	605.5
496.442	601.5
496.66	614.5
496.877	611.5
497.094	605.5
497.312	622.5
497.529	615.5
497.746	593.5
497.963	607.5
498.181	618.5
498.398	627.5
498.615	645.5
498.832	667.5
499.049	651.5
499.267	627.5
499.484	676.5
499.701	690.5
499.918	664.5
500.135	695.5
500.352	721.5
500.569	737.5
500.786	716.5
501.003	719.5
501.22	735.5
501.437	734.5
501.654	705.5
501.871	733.5
502.088	707.5
502.305	688.5
502.522	665.5
502.739	652.5
502.956	618.5
503.172	631.5
503.389	633.5
503.606	647.5
503.823	633.5
504.04	611.5
504.256	613.5
504.473	620.5
504.69	589.5
504.907	588.5
505.123	595.5
505.34	590.5
505.557	566.5
505.773	586.5
505.99	597.5
506.207	586.5
506.423	605.5
506.64	595.5
506.856	572.5
507.073	583.5
507.289	581.5
507.506	584.5
507.722	613.5
507.939	607.5
508.155	589.5
508.372	570.5
508.588	554.5
508.805	560.5
509.021	585.5
509.238	584.5
509.454	586.5
509.67	609.5
509.887	586.5
510.103	584.5
510.319	606.5
510.536	695.5
510.752	1266.5
510.968	997.5
511.184	603.5
511.401	571.5
511.617	556.5
511.833	586.5
512.049	522.5
512.265	561.5
512.481	561.5
512.698	534.5
512.914	561.5
513.13	530.5
513.346	526.5
513.562	532.5
513.778	554.5
513.994	570.5
514.21	566.5
514.426	607.5
514.642	655.5
514.858	688.5
515.074	743.5
515.29	927.5
515.506	1470.5
515.721	1151.5
515.937	738.5
516.153	637.5
516.369	608.5
516.585	563.5
516.801	559.5
517.016	566.5
517.232	555.5
517.448	523.5
517.664	554.5
517.879	566.5
518.095	554.5
518.311	537.5
518.527	525.5
518.742	527.5
518.958	525.5
519.173	539.5
519.389	545.5
519.605	542.5
519.82	536.5
520.036	562.5
520.251	629.5
520.467	647.5
520.682	636.5
520.898	649.5
521.113	665.5
521.329	743.5
521.544	864.5
521.76	1140.5
521.975	1945.5
522.19	1893.5
522.406	994.5
522.621	680.5
522.836	617.5
523.052	569.5
523.267	533.5
523.482	531.5
523.698	505.5
523.913	546.5
524.128	517.5
524.343	504.5
524.559	486.5
524.774	481.5
524.989	475.5
525.204	479.5
525.419	486.5
525.634	462.5
525.849	464.5
526.064	457.5
526.28	464.5
526.495	452.5
526.71	444.5
526.925	443.5
527.14	448.5
527.355	441.5
527.57	434.5
527.785	422.5
527.999	439.5
528.214	427.5
528.429	439.5
528.644	427.5
528.859	432.5
529.074	421.5
529.289	455.5
529.503	558.5
529.718	534.5
529.933	496.5
530.148	465.5
530.363	458.5
530.577	442.5
530.792	421.5
531.007	411.5
531.221	437.5
531.436	421.5
531.651	405.5
531.865	421.5
532.08	422.5
532.295	424.5
532.509	406.5
532.724	393.5
532.938	409.5
533.153	394.5
533.367	390.5
533.582	410.5
533.796	390.5
534.011	373.5
534.225	404.5
534.44	395.5
534.654	389.5
534.868	408.5
535.083	402.5
535.297	399.5
535.511	407.5
535.726	415.5
535.94	424.5
536.154	416.5
536.369	400.5
536.583	395.5
536.797	397.5
537.011	382.5
537.225	387.5
537.44	383.5
537.654	395.5
537.868	402.5
538.082	375.5
538.296	404.5
538.51	413.5
538.724	405.5
538.938	402.5
539.153	395.5
539.367	412.5
539.581	430.5
539.795	399.5
540.009	384.5
540.222	365.5
540.436	391.5
540.65	390.5
540.864	409.5
541.078	402.5
541.292	413.5
541.506	389.5
541.72	393.5
541.934	389.5
542.147	394.5
542.361	393.5
542.575	371.5
542.789	372.5
543.002	389.5
543.216	390.5
543.43	400.5
543.644	401.5
543.857	391.5
544.071	391.5
544.285	389.5
544.498	388.5
544.712	381.5
544.925	375.5
545.139	385.5
545.352	368.5
545.566	389.5
545.779	361.5
545.993	379.5
546.206	369.5
546.42	367.5
546.633	389.5
546.847	351.5
547.06	369.5
547.274	360.5
547.487	365.5
547.7	374.5
547.914	372.5
548.127	357.5
548.34	353.5
548.554	362.5
548.767	363.5
548.98	357.5
549.193	357.5
549.407	366.5
549.62	362.5
549.833	369.5
550.046	369.5
550.259	361.5
550.473	338.5
550.686	356.5
550.899	350.5
551.112	348.5
551.325	354.5
551.538	356.5
551.751	350.5
551.964	349.5
552.177	359.5
552.39	339.5
552.603	360.5
552.816	359.5
553.029	337.5
553.242	353.5
553.455	346.5
553.667	382.5
553.88	393.5
554.093	373.5
554.306	381.5
554.519	382.5
554.732	354.5
554.944	376.5
555.157	343.5
555.37	352.5
555.583	350.5
555.795	351.5
556.008	331.5
556.221	351.5
556.433	331.5
556.646	330.5
556.859	315.5
557.071	321.5
557.284	314.5
557.496	324.5
557.709	344.5
557.921	343.5
558.134	327.5
558.346	324.5
558.559	328.5
558.771	336.5
558.984	316.5
559.196	319.5
559.409	310.5
559.621	298.5
559.833	324.5
560.046	317.5
560.258	323.5
560.47	323.5
560.683	319.5
560.895	298.5
561.107	313.5
561.32	320.5
561.532	312.5
561.744	307.5
561.956	305.5
562.168	319.5
562.381	315.5
562.593	315.5
562.805	308.5
563.017	330.5
563.229	319.5
563.441	312.5
563.653	326.5
563.865	324.5
564.077	339.5
564.289	326.5
564.501	346.5
564.713	332.5
564.925	337.5
565.137	348.5
565.349	339.5
565.561	332.5
565.773	322.5
565.985	337.5
566.197	342.5
566.408	322.5
566.62	362.5
566.832	351.5
567.044	351.5
567.255	346.5
567.467	344.5
567.679	351.5
567.891	366.5
568.102	371.5
568.314	350.5
568.526	343.5
568.737	334.5
568.949	339.5
569.161	328.5
569.372	319.5
569.584	331.5
569.795	335.5
570.007	336.5
570.218	396.5
570.43	351.5
570.641	319.5
570.853	302.5
571.064	306.5
571.276	303.5
571.487	312.5
571.698	293.5
571.91	287.5
572.121	289.5
572.333	295.5
572.544	289.5
572.755	289.5
572.966	287.5
573.178	291.5
573.389	295.5
573.6	299.5
573.811	269.5
574.023	276.5
574.234	266.5
574.445	287.5
574.656	279.5
574.867	281.5
575.078	273.5
575.289	288.5
575.501	269.5
575.712	295.5
575.923	258.5
576.134	280.5
576.345	264.5
576.556	279.5
576.767	279.5
576.978	284.5
577.188	263.5
577.399	277.5
577.61	276.5
577.821	280.5
578.032	264.5
578.243	323.5
578.454	603.5
578.665	432.5
578.875	307.5
579.086	287.5
579.297	263.5
579.508	267.5
579.718	266.5
579.929	274.5
580.14	264.5
580.35	255.5
580.561	285.5
580.772	246.5
580.982	256.5
581.193	272.5
581.403	257.5
581.614	257.5
581.825	264.5
582.035	253.5
582.246	253.5
582.456	258.5
582.667	265.5
582.877	267.5
583.087	250.5
583.298	251.5
583.508	273.5
583.719	246.5
583.929	249.5
584.139	257.5
584.35	251.5
584.56	273.5
584.77	265.5
584.981	235.5
585.191	234.5
585.401	231.5
585.611	241.5
585.821	246.5
586.032	251.5
586.242	234.5
586.452	222.5
586.662	241.5
586.872	254.5
587.082	238.5
587.292	256.5
587.502	229.5
587.713	243.5
587.923	226.5
588.133	243.5
588.343	234.5
588.553	230.5
588.762	258.5
588.972	253.5
589.182	258.5
589.392	251.5
589.602	242.5
589.812	267.5
590.022	262.5
590.232	241.5
590.441	233.5
590.651	222.5
590.861	254.5
591.071	240.5
591.281	234.5
591.49	236.5
591.7	240.5
591.91	254.5
592.119	231.5
592.329	248.5
592.539	267.5
592.748	255.5
592.958	245.5
593.167	242.5
593.377	253.5
593.587	251.5
593.796	235.5
594.006	243.5
594.215	232.5
594.424	252.5
594.634	240.5
594.843	226.5
595.053	238.5
595.262	234.5
595.472	227.5
595.681	240.5
595.89	234.5
596.1	245.5
596.309	237.5
596.518	230.5
596.727	234.5
596.937	245.5
597.146	233.5
597.355	242.5
597.564	237.5
597.774	237.5
597.983	216.5
598.192	232.5
598.401	233.5
598.61	222.5
598.819	212.5
599.028	217.5
599.237	217.5
599.446	225.5
599.655	213.5
599.864	219.5
600.073	218.5
600.282	229.5
600.491	230.5
600.7	216.5
600.909	213.5
601.118	211.5
601.327	219.5
601.536	218.5
601.745	219.5
601.953	227.5
602.162	207.5
602.371	226.5
602.58	217.5
602.789	218.5
602.997	237.5
603.206	209.5
603.415	199.5
603.623	216.5
603.832	209.5
604.041	214.5
604.249	214.5
604.458	213.5
604.666	210.5
604.875	201.5
605.084	203.5
605.292	218.5
605.501	205.5
605.709	196.5
605.918	212.5
606.126	213.5
606.334	217.5
606.543	197.5
606.751	209.5
606.96	197.5
607.168	211.5
607.376	200.5
607.585	219.5
607.793	215.5
608.001	205.5
608.21	211.5
608.418	196.5
608.626	198.5
608.834	207.5
609.043	194.5
609.251	197.5
609.459	195.5
609.667	213.5
609.875	209.5
610.083	210.5
610.291	217.5
610.499	206.5
610.707	230.5
610.916	202.5
611.124	207.5
611.332	208.5
611.54	217.5
611.748	197.5
611.955	223.5
612.163	208.5
612.371	209.5
612.579	203.5
612.787	208.5
612.995	193.5
613.203	196.5
613.411	196.5
613.618	201.5
613.826	198.5
614.034	199.5
614.242	201.5
614.449	202.5
614.657	191.5
614.865	200.5
615.072	202.5
615.28	180.5
615.488	195.5
615.695	193.5
615.903	211.5
616.111	213.5
616.318	197.5
616.526	200.5
616.733	201.5
616.941	210.5
617.148	192.5
617.356	212.5
617.563	189.5
617.771	202.5
617.978	197.5
618.185	205.5
618.393	188.5
618.6	194.5
618.807	187.5
619.015	191.5
619.222	197.5
619.429	185.5
619.637	197.5
619.844	203.5
620.051	195.5
620.258	199.5
620.466	177.5
620.673	203.5
620.88	184.5
621.087	179.5
621.294	183.5
621.501	191.5
621.708	192.5
621.915	201.5
622.122	189.5
622.329	196.5
622.536	202.5
622.743	203.5
622.95	197.5
623.157	181.5
623.364	174.5
623.571	190.5
623.778	196.5
623.985	190.5
624.192	179.5
624.399	189.5
624.606	192.5
624.812	188.5
625.019	194.5
625.226	199.5
625.433	172.5
625.639	191.5
625.846	180.5
626.053	168.5
626.259	185.5
626.466	167.5
626.673	177.5
626.879	186.5
627.086	183.5
627.293	196.5
627.499	161.5
627.706	195.5
627.912	163.5
628.119	174.5
628.325	160.5
628.532	174.5
628.738	183.5
628.945	183.5
629.151	187.5
629.357	162.5
629.564	179.5
629.77	157.5
629.976	165.5
630.183	166.5
630.389	174.5
630.595	177.5
630.802	168.5
631.008	175.5
631.214	158.5
631.42	161.5
631.627	178.5
631.833	161.5
632.039	159.5
632.245	167.5
632.451	182.5
632.657	158.5
632.863	180.5
633.069	162.5
633.275	173.5
633.481	160.5
633.688	173.5
633.893	160.5
634.099	157.5
634.305	157.5
634.511	162.5
634.717	165.5
634.923	160.5
635.129	174.5
635.335	159.5
635.541	166.5
635.747	162.5
635.952	156.5
636.158	166.5
636.364	161.5
636.57	163.5
636.775	162.5
636.981	159.5
637.187	158.5
637.392	156.5
637.598	165.5
637.804	155.5
638.009	155.5
638.215	161.5
638.421	145.5
638.626	158.5
638.832	151.5
639.037	159.5
639.243	161.5
639.448	149.5
639.654	149.5
639.859	150.5
640.065	161.5
640.27	152.5
640.475	162.5
640.681	156.5
640.886	165.5
641.091	149.5
641.297	145.5
641.502	137.5
641.707	149.5
641.913	147.5
642.118	152.5
642.323	135.5
642.528	145.5
642.733	150.5
642.939	149.5
643.144	157.5
643.349	167.5
643.554	165.5
643.759	151.5
643.964	139.5
644.169	133.5
644.374	149.5
644.579	143.5
644.784	147.5
644.989	150.5
645.194	138.5
645.399	135.5
645.604	143.5
645.809	148.5
646.014	136.5
646.219	130.5
646.423	153.5
646.628	146.5
646.833	151.5
647.038	165.5
647.243	147.5
647.447	162.5
647.652	153.5
647.857	159.5
648.062	135.5
648.266	150.5
648.471	151.5
648.676	157.5
648.88	152.5
649.085	157.5
649.289	147.5
649.494	158.5
649.698	161.5
649.903	159.5
650.107	153.5
650.312	142.5
650.516	150.5
650.721	134.5
650.925	136.5
651.13	129.5
651.334	136.5
651.539	139.5
651.743	137.5
651.947	123.5
652.152	136.5
652.356	141.5
652.56	125.5
652.764	135.5
652.969	138.5
653.173	118.5
653.377	145.5
653.581	112.5
653.785	117.5
653.99	122.5
654.194	122.5
654.398	122.5
654.602	117.5
654.806	135.5
655.01	125.5
655.214	116.5
655.418	122.5
655.622	117.5
655.826	112.5
656.03	113.5
656.234	135.5
656.438	129.5
656.642	124.5
656.846	127.5
657.049	112.5
657.253	117.5
657.457	113.5
657.661	97.5
657.865	103.5
658.068	102.5
658.272	105.5
658.476	109.5
658.68	104.5
658.883	103.5
659.087	85.5
659.291	93.5
659.494	89.5
659.698	82.5
659.901	97.5
660.105	80.5
660.309	91.5
660.512	93.5
660.716	95.5
660.919	94.5
661.123	106.5
661.326	87.5
661.53	92.5
661.733	89.5
661.936	87.5
662.14	80.5
662.343	95.5
662.546	94.5
662.75	80.5
662.953	86.5
663.156	87.5
663.36	81.5
663.563	68.5
663.766	82.5
663.969	91.5
664.173	85.5
664.376	75.5
664.579	88.5
664.782	84.5
664.985	86.5
665.188	81.5
665.391	94.5
665.594	73.5
665.797	75.5
666	76.5
666.203	82.5
666.406	71.5
666.609	71.5
666.812	82.5
667.015	86.5
667.218	88.5
667.421	80.5
667.624	94.5
667.827	95.5
668.03	93.5
668.232	71.5
668.435	85.5
668.638	73.5
668.841	77.5
669.043	89.5
669.246	81.5
669.449	83.5
669.651	82.5
669.854	71.5
670.057	63.5
670.259	83.5
670.462	86.5
670.665	72.5
670.867	82.5
671.07	76.5
671.272	89.5
671.475	82.5
671.677	81.5
671.88	79.5
672.082	101.5
672.284	69.5
672.487	84.5
672.689	87.5
672.892	72.5
