Data from 1986.PennyLincolnUp.Lamp.En5.5.200Scan.071819.P1_HRD10591_17-08-25-973.txt Node
Date: Thu Jul 18 17:08:25 EDT 2019
User: cochatt
Spectrometer: HR+D1059
Trigger mode: 1
Integration Time (sec): 1.000000E-1
Scans to average: 1
Electric dark correction enabled: true
Nonlinearity correction enabled: false
Boxcar width: 0
XAxis mode: Wavelengths
Number of Pixels in Spectrum: 2048
>>>>>Begin Spectral Data<<<<<
223.165	-10.81
223.4	-10.81
223.635	-10.81
223.869	-24.81
224.104	-9.81
224.338	-8.81
224.573	-22.81
224.808	-8.81
225.042	-8.81
225.277	8.19
225.511	5.19
225.746	6.19
225.98	-1.81
226.215	10.19
226.449	2.19
226.683	19.19
226.918	19.19
227.152	26.19
227.387	30.19
227.621	43.19
227.856	42.19
228.09	42.19
228.324	51.19
228.559	49.19
228.793	74.19
229.027	90.19
229.262	94.19
229.496	104.19
229.73	111.19
229.964	120.19
230.199	91.19
230.433	91.19
230.667	93.19
230.901	97.19
231.136	96.19
231.37	116.19
231.604	102.19
231.838	94.19
232.072	98.19
232.306	110.19
232.541	107.19
232.775	119.19
233.009	109.19
233.243	110.19
233.477	103.19
233.711	101.19
233.945	98.19
234.179	105.19
234.413	111.19
234.647	113.19
234.881	120.19
235.115	92.19
235.349	103.19
235.583	118.19
235.817	99.19
236.051	116.19
236.285	122.19
236.519	100.19
236.753	127.19
236.987	127.19
237.221	148.19
237.455	158.19
237.689	137.19
237.922	118.19
238.156	125.19
238.39	109.19
238.624	115.19
238.858	110.19
239.091	102.19
239.325	114.19
239.559	103.19
239.793	107.19
240.027	126.19
240.26	103.19
240.494	125.19
240.728	127.19
240.961	126.19
241.195	127.19
241.429	137.19
241.662	119.19
241.896	118.19
242.13	122.19
242.363	121.19
242.597	120.19
242.83	129.19
243.064	119.19
243.298	124.19
243.531	119.19
243.765	115.19
243.998	132.19
244.232	114.19
244.465	122.19
244.699	135.19
244.932	126.19
245.166	125.19
245.399	134.19
245.633	135.19
245.866	136.19
246.099	120.19
246.333	120.19
246.566	129.19
246.8	133.19
247.033	133.19
247.266	125.19
247.5	138.19
247.733	141.19
247.966	151.19
248.2	142.19
248.433	139.19
248.666	145.19
248.899	150.19
249.133	160.19
249.366	161.19
249.599	173.19
249.832	152.19
250.066	153.19
250.299	158.19
250.532	152.19
250.765	174.19
250.998	163.19
251.231	177.19
251.465	181.19
251.698	164.19
251.931	159.19
252.164	162.19
252.397	163.19
252.63	170.19
252.863	168.19
253.096	180.19
253.329	149.19
253.562	155.19
253.795	184.19
254.028	171.19
254.261	172.19
254.494	185.19
254.727	160.19
254.96	207.19
255.193	193.19
255.426	185.19
255.659	167.19
255.892	175.19
256.124	175.19
256.357	191.19
256.59	186.19
256.823	182.19
257.056	158.19
257.289	173.19
257.521	166.19
257.754	165.19
257.987	157.19
258.22	178.19
258.452	170.19
258.685	170.19
258.918	154.19
259.151	173.19
259.383	171.19
259.616	179.19
259.849	164.19
260.081	195.19
260.314	199.19
260.547	208.19
260.779	197.19
261.012	195.19
261.244	183.19
261.477	177.19
261.71	178.19
261.942	187.19
262.175	187.19
262.407	189.19
262.64	168.19
262.872	174.19
263.105	182.19
263.337	189.19
263.57	175.19
263.802	177.19
264.035	173.19
264.267	151.19
264.499	185.19
264.732	179.19
264.964	164.19
265.197	181.19
265.429	178.19
265.661	183.19
265.894	169.19
266.126	197.19
266.358	177.19
266.591	169.19
266.823	198.19
267.055	189.19
267.287	187.19
267.52	173.19
267.752	173.19
267.984	188.19
268.216	191.19
268.448	189.19
268.681	189.19
268.913	188.19
269.145	210.19
269.377	202.19
269.609	201.19
269.841	205.19
270.073	210.19
270.306	233.19
270.538	235.19
270.77	220.19
271.002	211.19
271.234	224.19
271.466	230.19
271.698	236.19
271.93	241.19
272.162	221.19
272.394	238.19
272.626	225.19
272.858	230.19
273.09	209.19
273.322	189.19
273.553	206.19
273.785	210.19
274.017	195.19
274.249	207.19
274.481	210.19
274.713	218.19
274.945	207.19
275.176	210.19
275.408	232.19
275.64	202.19
275.872	208.19
276.104	196.19
276.335	206.19
276.567	230.19
276.799	227.19
277.031	235.19
277.262	245.19
277.494	241.19
277.726	241.19
277.957	240.19
278.189	217.19
278.421	220.19
278.652	228.19
278.884	230.19
279.115	229.19
279.347	212.19
279.579	213.19
279.81	215.19
280.042	206.19
280.273	209.19
280.505	225.19
280.736	218.19
280.968	224.19
281.199	222.19
281.431	224.19
281.662	238.19
281.894	238.19
282.125	229.19
282.356	226.19
282.588	235.19
282.819	230.19
283.051	217.19
283.282	222.19
283.513	219.19
283.745	229.19
283.976	242.19
284.207	241.19
284.439	230.19
284.67	217.19
284.901	227.19
285.132	254.19
285.364	241.19
285.595	235.19
285.826	234.19
286.057	227.19
286.288	238.19
286.52	232.19
286.751	203.19
286.982	230.19
287.213	214.19
287.444	230.19
287.675	226.19
287.906	245.19
288.138	235.19
288.369	249.19
288.6	230.19
288.831	243.19
289.062	230.19
289.293	241.19
289.524	237.19
289.755	232.19
289.986	247.19
290.217	248.19
290.448	239.19
290.679	215.19
290.91	248.19
291.141	248.19
291.371	245.19
291.602	241.19
291.833	229.19
292.064	242.19
292.295	244.19
292.526	234.19
292.757	238.19
292.987	229.19
293.218	243.19
293.449	247.19
293.68	241.19
293.91	243.19
294.141	232.19
294.372	259.19
294.603	237.19
294.833	232.19
295.064	247.19
295.295	257.19
295.525	236.19
295.756	258.19
295.987	236.19
296.217	265.19
296.448	270.19
296.679	262.19
296.909	255.19
297.14	232.19
297.37	252.19
297.601	235.19
297.831	264.19
298.062	236.19
298.292	233.19
298.523	251.19
298.753	242.19
298.984	247.19
299.214	248.19
299.445	255.19
299.675	242.19
299.905	252.19
300.136	261.19
300.366	254.19
300.597	248.19
300.827	267.19
301.057	265.19
301.288	290.19
301.518	269.19
301.748	280.19
301.979	276.19
302.209	270.19
302.439	263.19
302.669	269.19
302.9	273.19
303.13	255.19
303.36	268.19
303.59	277.19
303.82	269.19
304.051	279.19
304.281	270.19
304.511	285.19
304.741	264.19
304.971	275.19
305.201	262.19
305.431	292.19
305.661	265.19
305.891	262.19
306.121	279.19
306.352	279.19
306.582	293.19
306.812	282.19
307.042	267.19
307.272	270.19
307.502	266.19
307.731	271.19
307.961	276.19
308.191	272.19
308.421	281.19
308.651	272.19
308.881	266.19
309.111	274.19
309.341	273.19
309.571	268.19
309.8	298.19
310.03	298.19
310.26	282.19
310.49	303.19
310.72	306.19
310.949	313.19
311.179	318.19
311.409	300.19
311.639	306.19
311.868	291.19
312.098	307.19
312.328	307.19
312.557	287.19
312.787	327.19
313.017	337.19
313.246	313.19
313.476	290.19
313.706	290.19
313.935	302.19
314.165	291.19
314.394	311.19
314.624	338.19
314.853	309.19
315.083	309.19
315.312	299.19
315.542	294.19
315.771	318.19
316.001	300.19
316.23	298.19
316.46	298.19
316.689	323.19
316.919	309.19
317.148	326.19
317.377	309.19
317.607	302.19
317.836	307.19
318.065	309.19
318.295	321.19
318.524	298.19
318.753	296.19
318.983	292.19
319.212	314.19
319.441	298.19
319.67	302.19
319.9	297.19
320.129	309.19
320.358	317.19
320.587	322.19
320.816	300.19
321.046	322.19
321.275	315.19
321.504	319.19
321.733	330.19
321.962	330.19
322.191	332.19
322.42	313.19
322.649	336.19
322.878	347.19
323.108	343.19
323.337	368.19
323.566	403.19
323.795	408.19
324.024	418.19
324.253	483.19
324.482	667.19
324.71	998.19
324.939	1337.19
325.168	1143.19
325.397	590.19
325.626	448.19
325.855	387.19
326.084	380.19
326.313	361.19
326.542	357.19
326.77	396.19
326.999	465.19
327.228	604.19
327.457	859.19
327.686	1016.19
327.914	671.19
328.143	498.19
328.372	449.19
328.6	441.19
328.829	402.19
329.058	412.19
329.287	413.19
329.515	409.19
329.744	389.19
329.972	394.19
330.201	409.19
330.43	448.19
330.658	433.19
330.887	461.19
331.115	445.19
331.344	403.19
331.572	385.19
331.801	385.19
332.03	362.19
332.258	359.19
332.486	370.19
332.715	357.19
332.943	358.19
333.172	365.19
333.4	384.19
333.629	390.19
333.857	387.19
334.085	387.19
334.314	417.19
334.542	458.19
334.771	453.19
334.999	426.19
335.227	379.19
335.455	398.19
335.684	389.19
335.912	383.19
336.14	384.19
336.369	379.19
336.597	361.19
336.825	346.19
337.053	351.19
337.281	337.19
337.51	346.19
337.738	345.19
337.966	343.19
338.194	335.19
338.422	329.19
338.65	354.19
338.878	348.19
339.106	331.19
339.334	345.19
339.562	347.19
339.79	327.19
340.018	339.19
340.246	344.19
340.474	351.19
340.702	347.19
340.93	342.19
341.158	341.19
341.386	343.19
341.614	328.19
341.842	339.19
342.07	331.19
342.298	310.19
342.526	334.19
342.754	323.19
342.981	328.19
343.209	321.19
343.437	325.19
343.665	331.19
343.893	354.19
344.12	354.19
344.348	347.19
344.576	348.19
344.804	360.19
345.031	353.19
345.259	366.19
345.487	330.19
345.714	334.19
345.942	317.19
346.17	318.19
346.397	327.19
346.625	330.19
346.853	324.19
347.08	316.19
347.308	339.19
347.535	329.19
347.763	335.19
347.99	315.19
348.218	347.19
348.445	325.19
348.673	327.19
348.9	316.19
349.128	320.19
349.355	321.19
349.583	317.19
349.81	328.19
350.037	321.19
350.265	300.19
350.492	314.19
350.72	310.19
350.947	324.19
351.174	338.19
351.402	322.19
351.629	325.19
351.856	315.19
352.083	343.19
352.311	324.19
352.538	309.19
352.765	348.19
352.992	329.19
353.22	313.19
353.447	331.19
353.674	329.19
353.901	299.19
354.128	318.19
354.355	299.19
354.583	318.19
354.81	303.19
355.037	314.19
355.264	307.19
355.491	294.19
355.718	305.19
355.945	322.19
356.172	307.19
356.399	298.19
356.626	297.19
356.853	306.19
357.08	297.19
357.307	302.19
357.534	316.19
357.761	301.19
357.988	301.19
358.215	309.19
358.441	300.19
358.668	319.19
358.895	323.19
359.122	328.19
359.349	310.19
359.576	321.19
359.802	341.19
360.029	340.19
360.256	348.19
360.483	327.19
360.709	329.19
360.936	336.19
361.163	313.19
361.39	330.19
361.616	335.19
361.843	325.19
362.07	318.19
362.296	322.19
362.523	325.19
362.749	333.19
362.976	320.19
363.203	335.19
363.429	309.19
363.656	312.19
363.882	303.19
364.109	309.19
364.335	325.19
364.562	308.19
364.788	324.19
365.015	323.19
365.241	313.19
365.468	323.19
365.694	322.19
365.92	299.19
366.147	308.19
366.373	323.19
366.599	311.19
366.826	297.19
367.052	322.19
367.278	307.19
367.505	329.19
367.731	314.19
367.957	311.19
368.184	297.19
368.41	314.19
368.636	325.19
368.862	295.19
369.089	326.19
369.315	316.19
369.541	311.19
369.767	314.19
369.993	313.19
370.219	307.19
370.445	293.19
370.672	294.19
370.898	328.19
371.124	329.19
371.35	312.19
371.576	329.19
371.802	322.19
372.028	300.19
372.254	321.19
372.48	322.19
372.706	314.19
372.932	318.19
373.158	314.19
373.384	323.19
373.61	310.19
373.835	314.19
374.061	301.19
374.287	317.19
374.513	309.19
374.739	316.19
374.965	332.19
375.191	322.19
375.416	318.19
375.642	333.19
375.868	325.19
376.094	309.19
376.319	319.19
376.545	309.19
376.771	316.19
376.997	301.19
377.222	314.19
377.448	300.19
377.674	321.19
377.899	314.19
378.125	323.19
378.35	323.19
378.576	324.19
378.802	319.19
379.027	321.19
379.253	322.19
379.478	295.19
379.704	310.19
379.929	313.19
380.155	328.19
380.38	329.19
380.606	315.19
380.831	312.19
381.057	307.19
381.282	321.19
381.507	324.19
381.733	307.19
381.958	310.19
382.184	318.19
382.409	326.19
382.634	333.19
382.86	335.19
383.085	350.19
383.31	325.19
383.535	322.19
383.761	310.19
383.986	331.19
384.211	311.19
384.436	326.19
384.662	360.19
384.887	346.19
385.112	336.19
385.337	348.19
385.562	355.19
385.787	339.19
386.013	360.19
386.238	364.19
386.463	328.19
386.688	341.19
386.913	341.19
387.138	337.19
387.363	359.19
387.588	336.19
387.813	351.19
388.038	340.19
388.263	345.19
388.488	345.19
388.713	342.19
388.938	349.19
389.163	366.19
389.387	360.19
389.612	341.19
389.837	348.19
390.062	329.19
390.287	341.19
390.512	341.19
390.736	325.19
390.961	341.19
391.186	333.19
391.411	350.19
391.636	355.19
391.86	363.19
392.085	356.19
392.31	366.19
392.534	361.19
392.759	353.19
392.984	334.19
393.208	335.19
393.433	356.19
393.658	365.19
393.882	344.19
394.107	340.19
394.331	339.19
394.556	356.19
394.78	349.19
395.005	349.19
395.229	344.19
395.454	355.19
395.678	358.19
395.903	379.19
396.127	372.19
396.352	390.19
396.576	375.19
396.801	357.19
397.025	363.19
397.249	363.19
397.474	385.19
397.698	371.19
397.922	373.19
398.147	387.19
398.371	403.19
398.595	409.19
398.82	416.19
399.044	428.19
399.268	429.19
399.492	437.19
399.717	470.19
399.941	516.19
400.165	486.19
400.389	507.19
400.613	459.19
400.837	415.19
401.062	412.19
401.286	419.19
401.51	412.19
401.734	398.19
401.958	408.19
402.182	412.19
402.406	414.19
402.63	415.19
402.854	413.19
403.078	407.19
403.302	416.19
403.526	411.19
403.75	422.19
403.974	430.19
404.198	423.19
404.422	411.19
404.645	411.19
404.869	409.19
405.093	446.19
405.317	446.19
405.541	476.19
405.765	453.19
405.988	420.19
406.212	444.19
406.436	443.19
406.66	471.19
406.883	447.19
407.107	490.19
407.331	491.19
407.555	506.19
407.778	536.19
408.002	501.19
408.226	456.19
408.449	462.19
408.673	462.19
408.896	467.19
409.12	470.19
409.344	469.19
409.567	452.19
409.791	431.19
410.014	418.19
410.238	406.19
410.461	429.19
410.685	438.19
410.908	449.19
411.132	458.19
411.355	474.19
411.578	450.19
411.802	414.19
412.025	431.19
412.249	419.19
412.472	443.19
412.695	443.19
412.919	421.19
413.142	416.19
413.365	413.19
413.589	427.19
413.812	411.19
414.035	405.19
414.258	406.19
414.482	405.19
414.705	402.19
414.928	404.19
415.151	410.19
415.374	393.19
415.597	413.19
415.821	403.19
416.044	411.19
416.267	412.19
416.49	395.19
416.713	416.19
416.936	420.19
417.159	419.19
417.382	426.19
417.605	414.19
417.828	399.19
418.051	426.19
418.274	427.19
418.497	399.19
418.72	406.19
418.943	414.19
419.166	429.19
419.389	466.19
419.611	424.19
419.834	434.19
420.057	417.19
420.28	413.19
420.503	411.19
420.726	415.19
420.948	421.19
421.171	444.19
421.394	459.19
421.617	423.19
421.839	440.19
422.062	429.19
422.285	429.19
422.507	469.19
422.73	516.19
422.953	515.19
423.175	454.19
423.398	451.19
423.621	426.19
423.843	449.19
424.066	451.19
424.288	461.19
424.511	457.19
424.733	474.19
424.956	521.19
425.178	525.19
425.401	504.19
425.623	514.19
425.846	463.19
426.068	439.19
426.291	443.19
426.513	427.19
426.735	447.19
426.958	462.19
427.18	521.19
427.402	594.19
427.625	647.19
427.847	565.19
428.069	486.19
428.292	445.19
428.514	442.19
428.736	434.19
428.958	420.19
429.181	399.19
429.403	412.19
429.625	413.19
429.847	434.19
430.069	458.19
430.292	472.19
430.514	417.19
430.736	419.19
430.958	414.19
431.18	389.19
431.402	395.19
431.624	410.19
431.846	389.19
432.068	384.19
432.29	404.19
432.512	391.19
432.734	417.19
432.956	415.19
433.178	424.19
433.4	405.19
433.622	393.19
433.844	410.19
434.066	400.19
434.287	403.19
434.509	405.19
434.731	419.19
434.953	402.19
435.175	442.19
435.397	442.19
435.618	427.19
435.84	467.19
436.062	539.19
436.284	582.19
436.505	471.19
436.727	445.19
436.949	413.19
437.17	420.19
437.392	405.19
437.614	398.19
437.835	437.19
438.057	485.19
438.278	566.19
438.5	571.19
438.721	590.19
438.943	550.19
439.165	466.19
439.386	436.19
439.608	432.19
439.829	435.19
440.05	447.19
440.272	477.19
440.493	450.19
440.715	434.19
440.936	407.19
441.158	394.19
441.379	411.19
441.6	428.19
441.822	439.19
442.043	474.19
442.264	510.19
442.486	525.19
442.707	449.19
442.928	441.19
443.149	461.19
443.371	473.19
443.592	495.19
443.813	568.19
444.034	575.19
444.255	489.19
444.476	472.19
444.698	475.19
444.919	465.19
445.14	542.19
445.361	502.19
445.582	478.19
445.803	527.19
446.024	558.19
446.245	556.19
446.466	515.19
446.687	462.19
446.908	435.19
447.129	416.19
447.35	403.19
447.571	402.19
447.792	398.19
448.013	423.19
448.234	441.19
448.455	429.19
448.675	498.19
448.896	554.19
449.117	501.19
449.338	482.19
449.559	531.19
449.779	610.19
450	490.19
450.221	419.19
450.442	401.19
450.662	419.19
450.883	401.19
451.104	408.19
451.324	395.19
451.545	388.19
451.766	371.19
451.986	357.19
452.207	365.19
452.428	371.19
452.648	385.19
452.869	363.19
453.089	372.19
453.31	399.19
453.53	369.19
453.751	369.19
453.971	373.19
454.192	356.19
454.412	369.19
454.633	370.19
454.853	371.19
455.073	365.19
455.294	362.19
455.514	421.19
455.734	398.19
455.955	383.19
456.175	362.19
456.395	355.19
456.616	345.19
456.836	335.19
457.056	329.19
457.276	353.19
457.497	342.19
457.717	361.19
457.937	344.19
458.157	343.19
458.377	363.19
458.598	377.19
458.818	426.19
459.038	459.19
459.258	446.19
459.478	422.19
459.698	403.19
459.918	397.19
460.138	389.19
460.358	398.19
460.578	406.19
460.798	408.19
461.018	410.19
461.238	398.19
461.458	421.19
461.678	393.19
461.898	424.19
462.118	417.19
462.338	433.19
462.558	426.19
462.777	441.19
462.997	435.19
463.217	453.19
463.437	456.19
463.657	466.19
463.876	445.19
464.096	461.19
464.316	441.19
464.536	452.19
464.755	437.19
464.975	440.19
465.195	465.19
465.414	502.19
465.634	441.19
465.854	428.19
466.073	400.19
466.293	389.19
466.512	393.19
466.732	379.19
466.951	386.19
467.171	387.19
467.391	404.19
467.61	386.19
467.829	406.19
468.049	425.19
468.268	406.19
468.488	385.19
468.707	362.19
468.927	375.19
469.146	369.19
469.365	343.19
469.585	376.19
469.804	377.19
470.023	389.19
470.243	393.19
470.462	389.19
470.681	408.19
470.901	406.19
471.12	394.19
471.339	377.19
471.558	385.19
471.777	412.19
471.997	385.19
472.216	414.19
472.435	472.19
472.654	438.19
472.873	394.19
473.092	387.19
473.311	361.19
473.53	375.19
473.749	381.19
473.968	424.19
474.187	487.19
474.406	492.19
474.625	412.19
474.844	396.19
475.063	394.19
475.282	394.19
475.501	390.19
475.72	398.19
475.939	380.19
476.158	381.19
476.377	396.19
476.596	400.19
476.814	389.19
477.033	394.19
477.252	429.19
477.471	408.19
477.69	421.19
477.908	425.19
478.127	422.19
478.346	415.19
478.564	422.19
478.783	429.19
479.002	423.19
479.22	434.19
479.439	468.19
479.658	468.19
479.876	464.19
480.095	463.19
480.313	480.19
480.532	488.19
480.751	459.19
480.969	486.19
481.188	610.19
481.406	647.19
481.624	531.19
481.843	483.19
482.061	460.19
482.28	441.19
482.498	460.19
482.717	440.19
482.935	446.19
483.153	452.19
483.372	459.19
483.59	447.19
483.808	456.19
484.027	423.19
484.245	453.19
484.463	444.19
484.681	460.19
484.9	444.19
485.118	460.19
485.336	458.19
485.554	445.19
485.772	453.19
485.99	438.19
486.209	461.19
486.427	488.19
486.645	482.19
486.863	474.19
487.081	484.19
487.299	478.19
487.517	489.19
487.735	476.19
487.953	492.19
488.171	482.19
488.389	486.19
488.607	483.19
488.825	484.19
489.043	477.19
489.261	506.19
489.479	487.19
489.696	479.19
489.914	456.19
490.132	499.19
490.35	487.19
490.568	482.19
490.786	498.19
491.003	494.19
491.221	519.19
491.439	531.19
491.657	510.19
491.874	545.19
492.092	544.19
492.31	545.19
492.527	530.19
492.745	529.19
492.963	562.19
493.18	517.19
493.398	544.19
493.615	539.19
493.833	553.19
494.05	554.19
494.268	559.19
494.485	536.19
494.703	562.19
494.92	554.19
495.138	545.19
495.355	548.19
495.573	547.19
495.79	547.19
496.008	547.19
496.225	546.19
496.442	558.19
496.66	575.19
496.877	558.19
497.094	561.19
497.312	554.19
497.529	577.19
497.746	579.19
497.963	578.19
498.181	585.19
498.398	607.19
498.615	622.19
498.832	620.19
499.049	631.19
499.267	651.19
499.484	647.19
499.701	705.19
499.918	762.19
500.135	810.19
500.352	830.19
500.569	851.19
500.786	860.19
501.003	832.19
501.22	825.19
501.437	759.19
501.654	724.19
501.871	718.19
502.088	689.19
502.305	662.19
502.522	635.19
502.739	620.19
502.956	614.19
503.172	629.19
503.389	581.19
503.606	592.19
503.823	589.19
504.04	601.19
504.256	561.19
504.473	574.19
504.69	562.19
504.907	570.19
505.123	540.19
505.34	565.19
505.557	538.19
505.773	536.19
505.99	527.19
506.207	523.19
506.423	533.19
506.64	537.19
506.856	508.19
507.073	523.19
507.289	500.19
507.506	520.19
507.722	528.19
507.939	524.19
508.155	512.19
508.372	513.19
508.588	493.19
508.805	470.19
509.021	499.19
509.238	479.19
509.454	491.19
509.67	490.19
509.887	493.19
510.103	480.19
510.319	500.19
510.536	555.19
510.752	921.19
510.968	745.19
511.184	510.19
511.401	474.19
511.617	473.19
511.833	454.19
512.049	465.19
512.265	456.19
512.481	462.19
512.698	448.19
512.914	479.19
513.13	453.19
513.346	460.19
513.562	469.19
513.778	451.19
513.994	479.19
514.21	479.19
514.426	491.19
514.642	513.19
514.858	521.19
515.074	547.19
515.29	633.19
515.506	921.19
515.721	777.19
515.937	544.19
516.153	532.19
516.369	478.19
516.585	511.19
516.801	478.19
517.016	494.19
517.232	476.19
517.448	503.19
517.664	501.19
517.879	487.19
518.095	490.19
518.311	489.19
518.527	500.19
518.742	487.19
518.958	482.19
519.173	478.19
519.389	470.19
519.605	474.19
519.82	480.19
520.036	484.19
520.251	474.19
520.467	515.19
520.682	469.19
520.898	500.19
521.113	520.19
521.329	506.19
521.544	579.19
521.76	719.19
521.975	1145.19
522.19	1134.19
522.406	644.19
522.621	503.19
522.836	480.19
523.052	437.19
523.267	424.19
523.482	430.19
523.698	423.19
523.913	449.19
524.128	428.19
524.343	434.19
524.559	429.19
524.774	409.19
524.989	409.19
525.204	417.19
525.419	430.19
525.634	409.19
525.849	394.19
526.064	400.19
526.28	383.19
526.495	387.19
526.71	385.19
526.925	406.19
527.14	404.19
527.355	394.19
527.57	399.19
527.785	373.19
527.999	386.19
528.214	386.19
528.429	396.19
528.644	391.19
528.859	380.19
529.074	397.19
529.289	409.19
529.503	442.19
529.718	454.19
529.933	410.19
530.148	399.19
530.363	374.19
530.577	387.19
530.792	371.19
531.007	381.19
531.221	364.19
531.436	385.19
531.651	377.19
531.865	375.19
532.08	394.19
532.295	354.19
532.509	371.19
532.724	379.19
532.938	379.19
533.153	374.19
533.367	373.19
533.582	366.19
533.796	379.19
534.011	381.19
534.225	359.19
534.44	377.19
534.654	383.19
534.868	377.19
535.083	386.19
535.297	367.19
535.511	386.19
535.726	395.19
535.94	385.19
536.154	381.19
536.369	357.19
536.583	362.19
536.797	353.19
537.011	349.19
537.225	355.19
537.44	372.19
537.654	371.19
537.868	360.19
538.082	352.19
538.296	359.19
538.51	364.19
538.724	370.19
538.938	347.19
539.153	353.19
539.367	385.19
539.581	356.19
539.795	361.19
540.009	397.19
540.222	368.19
540.436	353.19
540.65	369.19
540.864	379.19
541.078	371.19
541.292	381.19
541.506	374.19
541.72	354.19
541.934	367.19
542.147	373.19
542.361	380.19
542.575	375.19
542.789	360.19
543.002	381.19
543.216	375.19
543.43	375.19
543.644	372.19
543.857	374.19
544.071	366.19
544.285	360.19
544.498	379.19
544.712	370.19
544.925	355.19
545.139	372.19
545.352	355.19
545.566	363.19
545.779	378.19
545.993	369.19
546.206	386.19
546.42	370.19
546.633	357.19
546.847	355.19
547.06	352.19
547.274	369.19
547.487	358.19
547.7	351.19
547.914	361.19
548.127	361.19
548.34	342.19
548.554	377.19
548.767	339.19
548.98	366.19
549.193	355.19
549.407	354.19
549.62	344.19
549.833	359.19
550.046	351.19
550.259	351.19
550.473	355.19
550.686	347.19
550.899	358.19
551.112	333.19
551.325	354.19
551.538	331.19
551.751	329.19
551.964	352.19
552.177	360.19
552.39	346.19
552.603	345.19
552.816	357.19
553.029	358.19
553.242	358.19
553.455	342.19
553.667	371.19
553.88	364.19
554.093	355.19
554.306	364.19
554.519	347.19
554.732	337.19
554.944	347.19
555.157	330.19
555.37	320.19
555.583	348.19
555.795	341.19
556.008	342.19
556.221	316.19
556.433	322.19
556.646	314.19
556.859	315.19
557.071	311.19
557.284	318.19
557.496	312.19
557.709	317.19
557.921	328.19
558.134	310.19
558.346	323.19
558.559	297.19
558.771	317.19
558.984	302.19
559.196	321.19
559.409	331.19
559.621	310.19
559.833	302.19
560.046	290.19
560.258	313.19
560.47	326.19
560.683	313.19
560.895	310.19
561.107	300.19
561.32	294.19
561.532	295.19
561.744	322.19
561.956	321.19
562.168	309.19
562.381	318.19
562.593	303.19
562.805	313.19
563.017	302.19
563.229	308.19
563.441	341.19
563.653	325.19
563.865	310.19
564.077	315.19
564.289	331.19
564.501	325.19
564.713	331.19
564.925	325.19
565.137	320.19
565.349	339.19
565.561	327.19
565.773	339.19
565.985	340.19
566.197	355.19
566.408	371.19
566.62	357.19
566.832	396.19
567.044	383.19
567.255	383.19
567.467	419.19
567.679	406.19
567.891	426.19
568.102	413.19
568.314	402.19
568.526	381.19
568.737	373.19
568.949	373.19
569.161	360.19
569.372	315.19
569.584	323.19
569.795	321.19
570.007	322.19
570.218	341.19
570.43	342.19
570.641	321.19
570.853	305.19
571.064	332.19
571.276	305.19
571.487	305.19
571.698	323.19
571.91	287.19
572.121	277.19
572.333	284.19
572.544	271.19
572.755	273.19
572.966	277.19
573.178	280.19
573.389	282.19
573.6	285.19
573.811	275.19
574.023	270.19
574.234	277.19
574.445	274.19
574.656	263.19
574.867	268.19
575.078	276.19
575.289	270.19
575.501	263.19
575.712	257.19
575.923	259.19
576.134	271.19
576.345	285.19
576.556	261.19
576.767	239.19
576.978	249.19
577.188	277.19
577.399	269.19
577.61	262.19
577.821	258.19
578.032	238.19
578.243	287.19
578.454	426.19
578.665	335.19
578.875	275.19
579.086	263.19
579.297	246.19
579.508	246.19
579.718	252.19
579.929	250.19
580.14	237.19
580.35	263.19
580.561	235.19
580.772	269.19
580.982	253.19
581.193	245.19
581.403	256.19
581.614	242.19
581.825	237.19
582.035	235.19
582.246	226.19
582.456	238.19
582.667	225.19
582.877	228.19
583.087	231.19
583.298	242.19
583.508	234.19
583.719	236.19
583.929	248.19
584.139	223.19
584.35	231.19
584.56	241.19
584.77	253.19
584.981	245.19
585.191	247.19
585.401	236.19
585.611	243.19
585.821	241.19
586.032	246.19
586.242	247.19
586.452	227.19
586.662	233.19
586.872	228.19
587.082	228.19
587.292	230.19
587.502	222.19
587.713	207.19
587.923	232.19
588.133	242.19
588.343	228.19
588.553	218.19
588.762	220.19
588.972	235.19
589.182	271.19
589.392	295.19
589.602	243.19
589.812	271.19
590.022	255.19
590.232	242.19
590.441	236.19
590.651	236.19
590.861	230.19
591.071	228.19
591.281	229.19
591.49	235.19
591.7	250.19
591.91	243.19
592.119	237.19
592.329	274.19
592.539	253.19
592.748	273.19
592.958	266.19
593.167	252.19
593.377	279.19
593.587	265.19
593.796	250.19
594.006	261.19
594.215	245.19
594.424	246.19
594.634	263.19
594.843	248.19
595.053	247.19
595.262	244.19
595.472	235.19
595.681	249.19
595.89	238.19
596.1	230.19
596.309	231.19
596.518	245.19
596.727	218.19
596.937	214.19
597.146	226.19
597.355	219.19
597.564	232.19
597.774	220.19
597.983	214.19
598.192	218.19
598.401	212.19
598.61	218.19
598.819	205.19
599.028	216.19
599.237	223.19
599.446	222.19
599.655	213.19
599.864	209.19
600.073	202.19
600.282	222.19
600.491	207.19
600.7	222.19
600.909	210.19
601.118	218.19
601.327	213.19
601.536	207.19
601.745	220.19
601.953	222.19
602.162	212.19
602.371	214.19
602.58	196.19
602.789	221.19
602.997	206.19
603.206	210.19
603.415	214.19
603.623	211.19
603.832	202.19
604.041	203.19
604.249	204.19
604.458	213.19
604.666	193.19
604.875	193.19
605.084	198.19
605.292	205.19
605.501	198.19
605.709	200.19
605.918	201.19
606.126	209.19
606.334	183.19
606.543	197.19
606.751	206.19
606.96	196.19
607.168	195.19
607.376	187.19
607.585	194.19
607.793	187.19
608.001	191.19
608.21	191.19
608.418	183.19
608.626	187.19
608.834	197.19
609.043	201.19
609.251	195.19
609.459	182.19
609.667	195.19
609.875	199.19
610.083	213.19
610.291	206.19
610.499	168.19
610.707	189.19
610.916	202.19
611.124	199.19
611.332	206.19
611.54	212.19
611.748	196.19
611.955	205.19
612.163	211.19
612.371	185.19
612.579	189.19
612.787	195.19
612.995	203.19
613.203	194.19
613.411	201.19
613.618	194.19
613.826	182.19
614.034	183.19
614.242	193.19
614.449	200.19
614.657	196.19
614.865	179.19
615.072	199.19
615.28	191.19
615.488	205.19
615.695	183.19
615.903	199.19
616.111	206.19
616.318	201.19
616.526	190.19
616.733	193.19
616.941	197.19
617.148	185.19
617.356	201.19
617.563	199.19
617.771	179.19
617.978	180.19
618.185	190.19
618.393	190.19
618.6	200.19
618.807	187.19
619.015	188.19
619.222	199.19
619.429	191.19
619.637	185.19
619.844	185.19
620.051	203.19
620.258	186.19
620.466	187.19
620.673	174.19
620.88	171.19
621.087	170.19
621.294	166.19
621.501	180.19
621.708	184.19
621.915	193.19
622.122	166.19
622.329	183.19
622.536	174.19
622.743	181.19
622.95	172.19
623.157	166.19
623.364	163.19
623.571	168.19
623.778	168.19
623.985	168.19
624.192	181.19
624.399	174.19
624.606	183.19
624.812	188.19
625.019	169.19
625.226	178.19
625.433	165.19
625.639	179.19
625.846	161.19
626.053	166.19
626.259	181.19
626.466	183.19
626.673	157.19
626.879	164.19
627.086	179.19
627.293	149.19
627.499	159.19
627.706	172.19
627.912	151.19
628.119	177.19
628.325	175.19
628.532	166.19
628.738	171.19
628.945	166.19
629.151	170.19
629.357	158.19
629.564	168.19
629.77	158.19
629.976	166.19
630.183	173.19
630.389	169.19
630.595	179.19
630.802	165.19
631.008	169.19
631.214	168.19
631.42	168.19
631.627	172.19
631.833	172.19
632.039	168.19
632.245	156.19
632.451	171.19
632.657	180.19
632.863	166.19
633.069	161.19
633.275	151.19
633.481	171.19
633.688	149.19
633.893	161.19
634.099	158.19
634.305	159.19
634.511	153.19
634.717	151.19
634.923	154.19
635.129	157.19
635.335	164.19
635.541	141.19
635.747	173.19
635.952	145.19
636.158	158.19
636.364	153.19
636.57	167.19
636.775	158.19
636.981	155.19
637.187	156.19
637.392	153.19
637.598	160.19
637.804	157.19
638.009	169.19
638.215	163.19
638.421	157.19
638.626	143.19
638.832	155.19
639.037	149.19
639.243	149.19
639.448	141.19
639.654	152.19
639.859	154.19
640.065	159.19
640.27	156.19
640.475	147.19
640.681	152.19
640.886	149.19
641.091	150.19
641.297	140.19
641.502	147.19
641.707	147.19
641.913	138.19
642.118	137.19
642.323	136.19
642.528	142.19
642.733	151.19
642.939	144.19
643.144	135.19
643.349	161.19
643.554	151.19
643.759	153.19
643.964	142.19
644.169	143.19
644.374	129.19
644.579	152.19
644.784	147.19
644.989	151.19
645.194	139.19
645.399	151.19
645.604	148.19
645.809	143.19
646.014	145.19
646.219	131.19
646.423	156.19
646.628	132.19
646.833	145.19
647.038	163.19
647.243	150.19
647.447	127.19
647.652	131.19
647.857	148.19
648.062	140.19
648.266	139.19
648.471	143.19
648.676	143.19
648.88	140.19
649.085	147.19
649.289	159.19
649.494	142.19
649.698	156.19
649.903	133.19
650.107	147.19
650.312	124.19
650.516	165.19
650.721	143.19
650.925	140.19
651.13	119.19
651.334	133.19
651.539	137.19
651.743	135.19
651.947	125.19
652.152	133.19
652.356	132.19
652.56	140.19
652.764	133.19
652.969	120.19
653.173	130.19
653.377	134.19
653.581	126.19
653.785	121.19
653.99	131.19
654.194	118.19
654.398	129.19
654.602	127.19
654.806	127.19
655.01	138.19
655.214	125.19
655.418	135.19
655.622	130.19
655.826	131.19
656.03	139.19
656.234	126.19
656.438	128.19
656.642	124.19
656.846	116.19
657.049	134.19
657.253	130.19
657.457	111.19
657.661	123.19
657.865	101.19
658.068	109.19
658.272	129.19
658.476	115.19
658.68	103.19
658.883	93.19
659.087	102.19
659.291	98.19
659.494	100.19
659.698	101.19
659.901	109.19
660.105	89.19
660.309	93.19
660.512	94.19
660.716	93.19
660.919	81.19
661.123	88.19
661.326	92.19
661.53	86.19
661.733	96.19
661.936	93.19
662.14	91.19
662.343	91.19
662.546	95.19
662.75	98.19
662.953	103.19
663.156	97.19
663.36	91.19
663.563	87.19
663.766	93.19
663.969	84.19
664.173	86.19
664.376	75.19
664.579	90.19
664.782	92.19
664.985	76.19
665.188	74.19
665.391	89.19
665.594	87.19
665.797	81.19
666	76.19
666.203	84.19
666.406	78.19
666.609	90.19
666.812	89.19
667.015	85.19
667.218	86.19
667.421	61.19
667.624	97.19
667.827	81.19
668.03	79.19
668.232	80.19
668.435	85.19
668.638	70.19
668.841	73.19
669.043	81.19
669.246	98.19
669.449	75.19
669.651	83.19
669.854	83.19
670.057	87.19
670.259	83.19
670.462	64.19
670.665	77.19
670.867	72.19
671.07	74.19
671.272	84.19
671.475	75.19
671.677	86.19
671.88	70.19
672.082	93.19
672.284	76.19
672.487	95.19
672.689	79.19
672.892	75.19
