Data from 1986.PennyLincolnUp.Lamp.En5.5.200Scan.071819.P2_HRD10591_17-12-45-972.txt Node
Date: Thu Jul 18 17:12:45 EDT 2019
User: cochatt
Spectrometer: HR+D1059
Trigger mode: 1
Integration Time (sec): 1.000000E-1
Scans to average: 1
Electric dark correction enabled: true
Nonlinearity correction enabled: false
Boxcar width: 0
XAxis mode: Wavelengths
Number of Pixels in Spectrum: 2048
>>>>>Begin Spectral Data<<<<<
223.165	-0.56
223.4	-0.56
223.635	-0.56
223.869	-19.56
224.104	-20.56
224.338	-22.56
224.573	-14.56
224.808	-18.56
225.042	-13.56
225.277	-2.56
225.511	3.44
225.746	11.44
225.98	12.44
226.215	7.44
226.449	17.44
226.683	15.44
226.918	15.44
227.152	29.44
227.387	24.44
227.621	25.44
227.856	35.44
228.09	40.44
228.324	39.44
228.559	56.44
228.793	68.44
229.027	86.44
229.262	111.44
229.496	129.44
229.73	132.44
229.964	152.44
230.199	133.44
230.433	111.44
230.667	119.44
230.901	101.44
231.136	91.44
231.37	113.44
231.604	104.44
231.838	104.44
232.072	95.44
232.306	105.44
232.541	127.44
232.775	108.44
233.009	115.44
233.243	108.44
233.477	107.44
233.711	114.44
233.945	106.44
234.179	115.44
234.413	105.44
234.647	106.44
234.881	116.44
235.115	105.44
235.349	108.44
235.583	120.44
235.817	114.44
236.051	126.44
236.285	127.44
236.519	122.44
236.753	139.44
236.987	144.44
237.221	179.44
237.455	254.44
237.689	188.44
237.922	146.44
238.156	133.44
238.39	146.44
238.624	137.44
238.858	123.44
239.091	130.44
239.325	131.44
239.559	136.44
239.793	136.44
240.027	136.44
240.26	147.44
240.494	165.44
240.728	160.44
240.961	164.44
241.195	162.44
241.429	149.44
241.662	127.44
241.896	140.44
242.13	149.44
242.363	132.44
242.597	154.44
242.83	151.44
243.064	145.44
243.298	155.44
243.531	139.44
243.765	146.44
243.998	155.44
244.232	134.44
244.465	137.44
244.699	160.44
244.932	142.44
245.166	156.44
245.399	149.44
245.633	143.44
245.866	173.44
246.099	170.44
246.333	162.44
246.566	151.44
246.8	147.44
247.033	161.44
247.266	151.44
247.5	165.44
247.733	157.44
247.966	194.44
248.2	183.44
248.433	193.44
248.666	190.44
248.899	202.44
249.133	210.44
249.366	212.44
249.599	211.44
249.832	194.44
250.066	225.44
250.299	213.44
250.532	237.44
250.765	295.44
250.998	291.44
251.231	272.44
251.465	250.44
251.698	240.44
251.931	229.44
252.164	218.44
252.397	211.44
252.63	234.44
252.863	229.44
253.096	242.44
253.329	255.44
253.562	253.44
253.795	234.44
254.028	231.44
254.261	255.44
254.494	267.44
254.727	285.44
254.96	299.44
255.193	309.44
255.426	291.44
255.659	303.44
255.892	299.44
256.124	381.44
256.357	400.44
256.59	372.44
256.823	328.44
257.056	290.44
257.289	286.44
257.521	278.44
257.754	265.44
257.987	256.44
258.22	243.44
258.452	247.44
258.685	245.44
258.918	232.44
259.151	243.44
259.383	231.44
259.616	247.44
259.849	251.44
260.081	270.44
260.314	279.44
260.547	267.44
260.779	266.44
261.012	258.44
261.244	264.44
261.477	247.44
261.71	234.44
261.942	269.44
262.175	245.44
262.407	235.44
262.64	236.44
262.872	243.44
263.105	232.44
263.337	243.44
263.57	227.44
263.802	245.44
264.035	241.44
264.267	215.44
264.499	223.44
264.732	218.44
264.964	227.44
265.197	225.44
265.429	235.44
265.661	239.44
265.894	210.44
266.126	244.44
266.358	232.44
266.591	247.44
266.823	225.44
267.055	217.44
267.287	238.44
267.52	250.44
267.752	245.44
267.984	239.44
268.216	240.44
268.448	243.44
268.681	258.44
268.913	273.44
269.145	291.44
269.377	296.44
269.609	275.44
269.841	290.44
270.073	294.44
270.306	312.44
270.538	324.44
270.77	325.44
271.002	333.44
271.234	310.44
271.466	338.44
271.698	333.44
271.93	345.44
272.162	350.44
272.394	335.44
272.626	314.44
272.858	312.44
273.09	312.44
273.322	290.44
273.553	285.44
273.785	286.44
274.017	278.44
274.249	285.44
274.481	293.44
274.713	293.44
274.945	283.44
275.176	268.44
275.408	272.44
275.64	284.44
275.872	289.44
276.104	294.44
276.335	287.44
276.567	287.44
276.799	317.44
277.031	324.44
277.262	333.44
277.494	365.44
277.726	327.44
277.957	328.44
278.189	310.44
278.421	300.44
278.652	295.44
278.884	292.44
279.115	285.44
279.347	311.44
279.579	289.44
279.81	292.44
280.042	295.44
280.273	324.44
280.505	319.44
280.736	297.44
280.968	313.44
281.199	288.44
281.431	298.44
281.662	270.44
281.894	294.44
282.125	293.44
282.356	292.44
282.588	343.44
282.819	325.44
283.051	305.44
283.282	289.44
283.513	277.44
283.745	273.44
283.976	280.44
284.207	300.44
284.439	275.44
284.67	269.44
284.901	277.44
285.132	304.44
285.364	307.44
285.595	289.44
285.826	285.44
286.057	298.44
286.288	299.44
286.52	296.44
286.751	288.44
286.982	294.44
287.213	303.44
287.444	309.44
287.675	294.44
287.906	301.44
288.138	319.44
288.369	312.44
288.6	296.44
288.831	313.44
289.062	289.44
289.293	292.44
289.524	303.44
289.755	282.44
289.986	324.44
290.217	294.44
290.448	290.44
290.679	295.44
290.91	290.44
291.141	288.44
291.371	307.44
291.602	307.44
291.833	298.44
292.064	297.44
292.295	290.44
292.526	284.44
292.757	282.44
292.987	295.44
293.218	300.44
293.449	296.44
293.68	280.44
293.91	285.44
294.141	303.44
294.372	297.44
294.603	309.44
294.833	301.44
295.064	303.44
295.295	288.44
295.525	297.44
295.756	297.44
295.987	325.44
296.217	336.44
296.448	341.44
296.679	306.44
296.909	282.44
297.14	289.44
297.37	309.44
297.601	302.44
297.831	283.44
298.062	318.44
298.292	288.44
298.523	304.44
298.753	290.44
298.984	296.44
299.214	331.44
299.445	310.44
299.675	318.44
299.905	326.44
300.136	328.44
300.366	315.44
300.597	318.44
300.827	333.44
301.057	330.44
301.288	333.44
301.518	331.44
301.748	315.44
301.979	323.44
302.209	315.44
302.439	318.44
302.669	330.44
302.9	327.44
303.13	332.44
303.36	333.44
303.59	353.44
303.82	364.44
304.051	351.44
304.281	330.44
304.511	300.44
304.741	324.44
304.971	338.44
305.201	312.44
305.431	328.44
305.661	331.44
305.891	336.44
306.121	338.44
306.352	325.44
306.582	333.44
306.812	341.44
307.042	341.44
307.272	345.44
307.502	344.44
307.731	346.44
307.961	356.44
308.191	338.44
308.421	341.44
308.651	345.44
308.881	341.44
309.111	361.44
309.341	333.44
309.571	346.44
309.8	370.44
310.03	375.44
310.26	399.44
310.49	394.44
310.72	403.44
310.949	416.44
311.179	410.44
311.409	406.44
311.639	374.44
311.868	386.44
312.098	392.44
312.328	410.44
312.557	435.44
312.787	433.44
313.017	428.44
313.246	397.44
313.476	374.44
313.706	390.44
313.935	403.44
314.165	403.44
314.394	390.44
314.624	413.44
314.853	389.44
315.083	407.44
315.312	393.44
315.542	399.44
315.771	373.44
316.001	374.44
316.23	371.44
316.46	362.44
316.689	387.44
316.919	393.44
317.148	400.44
317.377	391.44
317.607	408.44
317.836	409.44
318.065	419.44
318.295	394.44
318.524	389.44
318.753	383.44
318.983	393.44
319.212	397.44
319.441	387.44
319.67	396.44
319.9	393.44
320.129	385.44
320.358	391.44
320.587	398.44
320.816	417.44
321.046	431.44
321.275	424.44
321.504	394.44
321.733	417.44
321.962	429.44
322.191	480.44
322.42	459.44
322.649	483.44
322.878	492.44
323.108	503.44
323.337	498.44
323.566	548.44
323.795	601.44
324.024	647.44
324.253	790.44
324.482	1095.44
324.71	1707.44
324.939	2431.44
325.168	2183.44
325.397	1131.44
325.626	735.44
325.855	635.44
326.084	597.44
326.313	584.44
326.542	580.44
326.77	624.44
326.999	725.44
327.228	1028.44
327.457	1494.44
327.686	1871.44
327.914	1349.44
328.143	915.44
328.372	817.44
328.6	796.44
328.829	724.44
329.058	712.44
329.287	728.44
329.515	714.44
329.744	689.44
329.972	744.44
330.201	885.44
330.43	987.44
330.658	959.44
330.887	835.44
331.115	757.44
331.344	644.44
331.572	598.44
331.801	587.44
332.03	599.44
332.258	569.44
332.486	548.44
332.715	505.44
332.943	525.44
333.172	546.44
333.4	569.44
333.629	604.44
333.857	651.44
334.085	718.44
334.314	870.44
334.542	1045.44
334.771	1131.44
334.999	868.44
335.227	667.44
335.455	583.44
335.684	556.44
335.912	531.44
336.14	513.44
336.369	497.44
336.597	497.44
336.825	503.44
337.053	476.44
337.281	479.44
337.51	456.44
337.738	471.44
337.966	429.44
338.194	465.44
338.422	443.44
338.65	449.44
338.878	452.44
339.106	435.44
339.334	451.44
339.562	438.44
339.79	419.44
340.018	423.44
340.246	445.44
340.474	447.44
340.702	455.44
340.93	443.44
341.158	439.44
341.386	420.44
341.614	447.44
341.842	452.44
342.07	415.44
342.298	429.44
342.526	418.44
342.754	431.44
342.981	422.44
343.209	392.44
343.437	424.44
343.665	415.44
343.893	423.44
344.12	420.44
344.348	426.44
344.576	434.44
344.804	445.44
345.031	455.44
345.259	436.44
345.487	423.44
345.714	414.44
345.942	428.44
346.17	432.44
346.397	406.44
346.625	418.44
346.853	432.44
347.08	411.44
347.308	415.44
347.535	441.44
347.763	421.44
347.99	413.44
348.218	415.44
348.445	434.44
348.673	425.44
348.9	420.44
349.128	411.44
349.355	393.44
349.583	415.44
349.81	407.44
350.037	396.44
350.265	411.44
350.492	403.44
350.72	383.44
350.947	405.44
351.174	419.44
351.402	435.44
351.629	417.44
351.856	425.44
352.083	423.44
352.311	430.44
352.538	447.44
352.765	431.44
352.992	435.44
353.22	419.44
353.447	408.44
353.674	419.44
353.901	409.44
354.128	396.44
354.355	382.44
354.583	395.44
354.81	373.44
355.037	404.44
355.264	378.44
355.491	378.44
355.718	369.44
355.945	376.44
356.172	379.44
356.399	372.44
356.626	374.44
356.853	364.44
357.08	373.44
357.307	367.44
357.534	377.44
357.761	409.44
357.988	368.44
358.215	367.44
358.441	372.44
358.668	360.44
358.895	381.44
359.122	388.44
359.349	394.44
359.576	403.44
359.802	427.44
360.029	468.44
360.256	474.44
360.483	450.44
360.709	414.44
360.936	415.44
361.163	384.44
361.39	433.44
361.616	420.44
361.843	417.44
362.07	415.44
362.296	433.44
362.523	403.44
362.749	389.44
362.976	397.44
363.203	413.44
363.429	387.44
363.656	413.44
363.882	376.44
364.109	373.44
364.335	382.44
364.562	371.44
364.788	371.44
365.015	377.44
365.241	352.44
365.468	385.44
365.694	383.44
365.92	413.44
366.147	381.44
366.373	365.44
366.599	377.44
366.826	371.44
367.052	387.44
367.278	361.44
367.505	389.44
367.731	394.44
367.957	391.44
368.184	381.44
368.41	388.44
368.636	404.44
368.862	379.44
369.089	385.44
369.315	379.44
369.541	365.44
369.767	369.44
369.993	382.44
370.219	394.44
370.445	381.44
370.672	375.44
370.898	378.44
371.124	379.44
371.35	373.44
371.576	376.44
371.802	377.44
372.028	375.44
372.254	375.44
372.48	366.44
372.706	359.44
372.932	359.44
373.158	379.44
373.384	345.44
373.61	371.44
373.835	369.44
374.061	370.44
374.287	378.44
374.513	378.44
374.739	377.44
374.965	373.44
375.191	372.44
375.416	376.44
375.642	378.44
375.868	379.44
376.094	377.44
376.319	365.44
376.545	371.44
376.771	377.44
376.997	352.44
377.222	379.44
377.448	380.44
377.674	354.44
377.899	367.44
378.125	374.44
378.35	372.44
378.576	367.44
378.802	359.44
379.027	355.44
379.253	365.44
379.478	352.44
379.704	361.44
379.929	354.44
380.155	375.44
380.38	369.44
380.606	383.44
380.831	368.44
381.057	370.44
381.282	376.44
381.507	363.44
381.733	373.44
381.958	379.44
382.184	367.44
382.409	372.44
382.634	368.44
382.86	365.44
383.085	391.44
383.31	376.44
383.535	370.44
383.761	377.44
383.986	376.44
384.211	407.44
384.436	387.44
384.662	382.44
384.887	367.44
385.112	389.44
385.337	387.44
385.562	400.44
385.787	397.44
386.013	395.44
386.238	396.44
386.463	389.44
386.688	397.44
386.913	397.44
387.138	384.44
387.363	381.44
387.588	379.44
387.813	389.44
388.038	389.44
388.263	391.44
388.488	397.44
388.713	364.44
388.938	389.44
389.163	385.44
389.387	384.44
389.612	364.44
389.837	382.44
390.062	373.44
390.287	376.44
390.512	369.44
390.736	403.44
390.961	377.44
391.186	380.44
391.411	388.44
391.636	379.44
391.86	383.44
392.085	395.44
392.31	387.44
392.534	379.44
392.759	368.44
392.984	392.44
393.208	383.44
393.433	378.44
393.658	377.44
393.882	375.44
394.107	390.44
394.331	379.44
394.556	384.44
394.78	385.44
395.005	383.44
395.229	390.44
395.454	399.44
395.678	411.44
395.903	416.44
396.127	435.44
396.352	424.44
396.576	411.44
396.801	416.44
397.025	387.44
397.249	396.44
397.474	395.44
397.698	407.44
397.922	415.44
398.147	445.44
398.371	443.44
398.595	426.44
398.82	422.44
399.044	452.44
399.268	455.44
399.492	462.44
399.717	480.44
399.941	484.44
400.165	530.44
400.389	520.44
400.613	487.44
400.837	445.44
401.062	459.44
401.286	426.44
401.51	435.44
401.734	444.44
401.958	446.44
402.182	443.44
402.406	447.44
402.63	462.44
402.854	453.44
403.078	427.44
403.302	461.44
403.526	451.44
403.75	467.44
403.974	443.44
404.198	492.44
404.422	469.44
404.645	473.44
404.869	508.44
405.093	557.44
405.317	603.44
405.541	632.44
405.765	565.44
405.988	517.44
406.212	524.44
406.436	531.44
406.66	512.44
406.883	532.44
407.107	533.44
407.331	550.44
407.555	626.44
407.778	609.44
408.002	550.44
408.226	517.44
408.449	504.44
408.673	531.44
408.896	525.44
409.12	577.44
409.344	548.44
409.567	486.44
409.791	480.44
410.014	462.44
410.238	445.44
410.461	455.44
410.685	458.44
410.908	483.44
411.132	530.44
411.355	561.44
411.578	521.44
411.802	495.44
412.025	481.44
412.249	498.44
412.472	537.44
412.695	636.44
412.919	647.44
413.142	566.44
413.365	519.44
413.589	495.44
413.812	468.44
414.035	487.44
414.258	457.44
414.482	461.44
414.705	438.44
414.928	441.44
415.151	447.44
415.374	424.44
415.597	437.44
415.821	452.44
416.044	440.44
416.267	451.44
416.49	441.44
416.713	439.44
416.936	468.44
417.159	448.44
417.382	437.44
417.605	473.44
417.828	464.44
418.051	487.44
418.274	458.44
418.497	457.44
418.72	439.44
418.943	424.44
419.166	466.44
419.389	489.44
419.611	474.44
419.834	486.44
420.057	498.44
420.28	539.44
420.503	541.44
420.726	531.44
420.948	520.44
421.171	563.44
421.394	573.44
421.617	528.44
421.839	480.44
422.062	474.44
422.285	464.44
422.507	539.44
422.73	620.44
422.953	588.44
423.175	500.44
423.398	502.44
423.621	477.44
423.843	504.44
424.066	507.44
424.288	498.44
424.511	532.44
424.733	580.44
424.956	637.44
425.178	614.44
425.401	623.44
425.623	643.44
425.846	520.44
426.068	543.44
426.291	498.44
426.513	505.44
426.735	545.44
426.958	583.44
427.18	635.44
427.402	756.44
427.625	833.44
427.847	777.44
428.069	714.44
428.292	646.44
428.514	567.44
428.736	547.44
428.958	511.44
429.181	476.44
429.403	485.44
429.625	489.44
429.847	534.44
430.069	584.44
430.292	573.44
430.514	508.44
430.736	472.44
430.958	468.44
431.18	463.44
431.402	442.44
431.624	451.44
431.846	445.44
432.068	443.44
432.29	423.44
432.512	427.44
432.734	453.44
432.956	453.44
433.178	460.44
433.4	455.44
433.622	443.44
433.844	424.44
434.066	427.44
434.287	436.44
434.509	420.44
434.731	443.44
434.953	448.44
435.175	469.44
435.397	490.44
435.618	500.44
435.84	555.44
436.062	656.44
436.284	733.44
436.505	596.44
436.727	523.44
436.949	497.44
437.17	472.44
437.392	471.44
437.614	507.44
437.835	528.44
438.057	577.44
438.278	719.44
438.5	728.44
438.721	765.44
438.943	742.44
439.165	608.44
439.386	539.44
439.608	526.44
439.829	519.44
440.05	563.44
440.272	587.44
440.493	572.44
440.715	515.44
440.936	499.44
441.158	473.44
441.379	469.44
441.6	496.44
441.822	499.44
442.043	566.44
442.264	627.44
442.486	656.44
442.707	551.44
442.928	541.44
443.149	525.44
443.371	560.44
443.592	590.44
443.813	682.44
444.034	724.44
444.255	589.44
444.476	532.44
444.698	518.44
444.919	499.44
445.14	584.44
445.361	569.44
445.582	535.44
445.803	618.44
446.024	711.44
446.245	736.44
446.466	663.44
446.687	569.44
446.908	524.44
447.129	490.44
447.35	476.44
447.571	483.44
447.792	460.44
448.013	477.44
448.234	505.44
448.455	576.44
448.675	647.44
448.896	741.44
449.117	659.44
449.338	608.44
449.559	724.44
449.779	796.44
450	652.44
450.221	538.44
450.442	477.44
450.662	463.44
450.883	467.44
451.104	491.44
451.324	470.44
451.545	470.44
451.766	437.44
451.986	435.44
452.207	426.44
452.428	441.44
452.648	412.44
452.869	415.44
453.089	424.44
453.31	443.44
453.53	437.44
453.751	422.44
453.971	433.44
454.192	436.44
454.412	428.44
454.633	447.44
454.853	419.44
455.073	410.44
455.294	443.44
455.514	513.44
455.734	520.44
455.955	436.44
456.175	432.44
456.395	404.44
456.616	385.44
456.836	401.44
457.056	383.44
457.276	371.44
457.497	385.44
457.717	403.44
457.937	415.44
458.157	416.44
458.377	418.44
458.598	412.44
458.818	475.44
459.038	562.44
459.258	589.44
459.478	488.44
459.698	457.44
459.918	440.44
460.138	441.44
460.358	431.44
460.578	420.44
460.798	423.44
461.018	418.44
461.238	421.44
461.458	440.44
461.678	421.44
461.898	451.44
462.118	441.44
462.338	420.44
462.558	429.44
462.777	432.44
462.997	465.44
463.217	447.44
463.437	463.44
463.657	451.44
463.876	450.44
464.096	448.44
464.316	435.44
464.536	464.44
464.755	446.44
464.975	443.44
465.195	492.44
465.414	589.44
465.634	516.44
465.854	467.44
466.073	466.44
466.293	436.44
466.512	421.44
466.732	441.44
466.951	425.44
467.171	433.44
467.391	428.44
467.61	456.44
467.829	459.44
468.049	491.44
468.268	560.44
468.488	491.44
468.707	457.44
468.927	456.44
469.146	441.44
469.365	423.44
469.585	418.44
469.804	453.44
470.023	460.44
470.243	464.44
470.462	455.44
470.681	469.44
470.901	456.44
471.12	447.44
471.339	452.44
471.558	488.44
471.777	449.44
471.997	464.44
472.216	541.44
472.435	773.44
472.654	730.44
472.873	564.44
473.092	529.44
473.311	511.44
473.53	493.44
473.749	509.44
473.968	533.44
474.187	627.44
474.406	647.44
474.625	536.44
474.844	490.44
475.063	482.44
475.282	450.44
475.501	471.44
475.72	484.44
475.939	471.44
476.158	447.44
476.377	451.44
476.596	462.44
476.814	481.44
477.033	469.44
477.252	477.44
477.471	486.44
477.69	483.44
477.908	466.44
478.127	478.44
478.346	478.44
478.564	478.44
478.783	492.44
479.002	501.44
479.22	529.44
479.439	523.44
479.658	541.44
479.876	549.44
480.095	551.44
480.313	579.44
480.532	596.44
480.751	596.44
480.969	650.44
481.188	1039.44
481.406	1319.44
481.624	902.44
481.843	723.44
482.061	661.44
482.28	640.44
482.498	599.44
482.717	578.44
482.935	568.44
483.153	579.44
483.372	556.44
483.59	563.44
483.808	565.44
484.027	557.44
484.245	553.44
484.463	553.44
484.681	559.44
484.9	554.44
485.118	547.44
485.336	543.44
485.554	559.44
485.772	551.44
485.99	561.44
486.209	577.44
486.427	570.44
486.645	607.44
486.863	612.44
487.081	607.44
487.299	599.44
487.517	592.44
487.735	599.44
487.953	595.44
488.171	580.44
488.389	583.44
488.607	599.44
488.825	614.44
489.043	579.44
489.261	595.44
489.479	599.44
489.696	617.44
489.914	612.44
490.132	634.44
490.35	627.44
490.568	654.44
490.786	648.44
491.003	665.44
491.221	682.44
491.439	695.44
491.657	717.44
491.874	737.44
492.092	732.44
492.31	740.44
492.527	747.44
492.745	771.44
492.963	758.44
493.18	768.44
493.398	740.44
493.615	745.44
493.833	741.44
494.05	728.44
494.268	730.44
494.485	735.44
494.703	721.44
494.92	724.44
495.138	745.44
495.355	733.44
495.573	713.44
495.79	717.44
496.008	736.44
496.225	735.44
496.442	725.44
496.66	719.44
496.877	713.44
497.094	733.44
497.312	699.44
497.529	728.44
497.746	725.44
497.963	732.44
498.181	746.44
498.398	736.44
498.615	736.44
498.832	730.44
499.049	727.44
499.267	745.44
499.484	760.44
499.701	777.44
499.918	776.44
500.135	803.44
500.352	823.44
500.569	824.44
500.786	839.44
501.003	858.44
501.22	825.44
501.437	839.44
501.654	786.44
501.871	789.44
502.088	781.44
502.305	767.44
502.522	771.44
502.739	726.44
502.956	713.44
503.172	701.44
503.389	696.44
503.606	723.44
503.823	728.44
504.04	700.44
504.256	691.44
504.473	679.44
504.69	644.44
504.907	673.44
505.123	641.44
505.34	660.44
505.557	643.44
505.773	643.44
505.99	666.44
506.207	647.44
506.423	662.44
506.64	636.44
506.856	618.44
507.073	654.44
507.289	647.44
507.506	653.44
507.722	659.44
507.939	679.44
508.155	639.44
508.372	626.44
508.588	635.44
508.805	624.44
509.021	639.44
509.238	646.44
509.454	651.44
509.67	639.44
509.887	646.44
510.103	632.44
510.319	636.44
510.536	750.44
510.752	1223.44
510.968	1035.44
511.184	679.44
511.401	641.44
511.617	661.44
511.833	661.44
512.049	668.44
512.265	651.44
512.481	628.44
512.698	636.44
512.914	659.44
513.13	619.44
513.346	619.44
513.562	610.44
513.778	615.44
513.994	609.44
514.21	615.44
514.426	671.44
514.642	696.44
514.858	726.44
515.074	754.44
515.29	890.44
515.506	1299.44
515.721	1095.44
515.937	741.44
516.153	687.44
516.369	639.44
516.585	605.44
516.801	588.44
517.016	604.44
517.232	582.44
517.448	620.44
517.664	578.44
517.879	582.44
518.095	575.44
518.311	581.44
518.527	585.44
518.742	597.44
518.958	583.44
519.173	602.44
519.389	584.44
519.605	585.44
519.82	579.44
520.036	623.44
520.251	630.44
520.467	652.44
520.682	676.44
520.898	677.44
521.113	696.44
521.329	745.44
521.544	808.44
521.76	1056.44
521.975	1699.44
522.19	1674.44
522.406	944.44
522.621	716.44
522.836	646.44
523.052	604.44
523.267	563.44
523.482	548.44
523.698	548.44
523.913	549.44
524.128	544.44
524.343	538.44
524.559	524.44
524.774	522.44
524.989	517.44
525.204	543.44
525.419	529.44
525.634	496.44
525.849	507.44
526.064	507.44
526.28	512.44
526.495	501.44
526.71	485.44
526.925	479.44
527.14	486.44
527.355	496.44
527.57	471.44
527.785	484.44
527.999	484.44
528.214	473.44
528.429	463.44
528.644	471.44
528.859	486.44
529.074	498.44
529.289	497.44
529.503	576.44
529.718	566.44
529.933	519.44
530.148	497.44
530.363	493.44
530.577	475.44
530.792	465.44
531.007	459.44
531.221	451.44
531.436	476.44
531.651	470.44
531.865	442.44
532.08	448.44
532.295	473.44
532.509	463.44
532.724	444.44
532.938	433.44
533.153	459.44
533.367	454.44
533.582	461.44
533.796	437.44
534.011	440.44
534.225	439.44
534.44	459.44
534.654	458.44
534.868	439.44
535.083	453.44
535.297	430.44
535.511	451.44
535.726	458.44
535.94	465.44
536.154	471.44
536.369	443.44
536.583	438.44
536.797	443.44
537.011	459.44
537.225	432.44
537.44	433.44
537.654	442.44
537.868	442.44
538.082	434.44
538.296	443.44
538.51	420.44
538.724	463.44
538.938	423.44
539.153	418.44
539.367	470.44
539.581	448.44
539.795	453.44
540.009	443.44
540.222	414.44
540.436	419.44
540.65	427.44
540.864	423.44
541.078	432.44
541.292	431.44
541.506	432.44
541.72	449.44
541.934	433.44
542.147	443.44
542.361	457.44
542.575	450.44
542.789	424.44
543.002	443.44
543.216	428.44
543.43	427.44
543.644	429.44
543.857	448.44
544.071	437.44
544.285	441.44
544.498	427.44
544.712	424.44
544.925	411.44
545.139	397.44
545.352	409.44
545.566	423.44
545.779	420.44
545.993	412.44
546.206	414.44
546.42	409.44
546.633	390.44
546.847	419.44
547.06	411.44
547.274	383.44
547.487	416.44
547.7	381.44
547.914	405.44
548.127	398.44
548.34	414.44
548.554	412.44
548.767	387.44
548.98	377.44
549.193	396.44
549.407	409.44
549.62	405.44
549.833	401.44
550.046	404.44
550.259	372.44
550.473	387.44
550.686	391.44
550.899	396.44
551.112	394.44
551.325	392.44
551.538	399.44
551.751	407.44
551.964	388.44
552.177	404.44
552.39	390.44
552.603	394.44
552.816	402.44
553.029	404.44
553.242	391.44
553.455	397.44
553.667	402.44
553.88	431.44
554.093	398.44
554.306	391.44
554.519	400.44
554.732	412.44
554.944	377.44
555.157	388.44
555.37	383.44
555.583	365.44
555.795	370.44
556.008	381.44
556.221	383.44
556.433	389.44
556.646	372.44
556.859	374.44
557.071	374.44
557.284	374.44
557.496	356.44
557.709	349.44
557.921	355.44
558.134	365.44
558.346	367.44
558.559	378.44
558.771	362.44
558.984	379.44
559.196	367.44
559.409	357.44
559.621	358.44
559.833	360.44
560.046	375.44
560.258	350.44
560.47	357.44
560.683	375.44
560.895	365.44
561.107	328.44
561.32	367.44
561.532	364.44
561.744	362.44
561.956	344.44
562.168	346.44
562.381	345.44
562.593	356.44
562.805	363.44
563.017	361.44
563.229	357.44
563.441	367.44
563.653	355.44
563.865	358.44
564.077	352.44
564.289	372.44
564.501	369.44
564.713	375.44
564.925	380.44
565.137	381.44
565.349	377.44
565.561	367.44
565.773	362.44
565.985	393.44
566.197	369.44
566.408	373.44
566.62	400.44
566.832	403.44
567.044	409.44
567.255	392.44
567.467	400.44
567.679	391.44
567.891	381.44
568.102	394.44
568.314	380.44
568.526	375.44
568.737	381.44
568.949	381.44
569.161	382.44
569.372	340.44
569.584	345.44
569.795	336.44
570.007	362.44
570.218	404.44
570.43	387.44
570.641	339.44
570.853	341.44
571.064	328.44
571.276	349.44
571.487	330.44
571.698	316.44
571.91	327.44
572.121	320.44
572.333	307.44
572.544	319.44
572.755	320.44
572.966	327.44
573.178	319.44
573.389	325.44
573.6	331.44
573.811	316.44
574.023	303.44
574.234	292.44
574.445	332.44
574.656	321.44
574.867	312.44
575.078	329.44
575.289	308.44
575.501	298.44
575.712	313.44
575.923	315.44
576.134	316.44
576.345	317.44
576.556	320.44
576.767	311.44
576.978	305.44
577.188	292.44
577.399	301.44
577.61	315.44
577.821	325.44
578.032	301.44
578.243	339.44
578.454	540.44
578.665	420.44
578.875	319.44
579.086	305.44
579.297	285.44
579.508	288.44
579.718	307.44
579.929	299.44
580.14	286.44
580.35	285.44
580.561	292.44
580.772	289.44
580.982	281.44
581.193	288.44
581.403	303.44
581.614	305.44
581.825	283.44
582.035	280.44
582.246	273.44
582.456	298.44
582.667	288.44
582.877	283.44
583.087	300.44
583.298	274.44
583.508	277.44
583.719	253.44
583.929	254.44
584.139	277.44
584.35	275.44
584.56	266.44
584.77	283.44
584.981	281.44
585.191	269.44
585.401	267.44
585.611	278.44
585.821	275.44
586.032	266.44
586.242	291.44
586.452	274.44
586.662	266.44
586.872	275.44
587.082	279.44
587.292	262.44
587.502	270.44
587.713	262.44
587.923	276.44
588.133	278.44
588.343	281.44
588.553	288.44
588.762	281.44
588.972	267.44
589.182	270.44
589.392	268.44
589.602	266.44
589.812	273.44
590.022	279.44
590.232	275.44
590.441	258.44
590.651	281.44
590.861	267.44
591.071	280.44
591.281	273.44
591.49	281.44
591.7	277.44
591.91	266.44
592.119	280.44
592.329	279.44
592.539	284.44
592.748	289.44
592.958	282.44
593.167	277.44
593.377	280.44
593.587	284.44
593.796	267.44
594.006	278.44
594.215	285.44
594.424	274.44
594.634	266.44
594.843	267.44
595.053	268.44
595.262	260.44
595.472	265.44
595.681	276.44
595.89	257.44
596.1	276.44
596.309	274.44
596.518	272.44
596.727	245.44
596.937	253.44
597.146	263.44
597.355	262.44
597.564	259.44
597.774	263.44
597.983	253.44
598.192	260.44
598.401	244.44
598.61	251.44
598.819	244.44
599.028	233.44
599.237	255.44
599.446	242.44
599.655	258.44
599.864	242.44
600.073	258.44
600.282	244.44
600.491	250.44
600.7	234.44
600.909	236.44
601.118	257.44
601.327	237.44
601.536	239.44
601.745	251.44
601.953	261.44
602.162	256.44
602.371	258.44
602.58	225.44
602.789	243.44
602.997	235.44
603.206	239.44
603.415	227.44
603.623	237.44
603.832	236.44
604.041	229.44
604.249	238.44
604.458	230.44
604.666	229.44
604.875	224.44
605.084	255.44
605.292	242.44
605.501	225.44
605.709	240.44
605.918	227.44
606.126	226.44
606.334	247.44
606.543	241.44
606.751	236.44
606.96	259.44
607.168	214.44
607.376	221.44
607.585	231.44
607.793	223.44
608.001	241.44
608.21	232.44
608.418	243.44
608.626	225.44
608.834	223.44
609.043	242.44
609.251	224.44
609.459	231.44
609.667	240.44
609.875	244.44
610.083	233.44
610.291	233.44
610.499	220.44
610.707	234.44
610.916	208.44
611.124	237.44
611.332	227.44
611.54	228.44
611.748	228.44
611.955	236.44
612.163	207.44
612.371	221.44
612.579	216.44
612.787	208.44
612.995	231.44
613.203	231.44
613.411	213.44
613.618	218.44
613.826	208.44
614.034	212.44
614.242	228.44
614.449	216.44
614.657	226.44
614.865	221.44
615.072	229.44
615.28	229.44
615.488	228.44
615.695	208.44
615.903	222.44
616.111	218.44
616.318	214.44
616.526	218.44
616.733	210.44
616.941	223.44
617.148	224.44
617.356	204.44
617.563	232.44
617.771	213.44
617.978	214.44
618.185	227.44
618.393	216.44
618.6	239.44
618.807	220.44
619.015	218.44
619.222	217.44
619.429	215.44
619.637	219.44
619.844	221.44
620.051	217.44
620.258	217.44
620.466	199.44
620.673	207.44
620.88	218.44
621.087	197.44
621.294	207.44
621.501	204.44
621.708	222.44
621.915	200.44
622.122	208.44
622.329	206.44
622.536	240.44
622.743	216.44
622.95	203.44
623.157	195.44
623.364	192.44
623.571	198.44
623.778	211.44
623.985	204.44
624.192	205.44
624.399	203.44
624.606	204.44
624.812	219.44
625.019	202.44
625.226	212.44
625.433	195.44
625.639	186.44
625.846	203.44
626.053	203.44
626.259	208.44
626.466	187.44
626.673	180.44
626.879	193.44
627.086	201.44
627.293	196.44
627.499	207.44
627.706	184.44
627.912	185.44
628.119	173.44
628.325	175.44
628.532	184.44
628.738	209.44
628.945	179.44
629.151	201.44
629.357	191.44
629.564	198.44
629.77	177.44
629.976	181.44
630.183	177.44
630.389	180.44
630.595	202.44
630.802	191.44
631.008	175.44
631.214	178.44
631.42	169.44
631.627	194.44
631.833	185.44
632.039	168.44
632.245	192.44
632.451	195.44
632.657	170.44
632.863	180.44
633.069	185.44
633.275	176.44
633.481	159.44
633.688	178.44
633.893	175.44
634.099	177.44
634.305	180.44
634.511	183.44
634.717	177.44
634.923	182.44
635.129	183.44
635.335	172.44
635.541	185.44
635.747	170.44
635.952	183.44
636.158	187.44
636.364	202.44
636.57	232.44
636.775	227.44
636.981	195.44
637.187	192.44
637.392	187.44
637.598	179.44
637.804	187.44
638.009	172.44
638.215	179.44
638.421	170.44
638.626	181.44
638.832	169.44
639.037	178.44
639.243	167.44
639.448	168.44
639.654	161.44
639.859	167.44
640.065	168.44
640.27	175.44
640.475	172.44
640.681	147.44
640.886	160.44
641.091	165.44
641.297	151.44
641.502	169.44
641.707	173.44
641.913	163.44
642.118	154.44
642.323	159.44
642.528	153.44
642.733	153.44
642.939	153.44
643.144	160.44
643.349	150.44
643.554	151.44
643.759	163.44
643.964	147.44
644.169	161.44
644.374	147.44
644.579	156.44
644.784	165.44
644.989	163.44
645.194	173.44
645.399	155.44
645.604	144.44
645.809	155.44
646.014	163.44
646.219	146.44
646.423	155.44
646.628	159.44
646.833	169.44
647.038	153.44
647.243	177.44
647.447	151.44
647.652	151.44
647.857	171.44
648.062	153.44
648.266	148.44
648.471	154.44
648.676	150.44
648.88	155.44
649.085	166.44
649.289	146.44
649.494	168.44
649.698	178.44
649.903	161.44
650.107	170.44
650.312	145.44
650.516	163.44
650.721	140.44
650.925	155.44
651.13	146.44
651.334	140.44
651.539	140.44
651.743	125.44
651.947	135.44
652.152	133.44
652.356	135.44
652.56	129.44
652.764	142.44
652.969	147.44
653.173	129.44
653.377	129.44
653.581	106.44
653.785	129.44
653.99	139.44
654.194	138.44
654.398	125.44
654.602	135.44
654.806	132.44
655.01	146.44
655.214	141.44
655.418	121.44
655.622	125.44
655.826	120.44
656.03	123.44
656.234	128.44
656.438	123.44
656.642	119.44
656.846	125.44
657.049	112.44
657.253	117.44
657.457	130.44
657.661	111.44
657.865	107.44
658.068	100.44
658.272	100.44
658.476	110.44
658.68	103.44
658.883	105.44
659.087	99.44
659.291	103.44
659.494	106.44
659.698	108.44
659.901	102.44
660.105	98.44
660.309	84.44
660.512	101.44
660.716	96.44
660.919	98.44
661.123	81.44
661.326	86.44
661.53	74.44
661.733	76.44
661.936	83.44
662.14	69.44
662.343	84.44
662.546	92.44
662.75	84.44
662.953	71.44
663.156	92.44
663.36	93.44
663.563	71.44
663.766	91.44
663.969	69.44
664.173	70.44
664.376	83.44
664.579	76.44
664.782	79.44
664.985	66.44
665.188	78.44
665.391	90.44
665.594	73.44
665.797	84.44
666	85.44
666.203	80.44
666.406	75.44
666.609	69.44
666.812	82.44
667.015	82.44
667.218	80.44
667.421	74.44
667.624	76.44
667.827	76.44
668.03	96.44
668.232	79.44
668.435	77.44
668.638	77.44
668.841	83.44
669.043	78.44
669.246	84.44
669.449	72.44
669.651	81.44
669.854	86.44
670.057	80.44
670.259	82.44
670.462	85.44
670.665	71.44
670.867	77.44
671.07	70.44
671.272	81.44
671.475	83.44
671.677	88.44
671.88	80.44
672.082	79.44
672.284	82.44
672.487	80.44
672.689	77.44
672.892	74.44
