Data from 1986.PennyLincolnUp.Lamp.En5.5.200Scan.071819.P2_HRD10591_17-09-46-974.txt Node
Date: Thu Jul 18 17:09:46 EDT 2019
User: cochatt
Spectrometer: HR+D1059
Trigger mode: 1
Integration Time (sec): 1.000000E-1
Scans to average: 1
Electric dark correction enabled: true
Nonlinearity correction enabled: false
Boxcar width: 0
XAxis mode: Wavelengths
Number of Pixels in Spectrum: 2048
>>>>>Begin Spectral Data<<<<<
223.165	-5.69
223.4	-5.69
223.635	-5.69
223.869	-19.69
224.104	-14.69
224.338	-17.69
224.573	-15.69
224.808	-7.69
225.042	-3.69
225.277	-7.69
225.511	-4.69
225.746	-0.69
225.98	2.31
226.215	2.31
226.449	11.31
226.683	23.31
226.918	35.31
227.152	23.31
227.387	27.31
227.621	35.31
227.856	50.31
228.09	52.31
228.324	57.31
228.559	41.31
228.793	74.31
229.027	99.31
229.262	111.31
229.496	102.31
229.73	128.31
229.964	134.31
230.199	118.31
230.433	119.31
230.667	102.31
230.901	112.31
231.136	107.31
231.37	105.31
231.604	94.31
231.838	104.31
232.072	96.31
232.306	112.31
232.541	105.31
232.775	94.31
233.009	110.31
233.243	122.31
233.477	99.31
233.711	105.31
233.945	116.31
234.179	96.31
234.413	114.31
234.647	102.31
234.881	107.31
235.115	111.31
235.349	110.31
235.583	108.31
235.817	109.31
236.051	110.31
236.285	111.31
236.519	103.31
236.753	121.31
236.987	138.31
237.221	164.31
237.455	226.31
237.689	159.31
237.922	137.31
238.156	118.31
238.39	126.31
238.624	107.31
238.858	122.31
239.091	118.31
239.325	113.31
239.559	130.31
239.793	117.31
240.027	130.31
240.26	135.31
240.494	157.31
240.728	130.31
240.961	120.31
241.195	108.31
241.429	134.31
241.662	122.31
241.896	126.31
242.13	119.31
242.363	120.31
242.597	115.31
242.83	114.31
243.064	120.31
243.298	118.31
243.531	129.31
243.765	120.31
243.998	126.31
244.232	140.31
244.465	136.31
244.699	143.31
244.932	135.31
245.166	146.31
245.399	127.31
245.633	120.31
245.866	148.31
246.099	127.31
246.333	146.31
246.566	136.31
246.8	155.31
247.033	144.31
247.266	144.31
247.5	157.31
247.733	152.31
247.966	156.31
248.2	163.31
248.433	151.31
248.666	158.31
248.899	166.31
249.133	187.31
249.366	202.31
249.599	178.31
249.832	172.31
250.066	167.31
250.299	180.31
250.532	155.31
250.765	186.31
250.998	186.31
251.231	220.31
251.465	204.31
251.698	185.31
251.931	184.31
252.164	191.31
252.397	185.31
252.63	181.31
252.863	195.31
253.096	201.31
253.329	222.31
253.562	205.31
253.795	197.31
254.028	214.31
254.261	210.31
254.494	202.31
254.727	229.31
254.96	234.31
255.193	250.31
255.426	239.31
255.659	210.31
255.892	222.31
256.124	207.31
256.357	194.31
256.59	203.31
256.823	182.31
257.056	200.31
257.289	179.31
257.521	191.31
257.754	199.31
257.987	196.31
258.22	202.31
258.452	185.31
258.685	190.31
258.918	169.31
259.151	199.31
259.383	200.31
259.616	202.31
259.849	211.31
260.081	214.31
260.314	220.31
260.547	239.31
260.779	224.31
261.012	227.31
261.244	184.31
261.477	202.31
261.71	197.31
261.942	205.31
262.175	212.31
262.407	208.31
262.64	210.31
262.872	191.31
263.105	183.31
263.337	201.31
263.57	188.31
263.802	170.31
264.035	193.31
264.267	185.31
264.499	190.31
264.732	193.31
264.964	182.31
265.197	196.31
265.429	198.31
265.661	188.31
265.894	198.31
266.126	190.31
266.358	188.31
266.591	190.31
266.823	197.31
267.055	195.31
267.287	195.31
267.52	199.31
267.752	200.31
267.984	208.31
268.216	208.31
268.448	206.31
268.681	222.31
268.913	223.31
269.145	219.31
269.377	247.31
269.609	219.31
269.841	244.31
270.073	240.31
270.306	249.31
270.538	304.31
270.77	276.31
271.002	262.31
271.234	258.31
271.466	260.31
271.698	270.31
271.93	276.31
272.162	276.31
272.394	290.31
272.626	272.31
272.858	250.31
273.09	260.31
273.322	247.31
273.553	222.31
273.785	234.31
274.017	241.31
274.249	247.31
274.481	222.31
274.713	250.31
274.945	226.31
275.176	229.31
275.408	230.31
275.64	224.31
275.872	234.31
276.104	242.31
276.335	223.31
276.567	231.31
276.799	253.31
277.031	282.31
277.262	283.31
277.494	274.31
277.726	262.31
277.957	252.31
278.189	232.31
278.421	241.31
278.652	246.31
278.884	231.31
279.115	242.31
279.347	253.31
279.579	231.31
279.81	235.31
280.042	228.31
280.273	209.31
280.505	224.31
280.736	233.31
280.968	227.31
281.199	232.31
281.431	218.31
281.662	219.31
281.894	228.31
282.125	242.31
282.356	238.31
282.588	256.31
282.819	258.31
283.051	233.31
283.282	218.31
283.513	224.31
283.745	226.31
283.976	233.31
284.207	250.31
284.439	246.31
284.67	233.31
284.901	232.31
285.132	243.31
285.364	244.31
285.595	243.31
285.826	240.31
286.057	254.31
286.288	230.31
286.52	247.31
286.751	233.31
286.982	233.31
287.213	219.31
287.444	246.31
287.675	231.31
287.906	249.31
288.138	239.31
288.369	235.31
288.6	268.31
288.831	243.31
289.062	242.31
289.293	243.31
289.524	258.31
289.755	238.31
289.986	231.31
290.217	247.31
290.448	256.31
290.679	215.31
290.91	233.31
291.141	230.31
291.371	230.31
291.602	232.31
291.833	231.31
292.064	237.31
292.295	235.31
292.526	247.31
292.757	244.31
292.987	236.31
293.218	261.31
293.449	238.31
293.68	237.31
293.91	239.31
294.141	242.31
294.372	235.31
294.603	226.31
294.833	250.31
295.064	243.31
295.295	264.31
295.525	252.31
295.756	232.31
295.987	283.31
296.217	271.31
296.448	263.31
296.679	250.31
296.909	256.31
297.14	248.31
297.37	252.31
297.601	247.31
297.831	246.31
298.062	273.31
298.292	246.31
298.523	269.31
298.753	235.31
298.984	243.31
299.214	256.31
299.445	257.31
299.675	258.31
299.905	278.31
300.136	246.31
300.366	259.31
300.597	266.31
300.827	276.31
301.057	259.31
301.288	287.31
301.518	250.31
301.748	272.31
301.979	262.31
302.209	244.31
302.439	245.31
302.669	261.31
302.9	269.31
303.13	266.31
303.36	256.31
303.59	273.31
303.82	263.31
304.051	282.31
304.281	259.31
304.511	282.31
304.741	264.31
304.971	280.31
305.201	267.31
305.431	255.31
305.661	261.31
305.891	269.31
306.121	274.31
306.352	290.31
306.582	282.31
306.812	286.31
307.042	271.31
307.272	276.31
307.502	258.31
307.731	309.31
307.961	273.31
308.191	262.31
308.421	276.31
308.651	270.31
308.881	286.31
309.111	295.31
309.341	303.31
309.571	296.31
309.8	300.31
310.03	300.31
310.26	315.31
310.49	327.31
310.72	307.31
310.949	329.31
311.179	349.31
311.409	326.31
311.639	318.31
311.868	331.31
312.098	331.31
312.328	327.31
312.557	333.31
312.787	338.31
313.017	355.31
313.246	339.31
313.476	332.31
313.706	321.31
313.935	319.31
314.165	331.31
314.394	356.31
314.624	329.31
314.853	325.31
315.083	305.31
315.312	320.31
315.542	319.31
315.771	315.31
316.001	318.31
316.23	301.31
316.46	294.31
316.689	311.31
316.919	313.31
317.148	323.31
317.377	336.31
317.607	332.31
317.836	313.31
318.065	298.31
318.295	293.31
318.524	322.31
318.753	310.31
318.983	290.31
319.212	329.31
319.441	344.31
319.67	307.31
319.9	325.31
320.129	308.31
320.358	306.31
320.587	329.31
320.816	343.31
321.046	334.31
321.275	343.31
321.504	323.31
321.733	328.31
321.962	350.31
322.191	370.31
322.42	354.31
322.649	394.31
322.878	379.31
323.108	396.31
323.337	407.31
323.566	420.31
323.795	459.31
324.024	502.31
324.253	608.31
324.482	858.31
324.71	1315.31
324.939	1860.31
325.168	1655.31
325.397	871.31
325.626	593.31
325.855	496.31
326.084	445.31
326.313	427.31
326.542	460.31
326.77	486.31
326.999	581.31
327.228	758.31
327.457	1154.31
327.686	1416.31
327.914	970.31
328.143	614.31
328.372	542.31
328.6	495.31
328.829	471.31
329.058	487.31
329.287	508.31
329.515	455.31
329.744	427.31
329.972	406.31
330.201	417.31
330.43	445.31
330.658	463.31
330.887	526.31
331.115	522.31
331.344	454.31
331.572	410.31
331.801	396.31
332.03	395.31
332.258	398.31
332.486	366.31
332.715	387.31
332.943	369.31
333.172	358.31
333.4	378.31
333.629	367.31
333.857	363.31
334.085	363.31
334.314	366.31
334.542	359.31
334.771	356.31
334.999	371.31
335.227	361.31
335.455	351.31
335.684	374.31
335.912	364.31
336.14	357.31
336.369	350.31
336.597	367.31
336.825	363.31
337.053	334.31
337.281	351.31
337.51	332.31
337.738	393.31
337.966	372.31
338.194	371.31
338.422	352.31
338.65	363.31
338.878	353.31
339.106	349.31
339.334	362.31
339.562	356.31
339.79	359.31
340.018	342.31
340.246	357.31
340.474	351.31
340.702	354.31
340.93	363.31
341.158	370.31
341.386	348.31
341.614	331.31
341.842	352.31
342.07	347.31
342.298	334.31
342.526	367.31
342.754	342.31
342.981	346.31
343.209	331.31
343.437	328.31
343.665	341.31
343.893	346.31
344.12	361.31
344.348	349.31
344.576	349.31
344.804	356.31
345.031	368.31
345.259	375.31
345.487	377.31
345.714	368.31
345.942	339.31
346.17	350.31
346.397	350.31
346.625	343.31
346.853	345.31
347.08	346.31
347.308	344.31
347.535	338.31
347.763	350.31
347.99	343.31
348.218	368.31
348.445	369.31
348.673	354.31
348.9	346.31
349.128	340.31
349.355	330.31
349.583	312.31
349.81	333.31
350.037	331.31
350.265	325.31
350.492	352.31
350.72	337.31
350.947	340.31
351.174	345.31
351.402	350.31
351.629	370.31
351.856	338.31
352.083	338.31
352.311	363.31
352.538	354.31
352.765	366.31
352.992	352.31
353.22	344.31
353.447	352.31
353.674	340.31
353.901	335.31
354.128	329.31
354.355	326.31
354.583	319.31
354.81	316.31
355.037	312.31
355.264	323.31
355.491	314.31
355.718	306.31
355.945	306.31
356.172	318.31
356.399	325.31
356.626	314.31
356.853	322.31
357.08	295.31
357.307	316.31
357.534	310.31
357.761	316.31
357.988	338.31
358.215	323.31
358.441	322.31
358.668	325.31
358.895	330.31
359.122	307.31
359.349	330.31
359.576	344.31
359.802	361.31
360.029	382.31
360.256	405.31
360.483	374.31
360.709	353.31
360.936	334.31
361.163	336.31
361.39	351.31
361.616	341.31
361.843	342.31
362.07	352.31
362.296	342.31
362.523	347.31
362.749	350.31
362.976	327.31
363.203	336.31
363.429	338.31
363.656	318.31
363.882	314.31
364.109	330.31
364.335	312.31
364.562	321.31
364.788	331.31
365.015	330.31
365.241	337.31
365.468	332.31
365.694	338.31
365.92	315.31
366.147	316.31
366.373	314.31
366.599	328.31
366.826	306.31
367.052	310.31
367.278	320.31
367.505	322.31
367.731	331.31
367.957	331.31
368.184	302.31
368.41	333.31
368.636	345.31
368.862	332.31
369.089	336.31
369.315	330.31
369.541	322.31
369.767	328.31
369.993	339.31
370.219	325.31
370.445	315.31
370.672	313.31
370.898	322.31
371.124	306.31
371.35	323.31
371.576	306.31
371.802	337.31
372.028	315.31
372.254	307.31
372.48	320.31
372.706	345.31
372.932	317.31
373.158	323.31
373.384	320.31
373.61	315.31
373.835	324.31
374.061	314.31
374.287	332.31
374.513	323.31
374.739	327.31
374.965	328.31
375.191	316.31
375.416	323.31
375.642	327.31
375.868	313.31
376.094	333.31
376.319	322.31
376.545	331.31
376.771	326.31
376.997	307.31
377.222	303.31
377.448	339.31
377.674	294.31
377.899	330.31
378.125	317.31
378.35	329.31
378.576	315.31
378.802	323.31
379.027	307.31
379.253	316.31
379.478	321.31
379.704	314.31
379.929	312.31
380.155	315.31
380.38	326.31
380.606	294.31
380.831	306.31
381.057	334.31
381.282	328.31
381.507	320.31
381.733	339.31
381.958	330.31
382.184	322.31
382.409	329.31
382.634	320.31
382.86	335.31
383.085	316.31
383.31	313.31
383.535	334.31
383.761	327.31
383.986	328.31
384.211	346.31
384.436	334.31
384.662	329.31
384.887	350.31
385.112	325.31
385.337	350.31
385.562	333.31
385.787	341.31
386.013	337.31
386.238	345.31
386.463	355.31
386.688	318.31
386.913	340.31
387.138	342.31
387.363	348.31
387.588	323.31
387.813	334.31
388.038	353.31
388.263	332.31
388.488	348.31
388.713	330.31
388.938	335.31
389.163	334.31
389.387	333.31
389.612	321.31
389.837	325.31
390.062	332.31
390.287	308.31
390.512	313.31
390.736	322.31
390.961	326.31
391.186	348.31
391.411	331.31
391.636	325.31
391.86	325.31
392.085	342.31
392.31	344.31
392.534	357.31
392.759	350.31
392.984	333.31
393.208	346.31
393.433	330.31
393.658	342.31
393.882	320.31
394.107	328.31
394.331	328.31
394.556	343.31
394.78	327.31
395.005	333.31
395.229	352.31
395.454	336.31
395.678	340.31
395.903	359.31
396.127	363.31
396.352	367.31
396.576	376.31
396.801	361.31
397.025	356.31
397.249	353.31
397.474	347.31
397.698	349.31
397.922	364.31
398.147	382.31
398.371	362.31
398.595	374.31
398.82	374.31
399.044	376.31
399.268	391.31
399.492	382.31
399.717	401.31
399.941	427.31
400.165	452.31
400.389	465.31
400.613	426.31
400.837	394.31
401.062	385.31
401.286	383.31
401.51	371.31
401.734	384.31
401.958	372.31
402.182	388.31
402.406	394.31
402.63	383.31
402.854	391.31
403.078	385.31
403.302	400.31
403.526	394.31
403.75	387.31
403.974	362.31
404.198	375.31
404.422	398.31
404.645	386.31
404.869	390.31
405.093	403.31
405.317	437.31
405.541	438.31
405.765	419.31
405.988	402.31
406.212	412.31
406.436	452.31
406.66	449.31
406.883	438.31
407.107	461.31
407.331	477.31
407.555	533.31
407.778	526.31
408.002	490.31
408.226	447.31
408.449	436.31
408.673	440.31
408.896	467.31
409.12	496.31
409.344	442.31
409.567	407.31
409.791	407.31
410.014	396.31
410.238	388.31
410.461	405.31
410.685	388.31
410.908	379.31
411.132	435.31
411.355	479.31
411.578	442.31
411.802	394.31
412.025	401.31
412.249	386.31
412.472	394.31
412.695	394.31
412.919	385.31
413.142	373.31
413.365	374.31
413.589	361.31
413.812	376.31
414.035	364.31
414.258	370.31
414.482	372.31
414.705	368.31
414.928	375.31
415.151	372.31
415.374	328.31
415.597	357.31
415.821	368.31
416.044	366.31
416.267	375.31
416.49	358.31
416.713	365.31
416.936	371.31
417.159	369.31
417.382	370.31
417.605	369.31
417.828	380.31
418.051	386.31
418.274	402.31
418.497	376.31
418.72	369.31
418.943	366.31
419.166	383.31
419.389	387.31
419.611	370.31
419.834	383.31
420.057	386.31
420.28	382.31
420.503	381.31
420.726	394.31
420.948	405.31
421.171	461.31
421.394	473.31
421.617	422.31
421.839	396.31
422.062	410.31
422.285	427.31
422.507	462.31
422.73	525.31
422.953	522.31
423.175	421.31
423.398	411.31
423.621	428.31
423.843	428.31
424.066	436.31
424.288	410.31
424.511	443.31
424.733	496.31
424.956	565.31
425.178	542.31
425.401	537.31
425.623	535.31
425.846	470.31
426.068	446.31
426.291	435.31
426.513	419.31
426.735	448.31
426.958	467.31
427.18	571.31
427.402	682.31
427.625	731.31
427.847	646.31
428.069	512.31
428.292	481.31
428.514	418.31
428.736	416.31
428.958	431.31
429.181	404.31
429.403	386.31
429.625	418.31
429.847	448.31
430.069	482.31
430.292	489.31
430.514	430.31
430.736	382.31
430.958	400.31
431.18	383.31
431.402	398.31
431.624	367.31
431.846	388.31
432.068	372.31
432.29	361.31
432.512	362.31
432.734	381.31
432.956	382.31
433.178	372.31
433.4	410.31
433.622	403.31
433.844	385.31
434.066	368.31
434.287	396.31
434.509	395.31
434.731	378.31
434.953	384.31
435.175	395.31
435.397	419.31
435.618	439.31
435.84	480.31
436.062	558.31
436.284	619.31
436.505	507.31
436.727	435.31
436.949	421.31
437.17	418.31
437.392	411.31
437.614	420.31
437.835	464.31
438.057	560.31
438.278	649.31
438.5	610.31
438.721	698.31
438.943	656.31
439.165	523.31
439.386	475.31
439.608	482.31
439.829	458.31
440.05	486.31
440.272	511.31
440.493	468.31
440.715	443.31
440.936	409.31
441.158	416.31
441.379	418.31
441.6	401.31
441.822	427.31
442.043	480.31
442.264	553.31
442.486	562.31
442.707	508.31
442.928	466.31
443.149	478.31
443.371	487.31
443.592	518.31
443.813	583.31
444.034	650.31
444.255	534.31
444.476	470.31
444.698	434.31
444.919	443.31
445.14	544.31
445.361	514.31
445.582	463.31
445.803	530.31
446.024	604.31
446.245	631.31
446.466	571.31
446.687	498.31
446.908	438.31
447.129	420.31
447.35	410.31
447.571	417.31
447.792	409.31
448.013	407.31
448.234	414.31
448.455	477.31
448.675	564.31
448.896	654.31
449.117	562.31
449.338	515.31
449.559	614.31
449.779	704.31
450	550.31
450.221	440.31
450.442	411.31
450.662	416.31
450.883	410.31
451.104	440.31
451.324	412.31
451.545	405.31
451.766	396.31
451.986	362.31
452.207	349.31
452.428	363.31
452.648	367.31
452.869	388.31
453.089	384.31
453.31	384.31
453.53	359.31
453.751	367.31
453.971	370.31
454.192	404.31
454.412	371.31
454.633	361.31
454.853	374.31
455.073	358.31
455.294	378.31
455.514	446.31
455.734	428.31
455.955	362.31
456.175	352.31
456.395	332.31
456.616	346.31
456.836	306.31
457.056	329.31
457.276	320.31
457.497	329.31
457.717	351.31
457.937	334.31
458.157	338.31
458.377	339.31
458.598	382.31
458.818	416.31
459.038	487.31
459.258	512.31
459.478	426.31
459.698	376.31
459.918	356.31
460.138	362.31
460.358	371.31
460.578	380.31
460.798	372.31
461.018	379.31
461.238	367.31
461.458	381.31
461.678	374.31
461.898	374.31
462.118	373.31
462.338	368.31
462.558	368.31
462.777	376.31
462.997	375.31
463.217	384.31
463.437	384.31
463.657	383.31
463.876	383.31
464.096	389.31
464.316	374.31
464.536	369.31
464.755	396.31
464.975	393.31
465.195	450.31
465.414	534.31
465.634	452.31
465.854	400.31
466.073	390.31
466.293	380.31
466.512	373.31
466.732	361.31
466.951	366.31
467.171	346.31
467.391	347.31
467.61	357.31
467.829	389.31
468.049	398.31
468.268	369.31
468.488	348.31
468.707	354.31
468.927	367.31
469.146	351.31
469.365	347.31
469.585	350.31
469.804	366.31
470.023	360.31
470.243	355.31
470.462	375.31
470.681	390.31
470.901	359.31
471.12	379.31
471.339	365.31
471.558	359.31
471.777	363.31
471.997	356.31
472.216	378.31
472.435	378.31
472.654	352.31
472.873	370.31
473.092	348.31
473.311	364.31
473.53	376.31
473.749	386.31
473.968	422.31
474.187	492.31
474.406	530.31
474.625	424.31
474.844	396.31
475.063	376.31
475.282	395.31
475.501	386.31
475.72	382.31
475.939	379.31
476.158	398.31
476.377	376.31
476.596	391.31
476.814	397.31
477.033	386.31
477.252	403.31
477.471	394.31
477.69	402.31
477.908	401.31
478.127	386.31
478.346	393.31
478.564	406.31
478.783	402.31
479.002	430.31
479.22	426.31
479.439	436.31
479.658	446.31
479.876	456.31
480.095	432.31
480.313	476.31
480.532	452.31
480.751	422.31
480.969	442.31
481.188	446.31
481.406	454.31
481.624	450.31
481.843	422.31
482.061	420.31
482.28	431.31
482.498	436.31
482.717	425.31
482.935	425.31
483.153	419.31
483.372	417.31
483.59	437.31
483.808	419.31
484.027	415.31
484.245	445.31
484.463	436.31
484.681	431.31
484.9	455.31
485.118	427.31
485.336	440.31
485.554	455.31
485.772	455.31
485.99	447.31
486.209	447.31
486.427	453.31
486.645	444.31
486.863	462.31
487.081	482.31
487.299	446.31
487.517	473.31
487.735	446.31
487.953	482.31
488.171	461.31
488.389	462.31
488.607	485.31
488.825	450.31
489.043	485.31
489.261	471.31
489.479	464.31
489.696	499.31
489.914	499.31
490.132	503.31
490.35	506.31
490.568	503.31
490.786	491.31
491.003	489.31
491.221	498.31
491.439	524.31
491.657	526.31
491.874	534.31
492.092	536.31
492.31	516.31
492.527	511.31
492.745	538.31
492.963	544.31
493.18	547.31
493.398	551.31
493.615	565.31
493.833	568.31
494.05	569.31
494.268	534.31
494.485	538.31
494.703	566.31
494.92	555.31
495.138	564.31
495.355	536.31
495.573	556.31
495.79	548.31
496.008	570.31
496.225	560.31
496.442	570.31
496.66	568.31
496.877	580.31
497.094	596.31
497.312	585.31
497.529	585.31
497.746	576.31
497.963	600.31
498.181	600.31
498.398	608.31
498.615	594.31
498.832	609.31
499.049	618.31
499.267	614.31
499.484	622.31
499.701	646.31
499.918	661.31
500.135	669.31
500.352	701.31
500.569	683.31
500.786	700.31
501.003	692.31
501.22	679.31
501.437	666.31
501.654	656.31
501.871	683.31
502.088	688.31
502.305	647.31
502.522	643.31
502.739	608.31
502.956	607.31
503.172	610.31
503.389	582.31
503.606	588.31
503.823	579.31
504.04	577.31
504.256	567.31
504.473	569.31
504.69	544.31
504.907	570.31
505.123	560.31
505.34	575.31
505.557	545.31
505.773	541.31
505.99	549.31
506.207	573.31
506.423	549.31
506.64	559.31
506.856	524.31
507.073	547.31
507.289	520.31
507.506	541.31
507.722	558.31
507.939	570.31
508.155	570.31
508.372	544.31
508.588	547.31
508.805	525.31
509.021	518.31
509.238	536.31
509.454	534.31
509.67	552.31
509.887	520.31
510.103	512.31
510.319	550.31
510.536	644.31
510.752	1093.31
510.968	868.31
511.184	554.31
511.401	523.31
511.617	488.31
511.833	506.31
512.049	479.31
512.265	485.31
512.481	471.31
512.698	482.31
512.914	499.31
513.13	498.31
513.346	479.31
513.562	489.31
513.778	520.31
513.994	510.31
514.21	513.31
514.426	511.31
514.642	555.31
514.858	602.31
515.074	624.31
515.29	802.31
515.506	1192.31
515.721	952.31
515.937	635.31
516.153	547.31
516.369	549.31
516.585	521.31
516.801	533.31
517.016	510.31
517.232	505.31
517.448	514.31
517.664	489.31
517.879	520.31
518.095	504.31
518.311	469.31
518.527	502.31
518.742	508.31
518.958	510.31
519.173	500.31
519.389	499.31
519.605	494.31
519.82	494.31
520.036	511.31
520.251	553.31
520.467	594.31
520.682	563.31
520.898	555.31
521.113	584.31
521.329	652.31
521.544	720.31
521.76	906.31
521.975	1586.31
522.19	1590.31
522.406	837.31
522.621	616.31
522.836	538.31
523.052	518.31
523.267	499.31
523.482	459.31
523.698	462.31
523.913	475.31
524.128	478.31
524.343	449.31
524.559	444.31
524.774	466.31
524.989	446.31
525.204	460.31
525.419	446.31
525.634	438.31
525.849	428.31
526.064	446.31
526.28	404.31
526.495	417.31
526.71	413.31
526.925	396.31
527.14	417.31
527.355	402.31
527.57	399.31
527.785	408.31
527.999	399.31
528.214	402.31
528.429	393.31
528.644	399.31
528.859	415.31
529.074	424.31
529.289	426.31
529.503	512.31
529.718	497.31
529.933	431.31
530.148	419.31
530.363	422.31
530.577	392.31
530.792	383.31
531.007	397.31
531.221	416.31
531.436	404.31
531.651	405.31
531.865	373.31
532.08	392.31
532.295	386.31
532.509	387.31
532.724	386.31
532.938	394.31
533.153	409.31
533.367	397.31
533.582	392.31
533.796	400.31
534.011	391.31
534.225	378.31
534.44	374.31
534.654	377.31
534.868	393.31
535.083	393.31
535.297	393.31
535.511	382.31
535.726	384.31
535.94	391.31
536.154	394.31
536.369	386.31
536.583	374.31
536.797	364.31
537.011	366.31
537.225	380.31
537.44	371.31
537.654	362.31
537.868	346.31
538.082	369.31
538.296	386.31
538.51	377.31
538.724	390.31
538.938	390.31
539.153	384.31
539.367	401.31
539.581	370.31
539.795	369.31
540.009	370.31
540.222	376.31
540.436	380.31
540.65	368.31
540.864	370.31
541.078	361.31
541.292	376.31
541.506	382.31
541.72	372.31
541.934	372.31
542.147	371.31
542.361	378.31
542.575	366.31
542.789	363.31
543.002	374.31
543.216	382.31
543.43	384.31
543.644	381.31
543.857	366.31
544.071	364.31
544.285	394.31
544.498	361.31
544.712	350.31
544.925	383.31
545.139	391.31
545.352	369.31
545.566	348.31
545.779	353.31
545.993	369.31
546.206	393.31
546.42	357.31
546.633	354.31
546.847	368.31
547.06	362.31
547.274	340.31
547.487	356.31
547.7	357.31
547.914	350.31
548.127	365.31
548.34	347.31
548.554	372.31
548.767	351.31
548.98	355.31
549.193	348.31
549.407	374.31
549.62	342.31
549.833	330.31
550.046	331.31
550.259	348.31
550.473	337.31
550.686	334.31
550.899	335.31
551.112	343.31
551.325	331.31
551.538	326.31
551.751	338.31
551.964	340.31
552.177	330.31
552.39	352.31
552.603	338.31
552.816	341.31
553.029	344.31
553.242	339.31
553.455	366.31
553.667	351.31
553.88	371.31
554.093	348.31
554.306	359.31
554.519	346.31
554.732	340.31
554.944	331.31
555.157	314.31
555.37	364.31
555.583	331.31
555.795	342.31
556.008	338.31
556.221	325.31
556.433	325.31
556.646	328.31
556.859	330.31
557.071	326.31
557.284	309.31
557.496	305.31
557.709	307.31
557.921	314.31
558.134	321.31
558.346	306.31
558.559	331.31
558.771	306.31
558.984	303.31
559.196	320.31
559.409	306.31
559.621	319.31
559.833	310.31
560.046	298.31
560.258	302.31
560.47	314.31
560.683	298.31
560.895	297.31
561.107	314.31
561.32	309.31
561.532	331.31
561.744	313.31
561.956	314.31
562.168	304.31
562.381	303.31
562.593	316.31
562.805	316.31
563.017	317.31
563.229	323.31
563.441	311.31
563.653	306.31
563.865	329.31
564.077	332.31
564.289	321.31
564.501	306.31
564.713	330.31
564.925	312.31
565.137	340.31
565.349	318.31
565.561	319.31
565.773	324.31
565.985	336.31
566.197	322.31
566.408	349.31
566.62	337.31
566.832	353.31
567.044	371.31
567.255	346.31
567.467	364.31
567.679	372.31
567.891	362.31
568.102	356.31
568.314	355.31
568.526	350.31
568.737	344.31
568.949	348.31
569.161	325.31
569.372	333.31
569.584	329.31
569.795	300.31
570.007	307.31
570.218	369.31
570.43	343.31
570.641	310.31
570.853	306.31
571.064	320.31
571.276	302.31
571.487	282.31
571.698	284.31
571.91	271.31
572.121	283.31
572.333	300.31
572.544	281.31
572.755	286.31
572.966	281.31
573.178	287.31
573.389	268.31
573.6	287.31
573.811	269.31
574.023	266.31
574.234	272.31
574.445	272.31
574.656	282.31
574.867	278.31
575.078	290.31
575.289	271.31
575.501	264.31
575.712	266.31
575.923	250.31
576.134	268.31
576.345	254.31
576.556	262.31
576.767	273.31
576.978	266.31
577.188	274.31
577.399	266.31
577.61	274.31
577.821	282.31
578.032	271.31
578.243	294.31
578.454	513.31
578.665	371.31
578.875	285.31
579.086	246.31
579.297	260.31
579.508	272.31
579.718	259.31
579.929	265.31
580.14	276.31
580.35	254.31
580.561	235.31
580.772	245.31
580.982	259.31
581.193	239.31
581.403	268.31
581.614	265.31
581.825	258.31
582.035	254.31
582.246	248.31
582.456	242.31
582.667	254.31
582.877	254.31
583.087	245.31
583.298	249.31
583.508	271.31
583.719	243.31
583.929	244.31
584.139	246.31
584.35	239.31
584.56	242.31
584.77	248.31
584.981	253.31
585.191	234.31
585.401	250.31
585.611	226.31
585.821	257.31
586.032	252.31
586.242	242.31
586.452	238.31
586.662	216.31
586.872	229.31
587.082	232.31
587.292	255.31
587.502	227.31
587.713	243.31
587.923	252.31
588.133	254.31
588.343	235.31
588.553	238.31
588.762	238.31
588.972	261.31
589.182	325.31
589.392	319.31
589.602	267.31
589.812	312.31
590.022	293.31
590.232	243.31
590.441	232.31
590.651	230.31
590.861	223.31
591.071	256.31
591.281	226.31
591.49	231.31
591.7	231.31
591.91	236.31
592.119	256.31
592.329	255.31
592.539	255.31
592.748	256.31
592.958	248.31
593.167	221.31
593.377	249.31
593.587	260.31
593.796	242.31
594.006	230.31
594.215	245.31
594.424	245.31
594.634	242.31
594.843	242.31
595.053	230.31
595.262	219.31
595.472	241.31
595.681	254.31
595.89	240.31
596.1	238.31
596.309	228.31
596.518	240.31
596.727	240.31
596.937	228.31
597.146	226.31
597.355	228.31
597.564	224.31
597.774	208.31
597.983	220.31
598.192	229.31
598.401	233.31
598.61	211.31
598.819	214.31
599.028	210.31
599.237	212.31
599.446	234.31
599.655	223.31
599.864	214.31
600.073	199.31
600.282	213.31
600.491	203.31
600.7	215.31
600.909	194.31
601.118	206.31
601.327	208.31
601.536	195.31
601.745	216.31
601.953	210.31
602.162	214.31
602.371	220.31
602.58	198.31
602.789	218.31
602.997	217.31
603.206	212.31
603.415	210.31
603.623	198.31
603.832	210.31
604.041	219.31
604.249	197.31
604.458	210.31
604.666	200.31
604.875	193.31
605.084	202.31
605.292	198.31
605.501	197.31
605.709	199.31
605.918	208.31
606.126	217.31
606.334	203.31
606.543	207.31
606.751	215.31
606.96	209.31
607.168	189.31
607.376	204.31
607.585	207.31
607.793	220.31
608.001	191.31
608.21	199.31
608.418	201.31
608.626	211.31
608.834	191.31
609.043	190.31
609.251	204.31
609.459	207.31
609.667	205.31
609.875	210.31
610.083	186.31
610.291	207.31
610.499	203.31
610.707	205.31
610.916	211.31
611.124	212.31
611.332	211.31
611.54	217.31
611.748	210.31
611.955	206.31
612.163	195.31
612.371	211.31
612.579	196.31
612.787	209.31
612.995	196.31
613.203	196.31
613.411	180.31
613.618	195.31
613.826	211.31
614.034	206.31
614.242	191.31
614.449	198.31
614.657	201.31
614.865	196.31
615.072	210.31
615.28	213.31
615.488	182.31
615.695	192.31
615.903	180.31
616.111	195.31
616.318	190.31
616.526	208.31
616.733	200.31
616.941	200.31
617.148	188.31
617.356	194.31
617.563	199.31
617.771	205.31
617.978	198.31
618.185	215.31
618.393	178.31
618.6	198.31
618.807	193.31
619.015	193.31
619.222	177.31
619.429	192.31
619.637	194.31
619.844	191.31
620.051	180.31
620.258	165.31
620.466	196.31
620.673	184.31
620.88	185.31
621.087	187.31
621.294	182.31
621.501	173.31
621.708	205.31
621.915	187.31
622.122	190.31
622.329	178.31
622.536	189.31
622.743	190.31
622.95	179.31
623.157	169.31
623.364	195.31
623.571	183.31
623.778	193.31
623.985	188.31
624.192	184.31
624.399	176.31
624.606	187.31
624.812	181.31
625.019	180.31
625.226	182.31
625.433	173.31
625.639	170.31
625.846	180.31
626.053	177.31
626.259	182.31
626.466	168.31
626.673	187.31
626.879	163.31
627.086	178.31
627.293	161.31
627.499	174.31
627.706	190.31
627.912	170.31
628.119	182.31
628.325	187.31
628.532	174.31
628.738	164.31
628.945	178.31
629.151	174.31
629.357	185.31
629.564	170.31
629.77	162.31
629.976	173.31
630.183	151.31
630.389	171.31
630.595	168.31
630.802	172.31
631.008	179.31
631.214	176.31
631.42	165.31
631.627	159.31
631.833	162.31
632.039	164.31
632.245	165.31
632.451	176.31
632.657	174.31
632.863	178.31
633.069	170.31
633.275	153.31
633.481	153.31
633.688	171.31
633.893	182.31
634.099	149.31
634.305	163.31
634.511	152.31
634.717	160.31
634.923	153.31
635.129	158.31
635.335	170.31
635.541	155.31
635.747	154.31
635.952	145.31
636.158	169.31
636.364	169.31
636.57	154.31
636.775	147.31
636.981	147.31
637.187	150.31
637.392	165.31
637.598	152.31
637.804	159.31
638.009	152.31
638.215	153.31
638.421	163.31
638.626	162.31
638.832	150.31
639.037	139.31
639.243	135.31
639.448	155.31
639.654	153.31
639.859	143.31
640.065	156.31
640.27	145.31
640.475	152.31
640.681	138.31
640.886	156.31
641.091	146.31
641.297	151.31
641.502	144.31
641.707	146.31
641.913	138.31
642.118	136.31
642.323	138.31
642.528	140.31
642.733	127.31
642.939	154.31
643.144	153.31
643.349	142.31
643.554	139.31
643.759	158.31
643.964	140.31
644.169	146.31
644.374	154.31
644.579	158.31
644.784	151.31
644.989	130.31
645.194	132.31
645.399	158.31
645.604	149.31
645.809	132.31
646.014	157.31
646.219	118.31
646.423	152.31
646.628	146.31
646.833	144.31
647.038	137.31
647.243	140.31
647.447	121.31
647.652	153.31
647.857	135.31
648.062	144.31
648.266	139.31
648.471	138.31
648.676	140.31
648.88	145.31
649.085	150.31
649.289	148.31
649.494	167.31
649.698	158.31
649.903	152.31
650.107	134.31
650.312	142.31
650.516	140.31
650.721	140.31
650.925	144.31
651.13	136.31
651.334	155.31
651.539	138.31
651.743	130.31
651.947	127.31
652.152	119.31
652.356	123.31
652.56	137.31
652.764	137.31
652.969	126.31
653.173	136.31
653.377	134.31
653.581	122.31
653.785	123.31
653.99	134.31
654.194	126.31
654.398	126.31
654.602	117.31
654.806	136.31
655.01	130.31
655.214	128.31
655.418	139.31
655.622	124.31
655.826	104.31
656.03	120.31
656.234	119.31
656.438	118.31
656.642	108.31
656.846	124.31
657.049	143.31
657.253	123.31
657.457	121.31
657.661	112.31
657.865	108.31
658.068	113.31
658.272	97.31
658.476	96.31
658.68	103.31
658.883	98.31
659.087	100.31
659.291	98.31
659.494	96.31
659.698	104.31
659.901	98.31
660.105	111.31
660.309	83.31
660.512	91.31
660.716	99.31
660.919	80.31
661.123	92.31
661.326	88.31
661.53	84.31
661.733	83.31
661.936	107.31
662.14	93.31
662.343	90.31
662.546	82.31
662.75	74.31
662.953	99.31
663.156	88.31
663.36	84.31
663.563	77.31
663.766	85.31
663.969	81.31
664.173	97.31
664.376	82.31
664.579	96.31
664.782	80.31
664.985	84.31
665.188	76.31
665.391	74.31
665.594	97.31
665.797	88.31
666	92.31
666.203	75.31
666.406	75.31
666.609	58.31
666.812	68.31
667.015	81.31
667.218	76.31
667.421	86.31
667.624	90.31
667.827	95.31
668.03	94.31
668.232	82.31
668.435	72.31
668.638	96.31
668.841	88.31
669.043	73.31
669.246	87.31
669.449	80.31
669.651	78.31
669.854	80.31
670.057	90.31
670.259	78.31
670.462	82.31
670.665	80.31
670.867	76.31
671.07	73.31
671.272	91.31
671.475	90.31
671.677	92.31
671.88	84.31
672.082	64.31
672.284	82.31
672.487	83.31
672.689	83.31
672.892	90.31
