Data from 1986.PennyLincolnUp.Lamp.En5.5.200Scan.071819.P2_HRD10591_17-12-54-972.txt Node
Date: Thu Jul 18 17:12:54 EDT 2019
User: cochatt
Spectrometer: HR+D1059
Trigger mode: 1
Integration Time (sec): 1.000000E-1
Scans to average: 1
Electric dark correction enabled: true
Nonlinearity correction enabled: false
Boxcar width: 0
XAxis mode: Wavelengths
Number of Pixels in Spectrum: 2048
>>>>>Begin Spectral Data<<<<<
223.165	-11.5
223.4	-11.5
223.635	-11.5
223.869	-27.5
224.104	-22.5
224.338	-15.5
224.573	-10.5
224.808	-16.5
225.042	6.5
225.277	-23.5
225.511	-11.5
225.746	5.5
225.98	10.5
226.215	21.5
226.449	10.5
226.683	24.5
226.918	27.5
227.152	32.5
227.387	33.5
227.621	19.5
227.856	33.5
228.09	35.5
228.324	40.5
228.559	51.5
228.793	44.5
229.027	84.5
229.262	109.5
229.496	117.5
229.73	132.5
229.964	159.5
230.199	128.5
230.433	120.5
230.667	104.5
230.901	109.5
231.136	112.5
231.37	105.5
231.604	109.5
231.838	111.5
232.072	113.5
232.306	121.5
232.541	103.5
232.775	117.5
233.009	121.5
233.243	103.5
233.477	118.5
233.711	118.5
233.945	107.5
234.179	122.5
234.413	113.5
234.647	110.5
234.881	116.5
235.115	120.5
235.349	123.5
235.583	116.5
235.817	103.5
236.051	121.5
236.285	107.5
236.519	127.5
236.753	137.5
236.987	148.5
237.221	179.5
237.455	227.5
237.689	196.5
237.922	149.5
238.156	141.5
238.39	125.5
238.624	119.5
238.858	124.5
239.091	133.5
239.325	128.5
239.559	124.5
239.793	119.5
240.027	124.5
240.26	136.5
240.494	141.5
240.728	155.5
240.961	155.5
241.195	150.5
241.429	136.5
241.662	143.5
241.896	134.5
242.13	135.5
242.363	147.5
242.597	132.5
242.83	134.5
243.064	149.5
243.298	137.5
243.531	143.5
243.765	148.5
243.998	153.5
244.232	155.5
244.465	155.5
244.699	148.5
244.932	142.5
245.166	145.5
245.399	160.5
245.633	148.5
245.866	152.5
246.099	137.5
246.333	172.5
246.566	159.5
246.8	159.5
247.033	164.5
247.266	163.5
247.5	160.5
247.733	176.5
247.966	191.5
248.2	176.5
248.433	189.5
248.666	201.5
248.899	205.5
249.133	209.5
249.366	206.5
249.599	205.5
249.832	203.5
250.066	208.5
250.299	227.5
250.532	242.5
250.765	272.5
250.998	316.5
251.231	281.5
251.465	257.5
251.698	248.5
251.931	230.5
252.164	221.5
252.397	222.5
252.63	220.5
252.863	239.5
253.096	225.5
253.329	244.5
253.562	253.5
253.795	261.5
254.028	251.5
254.261	227.5
254.494	239.5
254.727	267.5
254.96	284.5
255.193	320.5
255.426	309.5
255.659	292.5
255.892	328.5
256.124	361.5
256.357	397.5
256.59	366.5
256.823	334.5
257.056	285.5
257.289	260.5
257.521	248.5
257.754	268.5
257.987	240.5
258.22	251.5
258.452	243.5
258.685	244.5
258.918	249.5
259.151	239.5
259.383	243.5
259.616	257.5
259.849	259.5
260.081	224.5
260.314	265.5
260.547	278.5
260.779	267.5
261.012	257.5
261.244	236.5
261.477	241.5
261.71	236.5
261.942	237.5
262.175	229.5
262.407	242.5
262.64	224.5
262.872	227.5
263.105	225.5
263.337	224.5
263.57	240.5
263.802	226.5
264.035	223.5
264.267	230.5
264.499	210.5
264.732	196.5
264.964	221.5
265.197	220.5
265.429	215.5
265.661	237.5
265.894	237.5
266.126	220.5
266.358	231.5
266.591	211.5
266.823	245.5
267.055	208.5
267.287	244.5
267.52	228.5
267.752	237.5
267.984	229.5
268.216	246.5
268.448	250.5
268.681	254.5
268.913	271.5
269.145	258.5
269.377	285.5
269.609	291.5
269.841	285.5
270.073	310.5
270.306	286.5
270.538	323.5
270.77	329.5
271.002	324.5
271.234	315.5
271.466	324.5
271.698	316.5
271.93	334.5
272.162	321.5
272.394	310.5
272.626	329.5
272.858	313.5
273.09	303.5
273.322	292.5
273.553	275.5
273.785	311.5
274.017	273.5
274.249	293.5
274.481	292.5
274.713	283.5
274.945	296.5
275.176	291.5
275.408	300.5
275.64	273.5
275.872	297.5
276.104	296.5
276.335	269.5
276.567	300.5
276.799	293.5
277.031	335.5
277.262	332.5
277.494	340.5
277.726	315.5
277.957	320.5
278.189	297.5
278.421	294.5
278.652	271.5
278.884	286.5
279.115	288.5
279.347	288.5
279.579	265.5
279.81	279.5
280.042	286.5
280.273	303.5
280.505	311.5
280.736	309.5
280.968	288.5
281.199	288.5
281.431	285.5
281.662	278.5
281.894	293.5
282.125	296.5
282.356	302.5
282.588	329.5
282.819	319.5
283.051	300.5
283.282	288.5
283.513	274.5
283.745	285.5
283.976	282.5
284.207	293.5
284.439	289.5
284.67	304.5
284.901	283.5
285.132	280.5
285.364	284.5
285.595	308.5
285.826	295.5
286.057	282.5
286.288	284.5
286.52	291.5
286.751	298.5
286.982	289.5
287.213	306.5
287.444	282.5
287.675	307.5
287.906	301.5
288.138	302.5
288.369	310.5
288.6	319.5
288.831	303.5
289.062	300.5
289.293	314.5
289.524	300.5
289.755	291.5
289.986	305.5
290.217	302.5
290.448	292.5
290.679	283.5
290.91	294.5
291.141	297.5
291.371	291.5
291.602	283.5
291.833	309.5
292.064	305.5
292.295	275.5
292.526	283.5
292.757	276.5
292.987	274.5
293.218	289.5
293.449	289.5
293.68	288.5
293.91	287.5
294.141	306.5
294.372	290.5
294.603	294.5
294.833	315.5
295.064	296.5
295.295	299.5
295.525	296.5
295.756	305.5
295.987	303.5
296.217	323.5
296.448	333.5
296.679	309.5
296.909	301.5
297.14	307.5
297.37	290.5
297.601	282.5
297.831	286.5
298.062	307.5
298.292	287.5
298.523	295.5
298.753	313.5
298.984	295.5
299.214	290.5
299.445	313.5
299.675	304.5
299.905	297.5
300.136	322.5
300.366	305.5
300.597	312.5
300.827	312.5
301.057	324.5
301.288	323.5
301.518	328.5
301.748	320.5
301.979	317.5
302.209	308.5
302.439	324.5
302.669	324.5
302.9	320.5
303.13	326.5
303.36	333.5
303.59	329.5
303.82	328.5
304.051	344.5
304.281	331.5
304.511	325.5
304.741	328.5
304.971	338.5
305.201	322.5
305.431	327.5
305.661	338.5
305.891	312.5
306.121	318.5
306.352	315.5
306.582	323.5
306.812	333.5
307.042	327.5
307.272	341.5
307.502	336.5
307.731	348.5
307.961	344.5
308.191	344.5
308.421	353.5
308.651	340.5
308.881	321.5
309.111	337.5
309.341	352.5
309.571	349.5
309.8	373.5
310.03	375.5
310.26	369.5
310.49	387.5
310.72	397.5
310.949	398.5
311.179	399.5
311.409	374.5
311.639	372.5
311.868	376.5
312.098	400.5
312.328	386.5
312.557	435.5
312.787	420.5
313.017	426.5
313.246	415.5
313.476	374.5
313.706	387.5
313.935	392.5
314.165	395.5
314.394	375.5
314.624	388.5
314.853	391.5
315.083	375.5
315.312	360.5
315.542	401.5
315.771	375.5
316.001	358.5
316.23	371.5
316.46	391.5
316.689	388.5
316.919	400.5
317.148	397.5
317.377	372.5
317.607	383.5
317.836	394.5
318.065	374.5
318.295	379.5
318.524	394.5
318.753	399.5
318.983	401.5
319.212	393.5
319.441	399.5
319.67	403.5
319.9	403.5
320.129	383.5
320.358	428.5
320.587	400.5
320.816	399.5
321.046	420.5
321.275	416.5
321.504	412.5
321.733	428.5
321.962	432.5
322.191	450.5
322.42	456.5
322.649	462.5
322.878	467.5
323.108	478.5
323.337	521.5
323.566	542.5
323.795	579.5
324.024	646.5
324.253	771.5
324.482	1051.5
324.71	1696.5
324.939	2447.5
325.168	2101.5
325.397	1095.5
325.626	773.5
325.855	629.5
326.084	585.5
326.313	579.5
326.542	585.5
326.77	632.5
326.999	718.5
327.228	990.5
327.457	1524.5
327.686	1863.5
327.914	1319.5
328.143	911.5
328.372	866.5
328.6	796.5
328.829	724.5
329.058	715.5
329.287	689.5
329.515	680.5
329.744	666.5
329.972	740.5
330.201	913.5
330.43	1025.5
330.658	976.5
330.887	822.5
331.115	724.5
331.344	629.5
331.572	600.5
331.801	593.5
332.03	582.5
332.258	574.5
332.486	530.5
332.715	512.5
332.943	542.5
333.172	540.5
333.4	571.5
333.629	603.5
333.857	634.5
334.085	744.5
334.314	886.5
334.542	1108.5
334.771	1188.5
334.999	882.5
335.227	675.5
335.455	602.5
335.684	551.5
335.912	545.5
336.14	494.5
336.369	483.5
336.597	503.5
336.825	496.5
337.053	491.5
337.281	437.5
337.51	453.5
337.738	458.5
337.966	464.5
338.194	455.5
338.422	469.5
338.65	452.5
338.878	435.5
339.106	466.5
339.334	419.5
339.562	430.5
339.79	439.5
340.018	436.5
340.246	442.5
340.474	439.5
340.702	423.5
340.93	421.5
341.158	437.5
341.386	431.5
341.614	423.5
341.842	428.5
342.07	436.5
342.298	405.5
342.526	423.5
342.754	411.5
342.981	393.5
343.209	393.5
343.437	393.5
343.665	412.5
343.893	405.5
344.12	442.5
344.348	420.5
344.576	433.5
344.804	444.5
345.031	448.5
345.259	450.5
345.487	432.5
345.714	419.5
345.942	429.5
346.17	413.5
346.397	436.5
346.625	408.5
346.853	413.5
347.08	408.5
347.308	412.5
347.535	414.5
347.763	414.5
347.99	433.5
348.218	451.5
348.445	424.5
348.673	429.5
348.9	408.5
349.128	404.5
349.355	396.5
349.583	392.5
349.81	397.5
350.037	397.5
350.265	373.5
350.492	400.5
350.72	404.5
350.947	405.5
351.174	406.5
351.402	432.5
351.629	413.5
351.856	405.5
352.083	405.5
352.311	433.5
352.538	434.5
352.765	452.5
352.992	424.5
353.22	401.5
353.447	391.5
353.674	413.5
353.901	390.5
354.128	391.5
354.355	381.5
354.583	385.5
354.81	393.5
355.037	368.5
355.264	381.5
355.491	393.5
355.718	373.5
355.945	371.5
356.172	376.5
356.399	368.5
356.626	359.5
356.853	380.5
357.08	371.5
357.307	381.5
357.534	382.5
357.761	371.5
357.988	387.5
358.215	371.5
358.441	369.5
358.668	383.5
358.895	385.5
359.122	364.5
359.349	387.5
359.576	411.5
359.802	432.5
360.029	464.5
360.256	484.5
360.483	461.5
360.709	410.5
360.936	415.5
361.163	402.5
361.39	419.5
361.616	411.5
361.843	415.5
362.07	411.5
362.296	395.5
362.523	405.5
362.749	404.5
362.976	384.5
363.203	394.5
363.429	393.5
363.656	397.5
363.882	382.5
364.109	396.5
364.335	387.5
364.562	389.5
364.788	383.5
365.015	380.5
365.241	377.5
365.468	384.5
365.694	375.5
365.92	401.5
366.147	388.5
366.373	392.5
366.599	368.5
366.826	377.5
367.052	373.5
367.278	373.5
367.505	372.5
367.731	367.5
367.957	376.5
368.184	375.5
368.41	377.5
368.636	408.5
368.862	372.5
369.089	389.5
369.315	355.5
369.541	373.5
369.767	372.5
369.993	383.5
370.219	380.5
370.445	373.5
370.672	376.5
370.898	360.5
371.124	358.5
371.35	387.5
371.576	379.5
371.802	372.5
372.028	365.5
372.254	356.5
372.48	375.5
372.706	357.5
372.932	367.5
373.158	365.5
373.384	364.5
373.61	389.5
373.835	374.5
374.061	353.5
374.287	365.5
374.513	366.5
374.739	370.5
374.965	387.5
375.191	367.5
375.416	373.5
375.642	369.5
375.868	376.5
376.094	372.5
376.319	375.5
376.545	357.5
376.771	365.5
376.997	363.5
377.222	361.5
377.448	377.5
377.674	373.5
377.899	339.5
378.125	359.5
378.35	367.5
378.576	337.5
378.802	353.5
379.027	348.5
379.253	349.5
379.478	369.5
379.704	357.5
379.929	370.5
380.155	337.5
380.38	367.5
380.606	371.5
380.831	366.5
381.057	363.5
381.282	351.5
381.507	375.5
381.733	347.5
381.958	373.5
382.184	357.5
382.409	360.5
382.634	374.5
382.86	367.5
383.085	365.5
383.31	364.5
383.535	392.5
383.761	353.5
383.986	365.5
384.211	367.5
384.436	361.5
384.662	377.5
384.887	387.5
385.112	369.5
385.337	376.5
385.562	379.5
385.787	352.5
386.013	407.5
386.238	404.5
386.463	391.5
386.688	397.5
386.913	387.5
387.138	385.5
387.363	377.5
387.588	390.5
387.813	381.5
388.038	381.5
388.263	376.5
388.488	385.5
388.713	371.5
388.938	405.5
389.163	382.5
389.387	391.5
389.612	365.5
389.837	386.5
390.062	374.5
390.287	384.5
390.512	373.5
390.736	373.5
390.961	387.5
391.186	374.5
391.411	393.5
391.636	393.5
391.86	369.5
392.085	381.5
392.31	377.5
392.534	396.5
392.759	387.5
392.984	386.5
393.208	390.5
393.433	394.5
393.658	389.5
393.882	381.5
394.107	388.5
394.331	385.5
394.556	403.5
394.78	367.5
395.005	373.5
395.229	377.5
395.454	393.5
395.678	387.5
395.903	379.5
396.127	422.5
396.352	411.5
396.576	404.5
396.801	407.5
397.025	399.5
397.249	382.5
397.474	390.5
397.698	422.5
397.922	417.5
398.147	442.5
398.371	417.5
398.595	433.5
398.82	423.5
399.044	459.5
399.268	424.5
399.492	445.5
399.717	478.5
399.941	481.5
400.165	510.5
400.389	543.5
400.613	491.5
400.837	452.5
401.062	424.5
401.286	441.5
401.51	447.5
401.734	457.5
401.958	436.5
402.182	462.5
402.406	445.5
402.63	447.5
402.854	456.5
403.078	453.5
403.302	428.5
403.526	454.5
403.75	439.5
403.974	479.5
404.198	465.5
404.422	467.5
404.645	475.5
404.869	520.5
405.093	557.5
405.317	612.5
405.541	639.5
405.765	577.5
405.988	527.5
406.212	531.5
406.436	514.5
406.66	544.5
406.883	508.5
407.107	518.5
407.331	553.5
407.555	593.5
407.778	614.5
408.002	559.5
408.226	513.5
408.449	504.5
408.673	519.5
408.896	513.5
409.12	553.5
409.344	551.5
409.567	480.5
409.791	480.5
410.014	464.5
410.238	452.5
410.461	443.5
410.685	467.5
410.908	487.5
411.132	516.5
411.355	547.5
411.578	522.5
411.802	501.5
412.025	481.5
412.249	548.5
412.472	559.5
412.695	637.5
412.919	629.5
413.142	551.5
413.365	561.5
413.589	493.5
413.812	498.5
414.035	483.5
414.258	472.5
414.482	455.5
414.705	451.5
414.928	445.5
415.151	447.5
415.374	443.5
415.597	441.5
415.821	445.5
416.044	465.5
416.267	437.5
416.49	436.5
416.713	427.5
416.936	441.5
417.159	436.5
417.382	453.5
417.605	463.5
417.828	465.5
418.051	475.5
418.274	476.5
418.497	444.5
418.72	478.5
418.943	442.5
419.166	440.5
419.389	446.5
419.611	482.5
419.834	498.5
420.057	507.5
420.28	535.5
420.503	556.5
420.726	511.5
420.948	542.5
421.171	564.5
421.394	570.5
421.617	513.5
421.839	482.5
422.062	469.5
422.285	487.5
422.507	535.5
422.73	598.5
422.953	598.5
423.175	524.5
423.398	496.5
423.621	469.5
423.843	519.5
424.066	510.5
424.288	512.5
424.511	519.5
424.733	568.5
424.956	620.5
425.178	630.5
425.401	616.5
425.623	623.5
425.846	541.5
426.068	519.5
426.291	518.5
426.513	511.5
426.735	527.5
426.958	546.5
427.18	632.5
427.402	775.5
427.625	864.5
427.847	799.5
428.069	747.5
428.292	649.5
428.514	574.5
428.736	500.5
428.958	492.5
429.181	495.5
429.403	464.5
429.625	465.5
429.847	520.5
430.069	569.5
430.292	549.5
430.514	498.5
430.736	477.5
430.958	459.5
431.18	438.5
431.402	437.5
431.624	447.5
431.846	427.5
432.068	418.5
432.29	436.5
432.512	448.5
432.734	417.5
432.956	460.5
433.178	439.5
433.4	455.5
433.622	438.5
433.844	435.5
434.066	428.5
434.287	440.5
434.509	422.5
434.731	456.5
434.953	451.5
435.175	449.5
435.397	476.5
435.618	509.5
435.84	549.5
436.062	615.5
436.284	686.5
436.505	598.5
436.727	531.5
436.949	491.5
437.17	461.5
437.392	466.5
437.614	467.5
437.835	519.5
438.057	625.5
438.278	693.5
438.5	716.5
438.721	782.5
438.943	741.5
439.165	595.5
439.386	548.5
439.608	514.5
439.829	501.5
440.05	548.5
440.272	590.5
440.493	557.5
440.715	514.5
440.936	473.5
441.158	467.5
441.379	464.5
441.6	488.5
441.822	493.5
442.043	535.5
442.264	620.5
442.486	671.5
442.707	548.5
442.928	532.5
443.149	511.5
443.371	528.5
443.592	574.5
443.813	683.5
444.034	714.5
444.255	607.5
444.476	521.5
444.698	493.5
444.919	480.5
445.14	596.5
445.361	542.5
445.582	533.5
445.803	619.5
446.024	705.5
446.245	694.5
446.466	663.5
446.687	550.5
446.908	505.5
447.129	479.5
447.35	464.5
447.571	482.5
447.792	477.5
448.013	471.5
448.234	492.5
448.455	542.5
448.675	638.5
448.896	752.5
449.117	658.5
449.338	614.5
449.559	704.5
449.779	813.5
450	633.5
450.221	545.5
450.442	488.5
450.662	467.5
450.883	469.5
451.104	477.5
451.324	468.5
451.545	444.5
451.766	460.5
451.986	461.5
452.207	432.5
452.428	418.5
452.648	418.5
452.869	425.5
453.089	443.5
453.31	438.5
453.53	428.5
453.751	422.5
453.971	425.5
454.192	430.5
454.412	439.5
454.633	413.5
454.853	405.5
455.073	413.5
455.294	419.5
455.514	503.5
455.734	517.5
455.955	437.5
456.175	406.5
456.395	404.5
456.616	399.5
456.836	383.5
457.056	398.5
457.276	383.5
457.497	405.5
457.717	396.5
457.937	393.5
458.157	415.5
458.377	414.5
458.598	420.5
458.818	486.5
459.038	562.5
459.258	572.5
459.478	480.5
459.698	441.5
459.918	429.5
460.138	417.5
460.358	413.5
460.578	406.5
460.798	413.5
461.018	418.5
461.238	423.5
461.458	423.5
461.678	421.5
461.898	429.5
462.118	429.5
462.338	423.5
462.558	439.5
462.777	427.5
462.997	430.5
463.217	436.5
463.437	443.5
463.657	428.5
463.876	430.5
464.096	443.5
464.316	429.5
464.536	461.5
464.755	476.5
464.975	463.5
465.195	492.5
465.414	588.5
465.634	514.5
465.854	486.5
466.073	479.5
466.293	447.5
466.512	411.5
466.732	421.5
466.951	436.5
467.171	427.5
467.391	413.5
467.61	459.5
467.829	475.5
468.049	496.5
468.268	545.5
468.488	517.5
468.707	433.5
468.927	435.5
469.146	433.5
469.365	435.5
469.585	413.5
469.804	437.5
470.023	437.5
470.243	430.5
470.462	463.5
470.681	471.5
470.901	470.5
471.12	451.5
471.339	434.5
471.558	444.5
471.777	457.5
471.997	460.5
472.216	544.5
472.435	809.5
472.654	757.5
472.873	561.5
473.092	509.5
473.311	505.5
473.53	517.5
473.749	508.5
473.968	543.5
474.187	603.5
474.406	646.5
474.625	547.5
474.844	476.5
475.063	473.5
475.282	485.5
475.501	477.5
475.72	460.5
475.939	455.5
476.158	466.5
476.377	475.5
476.596	474.5
476.814	470.5
477.033	486.5
477.252	481.5
477.471	475.5
477.69	477.5
477.908	492.5
478.127	474.5
478.346	514.5
478.564	500.5
478.783	492.5
479.002	489.5
479.22	517.5
479.439	519.5
479.658	540.5
479.876	544.5
480.095	552.5
480.313	587.5
480.532	591.5
480.751	603.5
480.969	696.5
481.188	1063.5
481.406	1358.5
481.624	891.5
481.843	759.5
482.061	703.5
482.28	636.5
482.498	620.5
482.717	584.5
482.935	592.5
483.153	588.5
483.372	572.5
483.59	594.5
483.808	573.5
484.027	559.5
484.245	573.5
484.463	561.5
484.681	596.5
484.9	575.5
485.118	581.5
485.336	573.5
485.554	567.5
485.772	571.5
485.99	558.5
486.209	570.5
486.427	545.5
486.645	589.5
486.863	575.5
487.081	607.5
487.299	591.5
487.517	582.5
487.735	598.5
487.953	605.5
488.171	592.5
488.389	590.5
488.607	592.5
488.825	613.5
489.043	630.5
489.261	611.5
489.479	601.5
489.696	601.5
489.914	617.5
490.132	634.5
490.35	630.5
490.568	639.5
490.786	681.5
491.003	672.5
491.221	668.5
491.439	721.5
491.657	713.5
491.874	709.5
492.092	728.5
492.31	721.5
492.527	740.5
492.745	733.5
492.963	732.5
493.18	757.5
493.398	757.5
493.615	763.5
493.833	755.5
494.05	765.5
494.268	758.5
494.485	747.5
494.703	755.5
494.92	751.5
495.138	741.5
495.355	708.5
495.573	738.5
495.79	723.5
496.008	724.5
496.225	731.5
496.442	711.5
496.66	715.5
496.877	721.5
497.094	705.5
497.312	722.5
497.529	712.5
497.746	728.5
497.963	744.5
498.181	765.5
498.398	733.5
498.615	713.5
498.832	748.5
499.049	728.5
499.267	752.5
499.484	730.5
499.701	784.5
499.918	783.5
500.135	796.5
500.352	800.5
500.569	841.5
500.786	847.5
501.003	836.5
501.22	860.5
501.437	834.5
501.654	807.5
501.871	818.5
502.088	802.5
502.305	761.5
502.522	725.5
502.739	737.5
502.956	719.5
503.172	724.5
503.389	715.5
503.606	701.5
503.823	678.5
504.04	693.5
504.256	660.5
504.473	668.5
504.69	655.5
504.907	685.5
505.123	658.5
505.34	665.5
505.557	668.5
505.773	660.5
505.99	674.5
506.207	660.5
506.423	648.5
506.64	656.5
506.856	636.5
507.073	630.5
507.289	651.5
507.506	639.5
507.722	646.5
507.939	677.5
508.155	645.5
508.372	647.5
508.588	597.5
508.805	631.5
509.021	624.5
509.238	624.5
509.454	649.5
509.67	653.5
509.887	635.5
510.103	623.5
510.319	647.5
510.536	736.5
510.752	1217.5
510.968	1011.5
511.184	649.5
511.401	616.5
511.617	623.5
511.833	653.5
512.049	669.5
512.265	656.5
512.481	653.5
512.698	619.5
512.914	622.5
513.13	604.5
513.346	615.5
513.562	596.5
513.778	613.5
513.994	610.5
514.21	633.5
514.426	659.5
514.642	677.5
514.858	706.5
515.074	747.5
515.29	891.5
515.506	1283.5
515.721	1059.5
515.937	757.5
516.153	680.5
516.369	650.5
516.585	636.5
516.801	619.5
517.016	609.5
517.232	584.5
517.448	601.5
517.664	590.5
517.879	589.5
518.095	568.5
518.311	579.5
518.527	596.5
518.742	568.5
518.958	592.5
519.173	587.5
519.389	577.5
519.605	591.5
519.82	597.5
520.036	595.5
520.251	616.5
520.467	665.5
520.682	630.5
520.898	657.5
521.113	674.5
521.329	734.5
521.544	830.5
521.76	1049.5
521.975	1696.5
522.19	1639.5
522.406	920.5
522.621	689.5
522.836	627.5
523.052	616.5
523.267	589.5
523.482	568.5
523.698	543.5
523.913	567.5
524.128	553.5
524.343	539.5
524.559	532.5
524.774	536.5
524.989	518.5
525.204	536.5
525.419	518.5
525.634	491.5
525.849	503.5
526.064	481.5
526.28	487.5
526.495	480.5
526.71	491.5
526.925	496.5
527.14	489.5
527.355	494.5
527.57	477.5
527.785	473.5
527.999	456.5
528.214	466.5
528.429	473.5
528.644	472.5
528.859	481.5
529.074	471.5
529.289	504.5
529.503	569.5
529.718	571.5
529.933	516.5
530.148	465.5
530.363	481.5
530.577	470.5
530.792	472.5
531.007	480.5
531.221	466.5
531.436	450.5
531.651	443.5
531.865	465.5
532.08	449.5
532.295	450.5
532.509	443.5
532.724	465.5
532.938	460.5
533.153	449.5
533.367	442.5
533.582	451.5
533.796	446.5
534.011	435.5
534.225	444.5
534.44	442.5
534.654	439.5
534.868	431.5
535.083	427.5
535.297	461.5
535.511	440.5
535.726	473.5
535.94	454.5
536.154	445.5
536.369	435.5
536.583	456.5
536.797	441.5
537.011	449.5
537.225	415.5
537.44	447.5
537.654	424.5
537.868	428.5
538.082	436.5
538.296	428.5
538.51	423.5
538.724	450.5
538.938	432.5
539.153	422.5
539.367	424.5
539.581	428.5
539.795	435.5
540.009	411.5
540.222	448.5
540.436	457.5
540.65	437.5
540.864	439.5
541.078	444.5
541.292	421.5
541.506	425.5
541.72	438.5
541.934	423.5
542.147	425.5
542.361	428.5
542.575	422.5
542.789	413.5
543.002	413.5
543.216	430.5
543.43	448.5
543.644	420.5
543.857	422.5
544.071	401.5
544.285	441.5
544.498	421.5
544.712	416.5
544.925	421.5
545.139	427.5
545.352	427.5
545.566	402.5
545.779	414.5
545.993	391.5
546.206	425.5
546.42	416.5
546.633	405.5
546.847	415.5
547.06	403.5
547.274	408.5
547.487	403.5
547.7	406.5
547.914	403.5
548.127	402.5
548.34	413.5
548.554	404.5
548.767	402.5
548.98	393.5
549.193	399.5
549.407	408.5
549.62	407.5
549.833	397.5
550.046	394.5
550.259	398.5
550.473	412.5
550.686	389.5
550.899	391.5
551.112	391.5
551.325	379.5
551.538	384.5
551.751	372.5
551.964	378.5
552.177	377.5
552.39	393.5
552.603	374.5
552.816	382.5
553.029	385.5
553.242	385.5
553.455	402.5
553.667	420.5
553.88	412.5
554.093	420.5
554.306	404.5
554.519	399.5
554.732	395.5
554.944	385.5
555.157	380.5
555.37	399.5
555.583	376.5
555.795	385.5
556.008	381.5
556.221	388.5
556.433	375.5
556.646	368.5
556.859	379.5
557.071	388.5
557.284	366.5
557.496	382.5
557.709	364.5
557.921	349.5
558.134	356.5
558.346	363.5
558.559	355.5
558.771	356.5
558.984	357.5
559.196	371.5
559.409	375.5
559.621	372.5
559.833	360.5
560.046	375.5
560.258	349.5
560.47	378.5
560.683	373.5
560.895	362.5
561.107	349.5
561.32	379.5
561.532	348.5
561.744	373.5
561.956	345.5
562.168	368.5
562.381	347.5
562.593	360.5
562.805	352.5
563.017	348.5
563.229	363.5
563.441	353.5
563.653	363.5
563.865	347.5
564.077	351.5
564.289	367.5
564.501	369.5
564.713	373.5
564.925	370.5
565.137	385.5
565.349	374.5
565.561	365.5
565.773	375.5
565.985	370.5
566.197	355.5
566.408	366.5
566.62	369.5
566.832	384.5
567.044	389.5
567.255	376.5
567.467	396.5
567.679	386.5
567.891	415.5
568.102	398.5
568.314	392.5
568.526	371.5
568.737	391.5
568.949	377.5
569.161	354.5
569.372	349.5
569.584	361.5
569.795	355.5
570.007	341.5
570.218	374.5
570.43	389.5
570.641	344.5
570.853	327.5
571.064	335.5
571.276	344.5
571.487	319.5
571.698	325.5
571.91	325.5
572.121	337.5
572.333	315.5
572.544	331.5
572.755	311.5
572.966	299.5
573.178	319.5
573.389	315.5
573.6	319.5
573.811	315.5
574.023	307.5
574.234	319.5
574.445	311.5
574.656	312.5
574.867	312.5
575.078	317.5
575.289	309.5
575.501	292.5
575.712	350.5
575.923	305.5
576.134	299.5
576.345	306.5
576.556	308.5
576.767	310.5
576.978	306.5
577.188	311.5
577.399	296.5
577.61	296.5
577.821	304.5
578.032	327.5
578.243	364.5
578.454	546.5
578.665	436.5
578.875	319.5
579.086	311.5
579.297	294.5
579.508	285.5
579.718	318.5
579.929	292.5
580.14	293.5
580.35	291.5
580.561	289.5
580.772	279.5
580.982	283.5
581.193	281.5
581.403	276.5
581.614	301.5
581.825	271.5
582.035	279.5
582.246	285.5
582.456	270.5
582.667	274.5
582.877	268.5
583.087	285.5
583.298	276.5
583.508	285.5
583.719	266.5
583.929	300.5
584.139	285.5
584.35	290.5
584.56	282.5
584.77	294.5
584.981	272.5
585.191	276.5
585.401	269.5
585.611	276.5
585.821	286.5
586.032	290.5
586.242	284.5
586.452	281.5
586.662	285.5
586.872	282.5
587.082	274.5
587.292	265.5
587.502	274.5
587.713	265.5
587.923	261.5
588.133	263.5
588.343	276.5
588.553	265.5
588.762	276.5
588.972	261.5
589.182	281.5
589.392	283.5
589.602	287.5
589.812	284.5
590.022	279.5
590.232	271.5
590.441	277.5
590.651	269.5
590.861	255.5
591.071	269.5
591.281	257.5
591.49	262.5
591.7	265.5
591.91	261.5
592.119	246.5
592.329	258.5
592.539	285.5
592.748	288.5
592.958	289.5
593.167	271.5
593.377	263.5
593.587	276.5
593.796	292.5
594.006	276.5
594.215	284.5
594.424	266.5
594.634	265.5
594.843	278.5
595.053	269.5
595.262	253.5
595.472	254.5
595.681	273.5
595.89	273.5
596.1	261.5
596.309	260.5
596.518	257.5
596.727	267.5
596.937	251.5
597.146	240.5
597.355	250.5
597.564	258.5
597.774	274.5
597.983	258.5
598.192	236.5
598.401	265.5
598.61	247.5
598.819	259.5
599.028	241.5
599.237	253.5
599.446	248.5
599.655	238.5
599.864	262.5
600.073	241.5
600.282	251.5
600.491	254.5
600.7	231.5
600.909	234.5
601.118	239.5
601.327	248.5
601.536	236.5
601.745	248.5
601.953	237.5
602.162	226.5
602.371	246.5
602.58	249.5
602.789	260.5
602.997	235.5
603.206	252.5
603.415	217.5
603.623	227.5
603.832	232.5
604.041	246.5
604.249	222.5
604.458	259.5
604.666	247.5
604.875	222.5
605.084	248.5
605.292	227.5
605.501	225.5
605.709	223.5
605.918	229.5
606.126	237.5
606.334	225.5
606.543	231.5
606.751	240.5
606.96	237.5
607.168	232.5
607.376	217.5
607.585	231.5
607.793	218.5
608.001	230.5
608.21	231.5
608.418	237.5
608.626	236.5
608.834	236.5
609.043	206.5
609.251	239.5
609.459	207.5
609.667	214.5
609.875	240.5
610.083	241.5
610.291	237.5
610.499	221.5
610.707	223.5
610.916	239.5
611.124	231.5
611.332	221.5
611.54	228.5
611.748	229.5
611.955	224.5
612.163	237.5
612.371	226.5
612.579	209.5
612.787	240.5
612.995	228.5
613.203	223.5
613.411	236.5
613.618	218.5
613.826	224.5
614.034	217.5
614.242	236.5
614.449	210.5
614.657	223.5
614.865	228.5
615.072	219.5
615.28	232.5
615.488	218.5
615.695	243.5
615.903	213.5
616.111	235.5
616.318	216.5
616.526	225.5
616.733	218.5
616.941	197.5
617.148	222.5
617.356	206.5
617.563	217.5
617.771	218.5
617.978	220.5
618.185	212.5
618.393	216.5
618.6	225.5
618.807	216.5
619.015	203.5
619.222	235.5
619.429	200.5
619.637	204.5
619.844	198.5
620.051	214.5
620.258	214.5
620.466	215.5
620.673	207.5
620.88	200.5
621.087	204.5
621.294	205.5
621.501	205.5
621.708	218.5
621.915	216.5
622.122	214.5
622.329	189.5
622.536	210.5
622.743	194.5
622.95	198.5
623.157	212.5
623.364	191.5
623.571	195.5
623.778	209.5
623.985	211.5
624.192	188.5
624.399	191.5
624.606	207.5
624.812	209.5
625.019	197.5
625.226	208.5
625.433	192.5
625.639	185.5
625.846	198.5
626.053	206.5
626.259	211.5
626.466	193.5
626.673	197.5
626.879	190.5
627.086	191.5
627.293	191.5
627.499	190.5
627.706	197.5
627.912	191.5
628.119	187.5
628.325	198.5
628.532	191.5
628.738	207.5
628.945	181.5
629.151	193.5
629.357	194.5
629.564	185.5
629.77	173.5
629.976	187.5
630.183	183.5
630.389	175.5
630.595	189.5
630.802	181.5
631.008	169.5
631.214	187.5
631.42	184.5
631.627	188.5
631.833	179.5
632.039	164.5
632.245	181.5
632.451	172.5
632.657	173.5
632.863	179.5
633.069	173.5
633.275	174.5
633.481	155.5
633.688	171.5
633.893	176.5
634.099	179.5
634.305	179.5
634.511	176.5
634.717	184.5
634.923	184.5
635.129	164.5
635.335	171.5
635.541	182.5
635.747	179.5
635.952	185.5
636.158	184.5
636.364	210.5
636.57	235.5
636.775	195.5
636.981	201.5
637.187	192.5
637.392	180.5
637.598	172.5
637.804	185.5
638.009	180.5
638.215	169.5
638.421	167.5
638.626	170.5
638.832	179.5
639.037	159.5
639.243	159.5
639.448	168.5
639.654	165.5
639.859	166.5
640.065	165.5
640.27	177.5
640.475	166.5
640.681	153.5
640.886	180.5
641.091	167.5
641.297	164.5
641.502	163.5
641.707	163.5
641.913	167.5
642.118	147.5
642.323	139.5
642.528	166.5
642.733	151.5
642.939	150.5
643.144	166.5
643.349	147.5
643.554	137.5
643.759	146.5
643.964	154.5
644.169	144.5
644.374	148.5
644.579	149.5
644.784	148.5
644.989	145.5
645.194	160.5
645.399	152.5
645.604	152.5
645.809	151.5
646.014	163.5
646.219	146.5
646.423	156.5
646.628	150.5
646.833	142.5
647.038	157.5
647.243	164.5
647.447	159.5
647.652	143.5
647.857	158.5
648.062	147.5
648.266	130.5
648.471	159.5
648.676	157.5
648.88	160.5
649.085	152.5
649.289	142.5
649.494	156.5
649.698	185.5
649.903	167.5
650.107	157.5
650.312	148.5
650.516	149.5
650.721	153.5
650.925	141.5
651.13	143.5
651.334	134.5
651.539	131.5
651.743	138.5
651.947	129.5
652.152	128.5
652.356	123.5
652.56	134.5
652.764	137.5
652.969	144.5
653.173	120.5
653.377	123.5
653.581	126.5
653.785	127.5
653.99	130.5
654.194	121.5
654.398	127.5
654.602	121.5
654.806	122.5
655.01	136.5
655.214	143.5
655.418	128.5
655.622	118.5
655.826	112.5
656.03	132.5
656.234	128.5
656.438	129.5
656.642	139.5
656.846	130.5
657.049	104.5
657.253	104.5
657.457	101.5
657.661	111.5
657.865	107.5
658.068	111.5
658.272	112.5
658.476	113.5
658.68	98.5
658.883	96.5
659.087	100.5
659.291	88.5
659.494	86.5
659.698	96.5
659.901	104.5
660.105	91.5
660.309	85.5
660.512	94.5
660.716	90.5
660.919	85.5
661.123	87.5
661.326	80.5
661.53	88.5
661.733	83.5
661.936	80.5
662.14	81.5
662.343	85.5
662.546	82.5
662.75	80.5
662.953	87.5
663.156	85.5
663.36	85.5
663.563	96.5
663.766	77.5
663.969	88.5
664.173	83.5
664.376	73.5
664.579	71.5
664.782	77.5
664.985	75.5
665.188	72.5
665.391	80.5
665.594	76.5
665.797	82.5
666	86.5
666.203	87.5
666.406	60.5
666.609	77.5
666.812	82.5
667.015	80.5
667.218	79.5
667.421	70.5
667.624	77.5
667.827	72.5
668.03	91.5
668.232	86.5
668.435	79.5
668.638	71.5
668.841	78.5
669.043	83.5
669.246	78.5
669.449	78.5
669.651	72.5
669.854	79.5
670.057	73.5
670.259	72.5
670.462	75.5
670.665	76.5
670.867	91.5
671.07	70.5
671.272	84.5
671.475	77.5
671.677	82.5
671.88	86.5
672.082	70.5
672.284	93.5
672.487	77.5
672.689	62.5
672.892	72.5
