Data from 1986.PennyLincolnUp.Lamp.En5.5.200Scan.071819.P2_HRD10591_17-12-49-972.txt Node
Date: Thu Jul 18 17:12:49 EDT 2019
User: cochatt
Spectrometer: HR+D1059
Trigger mode: 1
Integration Time (sec): 1.000000E-1
Scans to average: 1
Electric dark correction enabled: true
Nonlinearity correction enabled: false
Boxcar width: 0
XAxis mode: Wavelengths
Number of Pixels in Spectrum: 2048
>>>>>Begin Spectral Data<<<<<
223.165	-11.75
223.4	-11.75
223.635	-11.75
223.869	-21.75
224.104	-8.75
224.338	-14.75
224.573	-8.75
224.808	-26.75
225.042	-12.75
225.277	-5.75
225.511	-5.75
225.746	22.25
225.98	8.25
226.215	0.25
226.449	8.25
226.683	16.25
226.918	27.25
227.152	34.25
227.387	40.25
227.621	37.25
227.856	51.25
228.09	39.25
228.324	55.25
228.559	48.25
228.793	78.25
229.027	118.25
229.262	108.25
229.496	133.25
229.73	137.25
229.964	163.25
230.199	150.25
230.433	116.25
230.667	115.25
230.901	121.25
231.136	116.25
231.37	111.25
231.604	118.25
231.838	122.25
232.072	110.25
232.306	113.25
232.541	119.25
232.775	120.25
233.009	114.25
233.243	122.25
233.477	125.25
233.711	123.25
233.945	129.25
234.179	130.25
234.413	142.25
234.647	114.25
234.881	118.25
235.115	133.25
235.349	117.25
235.583	135.25
235.817	122.25
236.051	135.25
236.285	147.25
236.519	131.25
236.753	133.25
236.987	163.25
237.221	172.25
237.455	236.25
237.689	211.25
237.922	159.25
238.156	131.25
238.39	141.25
238.624	135.25
238.858	135.25
239.091	126.25
239.325	137.25
239.559	123.25
239.793	142.25
240.027	129.25
240.26	143.25
240.494	150.25
240.728	156.25
240.961	158.25
241.195	141.25
241.429	137.25
241.662	131.25
241.896	150.25
242.13	138.25
242.363	137.25
242.597	139.25
242.83	151.25
243.064	141.25
243.298	158.25
243.531	127.25
243.765	143.25
243.998	146.25
244.232	151.25
244.465	137.25
244.699	165.25
244.932	167.25
245.166	172.25
245.399	175.25
245.633	150.25
245.866	167.25
246.099	159.25
246.333	142.25
246.566	165.25
246.8	160.25
247.033	159.25
247.266	167.25
247.5	175.25
247.733	174.25
247.966	171.25
248.2	194.25
248.433	180.25
248.666	196.25
248.899	203.25
249.133	215.25
249.366	225.25
249.599	213.25
249.832	210.25
250.066	208.25
250.299	218.25
250.532	249.25
250.765	271.25
250.998	280.25
251.231	289.25
251.465	273.25
251.698	262.25
251.931	264.25
252.164	239.25
252.397	232.25
252.63	234.25
252.863	229.25
253.096	252.25
253.329	247.25
253.562	246.25
253.795	253.25
254.028	231.25
254.261	227.25
254.494	251.25
254.727	284.25
254.96	320.25
255.193	310.25
255.426	309.25
255.659	299.25
255.892	335.25
256.124	380.25
256.357	415.25
256.59	369.25
256.823	321.25
257.056	309.25
257.289	287.25
257.521	278.25
257.754	264.25
257.987	270.25
258.22	253.25
258.452	232.25
258.685	257.25
258.918	261.25
259.151	253.25
259.383	258.25
259.616	240.25
259.849	261.25
260.081	269.25
260.314	277.25
260.547	290.25
260.779	281.25
261.012	260.25
261.244	249.25
261.477	269.25
261.71	243.25
261.942	263.25
262.175	251.25
262.407	262.25
262.64	247.25
262.872	231.25
263.105	247.25
263.337	234.25
263.57	242.25
263.802	228.25
264.035	215.25
264.267	216.25
264.499	242.25
264.732	228.25
264.964	238.25
265.197	226.25
265.429	236.25
265.661	246.25
265.894	233.25
266.126	225.25
266.358	232.25
266.591	222.25
266.823	257.25
267.055	225.25
267.287	256.25
267.52	233.25
267.752	218.25
267.984	259.25
268.216	250.25
268.448	262.25
268.681	243.25
268.913	279.25
269.145	293.25
269.377	314.25
269.609	281.25
269.841	291.25
270.073	299.25
270.306	291.25
270.538	352.25
270.77	332.25
271.002	308.25
271.234	321.25
271.466	332.25
271.698	332.25
271.93	323.25
272.162	349.25
272.394	346.25
272.626	314.25
272.858	324.25
273.09	305.25
273.322	293.25
273.553	302.25
273.785	279.25
274.017	283.25
274.249	286.25
274.481	305.25
274.713	291.25
274.945	313.25
275.176	293.25
275.408	290.25
275.64	279.25
275.872	293.25
276.104	291.25
276.335	299.25
276.567	309.25
276.799	317.25
277.031	335.25
277.262	358.25
277.494	377.25
277.726	335.25
277.957	329.25
278.189	311.25
278.421	302.25
278.652	303.25
278.884	299.25
279.115	279.25
279.347	287.25
279.579	302.25
279.81	282.25
280.042	284.25
280.273	315.25
280.505	321.25
280.736	299.25
280.968	305.25
281.199	267.25
281.431	290.25
281.662	281.25
281.894	297.25
282.125	285.25
282.356	312.25
282.588	335.25
282.819	319.25
283.051	291.25
283.282	283.25
283.513	298.25
283.745	291.25
283.976	284.25
284.207	296.25
284.439	309.25
284.67	300.25
284.901	301.25
285.132	299.25
285.364	291.25
285.595	287.25
285.826	287.25
286.057	298.25
286.288	286.25
286.52	298.25
286.751	298.25
286.982	295.25
287.213	307.25
287.444	307.25
287.675	300.25
287.906	295.25
288.138	306.25
288.369	322.25
288.6	321.25
288.831	314.25
289.062	317.25
289.293	310.25
289.524	305.25
289.755	310.25
289.986	299.25
290.217	309.25
290.448	303.25
290.679	311.25
290.91	290.25
291.141	296.25
291.371	292.25
291.602	306.25
291.833	296.25
292.064	301.25
292.295	300.25
292.526	301.25
292.757	300.25
292.987	325.25
293.218	293.25
293.449	297.25
293.68	298.25
293.91	310.25
294.141	295.25
294.372	297.25
294.603	312.25
294.833	294.25
295.064	305.25
295.295	305.25
295.525	287.25
295.756	309.25
295.987	308.25
296.217	347.25
296.448	370.25
296.679	327.25
296.909	309.25
297.14	307.25
297.37	315.25
297.601	312.25
297.831	298.25
298.062	307.25
298.292	300.25
298.523	302.25
298.753	327.25
298.984	308.25
299.214	325.25
299.445	317.25
299.675	320.25
299.905	331.25
300.136	311.25
300.366	333.25
300.597	321.25
300.827	323.25
301.057	326.25
301.288	332.25
301.518	327.25
301.748	308.25
301.979	319.25
302.209	350.25
302.439	359.25
302.669	314.25
302.9	339.25
303.13	333.25
303.36	335.25
303.59	341.25
303.82	369.25
304.051	348.25
304.281	339.25
304.511	335.25
304.741	330.25
304.971	348.25
305.201	342.25
305.431	338.25
305.661	335.25
305.891	345.25
306.121	338.25
306.352	345.25
306.582	356.25
306.812	349.25
307.042	331.25
307.272	376.25
307.502	373.25
307.731	348.25
307.961	355.25
308.191	354.25
308.421	352.25
308.651	346.25
308.881	362.25
309.111	376.25
309.341	349.25
309.571	366.25
309.8	374.25
310.03	391.25
310.26	399.25
310.49	391.25
310.72	410.25
310.949	408.25
311.179	422.25
311.409	397.25
311.639	384.25
311.868	398.25
312.098	403.25
312.328	411.25
312.557	438.25
312.787	425.25
313.017	419.25
313.246	410.25
313.476	403.25
313.706	384.25
313.935	413.25
314.165	399.25
314.394	419.25
314.624	409.25
314.853	391.25
315.083	410.25
315.312	388.25
315.542	384.25
315.771	381.25
316.001	379.25
316.23	377.25
316.46	399.25
316.689	419.25
316.919	397.25
317.148	415.25
317.377	423.25
317.607	410.25
317.836	404.25
318.065	395.25
318.295	403.25
318.524	394.25
318.753	381.25
318.983	405.25
319.212	382.25
319.441	405.25
319.67	409.25
319.9	404.25
320.129	409.25
320.358	400.25
320.587	414.25
320.816	399.25
321.046	428.25
321.275	436.25
321.504	420.25
321.733	417.25
321.962	437.25
322.191	437.25
322.42	458.25
322.649	487.25
322.878	502.25
323.108	490.25
323.337	540.25
323.566	561.25
323.795	575.25
324.024	621.25
324.253	764.25
324.482	1119.25
324.71	1698.25
324.939	2504.25
325.168	2164.25
325.397	1157.25
325.626	780.25
325.855	658.25
326.084	593.25
326.313	577.25
326.542	576.25
326.77	638.25
326.999	755.25
327.228	1002.25
327.457	1502.25
327.686	1878.25
327.914	1351.25
328.143	903.25
328.372	881.25
328.6	834.25
328.829	698.25
329.058	727.25
329.287	719.25
329.515	693.25
329.744	683.25
329.972	760.25
330.201	890.25
330.43	1007.25
330.658	932.25
330.887	785.25
331.115	741.25
331.344	635.25
331.572	607.25
331.801	585.25
332.03	578.25
332.258	571.25
332.486	540.25
332.715	547.25
332.943	557.25
333.172	556.25
333.4	571.25
333.629	595.25
333.857	662.25
334.085	730.25
334.314	893.25
334.542	1093.25
334.771	1162.25
334.999	889.25
335.227	651.25
335.455	582.25
335.684	557.25
335.912	527.25
336.14	515.25
336.369	526.25
336.597	522.25
336.825	480.25
337.053	470.25
337.281	483.25
337.51	480.25
337.738	478.25
337.966	455.25
338.194	462.25
338.422	461.25
338.65	487.25
338.878	448.25
339.106	448.25
339.334	439.25
339.562	466.25
339.79	424.25
340.018	458.25
340.246	449.25
340.474	447.25
340.702	456.25
340.93	457.25
341.158	436.25
341.386	446.25
341.614	437.25
341.842	419.25
342.07	438.25
342.298	406.25
342.526	447.25
342.754	400.25
342.981	417.25
343.209	422.25
343.437	420.25
343.665	410.25
343.893	435.25
344.12	447.25
344.348	433.25
344.576	435.25
344.804	450.25
345.031	436.25
345.259	450.25
345.487	426.25
345.714	452.25
345.942	437.25
346.17	419.25
346.397	426.25
346.625	431.25
346.853	434.25
347.08	425.25
347.308	417.25
347.535	423.25
347.763	446.25
347.99	417.25
348.218	430.25
348.445	429.25
348.673	419.25
348.9	420.25
349.128	401.25
349.355	415.25
349.583	405.25
349.81	421.25
350.037	414.25
350.265	414.25
350.492	413.25
350.72	421.25
350.947	409.25
351.174	417.25
351.402	432.25
351.629	421.25
351.856	409.25
352.083	454.25
352.311	421.25
352.538	444.25
352.765	459.25
352.992	437.25
353.22	429.25
353.447	429.25
353.674	400.25
353.901	384.25
354.128	408.25
354.355	408.25
354.583	403.25
354.81	392.25
355.037	379.25
355.264	397.25
355.491	405.25
355.718	370.25
355.945	389.25
356.172	379.25
356.399	368.25
356.626	394.25
356.853	374.25
357.08	368.25
357.307	373.25
357.534	380.25
357.761	386.25
357.988	379.25
358.215	376.25
358.441	378.25
358.668	377.25
358.895	403.25
359.122	395.25
359.349	406.25
359.576	423.25
359.802	446.25
360.029	457.25
360.256	491.25
360.483	448.25
360.709	413.25
360.936	419.25
361.163	426.25
361.39	425.25
361.616	425.25
361.843	396.25
362.07	422.25
362.296	409.25
362.523	402.25
362.749	403.25
362.976	390.25
363.203	413.25
363.429	390.25
363.656	405.25
363.882	397.25
364.109	399.25
364.335	409.25
364.562	392.25
364.788	382.25
365.015	390.25
365.241	385.25
365.468	391.25
365.694	398.25
365.92	422.25
366.147	393.25
366.373	398.25
366.599	384.25
366.826	397.25
367.052	401.25
367.278	399.25
367.505	383.25
367.731	387.25
367.957	398.25
368.184	393.25
368.41	404.25
368.636	425.25
368.862	419.25
369.089	399.25
369.315	376.25
369.541	396.25
369.767	399.25
369.993	371.25
370.219	376.25
370.445	381.25
370.672	372.25
370.898	388.25
371.124	371.25
371.35	364.25
371.576	373.25
371.802	377.25
372.028	383.25
372.254	389.25
372.48	387.25
372.706	382.25
372.932	390.25
373.158	375.25
373.384	384.25
373.61	377.25
373.835	370.25
374.061	383.25
374.287	393.25
374.513	376.25
374.739	389.25
374.965	371.25
375.191	378.25
375.416	363.25
375.642	393.25
375.868	367.25
376.094	373.25
376.319	379.25
376.545	379.25
376.771	390.25
376.997	385.25
377.222	374.25
377.448	387.25
377.674	391.25
377.899	398.25
378.125	378.25
378.35	379.25
378.576	369.25
378.802	353.25
379.027	381.25
379.253	371.25
379.478	367.25
379.704	387.25
379.929	387.25
380.155	376.25
380.38	389.25
380.606	372.25
380.831	370.25
381.057	383.25
381.282	355.25
381.507	356.25
381.733	367.25
381.958	367.25
382.184	382.25
382.409	375.25
382.634	380.25
382.86	381.25
383.085	375.25
383.31	378.25
383.535	374.25
383.761	365.25
383.986	367.25
384.211	389.25
384.436	401.25
384.662	394.25
384.887	390.25
385.112	378.25
385.337	386.25
385.562	389.25
385.787	399.25
386.013	407.25
386.238	390.25
386.463	408.25
386.688	399.25
386.913	405.25
387.138	404.25
387.363	387.25
387.588	389.25
387.813	403.25
388.038	374.25
388.263	391.25
388.488	389.25
388.713	398.25
388.938	399.25
389.163	390.25
389.387	394.25
389.612	383.25
389.837	387.25
390.062	395.25
390.287	385.25
390.512	387.25
390.736	402.25
390.961	410.25
391.186	397.25
391.411	386.25
391.636	387.25
391.86	401.25
392.085	378.25
392.31	381.25
392.534	413.25
392.759	395.25
392.984	408.25
393.208	403.25
393.433	387.25
393.658	411.25
393.882	397.25
394.107	394.25
394.331	394.25
394.556	394.25
394.78	377.25
395.005	386.25
395.229	388.25
395.454	405.25
395.678	419.25
395.903	415.25
396.127	427.25
396.352	449.25
396.576	411.25
396.801	409.25
397.025	420.25
397.249	400.25
397.474	415.25
397.698	398.25
397.922	420.25
398.147	430.25
398.371	446.25
398.595	435.25
398.82	446.25
399.044	433.25
399.268	434.25
399.492	456.25
399.717	500.25
399.941	488.25
400.165	531.25
400.389	532.25
400.613	480.25
400.837	461.25
401.062	449.25
401.286	468.25
401.51	444.25
401.734	433.25
401.958	457.25
402.182	438.25
402.406	457.25
402.63	468.25
402.854	458.25
403.078	459.25
403.302	461.25
403.526	463.25
403.75	472.25
403.974	467.25
404.198	466.25
404.422	489.25
404.645	507.25
404.869	528.25
405.093	579.25
405.317	635.25
405.541	646.25
405.765	609.25
405.988	546.25
406.212	562.25
406.436	545.25
406.66	549.25
406.883	522.25
407.107	515.25
407.331	547.25
407.555	606.25
407.778	619.25
408.002	578.25
408.226	521.25
408.449	525.25
408.673	511.25
408.896	533.25
409.12	555.25
409.344	542.25
409.567	489.25
409.791	481.25
410.014	471.25
410.238	478.25
410.461	485.25
410.685	466.25
410.908	510.25
411.132	532.25
411.355	560.25
411.578	533.25
411.802	530.25
412.025	513.25
412.249	532.25
412.472	579.25
412.695	657.25
412.919	647.25
413.142	589.25
413.365	529.25
413.589	543.25
413.812	497.25
414.035	477.25
414.258	480.25
414.482	483.25
414.705	483.25
414.928	466.25
415.151	456.25
415.374	457.25
415.597	460.25
415.821	449.25
416.044	443.25
416.267	487.25
416.49	443.25
416.713	453.25
416.936	447.25
417.159	437.25
417.382	467.25
417.605	481.25
417.828	485.25
418.051	495.25
418.274	469.25
418.497	460.25
418.72	475.25
418.943	460.25
419.166	471.25
419.389	493.25
419.611	493.25
419.834	502.25
420.057	508.25
420.28	545.25
420.503	550.25
420.726	541.25
420.948	533.25
421.171	548.25
421.394	578.25
421.617	509.25
421.839	501.25
422.062	474.25
422.285	517.25
422.507	543.25
422.73	627.25
422.953	607.25
423.175	537.25
423.398	521.25
423.621	503.25
423.843	517.25
424.066	517.25
424.288	505.25
424.511	528.25
424.733	558.25
424.956	667.25
425.178	653.25
425.401	636.25
425.623	668.25
425.846	588.25
426.068	525.25
426.291	526.25
426.513	527.25
426.735	539.25
426.958	569.25
427.18	634.25
427.402	774.25
427.625	855.25
427.847	814.25
428.069	725.25
428.292	641.25
428.514	574.25
428.736	546.25
428.958	525.25
429.181	478.25
429.403	476.25
429.625	497.25
429.847	534.25
430.069	592.25
430.292	595.25
430.514	517.25
430.736	477.25
430.958	472.25
431.18	461.25
431.402	437.25
431.624	436.25
431.846	426.25
432.068	435.25
432.29	429.25
432.512	440.25
432.734	453.25
432.956	449.25
433.178	473.25
433.4	459.25
433.622	447.25
433.844	456.25
434.066	439.25
434.287	455.25
434.509	441.25
434.731	445.25
434.953	458.25
435.175	478.25
435.397	503.25
435.618	522.25
435.84	562.25
436.062	645.25
436.284	733.25
436.505	618.25
436.727	567.25
436.949	501.25
437.17	483.25
437.392	493.25
437.614	501.25
437.835	531.25
438.057	627.25
438.278	737.25
438.5	737.25
438.721	807.25
438.943	755.25
439.165	605.25
439.386	536.25
439.608	550.25
439.829	542.25
440.05	568.25
440.272	618.25
440.493	565.25
440.715	513.25
440.936	490.25
441.158	480.25
441.379	488.25
441.6	497.25
441.822	521.25
442.043	562.25
442.264	641.25
442.486	666.25
442.707	598.25
442.928	533.25
443.149	563.25
443.371	561.25
443.592	598.25
443.813	694.25
444.034	723.25
444.255	617.25
444.476	531.25
444.698	523.25
444.919	527.25
445.14	633.25
445.361	566.25
445.582	565.25
445.803	642.25
446.024	738.25
446.245	745.25
446.466	661.25
446.687	590.25
446.908	539.25
447.129	499.25
447.35	482.25
447.571	485.25
447.792	479.25
448.013	502.25
448.234	519.25
448.455	556.25
448.675	681.25
448.896	793.25
449.117	657.25
449.338	627.25
449.559	747.25
449.779	801.25
450	649.25
450.221	563.25
450.442	515.25
450.662	470.25
450.883	483.25
451.104	482.25
451.324	512.25
451.545	457.25
451.766	455.25
451.986	447.25
452.207	440.25
452.428	422.25
452.648	440.25
452.869	431.25
453.089	422.25
453.31	455.25
453.53	420.25
453.751	421.25
453.971	425.25
454.192	451.25
454.412	439.25
454.633	421.25
454.853	430.25
455.073	446.25
455.294	465.25
455.514	529.25
455.734	519.25
455.955	431.25
456.175	420.25
456.395	411.25
456.616	393.25
456.836	413.25
457.056	404.25
457.276	398.25
457.497	398.25
457.717	397.25
457.937	415.25
458.157	426.25
458.377	421.25
458.598	450.25
458.818	508.25
459.038	598.25
459.258	592.25
459.478	507.25
459.698	451.25
459.918	426.25
460.138	443.25
460.358	423.25
460.578	430.25
460.798	461.25
461.018	443.25
461.238	431.25
461.458	439.25
461.678	409.25
461.898	477.25
462.118	436.25
462.338	454.25
462.558	445.25
462.777	455.25
462.997	463.25
463.217	459.25
463.437	467.25
463.657	454.25
463.876	473.25
464.096	460.25
464.316	441.25
464.536	456.25
464.755	474.25
464.975	467.25
465.195	522.25
465.414	597.25
465.634	527.25
465.854	479.25
466.073	457.25
466.293	473.25
466.512	460.25
466.732	450.25
466.951	451.25
467.171	439.25
467.391	431.25
467.61	470.25
467.829	469.25
468.049	507.25
468.268	570.25
468.488	492.25
468.707	457.25
468.927	457.25
469.146	438.25
469.365	450.25
469.585	447.25
469.804	459.25
470.023	475.25
470.243	448.25
470.462	453.25
470.681	484.25
470.901	477.25
471.12	458.25
471.339	437.25
471.558	443.25
471.777	480.25
471.997	482.25
472.216	569.25
472.435	804.25
472.654	742.25
472.873	572.25
473.092	541.25
473.311	521.25
473.53	503.25
473.749	493.25
473.968	544.25
474.187	614.25
474.406	662.25
474.625	547.25
474.844	506.25
475.063	463.25
475.282	462.25
475.501	470.25
475.72	491.25
475.939	499.25
476.158	484.25
476.377	474.25
476.596	478.25
476.814	466.25
477.033	479.25
477.252	490.25
477.471	487.25
477.69	486.25
477.908	495.25
478.127	499.25
478.346	485.25
478.564	507.25
478.783	506.25
479.002	492.25
479.22	531.25
479.439	525.25
479.658	558.25
479.876	569.25
480.095	557.25
480.313	576.25
480.532	601.25
480.751	601.25
480.969	674.25
481.188	1023.25
481.406	1299.25
481.624	907.25
481.843	753.25
482.061	683.25
482.28	679.25
482.498	603.25
482.717	630.25
482.935	596.25
483.153	601.25
483.372	570.25
483.59	591.25
483.808	578.25
484.027	575.25
484.245	562.25
484.463	558.25
484.681	594.25
484.9	569.25
485.118	569.25
485.336	595.25
485.554	588.25
485.772	584.25
485.99	594.25
486.209	591.25
486.427	595.25
486.645	587.25
486.863	595.25
487.081	630.25
487.299	639.25
487.517	611.25
487.735	607.25
487.953	607.25
488.171	601.25
488.389	610.25
488.607	595.25
488.825	611.25
489.043	609.25
489.261	620.25
489.479	627.25
489.696	619.25
489.914	623.25
490.132	646.25
490.35	633.25
490.568	647.25
490.786	684.25
491.003	692.25
491.221	694.25
491.439	712.25
491.657	733.25
491.874	712.25
492.092	758.25
492.31	751.25
492.527	775.25
492.745	760.25
492.963	782.25
493.18	770.25
493.398	757.25
493.615	783.25
493.833	760.25
494.05	766.25
494.268	768.25
494.485	756.25
494.703	767.25
494.92	754.25
495.138	735.25
495.355	744.25
495.573	731.25
495.79	744.25
496.008	746.25
496.225	750.25
496.442	719.25
496.66	710.25
496.877	731.25
497.094	745.25
497.312	735.25
497.529	735.25
497.746	725.25
497.963	734.25
498.181	775.25
498.398	742.25
498.615	746.25
498.832	757.25
499.049	760.25
499.267	767.25
499.484	760.25
499.701	808.25
499.918	794.25
500.135	825.25
500.352	854.25
500.569	850.25
500.786	883.25
501.003	878.25
501.22	835.25
501.437	837.25
501.654	841.25
501.871	823.25
502.088	822.25
502.305	799.25
502.522	763.25
502.739	749.25
502.956	726.25
503.172	713.25
503.389	711.25
503.606	738.25
503.823	713.25
504.04	705.25
504.256	686.25
504.473	687.25
504.69	693.25
504.907	707.25
505.123	669.25
505.34	678.25
505.557	667.25
505.773	671.25
505.99	666.25
506.207	668.25
506.423	675.25
506.64	667.25
506.856	639.25
507.073	619.25
507.289	641.25
507.506	629.25
507.722	654.25
507.939	676.25
508.155	673.25
508.372	636.25
508.588	638.25
508.805	658.25
509.021	637.25
509.238	653.25
509.454	659.25
509.67	635.25
509.887	669.25
510.103	644.25
510.319	661.25
510.536	749.25
510.752	1251.25
510.968	1026.25
511.184	668.25
511.401	626.25
511.617	670.25
511.833	669.25
512.049	677.25
512.265	683.25
512.481	667.25
512.698	649.25
512.914	661.25
513.13	631.25
513.346	636.25
513.562	638.25
513.778	614.25
513.994	643.25
514.21	620.25
514.426	660.25
514.642	676.25
514.858	721.25
515.074	752.25
515.29	893.25
515.506	1285.25
515.721	1074.25
515.937	766.25
516.153	665.25
516.369	667.25
516.585	645.25
516.801	617.25
517.016	600.25
517.232	621.25
517.448	621.25
517.664	612.25
517.879	588.25
518.095	594.25
518.311	593.25
518.527	611.25
518.742	589.25
518.958	595.25
519.173	611.25
519.389	594.25
519.605	591.25
519.82	620.25
520.036	618.25
520.251	641.25
520.467	661.25
520.682	667.25
520.898	654.25
521.113	699.25
521.329	762.25
521.544	847.25
521.76	1080.25
521.975	1683.25
522.19	1705.25
522.406	939.25
522.621	730.25
522.836	661.25
523.052	611.25
523.267	582.25
523.482	568.25
523.698	586.25
523.913	578.25
524.128	575.25
524.343	535.25
524.559	550.25
524.774	527.25
524.989	527.25
525.204	539.25
525.419	545.25
525.634	517.25
525.849	530.25
526.064	518.25
526.28	504.25
526.495	494.25
526.71	465.25
526.925	502.25
527.14	478.25
527.355	493.25
527.57	501.25
527.785	482.25
527.999	467.25
528.214	464.25
528.429	490.25
528.644	505.25
528.859	495.25
529.074	486.25
529.289	523.25
529.503	583.25
529.718	572.25
529.933	511.25
530.148	490.25
530.363	490.25
530.577	469.25
530.792	479.25
531.007	462.25
531.221	477.25
531.436	476.25
531.651	473.25
531.865	449.25
532.08	478.25
532.295	459.25
532.509	468.25
532.724	451.25
532.938	442.25
533.153	486.25
533.367	455.25
533.582	469.25
533.796	454.25
534.011	457.25
534.225	454.25
534.44	444.25
534.654	467.25
534.868	470.25
535.083	449.25
535.297	462.25
535.511	455.25
535.726	461.25
535.94	455.25
536.154	458.25
536.369	456.25
536.583	444.25
536.797	439.25
537.011	452.25
537.225	454.25
537.44	410.25
537.654	458.25
537.868	444.25
538.082	461.25
538.296	458.25
538.51	437.25
538.724	434.25
538.938	442.25
539.153	446.25
539.367	478.25
539.581	470.25
539.795	445.25
540.009	447.25
540.222	446.25
540.436	453.25
540.65	435.25
540.864	439.25
541.078	425.25
541.292	456.25
541.506	441.25
541.72	443.25
541.934	438.25
542.147	468.25
542.361	429.25
542.575	393.25
542.789	446.25
543.002	444.25
543.216	456.25
543.43	450.25
543.644	456.25
543.857	445.25
544.071	430.25
544.285	449.25
544.498	418.25
544.712	447.25
544.925	431.25
545.139	426.25
545.352	419.25
545.566	410.25
545.779	409.25
545.993	423.25
546.206	422.25
546.42	434.25
546.633	417.25
546.847	417.25
547.06	416.25
547.274	416.25
547.487	430.25
547.7	411.25
547.914	425.25
548.127	405.25
548.34	428.25
548.554	435.25
548.767	395.25
548.98	437.25
549.193	407.25
549.407	406.25
549.62	416.25
549.833	405.25
550.046	386.25
550.259	395.25
550.473	406.25
550.686	393.25
550.899	409.25
551.112	409.25
551.325	383.25
551.538	405.25
551.751	417.25
551.964	391.25
552.177	410.25
552.39	409.25
552.603	401.25
552.816	404.25
553.029	399.25
553.242	410.25
553.455	391.25
553.667	458.25
553.88	430.25
554.093	418.25
554.306	397.25
554.519	410.25
554.732	442.25
554.944	390.25
555.157	401.25
555.37	377.25
555.583	390.25
555.795	397.25
556.008	402.25
556.221	379.25
556.433	383.25
556.646	369.25
556.859	385.25
557.071	381.25
557.284	375.25
557.496	371.25
557.709	380.25
557.921	384.25
558.134	370.25
558.346	386.25
558.559	377.25
558.771	365.25
558.984	380.25
559.196	351.25
559.409	368.25
559.621	371.25
559.833	377.25
560.046	364.25
560.258	355.25
560.47	364.25
560.683	377.25
560.895	363.25
561.107	360.25
561.32	380.25
561.532	389.25
561.744	372.25
561.956	373.25
562.168	391.25
562.381	355.25
562.593	365.25
562.805	387.25
563.017	361.25
563.229	372.25
563.441	366.25
563.653	371.25
563.865	358.25
564.077	360.25
564.289	372.25
564.501	377.25
564.713	379.25
564.925	391.25
565.137	407.25
565.349	409.25
565.561	374.25
565.773	398.25
565.985	387.25
566.197	394.25
566.408	390.25
566.62	401.25
566.832	394.25
567.044	403.25
567.255	396.25
567.467	406.25
567.679	411.25
567.891	423.25
568.102	399.25
568.314	412.25
568.526	389.25
568.737	395.25
568.949	377.25
569.161	380.25
569.372	355.25
569.584	355.25
569.795	344.25
570.007	353.25
570.218	394.25
570.43	409.25
570.641	345.25
570.853	354.25
571.064	345.25
571.276	339.25
571.487	342.25
571.698	342.25
571.91	347.25
572.121	330.25
572.333	349.25
572.544	329.25
572.755	328.25
572.966	343.25
573.178	332.25
573.389	341.25
573.6	316.25
573.811	323.25
574.023	322.25
574.234	310.25
574.445	313.25
574.656	330.25
574.867	314.25
575.078	315.25
575.289	317.25
575.501	318.25
575.712	306.25
575.923	323.25
576.134	322.25
576.345	308.25
576.556	303.25
576.767	294.25
576.978	310.25
577.188	313.25
577.399	316.25
577.61	313.25
577.821	321.25
578.032	332.25
578.243	339.25
578.454	550.25
578.665	435.25
578.875	337.25
579.086	314.25
579.297	301.25
579.508	301.25
579.718	301.25
579.929	303.25
580.14	291.25
580.35	309.25
580.561	291.25
580.772	321.25
580.982	296.25
581.193	281.25
581.403	298.25
581.614	278.25
581.825	300.25
582.035	299.25
582.246	282.25
582.456	296.25
582.667	285.25
582.877	293.25
583.087	293.25
583.298	287.25
583.508	289.25
583.719	300.25
583.929	281.25
584.139	277.25
584.35	288.25
584.56	300.25
584.77	310.25
584.981	313.25
585.191	293.25
585.401	271.25
585.611	290.25
585.821	287.25
586.032	290.25
586.242	279.25
586.452	290.25
586.662	271.25
586.872	278.25
587.082	277.25
587.292	277.25
587.502	288.25
587.713	280.25
587.923	279.25
588.133	279.25
588.343	274.25
588.553	273.25
588.762	290.25
588.972	280.25
589.182	306.25
589.392	289.25
589.602	265.25
589.812	282.25
590.022	287.25
590.232	284.25
590.441	265.25
590.651	294.25
590.861	283.25
591.071	277.25
591.281	275.25
591.49	271.25
591.7	263.25
591.91	296.25
592.119	285.25
592.329	269.25
592.539	286.25
592.748	297.25
592.958	310.25
593.167	278.25
593.377	274.25
593.587	275.25
593.796	282.25
594.006	276.25
594.215	267.25
594.424	273.25
594.634	286.25
594.843	276.25
595.053	276.25
595.262	277.25
595.472	275.25
595.681	279.25
595.89	262.25
596.1	269.25
596.309	263.25
596.518	269.25
596.727	268.25
596.937	268.25
597.146	267.25
597.355	271.25
597.564	255.25
597.774	278.25
597.983	269.25
598.192	248.25
598.401	268.25
598.61	270.25
598.819	260.25
599.028	268.25
599.237	266.25
599.446	269.25
599.655	234.25
599.864	235.25
600.073	259.25
600.282	258.25
600.491	251.25
600.7	240.25
600.909	242.25
601.118	238.25
601.327	256.25
601.536	251.25
601.745	255.25
601.953	255.25
602.162	252.25
602.371	244.25
602.58	241.25
602.789	256.25
602.997	240.25
603.206	247.25
603.415	235.25
603.623	248.25
603.832	238.25
604.041	233.25
604.249	226.25
604.458	246.25
604.666	236.25
604.875	254.25
605.084	248.25
605.292	250.25
605.501	259.25
605.709	255.25
605.918	268.25
606.126	234.25
606.334	258.25
606.543	244.25
606.751	252.25
606.96	244.25
607.168	242.25
607.376	249.25
607.585	237.25
607.793	237.25
608.001	235.25
608.21	226.25
608.418	237.25
608.626	241.25
608.834	256.25
609.043	242.25
609.251	234.25
609.459	234.25
609.667	226.25
609.875	234.25
610.083	225.25
610.291	232.25
610.499	226.25
610.707	221.25
610.916	242.25
611.124	245.25
611.332	217.25
611.54	233.25
611.748	239.25
611.955	233.25
612.163	223.25
612.371	226.25
612.579	243.25
612.787	239.25
612.995	223.25
613.203	255.25
613.411	227.25
613.618	229.25
613.826	230.25
614.034	226.25
614.242	230.25
614.449	208.25
614.657	225.25
614.865	234.25
615.072	234.25
615.28	235.25
615.488	230.25
615.695	229.25
615.903	232.25
616.111	217.25
616.318	233.25
616.526	228.25
616.733	232.25
616.941	236.25
617.148	226.25
617.356	243.25
617.563	237.25
617.771	237.25
617.978	237.25
618.185	209.25
618.393	241.25
618.6	242.25
618.807	226.25
619.015	215.25
619.222	228.25
619.429	232.25
619.637	210.25
619.844	220.25
620.051	221.25
620.258	231.25
620.466	223.25
620.673	208.25
620.88	216.25
621.087	220.25
621.294	208.25
621.501	219.25
621.708	215.25
621.915	210.25
622.122	214.25
622.329	216.25
622.536	206.25
622.743	220.25
622.95	200.25
623.157	203.25
623.364	221.25
623.571	219.25
623.778	204.25
623.985	220.25
624.192	213.25
624.399	206.25
624.606	188.25
624.812	198.25
625.019	222.25
625.226	202.25
625.433	212.25
625.639	215.25
625.846	225.25
626.053	212.25
626.259	196.25
626.466	198.25
626.673	195.25
626.879	190.25
627.086	211.25
627.293	205.25
627.499	211.25
627.706	188.25
627.912	194.25
628.119	202.25
628.325	195.25
628.532	187.25
628.738	190.25
628.945	183.25
629.151	197.25
629.357	171.25
629.564	193.25
629.77	197.25
629.976	194.25
630.183	186.25
630.389	179.25
630.595	198.25
630.802	171.25
631.008	187.25
631.214	170.25
631.42	181.25
631.627	185.25
631.833	181.25
632.039	173.25
632.245	171.25
632.451	198.25
632.657	174.25
632.863	203.25
633.069	200.25
633.275	198.25
633.481	187.25
633.688	168.25
633.893	198.25
634.099	187.25
634.305	185.25
634.511	193.25
634.717	195.25
634.923	161.25
635.129	195.25
635.335	166.25
635.541	189.25
635.747	183.25
635.952	185.25
636.158	195.25
636.364	216.25
636.57	230.25
636.775	205.25
636.981	220.25
637.187	194.25
637.392	206.25
637.598	199.25
637.804	186.25
638.009	175.25
638.215	181.25
638.421	175.25
638.626	190.25
638.832	185.25
639.037	169.25
639.243	159.25
639.448	172.25
639.654	191.25
639.859	160.25
640.065	165.25
640.27	173.25
640.475	170.25
640.681	179.25
640.886	168.25
641.091	174.25
641.297	170.25
641.502	175.25
641.707	196.25
641.913	175.25
642.118	165.25
642.323	179.25
642.528	168.25
642.733	155.25
642.939	167.25
643.144	174.25
643.349	151.25
643.554	171.25
643.759	162.25
643.964	166.25
644.169	174.25
644.374	167.25
644.579	168.25
644.784	161.25
644.989	158.25
645.194	158.25
645.399	152.25
645.604	144.25
645.809	159.25
646.014	148.25
646.219	169.25
646.423	158.25
646.628	165.25
646.833	175.25
647.038	154.25
647.243	161.25
647.447	162.25
647.652	168.25
647.857	172.25
648.062	166.25
648.266	158.25
648.471	161.25
648.676	162.25
648.88	153.25
649.085	156.25
649.289	165.25
649.494	165.25
649.698	169.25
649.903	179.25
650.107	161.25
650.312	151.25
650.516	157.25
650.721	155.25
650.925	143.25
651.13	140.25
651.334	143.25
651.539	142.25
651.743	161.25
651.947	142.25
652.152	143.25
652.356	133.25
652.56	151.25
652.764	132.25
652.969	130.25
653.173	142.25
653.377	135.25
653.581	149.25
653.785	123.25
653.99	137.25
654.194	132.25
654.398	130.25
654.602	142.25
654.806	129.25
655.01	139.25
655.214	142.25
655.418	124.25
655.622	126.25
655.826	149.25
656.03	128.25
656.234	134.25
656.438	133.25
656.642	128.25
656.846	133.25
657.049	127.25
657.253	123.25
657.457	111.25
657.661	121.25
657.865	122.25
658.068	104.25
658.272	113.25
658.476	111.25
658.68	98.25
658.883	102.25
659.087	98.25
659.291	92.25
659.494	107.25
659.698	100.25
659.901	98.25
660.105	106.25
660.309	99.25
660.512	100.25
660.716	109.25
660.919	92.25
661.123	97.25
661.326	88.25
661.53	80.25
661.733	83.25
661.936	95.25
662.14	90.25
662.343	77.25
662.546	86.25
662.75	81.25
662.953	101.25
663.156	83.25
663.36	87.25
663.563	75.25
663.766	77.25
663.969	84.25
664.173	91.25
664.376	81.25
664.579	69.25
664.782	81.25
664.985	84.25
665.188	77.25
665.391	90.25
665.594	86.25
665.797	73.25
666	93.25
666.203	83.25
666.406	93.25
666.609	88.25
666.812	90.25
667.015	70.25
667.218	79.25
667.421	69.25
667.624	87.25
667.827	83.25
668.03	98.25
668.232	82.25
668.435	83.25
668.638	81.25
668.841	68.25
669.043	83.25
669.246	90.25
669.449	84.25
669.651	92.25
669.854	97.25
670.057	94.25
670.259	78.25
670.462	93.25
670.665	97.25
670.867	71.25
671.07	83.25
671.272	93.25
671.475	85.25
671.677	85.25
671.88	81.25
672.082	92.25
672.284	83.25
672.487	91.25
672.689	79.25
672.892	80.25
