Data from 1986.PennyLincolnUp.Lamp.En5.5.200Scan.071819.P2_HRD10591_17-11-01-974.txt Node
Date: Thu Jul 18 17:11:01 EDT 2019
User: cochatt
Spectrometer: HR+D1059
Trigger mode: 1
Integration Time (sec): 1.000000E-1
Scans to average: 1
Electric dark correction enabled: true
Nonlinearity correction enabled: false
Boxcar width: 0
XAxis mode: Wavelengths
Number of Pixels in Spectrum: 2048
>>>>>Begin Spectral Data<<<<<
223.165	-9.75
223.4	-9.75
223.635	-9.75
223.869	-23.75
224.104	-17.75
224.338	-7.75
224.573	-18.75
224.808	-15.75
225.042	-19.75
225.277	-0.75
225.511	2.25
225.746	4.25
225.98	10.25
226.215	20.25
226.449	10.25
226.683	16.25
226.918	23.25
227.152	27.25
227.387	33.25
227.621	26.25
227.856	41.25
228.09	33.25
228.324	55.25
228.559	53.25
228.793	61.25
229.027	97.25
229.262	108.25
229.496	103.25
229.73	132.25
229.964	146.25
230.199	131.25
230.433	110.25
230.667	114.25
230.901	110.25
231.136	106.25
231.37	113.25
231.604	111.25
231.838	124.25
232.072	114.25
232.306	127.25
232.541	111.25
232.775	112.25
233.009	105.25
233.243	110.25
233.477	114.25
233.711	103.25
233.945	118.25
234.179	93.25
234.413	119.25
234.647	116.25
234.881	112.25
235.115	106.25
235.349	116.25
235.583	114.25
235.817	122.25
236.051	116.25
236.285	114.25
236.519	108.25
236.753	128.25
236.987	138.25
237.221	191.25
237.455	249.25
237.689	187.25
237.922	142.25
238.156	135.25
238.39	126.25
238.624	130.25
238.858	120.25
239.091	117.25
239.325	120.25
239.559	124.25
239.793	129.25
240.027	142.25
240.26	149.25
240.494	151.25
240.728	148.25
240.961	163.25
241.195	156.25
241.429	144.25
241.662	135.25
241.896	137.25
242.13	125.25
242.363	116.25
242.597	122.25
242.83	139.25
243.064	130.25
243.298	135.25
243.531	138.25
243.765	136.25
243.998	136.25
244.232	128.25
244.465	128.25
244.699	146.25
244.932	136.25
245.166	137.25
245.399	154.25
245.633	145.25
245.866	134.25
246.099	145.25
246.333	153.25
246.566	141.25
246.8	161.25
247.033	161.25
247.266	149.25
247.5	152.25
247.733	172.25
247.966	169.25
248.2	176.25
248.433	161.25
248.666	163.25
248.899	176.25
249.133	212.25
249.366	226.25
249.599	208.25
249.832	182.25
250.066	183.25
250.299	185.25
250.532	201.25
250.765	222.25
250.998	259.25
251.231	246.25
251.465	235.25
251.698	217.25
251.931	181.25
252.164	208.25
252.397	200.25
252.63	220.25
252.863	207.25
253.096	222.25
253.329	218.25
253.562	240.25
253.795	240.25
254.028	232.25
254.261	240.25
254.494	237.25
254.727	270.25
254.96	293.25
255.193	289.25
255.426	250.25
255.659	272.25
255.892	236.25
256.124	243.25
256.357	256.25
256.59	244.25
256.823	239.25
257.056	227.25
257.289	238.25
257.521	216.25
257.754	210.25
257.987	205.25
258.22	225.25
258.452	211.25
258.685	205.25
258.918	211.25
259.151	210.25
259.383	216.25
259.616	228.25
259.849	220.25
260.081	245.25
260.314	251.25
260.547	276.25
260.779	256.25
261.012	231.25
261.244	239.25
261.477	229.25
261.71	210.25
261.942	232.25
262.175	240.25
262.407	228.25
262.64	220.25
262.872	202.25
263.105	207.25
263.337	215.25
263.57	197.25
263.802	201.25
264.035	193.25
264.267	202.25
264.499	200.25
264.732	225.25
264.964	201.25
265.197	219.25
265.429	205.25
265.661	194.25
265.894	201.25
266.126	210.25
266.358	219.25
266.591	224.25
266.823	215.25
267.055	208.25
267.287	217.25
267.52	215.25
267.752	214.25
267.984	223.25
268.216	226.25
268.448	221.25
268.681	231.25
268.913	236.25
269.145	260.25
269.377	263.25
269.609	258.25
269.841	269.25
270.073	277.25
270.306	303.25
270.538	310.25
270.77	319.25
271.002	321.25
271.234	284.25
271.466	301.25
271.698	319.25
271.93	310.25
272.162	324.25
272.394	325.25
272.626	304.25
272.858	295.25
273.09	285.25
273.322	278.25
273.553	248.25
273.785	255.25
274.017	254.25
274.249	244.25
274.481	270.25
274.713	260.25
274.945	264.25
275.176	260.25
275.408	259.25
275.64	252.25
275.872	266.25
276.104	258.25
276.335	269.25
276.567	258.25
276.799	265.25
277.031	307.25
277.262	317.25
277.494	321.25
277.726	305.25
277.957	290.25
278.189	262.25
278.421	247.25
278.652	253.25
278.884	246.25
279.115	244.25
279.347	257.25
279.579	264.25
279.81	233.25
280.042	260.25
280.273	264.25
280.505	251.25
280.736	245.25
280.968	269.25
281.199	242.25
281.431	252.25
281.662	241.25
281.894	241.25
282.125	245.25
282.356	271.25
282.588	309.25
282.819	303.25
283.051	280.25
283.282	264.25
283.513	244.25
283.745	255.25
283.976	256.25
284.207	259.25
284.439	267.25
284.67	238.25
284.901	257.25
285.132	251.25
285.364	258.25
285.595	260.25
285.826	242.25
286.057	261.25
286.288	266.25
286.52	260.25
286.751	254.25
286.982	260.25
287.213	255.25
287.444	264.25
287.675	238.25
287.906	271.25
288.138	267.25
288.369	282.25
288.6	276.25
288.831	265.25
289.062	278.25
289.293	279.25
289.524	261.25
289.755	256.25
289.986	276.25
290.217	248.25
290.448	283.25
290.679	264.25
290.91	241.25
291.141	257.25
291.371	277.25
291.602	265.25
291.833	264.25
292.064	264.25
292.295	243.25
292.526	258.25
292.757	257.25
292.987	255.25
293.218	263.25
293.449	269.25
293.68	246.25
293.91	258.25
294.141	253.25
294.372	252.25
294.603	257.25
294.833	256.25
295.064	258.25
295.295	269.25
295.525	256.25
295.756	284.25
295.987	292.25
296.217	323.25
296.448	323.25
296.679	281.25
296.909	276.25
297.14	270.25
297.37	280.25
297.601	258.25
297.831	267.25
298.062	278.25
298.292	265.25
298.523	260.25
298.753	287.25
298.984	266.25
299.214	262.25
299.445	264.25
299.675	287.25
299.905	287.25
300.136	278.25
300.366	268.25
300.597	286.25
300.827	288.25
301.057	285.25
301.288	296.25
301.518	304.25
301.748	290.25
301.979	295.25
302.209	294.25
302.439	288.25
302.669	305.25
302.9	312.25
303.13	304.25
303.36	299.25
303.59	288.25
303.82	320.25
304.051	305.25
304.281	281.25
304.511	299.25
304.741	287.25
304.971	309.25
305.201	290.25
305.431	289.25
305.661	293.25
305.891	307.25
306.121	286.25
306.352	294.25
306.582	322.25
306.812	301.25
307.042	294.25
307.272	306.25
307.502	301.25
307.731	302.25
307.961	287.25
308.191	290.25
308.421	308.25
308.651	303.25
308.881	323.25
309.111	317.25
309.341	312.25
309.571	314.25
309.8	329.25
310.03	349.25
310.26	364.25
310.49	355.25
310.72	361.25
310.949	369.25
311.179	390.25
311.409	372.25
311.639	355.25
311.868	361.25
312.098	359.25
312.328	359.25
312.557	386.25
312.787	398.25
313.017	392.25
313.246	365.25
313.476	355.25
313.706	351.25
313.935	359.25
314.165	375.25
314.394	385.25
314.624	388.25
314.853	352.25
315.083	368.25
315.312	366.25
315.542	352.25
315.771	348.25
316.001	338.25
316.23	335.25
316.46	346.25
316.689	345.25
316.919	369.25
317.148	362.25
317.377	371.25
317.607	354.25
317.836	350.25
318.065	351.25
318.295	345.25
318.524	346.25
318.753	351.25
318.983	326.25
319.212	364.25
319.441	368.25
319.67	354.25
319.9	350.25
320.129	321.25
320.358	352.25
320.587	365.25
320.816	359.25
321.046	374.25
321.275	376.25
321.504	380.25
321.733	398.25
321.962	387.25
322.191	405.25
322.42	417.25
322.649	448.25
322.878	438.25
323.108	444.25
323.337	478.25
323.566	508.25
323.795	549.25
324.024	592.25
324.253	729.25
324.482	1047.25
324.71	1590.25
324.939	2260.25
325.168	2034.25
325.397	1086.25
325.626	697.25
325.855	579.25
326.084	540.25
326.313	514.25
326.542	512.25
326.77	571.25
326.999	680.25
327.228	940.25
327.457	1358.25
327.686	1768.25
327.914	1205.25
328.143	786.25
328.372	690.25
328.6	634.25
328.829	599.25
329.058	612.25
329.287	637.25
329.515	586.25
329.744	550.25
329.972	530.25
330.201	564.25
330.43	654.25
330.658	674.25
330.887	672.25
331.115	600.25
331.344	525.25
331.572	477.25
331.801	497.25
332.03	478.25
332.258	447.25
332.486	447.25
332.715	433.25
332.943	448.25
333.172	435.25
333.4	437.25
333.629	446.25
333.857	446.25
334.085	474.25
334.314	524.25
334.542	558.25
334.771	600.25
334.999	514.25
335.227	468.25
335.455	427.25
335.684	392.25
335.912	428.25
336.14	398.25
336.369	383.25
336.597	403.25
336.825	412.25
337.053	411.25
337.281	382.25
337.51	384.25
337.738	403.25
337.966	384.25
338.194	408.25
338.422	406.25
338.65	399.25
338.878	386.25
339.106	378.25
339.334	381.25
339.562	393.25
339.79	370.25
340.018	385.25
340.246	391.25
340.474	385.25
340.702	398.25
340.93	389.25
341.158	400.25
341.386	393.25
341.614	409.25
341.842	384.25
342.07	384.25
342.298	383.25
342.526	377.25
342.754	342.25
342.981	368.25
343.209	350.25
343.437	364.25
343.665	350.25
343.893	370.25
344.12	384.25
344.348	361.25
344.576	374.25
344.804	419.25
345.031	407.25
345.259	416.25
345.487	409.25
345.714	380.25
345.942	398.25
346.17	378.25
346.397	359.25
346.625	382.25
346.853	372.25
347.08	375.25
347.308	382.25
347.535	376.25
347.763	380.25
347.99	386.25
348.218	389.25
348.445	402.25
348.673	400.25
348.9	373.25
349.128	356.25
349.355	349.25
349.583	367.25
349.81	368.25
350.037	347.25
350.265	361.25
350.492	359.25
350.72	363.25
350.947	369.25
351.174	375.25
351.402	367.25
351.629	376.25
351.856	370.25
352.083	398.25
352.311	394.25
352.538	409.25
352.765	413.25
352.992	390.25
353.22	374.25
353.447	391.25
353.674	370.25
353.901	356.25
354.128	366.25
354.355	324.25
354.583	328.25
354.81	343.25
355.037	366.25
355.264	332.25
355.491	321.25
355.718	336.25
355.945	337.25
356.172	322.25
356.399	326.25
356.626	336.25
356.853	341.25
357.08	332.25
357.307	337.25
357.534	322.25
357.761	329.25
357.988	330.25
358.215	348.25
358.441	341.25
358.668	350.25
358.895	340.25
359.122	353.25
359.349	359.25
359.576	369.25
359.802	378.25
360.029	434.25
360.256	455.25
360.483	432.25
360.709	372.25
360.936	366.25
361.163	368.25
361.39	385.25
361.616	387.25
361.843	380.25
362.07	381.25
362.296	386.25
362.523	354.25
362.749	350.25
362.976	356.25
363.203	366.25
363.429	357.25
363.656	355.25
363.882	356.25
364.109	354.25
364.335	361.25
364.562	341.25
364.788	346.25
365.015	339.25
365.241	358.25
365.468	361.25
365.694	358.25
365.92	368.25
366.147	374.25
366.373	345.25
366.599	338.25
366.826	341.25
367.052	329.25
367.278	336.25
367.505	344.25
367.731	351.25
367.957	349.25
368.184	353.25
368.41	345.25
368.636	348.25
368.862	361.25
369.089	344.25
369.315	364.25
369.541	351.25
369.767	344.25
369.993	344.25
370.219	345.25
370.445	327.25
370.672	329.25
370.898	341.25
371.124	332.25
371.35	337.25
371.576	338.25
371.802	337.25
372.028	330.25
372.254	337.25
372.48	339.25
372.706	329.25
372.932	337.25
373.158	352.25
373.384	348.25
373.61	341.25
373.835	332.25
374.061	340.25
374.287	335.25
374.513	308.25
374.739	340.25
374.965	337.25
375.191	321.25
375.416	348.25
375.642	350.25
375.868	336.25
376.094	307.25
376.319	332.25
376.545	327.25
376.771	324.25
376.997	337.25
377.222	332.25
377.448	341.25
377.674	320.25
377.899	338.25
378.125	332.25
378.35	325.25
378.576	343.25
378.802	319.25
379.027	329.25
379.253	330.25
379.478	322.25
379.704	347.25
379.929	339.25
380.155	319.25
380.38	337.25
380.606	335.25
380.831	326.25
381.057	344.25
381.282	328.25
381.507	336.25
381.733	317.25
381.958	336.25
382.184	336.25
382.409	327.25
382.634	327.25
382.86	333.25
383.085	320.25
383.31	346.25
383.535	336.25
383.761	346.25
383.986	346.25
384.211	334.25
384.436	353.25
384.662	322.25
384.887	348.25
385.112	350.25
385.337	343.25
385.562	347.25
385.787	330.25
386.013	358.25
386.238	348.25
386.463	361.25
386.688	350.25
386.913	327.25
387.138	367.25
387.363	334.25
387.588	360.25
387.813	351.25
388.038	364.25
388.263	328.25
388.488	353.25
388.713	366.25
388.938	360.25
389.163	354.25
389.387	335.25
389.612	327.25
389.837	337.25
390.062	352.25
390.287	350.25
390.512	329.25
390.736	356.25
390.961	359.25
391.186	355.25
391.411	343.25
391.636	346.25
391.86	346.25
392.085	344.25
392.31	342.25
392.534	359.25
392.759	344.25
392.984	337.25
393.208	331.25
393.433	342.25
393.658	347.25
393.882	326.25
394.107	361.25
394.331	369.25
394.556	349.25
394.78	353.25
395.005	350.25
395.229	360.25
395.454	368.25
395.678	369.25
395.903	372.25
396.127	382.25
396.352	388.25
396.576	375.25
396.801	369.25
397.025	338.25
397.249	372.25
397.474	372.25
397.698	374.25
397.922	386.25
398.147	405.25
398.371	392.25
398.595	377.25
398.82	367.25
399.044	401.25
399.268	374.25
399.492	404.25
399.717	433.25
399.941	442.25
400.165	452.25
400.389	493.25
400.613	450.25
400.837	415.25
401.062	403.25
401.286	394.25
401.51	390.25
401.734	389.25
401.958	373.25
402.182	389.25
402.406	424.25
402.63	388.25
402.854	394.25
403.078	388.25
403.302	404.25
403.526	414.25
403.75	412.25
403.974	411.25
404.198	392.25
404.422	438.25
404.645	392.25
404.869	436.25
405.093	445.25
405.317	514.25
405.541	539.25
405.765	501.25
405.988	467.25
406.212	470.25
406.436	489.25
406.66	508.25
406.883	470.25
407.107	472.25
407.331	516.25
407.555	556.25
407.778	562.25
408.002	497.25
408.226	479.25
408.449	470.25
408.673	464.25
408.896	490.25
409.12	529.25
409.344	509.25
409.567	447.25
409.791	412.25
410.014	404.25
410.238	420.25
410.461	424.25
410.685	432.25
410.908	436.25
411.132	441.25
411.355	508.25
411.578	462.25
411.802	422.25
412.025	418.25
412.249	419.25
412.472	439.25
412.695	496.25
412.919	486.25
413.142	458.25
413.365	428.25
413.589	407.25
413.812	403.25
414.035	386.25
414.258	380.25
414.482	394.25
414.705	389.25
414.928	381.25
415.151	382.25
415.374	410.25
415.597	372.25
415.821	397.25
416.044	383.25
416.267	393.25
416.49	415.25
416.713	380.25
416.936	379.25
417.159	390.25
417.382	407.25
417.605	420.25
417.828	417.25
418.051	426.25
418.274	410.25
418.497	411.25
418.72	388.25
418.943	405.25
419.166	407.25
419.389	403.25
419.611	421.25
419.834	434.25
420.057	436.25
420.28	433.25
420.503	444.25
420.726	434.25
420.948	440.25
421.171	469.25
421.394	508.25
421.617	455.25
421.839	426.25
422.062	445.25
422.285	441.25
422.507	475.25
422.73	585.25
422.953	535.25
423.175	479.25
423.398	440.25
423.621	445.25
423.843	466.25
424.066	458.25
424.288	451.25
424.511	471.25
424.733	530.25
424.956	608.25
425.178	566.25
425.401	572.25
425.623	591.25
425.846	513.25
426.068	460.25
426.291	458.25
426.513	469.25
426.735	495.25
426.958	504.25
427.18	586.25
427.402	713.25
427.625	800.25
427.847	737.25
428.069	626.25
428.292	553.25
428.514	498.25
428.736	486.25
428.958	443.25
429.181	441.25
429.403	445.25
429.625	457.25
429.847	508.25
430.069	534.25
430.292	548.25
430.514	457.25
430.736	426.25
430.958	428.25
431.18	419.25
431.402	404.25
431.624	404.25
431.846	397.25
432.068	403.25
432.29	396.25
432.512	418.25
432.734	389.25
432.956	416.25
433.178	407.25
433.4	413.25
433.622	423.25
433.844	399.25
434.066	395.25
434.287	373.25
434.509	399.25
434.731	401.25
434.953	415.25
435.175	432.25
435.397	460.25
435.618	461.25
435.84	496.25
436.062	599.25
436.284	653.25
436.505	545.25
436.727	497.25
436.949	464.25
437.17	436.25
437.392	450.25
437.614	452.25
437.835	489.25
438.057	596.25
438.278	687.25
438.5	665.25
438.721	729.25
438.943	692.25
439.165	553.25
439.386	506.25
439.608	497.25
439.829	484.25
440.05	516.25
440.272	572.25
440.493	518.25
440.715	474.25
440.936	448.25
441.158	447.25
441.379	426.25
441.6	436.25
441.822	481.25
442.043	498.25
442.264	570.25
442.486	633.25
442.707	533.25
442.928	477.25
443.149	480.25
443.371	506.25
443.592	552.25
443.813	640.25
444.034	674.25
444.255	589.25
444.476	490.25
444.698	478.25
444.919	479.25
445.14	536.25
445.361	520.25
445.582	513.25
445.803	566.25
446.024	672.25
446.245	675.25
446.466	618.25
446.687	521.25
446.908	474.25
447.129	480.25
447.35	421.25
447.571	433.25
447.792	440.25
448.013	455.25
448.234	473.25
448.455	517.25
448.675	618.25
448.896	693.25
449.117	615.25
449.338	590.25
449.559	679.25
449.779	748.25
450	622.25
450.221	492.25
450.442	472.25
450.662	444.25
450.883	408.25
451.104	459.25
451.324	445.25
451.545	444.25
451.766	416.25
451.986	396.25
452.207	403.25
452.428	394.25
452.648	389.25
452.869	402.25
453.089	394.25
453.31	420.25
453.53	412.25
453.751	401.25
453.971	406.25
454.192	422.25
454.412	402.25
454.633	378.25
454.853	414.25
455.073	393.25
455.294	418.25
455.514	479.25
455.734	461.25
455.955	418.25
456.175	388.25
456.395	376.25
456.616	362.25
456.836	350.25
457.056	355.25
457.276	344.25
457.497	368.25
457.717	358.25
457.937	371.25
458.157	361.25
458.377	375.25
458.598	401.25
458.818	446.25
459.038	570.25
459.258	568.25
459.478	449.25
459.698	414.25
459.918	392.25
460.138	392.25
460.358	400.25
460.578	394.25
460.798	400.25
461.018	400.25
461.238	401.25
461.458	389.25
461.678	383.25
461.898	375.25
462.118	392.25
462.338	387.25
462.558	400.25
462.777	387.25
462.997	388.25
463.217	386.25
463.437	392.25
463.657	407.25
463.876	386.25
464.096	398.25
464.316	417.25
464.536	403.25
464.755	416.25
464.975	425.25
465.195	485.25
465.414	554.25
465.634	492.25
465.854	436.25
466.073	401.25
466.293	400.25
466.512	390.25
466.732	394.25
466.951	371.25
467.171	398.25
467.391	409.25
467.61	409.25
467.829	415.25
468.049	434.25
468.268	423.25
468.488	408.25
468.707	391.25
468.927	383.25
469.146	385.25
469.365	372.25
469.585	375.25
469.804	399.25
470.023	417.25
470.243	406.25
470.462	409.25
470.681	436.25
470.901	418.25
471.12	401.25
471.339	396.25
471.558	392.25
471.777	402.25
471.997	391.25
472.216	411.25
472.435	464.25
472.654	470.25
472.873	436.25
473.092	391.25
473.311	402.25
473.53	393.25
473.749	422.25
473.968	451.25
474.187	585.25
474.406	611.25
474.625	463.25
474.844	440.25
475.063	415.25
475.282	413.25
475.501	403.25
475.72	402.25
475.939	412.25
476.158	431.25
476.377	392.25
476.596	392.25
476.814	423.25
477.033	426.25
477.252	431.25
477.471	421.25
477.69	428.25
477.908	430.25
478.127	429.25
478.346	430.25
478.564	440.25
478.783	432.25
479.002	439.25
479.22	437.25
479.439	455.25
479.658	470.25
479.876	477.25
480.095	485.25
480.313	508.25
480.532	492.25
480.751	482.25
480.969	512.25
481.188	587.25
481.406	722.25
481.624	580.25
481.843	533.25
482.061	497.25
482.28	493.25
482.498	503.25
482.717	486.25
482.935	484.25
483.153	498.25
483.372	479.25
483.59	454.25
483.808	467.25
484.027	481.25
484.245	477.25
484.463	465.25
484.681	480.25
484.9	487.25
485.118	503.25
485.336	488.25
485.554	508.25
485.772	506.25
485.99	486.25
486.209	489.25
486.427	496.25
486.645	513.25
486.863	528.25
487.081	534.25
487.299	526.25
487.517	537.25
487.735	530.25
487.953	509.25
488.171	522.25
488.389	512.25
488.607	516.25
488.825	510.25
489.043	530.25
489.261	521.25
489.479	523.25
489.696	522.25
489.914	528.25
490.132	544.25
490.35	545.25
490.568	549.25
490.786	568.25
491.003	575.25
491.221	601.25
491.439	599.25
491.657	595.25
491.874	601.25
492.092	608.25
492.31	609.25
492.527	615.25
492.745	624.25
492.963	596.25
493.18	630.25
493.398	638.25
493.615	624.25
493.833	634.25
494.05	612.25
494.268	628.25
494.485	628.25
494.703	611.25
494.92	625.25
495.138	632.25
495.355	614.25
495.573	627.25
495.79	629.25
496.008	623.25
496.225	620.25
496.442	613.25
496.66	634.25
496.877	625.25
497.094	625.25
497.312	618.25
497.529	630.25
497.746	626.25
497.963	639.25
498.181	650.25
498.398	629.25
498.615	646.25
498.832	681.25
499.049	666.25
499.267	657.25
499.484	677.25
499.701	693.25
499.918	703.25
500.135	705.25
500.352	705.25
500.569	712.25
500.786	748.25
501.003	726.25
501.22	725.25
501.437	710.25
501.654	719.25
501.871	734.25
502.088	719.25
502.305	702.25
502.522	693.25
502.739	655.25
502.956	650.25
503.172	650.25
503.389	625.25
503.606	628.25
503.823	636.25
504.04	624.25
504.256	605.25
504.473	614.25
504.69	622.25
504.907	621.25
505.123	616.25
505.34	592.25
505.557	591.25
505.773	595.25
505.99	590.25
506.207	610.25
506.423	597.25
506.64	612.25
506.856	589.25
507.073	592.25
507.289	596.25
507.506	608.25
507.722	605.25
507.939	662.25
508.155	610.25
508.372	588.25
508.588	583.25
508.805	588.25
509.021	572.25
509.238	608.25
509.454	596.25
509.67	609.25
509.887	599.25
510.103	586.25
510.319	608.25
510.536	707.25
510.752	1264.25
510.968	1038.25
511.184	635.25
511.401	591.25
511.617	566.25
511.833	570.25
512.049	572.25
512.265	561.25
512.481	550.25
512.698	559.25
512.914	526.25
513.13	572.25
513.346	554.25
513.562	562.25
513.778	561.25
513.994	567.25
514.21	623.25
514.426	628.25
514.642	702.25
514.858	683.25
515.074	713.25
515.29	945.25
515.506	1400.25
515.721	1133.25
515.937	730.25
516.153	629.25
516.369	616.25
516.585	602.25
516.801	573.25
517.016	562.25
517.232	561.25
517.448	580.25
517.664	560.25
517.879	568.25
518.095	560.25
518.311	563.25
518.527	565.25
518.742	563.25
518.958	527.25
519.173	525.25
519.389	545.25
519.605	572.25
519.82	573.25
520.036	578.25
520.251	618.25
520.467	618.25
520.682	636.25
520.898	654.25
521.113	685.25
521.329	735.25
521.544	841.25
521.76	1082.25
521.975	1906.25
522.19	1897.25
522.406	934.25
522.621	688.25
522.836	600.25
523.052	589.25
523.267	539.25
523.482	547.25
523.698	537.25
523.913	529.25
524.128	506.25
524.343	509.25
524.559	497.25
524.774	473.25
524.989	478.25
525.204	496.25
525.419	478.25
525.634	477.25
525.849	493.25
526.064	475.25
526.28	460.25
526.495	443.25
526.71	466.25
526.925	446.25
527.14	454.25
527.355	429.25
527.57	439.25
527.785	436.25
527.999	441.25
528.214	442.25
528.429	437.25
528.644	437.25
528.859	453.25
529.074	439.25
529.289	489.25
529.503	573.25
529.718	552.25
529.933	498.25
530.148	488.25
530.363	458.25
530.577	452.25
530.792	425.25
531.007	428.25
531.221	430.25
531.436	398.25
531.651	412.25
531.865	418.25
532.08	403.25
532.295	425.25
532.509	424.25
532.724	401.25
532.938	422.25
533.153	401.25
533.367	414.25
533.582	413.25
533.796	397.25
534.011	395.25
534.225	404.25
534.44	405.25
534.654	401.25
534.868	423.25
535.083	403.25
535.297	395.25
535.511	409.25
535.726	443.25
535.94	404.25
536.154	412.25
536.369	435.25
536.583	415.25
536.797	400.25
537.011	399.25
537.225	404.25
537.44	398.25
537.654	399.25
537.868	387.25
538.082	388.25
538.296	402.25
538.51	401.25
538.724	416.25
538.938	386.25
539.153	410.25
539.367	423.25
539.581	406.25
539.795	376.25
540.009	401.25
540.222	409.25
540.436	394.25
540.65	415.25
540.864	414.25
541.078	400.25
541.292	404.25
541.506	397.25
541.72	390.25
541.934	394.25
542.147	394.25
542.361	400.25
542.575	385.25
542.789	382.25
543.002	387.25
543.216	399.25
543.43	394.25
543.644	392.25
543.857	390.25
544.071	395.25
544.285	405.25
544.498	409.25
544.712	370.25
544.925	384.25
545.139	398.25
545.352	393.25
545.566	402.25
545.779	372.25
545.993	378.25
546.206	389.25
546.42	380.25
546.633	360.25
546.847	368.25
547.06	383.25
547.274	379.25
547.487	374.25
547.7	374.25
547.914	372.25
548.127	358.25
548.34	372.25
548.554	365.25
548.767	356.25
548.98	380.25
549.193	368.25
549.407	361.25
549.62	376.25
549.833	369.25
550.046	359.25
550.259	372.25
550.473	363.25
550.686	356.25
550.899	364.25
551.112	354.25
551.325	380.25
551.538	348.25
551.751	350.25
551.964	351.25
552.177	365.25
552.39	372.25
552.603	369.25
552.816	369.25
553.029	361.25
553.242	352.25
553.455	380.25
553.667	379.25
553.88	377.25
554.093	384.25
554.306	376.25
554.519	365.25
554.732	360.25
554.944	375.25
555.157	364.25
555.37	356.25
555.583	350.25
555.795	345.25
556.008	340.25
556.221	344.25
556.433	351.25
556.646	349.25
556.859	333.25
557.071	346.25
557.284	337.25
557.496	332.25
557.709	340.25
557.921	343.25
558.134	329.25
558.346	354.25
558.559	323.25
558.771	319.25
558.984	335.25
559.196	322.25
559.409	320.25
559.621	337.25
559.833	313.25
560.046	327.25
560.258	320.25
560.47	325.25
560.683	308.25
560.895	313.25
561.107	329.25
561.32	310.25
561.532	316.25
561.744	330.25
561.956	335.25
562.168	327.25
562.381	319.25
562.593	333.25
562.805	317.25
563.017	339.25
563.229	316.25
563.441	327.25
563.653	339.25
563.865	336.25
564.077	320.25
564.289	324.25
564.501	330.25
564.713	347.25
564.925	330.25
565.137	333.25
565.349	336.25
565.561	329.25
565.773	330.25
565.985	329.25
566.197	341.25
566.408	340.25
566.62	358.25
566.832	355.25
567.044	352.25
567.255	368.25
567.467	361.25
567.679	393.25
567.891	380.25
568.102	371.25
568.314	354.25
568.526	361.25
568.737	349.25
568.949	349.25
569.161	333.25
569.372	343.25
569.584	324.25
569.795	321.25
570.007	327.25
570.218	374.25
570.43	368.25
570.641	311.25
570.853	302.25
571.064	290.25
571.276	320.25
571.487	289.25
571.698	305.25
571.91	295.25
572.121	314.25
572.333	309.25
572.544	310.25
572.755	297.25
572.966	290.25
573.178	278.25
573.389	293.25
573.6	293.25
573.811	313.25
574.023	302.25
574.234	293.25
574.445	301.25
574.656	273.25
574.867	295.25
575.078	305.25
575.289	280.25
575.501	285.25
575.712	278.25
575.923	286.25
576.134	273.25
576.345	291.25
576.556	283.25
576.767	280.25
576.978	274.25
577.188	273.25
577.399	272.25
577.61	288.25
577.821	289.25
578.032	263.25
578.243	337.25
578.454	587.25
578.665	425.25
578.875	295.25
579.086	287.25
579.297	287.25
579.508	262.25
579.718	272.25
579.929	248.25
580.14	264.25
580.35	273.25
580.561	265.25
580.772	257.25
580.982	259.25
581.193	257.25
581.403	254.25
581.614	287.25
581.825	262.25
582.035	249.25
582.246	260.25
582.456	269.25
582.667	264.25
582.877	266.25
583.087	250.25
583.298	253.25
583.508	264.25
583.719	254.25
583.929	262.25
584.139	247.25
584.35	255.25
584.56	241.25
584.77	258.25
584.981	251.25
585.191	262.25
585.401	241.25
585.611	258.25
585.821	244.25
586.032	238.25
586.242	242.25
586.452	246.25
586.662	245.25
586.872	236.25
587.082	255.25
587.292	260.25
587.502	243.25
587.713	260.25
587.923	257.25
588.133	247.25
588.343	240.25
588.553	244.25
588.762	255.25
588.972	254.25
589.182	245.25
589.392	254.25
589.602	246.25
589.812	256.25
590.022	255.25
590.232	255.25
590.441	229.25
590.651	240.25
590.861	263.25
591.071	256.25
591.281	246.25
591.49	228.25
591.7	244.25
591.91	269.25
592.119	237.25
592.329	234.25
592.539	255.25
592.748	257.25
592.958	260.25
593.167	243.25
593.377	263.25
593.587	270.25
593.796	267.25
594.006	249.25
594.215	255.25
594.424	249.25
594.634	254.25
594.843	265.25
595.053	231.25
595.262	248.25
595.472	244.25
595.681	231.25
595.89	242.25
596.1	233.25
596.309	236.25
596.518	240.25
596.727	249.25
596.937	236.25
597.146	220.25
597.355	238.25
597.564	242.25
597.774	232.25
597.983	228.25
598.192	223.25
598.401	232.25
598.61	223.25
598.819	232.25
599.028	215.25
599.237	238.25
599.446	238.25
599.655	247.25
599.864	210.25
600.073	222.25
600.282	222.25
600.491	213.25
600.7	216.25
600.909	231.25
601.118	217.25
601.327	230.25
601.536	220.25
601.745	227.25
601.953	216.25
602.162	218.25
602.371	221.25
602.58	222.25
602.789	219.25
602.997	222.25
603.206	216.25
603.415	220.25
603.623	204.25
603.832	235.25
604.041	221.25
604.249	213.25
604.458	212.25
604.666	222.25
604.875	212.25
605.084	198.25
605.292	209.25
605.501	194.25
605.709	222.25
605.918	224.25
606.126	202.25
606.334	224.25
606.543	212.25
606.751	222.25
606.96	206.25
607.168	219.25
607.376	230.25
607.585	210.25
607.793	208.25
608.001	220.25
608.21	218.25
608.418	208.25
608.626	217.25
608.834	212.25
609.043	206.25
609.251	208.25
609.459	211.25
609.667	211.25
609.875	222.25
610.083	191.25
610.291	205.25
610.499	223.25
610.707	213.25
610.916	238.25
611.124	211.25
611.332	217.25
611.54	212.25
611.748	213.25
611.955	207.25
612.163	212.25
612.371	195.25
612.579	201.25
612.787	184.25
612.995	212.25
613.203	208.25
613.411	189.25
613.618	210.25
613.826	207.25
614.034	198.25
614.242	214.25
614.449	208.25
614.657	194.25
614.865	205.25
615.072	222.25
615.28	201.25
615.488	174.25
615.695	203.25
615.903	200.25
616.111	190.25
616.318	203.25
616.526	209.25
616.733	203.25
616.941	188.25
617.148	211.25
617.356	198.25
617.563	197.25
617.771	206.25
617.978	183.25
618.185	203.25
618.393	188.25
618.6	203.25
618.807	207.25
619.015	212.25
619.222	209.25
619.429	208.25
619.637	201.25
619.844	192.25
620.051	203.25
620.258	184.25
620.466	181.25
620.673	185.25
620.88	194.25
621.087	190.25
621.294	190.25
621.501	176.25
621.708	193.25
621.915	196.25
622.122	189.25
622.329	169.25
622.536	202.25
622.743	178.25
622.95	180.25
623.157	170.25
623.364	192.25
623.571	175.25
623.778	190.25
623.985	194.25
624.192	191.25
624.399	180.25
624.606	196.25
624.812	199.25
625.019	178.25
625.226	186.25
625.433	182.25
625.639	187.25
625.846	175.25
626.053	199.25
626.259	190.25
626.466	190.25
626.673	169.25
626.879	169.25
627.086	169.25
627.293	174.25
627.499	176.25
627.706	179.25
627.912	181.25
628.119	182.25
628.325	176.25
628.532	182.25
628.738	170.25
628.945	162.25
629.151	175.25
629.357	169.25
629.564	158.25
629.77	176.25
629.976	182.25
630.183	176.25
630.389	172.25
630.595	170.25
630.802	167.25
631.008	175.25
631.214	162.25
631.42	176.25
631.627	184.25
631.833	175.25
632.039	180.25
632.245	166.25
632.451	171.25
632.657	172.25
632.863	164.25
633.069	160.25
633.275	176.25
633.481	162.25
633.688	172.25
633.893	173.25
634.099	151.25
634.305	150.25
634.511	151.25
634.717	154.25
634.923	173.25
635.129	166.25
635.335	158.25
635.541	161.25
635.747	167.25
635.952	169.25
636.158	146.25
636.364	168.25
636.57	163.25
636.775	157.25
636.981	179.25
637.187	168.25
637.392	163.25
637.598	146.25
637.804	166.25
638.009	161.25
638.215	165.25
638.421	149.25
638.626	145.25
638.832	148.25
639.037	151.25
639.243	146.25
639.448	160.25
639.654	161.25
639.859	140.25
640.065	166.25
640.27	158.25
640.475	145.25
640.681	150.25
640.886	142.25
641.091	142.25
641.297	149.25
641.502	151.25
641.707	160.25
641.913	158.25
642.118	144.25
642.323	137.25
642.528	162.25
642.733	154.25
642.939	127.25
643.144	148.25
643.349	152.25
643.554	147.25
643.759	152.25
643.964	163.25
644.169	159.25
644.374	155.25
644.579	143.25
644.784	150.25
644.989	142.25
645.194	148.25
645.399	144.25
645.604	144.25
645.809	146.25
646.014	154.25
646.219	151.25
646.423	138.25
646.628	165.25
646.833	149.25
647.038	154.25
647.243	144.25
647.447	146.25
647.652	147.25
647.857	164.25
648.062	152.25
648.266	135.25
648.471	143.25
648.676	151.25
648.88	137.25
649.085	145.25
649.289	150.25
649.494	153.25
649.698	185.25
649.903	168.25
650.107	145.25
650.312	132.25
650.516	140.25
650.721	135.25
650.925	143.25
651.13	131.25
651.334	136.25
651.539	136.25
651.743	141.25
651.947	143.25
652.152	145.25
652.356	130.25
652.56	129.25
652.764	131.25
652.969	118.25
653.173	122.25
653.377	127.25
653.581	122.25
653.785	132.25
653.99	127.25
654.194	122.25
654.398	127.25
654.602	114.25
654.806	125.25
655.01	128.25
655.214	129.25
655.418	117.25
655.622	124.25
655.826	103.25
656.03	114.25
656.234	121.25
656.438	119.25
656.642	118.25
656.846	123.25
657.049	105.25
657.253	115.25
657.457	108.25
657.661	95.25
657.865	99.25
658.068	106.25
658.272	109.25
658.476	94.25
658.68	105.25
658.883	94.25
659.087	109.25
659.291	98.25
659.494	98.25
659.698	78.25
659.901	94.25
660.105	92.25
660.309	80.25
660.512	76.25
660.716	102.25
660.919	100.25
661.123	83.25
661.326	82.25
661.53	80.25
661.733	77.25
661.936	98.25
662.14	84.25
662.343	82.25
662.546	86.25
662.75	86.25
662.953	82.25
663.156	83.25
663.36	72.25
663.563	88.25
663.766	81.25
663.969	81.25
664.173	76.25
664.376	79.25
664.579	71.25
664.782	60.25
664.985	65.25
665.188	73.25
665.391	71.25
665.594	71.25
665.797	80.25
666	87.25
666.203	80.25
666.406	85.25
666.609	78.25
666.812	68.25
667.015	83.25
667.218	68.25
667.421	67.25
667.624	73.25
667.827	81.25
668.03	79.25
668.232	76.25
668.435	87.25
668.638	64.25
668.841	84.25
669.043	75.25
669.246	86.25
669.449	88.25
669.651	83.25
669.854	73.25
670.057	76.25
670.259	72.25
670.462	77.25
670.665	83.25
670.867	73.25
671.07	76.25
671.272	81.25
671.475	68.25
671.677	82.25
671.88	81.25
672.082	79.25
672.284	76.25
672.487	90.25
672.689	82.25
672.892	77.25
