Data from 1986.PennyLincolnUp.Lamp.En5.5.200Scan.071819.P2_HRD10591_17-12-56-972.txt Node
Date: Thu Jul 18 17:12:56 EDT 2019
User: cochatt
Spectrometer: HR+D1059
Trigger mode: 1
Integration Time (sec): 1.000000E-1
Scans to average: 1
Electric dark correction enabled: true
Nonlinearity correction enabled: false
Boxcar width: 0
XAxis mode: Wavelengths
Number of Pixels in Spectrum: 2048
>>>>>Begin Spectral Data<<<<<
223.165	2.12
223.4	2.12
223.635	2.12
223.869	-15.88
224.104	-31.88
224.338	-22.88
224.573	-19.88
224.808	-15.88
225.042	-6.88
225.277	-5.88
225.511	-3.88
225.746	9.12
225.98	8.12
226.215	10.12
226.449	20.12
226.683	16.12
226.918	27.12
227.152	30.12
227.387	35.12
227.621	26.12
227.856	41.12
228.09	35.12
228.324	42.12
228.559	54.12
228.793	73.12
229.027	104.12
229.262	116.12
229.496	109.12
229.73	141.12
229.964	150.12
230.199	143.12
230.433	115.12
230.667	110.12
230.901	126.12
231.136	124.12
231.37	124.12
231.604	135.12
231.838	106.12
232.072	126.12
232.306	127.12
232.541	121.12
232.775	124.12
233.009	117.12
233.243	110.12
233.477	128.12
233.711	114.12
233.945	121.12
234.179	118.12
234.413	122.12
234.647	104.12
234.881	126.12
235.115	117.12
235.349	130.12
235.583	131.12
235.817	128.12
236.051	152.12
236.285	142.12
236.519	128.12
236.753	154.12
236.987	138.12
237.221	178.12
237.455	249.12
237.689	206.12
237.922	150.12
238.156	142.12
238.39	138.12
238.624	137.12
238.858	123.12
239.091	142.12
239.325	126.12
239.559	140.12
239.793	123.12
240.027	149.12
240.26	136.12
240.494	158.12
240.728	158.12
240.961	167.12
241.195	144.12
241.429	152.12
241.662	146.12
241.896	136.12
242.13	137.12
242.363	125.12
242.597	136.12
242.83	140.12
243.064	154.12
243.298	140.12
243.531	133.12
243.765	150.12
243.998	158.12
244.232	146.12
244.465	160.12
244.699	150.12
244.932	157.12
245.166	170.12
245.399	164.12
245.633	158.12
245.866	152.12
246.099	154.12
246.333	154.12
246.566	148.12
246.8	171.12
247.033	162.12
247.266	171.12
247.5	165.12
247.733	184.12
247.966	178.12
248.2	190.12
248.433	171.12
248.666	181.12
248.899	200.12
249.133	227.12
249.366	229.12
249.599	212.12
249.832	205.12
250.066	216.12
250.299	238.12
250.532	250.12
250.765	264.12
250.998	305.12
251.231	293.12
251.465	277.12
251.698	262.12
251.931	250.12
252.164	236.12
252.397	227.12
252.63	248.12
252.863	245.12
253.096	232.12
253.329	250.12
253.562	268.12
253.795	248.12
254.028	256.12
254.261	260.12
254.494	249.12
254.727	289.12
254.96	316.12
255.193	298.12
255.426	304.12
255.659	303.12
255.892	321.12
256.124	362.12
256.357	418.12
256.59	390.12
256.823	340.12
257.056	306.12
257.289	293.12
257.521	272.12
257.754	260.12
257.987	263.12
258.22	263.12
258.452	261.12
258.685	239.12
258.918	252.12
259.151	237.12
259.383	268.12
259.616	244.12
259.849	261.12
260.081	274.12
260.314	277.12
260.547	279.12
260.779	288.12
261.012	267.12
261.244	249.12
261.477	270.12
261.71	256.12
261.942	240.12
262.175	262.12
262.407	254.12
262.64	246.12
262.872	233.12
263.105	236.12
263.337	250.12
263.57	244.12
263.802	240.12
264.035	233.12
264.267	231.12
264.499	218.12
264.732	233.12
264.964	233.12
265.197	229.12
265.429	248.12
265.661	230.12
265.894	244.12
266.126	260.12
266.358	243.12
266.591	239.12
266.823	258.12
267.055	242.12
267.287	235.12
267.52	238.12
267.752	231.12
267.984	224.12
268.216	239.12
268.448	249.12
268.681	247.12
268.913	266.12
269.145	280.12
269.377	291.12
269.609	315.12
269.841	286.12
270.073	313.12
270.306	310.12
270.538	337.12
270.77	329.12
271.002	320.12
271.234	316.12
271.466	335.12
271.698	335.12
271.93	336.12
272.162	355.12
272.394	352.12
272.626	337.12
272.858	327.12
273.09	316.12
273.322	290.12
273.553	313.12
273.785	296.12
274.017	269.12
274.249	294.12
274.481	287.12
274.713	270.12
274.945	291.12
275.176	297.12
275.408	303.12
275.64	290.12
275.872	294.12
276.104	303.12
276.335	283.12
276.567	314.12
276.799	323.12
277.031	352.12
277.262	329.12
277.494	365.12
277.726	342.12
277.957	328.12
278.189	325.12
278.421	306.12
278.652	303.12
278.884	271.12
279.115	315.12
279.347	293.12
279.579	294.12
279.81	292.12
280.042	303.12
280.273	317.12
280.505	318.12
280.736	308.12
280.968	282.12
281.199	300.12
281.431	290.12
281.662	296.12
281.894	298.12
282.125	292.12
282.356	298.12
282.588	325.12
282.819	346.12
283.051	287.12
283.282	286.12
283.513	285.12
283.745	294.12
283.976	294.12
284.207	314.12
284.439	310.12
284.67	299.12
284.901	326.12
285.132	280.12
285.364	308.12
285.595	286.12
285.826	278.12
286.057	304.12
286.288	298.12
286.52	298.12
286.751	298.12
286.982	306.12
287.213	275.12
287.444	304.12
287.675	303.12
287.906	302.12
288.138	310.12
288.369	330.12
288.6	324.12
288.831	336.12
289.062	303.12
289.293	315.12
289.524	310.12
289.755	307.12
289.986	292.12
290.217	311.12
290.448	312.12
290.679	320.12
290.91	327.12
291.141	307.12
291.371	308.12
291.602	303.12
291.833	301.12
292.064	310.12
292.295	294.12
292.526	296.12
292.757	296.12
292.987	295.12
293.218	292.12
293.449	297.12
293.68	315.12
293.91	317.12
294.141	294.12
294.372	297.12
294.603	296.12
294.833	301.12
295.064	300.12
295.295	323.12
295.525	315.12
295.756	306.12
295.987	321.12
296.217	331.12
296.448	348.12
296.679	314.12
296.909	303.12
297.14	288.12
297.37	310.12
297.601	319.12
297.831	317.12
298.062	315.12
298.292	311.12
298.523	313.12
298.753	311.12
298.984	324.12
299.214	318.12
299.445	334.12
299.675	339.12
299.905	317.12
300.136	313.12
300.366	307.12
300.597	319.12
300.827	314.12
301.057	306.12
301.288	322.12
301.518	335.12
301.748	325.12
301.979	331.12
302.209	343.12
302.439	340.12
302.669	329.12
302.9	328.12
303.13	322.12
303.36	334.12
303.59	335.12
303.82	366.12
304.051	349.12
304.281	336.12
304.511	346.12
304.741	334.12
304.971	345.12
305.201	350.12
305.431	330.12
305.661	336.12
305.891	330.12
306.121	342.12
306.352	350.12
306.582	364.12
306.812	343.12
307.042	349.12
307.272	355.12
307.502	362.12
307.731	360.12
307.961	355.12
308.191	318.12
308.421	336.12
308.651	347.12
308.881	353.12
309.111	366.12
309.341	363.12
309.571	374.12
309.8	364.12
310.03	382.12
310.26	385.12
310.49	395.12
310.72	400.12
310.949	415.12
311.179	414.12
311.409	401.12
311.639	400.12
311.868	401.12
312.098	390.12
312.328	417.12
312.557	408.12
312.787	415.12
313.017	452.12
313.246	411.12
313.476	384.12
313.706	406.12
313.935	405.12
314.165	443.12
314.394	395.12
314.624	416.12
314.853	415.12
315.083	384.12
315.312	409.12
315.542	383.12
315.771	391.12
316.001	395.12
316.23	397.12
316.46	406.12
316.689	392.12
316.919	398.12
317.148	387.12
317.377	410.12
317.607	399.12
317.836	406.12
318.065	380.12
318.295	404.12
318.524	410.12
318.753	395.12
318.983	388.12
319.212	404.12
319.441	397.12
319.67	434.12
319.9	394.12
320.129	386.12
320.358	431.12
320.587	420.12
320.816	437.12
321.046	445.12
321.275	436.12
321.504	430.12
321.733	427.12
321.962	444.12
322.191	455.12
322.42	466.12
322.649	474.12
322.878	492.12
323.108	491.12
323.337	531.12
323.566	549.12
323.795	600.12
324.024	646.12
324.253	795.12
324.482	1119.12
324.71	1721.12
324.939	2458.12
325.168	2184.12
325.397	1150.12
325.626	765.12
325.855	653.12
326.084	588.12
326.313	572.12
326.542	596.12
326.77	656.12
326.999	744.12
327.228	1040.12
327.457	1559.12
327.686	1918.12
327.914	1359.12
328.143	957.12
328.372	863.12
328.6	808.12
328.829	710.12
329.058	716.12
329.287	751.12
329.515	710.12
329.744	738.12
329.972	799.12
330.201	894.12
330.43	1051.12
330.658	984.12
330.887	866.12
331.115	744.12
331.344	654.12
331.572	613.12
331.801	598.12
332.03	581.12
332.258	560.12
332.486	550.12
332.715	570.12
332.943	562.12
333.172	536.12
333.4	569.12
333.629	634.12
333.857	670.12
334.085	760.12
334.314	937.12
334.542	1123.12
334.771	1189.12
334.999	908.12
335.227	692.12
335.455	580.12
335.684	572.12
335.912	537.12
336.14	514.12
336.369	484.12
336.597	514.12
336.825	519.12
337.053	498.12
337.281	492.12
337.51	484.12
337.738	470.12
337.966	459.12
338.194	470.12
338.422	448.12
338.65	467.12
338.878	471.12
339.106	455.12
339.334	444.12
339.562	435.12
339.79	437.12
340.018	454.12
340.246	463.12
340.474	446.12
340.702	436.12
340.93	450.12
341.158	442.12
341.386	451.12
341.614	448.12
341.842	455.12
342.07	423.12
342.298	436.12
342.526	437.12
342.754	439.12
342.981	437.12
343.209	437.12
343.437	434.12
343.665	410.12
343.893	422.12
344.12	413.12
344.348	437.12
344.576	441.12
344.804	441.12
345.031	449.12
345.259	483.12
345.487	453.12
345.714	414.12
345.942	434.12
346.17	435.12
346.397	415.12
346.625	438.12
346.853	422.12
347.08	433.12
347.308	422.12
347.535	442.12
347.763	440.12
347.99	450.12
348.218	438.12
348.445	430.12
348.673	416.12
348.9	435.12
349.128	420.12
349.355	384.12
349.583	398.12
349.81	406.12
350.037	415.12
350.265	426.12
350.492	414.12
350.72	411.12
350.947	395.12
351.174	434.12
351.402	436.12
351.629	438.12
351.856	428.12
352.083	440.12
352.311	443.12
352.538	449.12
352.765	469.12
352.992	424.12
353.22	406.12
353.447	415.12
353.674	397.12
353.901	414.12
354.128	396.12
354.355	395.12
354.583	380.12
354.81	407.12
355.037	381.12
355.264	380.12
355.491	390.12
355.718	363.12
355.945	396.12
356.172	380.12
356.399	371.12
356.626	402.12
356.853	398.12
357.08	380.12
357.307	373.12
357.534	379.12
357.761	379.12
357.988	409.12
358.215	392.12
358.441	379.12
358.668	388.12
358.895	411.12
359.122	413.12
359.349	424.12
359.576	422.12
359.802	413.12
360.029	452.12
360.256	493.12
360.483	460.12
360.709	413.12
360.936	409.12
361.163	425.12
361.39	428.12
361.616	439.12
361.843	402.12
362.07	411.12
362.296	425.12
362.523	423.12
362.749	418.12
362.976	407.12
363.203	419.12
363.429	389.12
363.656	415.12
363.882	398.12
364.109	412.12
364.335	388.12
364.562	376.12
364.788	392.12
365.015	403.12
365.241	385.12
365.468	404.12
365.694	393.12
365.92	418.12
366.147	390.12
366.373	398.12
366.599	388.12
366.826	404.12
367.052	392.12
367.278	387.12
367.505	412.12
367.731	405.12
367.957	398.12
368.184	384.12
368.41	389.12
368.636	401.12
368.862	410.12
369.089	413.12
369.315	380.12
369.541	386.12
369.767	386.12
369.993	385.12
370.219	382.12
370.445	376.12
370.672	382.12
370.898	399.12
371.124	387.12
371.35	388.12
371.576	380.12
371.802	397.12
372.028	383.12
372.254	395.12
372.48	384.12
372.706	374.12
372.932	378.12
373.158	374.12
373.384	393.12
373.61	394.12
373.835	378.12
374.061	408.12
374.287	394.12
374.513	382.12
374.739	395.12
374.965	381.12
375.191	373.12
375.416	383.12
375.642	374.12
375.868	365.12
376.094	386.12
376.319	365.12
376.545	396.12
376.771	379.12
376.997	377.12
377.222	371.12
377.448	364.12
377.674	373.12
377.899	384.12
378.125	365.12
378.35	382.12
378.576	380.12
378.802	361.12
379.027	360.12
379.253	358.12
379.478	374.12
379.704	395.12
379.929	370.12
380.155	386.12
380.38	375.12
380.606	404.12
380.831	380.12
381.057	397.12
381.282	381.12
381.507	375.12
381.733	381.12
381.958	371.12
382.184	359.12
382.409	381.12
382.634	390.12
382.86	384.12
383.085	385.12
383.31	400.12
383.535	380.12
383.761	395.12
383.986	401.12
384.211	383.12
384.436	377.12
384.662	394.12
384.887	408.12
385.112	406.12
385.337	413.12
385.562	406.12
385.787	389.12
386.013	382.12
386.238	387.12
386.463	409.12
386.688	399.12
386.913	376.12
387.138	392.12
387.363	386.12
387.588	420.12
387.813	385.12
388.038	388.12
388.263	382.12
388.488	380.12
388.713	379.12
388.938	403.12
389.163	412.12
389.387	407.12
389.612	399.12
389.837	412.12
390.062	397.12
390.287	409.12
390.512	382.12
390.736	390.12
390.961	385.12
391.186	400.12
391.411	422.12
391.636	391.12
391.86	398.12
392.085	388.12
392.31	390.12
392.534	418.12
392.759	409.12
392.984	399.12
393.208	392.12
393.433	401.12
393.658	393.12
393.882	392.12
394.107	400.12
394.331	425.12
394.556	390.12
394.78	396.12
395.005	399.12
395.229	393.12
395.454	392.12
395.678	412.12
395.903	423.12
396.127	456.12
396.352	429.12
396.576	436.12
396.801	414.12
397.025	417.12
397.249	430.12
397.474	415.12
397.698	405.12
397.922	411.12
398.147	431.12
398.371	448.12
398.595	434.12
398.82	448.12
399.044	449.12
399.268	454.12
399.492	468.12
399.717	464.12
399.941	522.12
400.165	525.12
400.389	569.12
400.613	536.12
400.837	466.12
401.062	474.12
401.286	443.12
401.51	434.12
401.734	446.12
401.958	442.12
402.182	454.12
402.406	462.12
402.63	460.12
402.854	454.12
403.078	464.12
403.302	476.12
403.526	484.12
403.75	472.12
403.974	468.12
404.198	478.12
404.422	506.12
404.645	500.12
404.869	520.12
405.093	584.12
405.317	637.12
405.541	666.12
405.765	606.12
405.988	551.12
406.212	552.12
406.436	560.12
406.66	546.12
406.883	532.12
407.107	536.12
407.331	578.12
407.555	634.12
407.778	649.12
408.002	572.12
408.226	528.12
408.449	535.12
408.673	524.12
408.896	555.12
409.12	601.12
409.344	565.12
409.567	487.12
409.791	486.12
410.014	485.12
410.238	472.12
410.461	476.12
410.685	479.12
410.908	508.12
411.132	518.12
411.355	559.12
411.578	577.12
411.802	484.12
412.025	521.12
412.249	562.12
412.472	594.12
412.695	670.12
412.919	663.12
413.142	588.12
413.365	570.12
413.589	546.12
413.812	505.12
414.035	489.12
414.258	482.12
414.482	462.12
414.705	473.12
414.928	460.12
415.151	458.12
415.374	461.12
415.597	470.12
415.821	439.12
416.044	453.12
416.267	442.12
416.49	485.12
416.713	440.12
416.936	445.12
417.159	466.12
417.382	452.12
417.605	492.12
417.828	501.12
418.051	498.12
418.274	474.12
418.497	476.12
418.72	469.12
418.943	462.12
419.166	476.12
419.389	493.12
419.611	518.12
419.834	508.12
420.057	520.12
420.28	559.12
420.503	554.12
420.726	562.12
420.948	543.12
421.171	576.12
421.394	611.12
421.617	528.12
421.839	504.12
422.062	506.12
422.285	510.12
422.507	546.12
422.73	632.12
422.953	584.12
423.175	531.12
423.398	502.12
423.621	489.12
423.843	492.12
424.066	490.12
424.288	500.12
424.511	540.12
424.733	588.12
424.956	674.12
425.178	652.12
425.401	638.12
425.623	662.12
425.846	555.12
426.068	518.12
426.291	500.12
426.513	518.12
426.735	522.12
426.958	600.12
427.18	656.12
427.402	768.12
427.625	842.12
427.847	800.12
428.069	744.12
428.292	664.12
428.514	550.12
428.736	530.12
428.958	524.12
429.181	490.12
429.403	478.12
429.625	500.12
429.847	516.12
430.069	603.12
430.292	590.12
430.514	518.12
430.736	492.12
430.958	461.12
431.18	453.12
431.402	460.12
431.624	451.12
431.846	463.12
432.068	467.12
432.29	454.12
432.512	444.12
432.734	461.12
432.956	464.12
433.178	474.12
433.4	474.12
433.622	464.12
433.844	461.12
434.066	456.12
434.287	444.12
434.509	461.12
434.731	447.12
434.953	450.12
435.175	480.12
435.397	502.12
435.618	510.12
435.84	568.12
436.062	649.12
436.284	720.12
436.505	592.12
436.727	569.12
436.949	524.12
437.17	495.12
437.392	478.12
437.614	504.12
437.835	536.12
438.057	623.12
438.278	721.12
438.5	720.12
438.721	797.12
438.943	732.12
439.165	616.12
439.386	566.12
439.608	546.12
439.829	542.12
440.05	562.12
440.272	613.12
440.493	558.12
440.715	546.12
440.936	499.12
441.158	492.12
441.379	500.12
441.6	523.12
441.822	511.12
442.043	563.12
442.264	657.12
442.486	696.12
442.707	578.12
442.928	544.12
443.149	566.12
443.371	542.12
443.592	607.12
443.813	681.12
444.034	766.12
444.255	612.12
444.476	551.12
444.698	538.12
444.919	493.12
445.14	608.12
445.361	600.12
445.582	555.12
445.803	630.12
446.024	719.12
446.245	720.12
446.466	711.12
446.687	597.12
446.908	522.12
447.129	491.12
447.35	478.12
447.571	496.12
447.792	487.12
448.013	493.12
448.234	487.12
448.455	574.12
448.675	675.12
448.896	792.12
449.117	695.12
449.338	626.12
449.559	726.12
449.779	815.12
450	636.12
450.221	534.12
450.442	528.12
450.662	481.12
450.883	487.12
451.104	506.12
451.324	484.12
451.545	453.12
451.766	444.12
451.986	439.12
452.207	442.12
452.428	411.12
452.648	429.12
452.869	432.12
453.089	428.12
453.31	451.12
453.53	468.12
453.751	443.12
453.971	435.12
454.192	457.12
454.412	447.12
454.633	424.12
454.853	433.12
455.073	441.12
455.294	452.12
455.514	514.12
455.734	515.12
455.955	451.12
456.175	430.12
456.395	404.12
456.616	407.12
456.836	414.12
457.056	422.12
457.276	407.12
457.497	406.12
457.717	397.12
457.937	408.12
458.157	400.12
458.377	439.12
458.598	441.12
458.818	517.12
459.038	572.12
459.258	590.12
459.478	491.12
459.698	457.12
459.918	457.12
460.138	423.12
460.358	432.12
460.578	438.12
460.798	435.12
461.018	449.12
461.238	460.12
461.458	441.12
461.678	429.12
461.898	452.12
462.118	436.12
462.338	435.12
462.558	448.12
462.777	452.12
462.997	448.12
463.217	443.12
463.437	461.12
463.657	452.12
463.876	464.12
464.096	495.12
464.316	461.12
464.536	479.12
464.755	465.12
464.975	476.12
465.195	529.12
465.414	614.12
465.634	538.12
465.854	503.12
466.073	480.12
466.293	450.12
466.512	460.12
466.732	445.12
466.951	443.12
467.171	442.12
467.391	432.12
467.61	457.12
467.829	458.12
468.049	506.12
468.268	566.12
468.488	528.12
468.707	465.12
468.927	470.12
469.146	463.12
469.365	452.12
469.585	448.12
469.804	448.12
470.023	460.12
470.243	453.12
470.462	455.12
470.681	476.12
470.901	470.12
471.12	462.12
471.339	464.12
471.558	457.12
471.777	471.12
471.997	475.12
472.216	573.12
472.435	794.12
472.654	772.12
472.873	606.12
473.092	530.12
473.311	556.12
473.53	521.12
473.749	525.12
473.968	542.12
474.187	633.12
474.406	654.12
474.625	543.12
474.844	516.12
475.063	497.12
475.282	442.12
475.501	478.12
475.72	487.12
475.939	468.12
476.158	488.12
476.377	470.12
476.596	456.12
476.814	498.12
477.033	478.12
477.252	507.12
477.471	481.12
477.69	482.12
477.908	524.12
478.127	495.12
478.346	478.12
478.564	492.12
478.783	509.12
479.002	516.12
479.22	519.12
479.439	531.12
479.658	579.12
479.876	564.12
480.095	574.12
480.313	592.12
480.532	588.12
480.751	622.12
480.969	729.12
481.188	1078.12
481.406	1410.12
481.624	942.12
481.843	790.12
482.061	705.12
482.28	652.12
482.498	626.12
482.717	613.12
482.935	626.12
483.153	604.12
483.372	594.12
483.59	574.12
483.808	584.12
484.027	583.12
484.245	602.12
484.463	573.12
484.681	583.12
484.9	590.12
485.118	588.12
485.336	576.12
485.554	592.12
485.772	589.12
485.99	598.12
486.209	583.12
486.427	588.12
486.645	610.12
486.863	628.12
487.081	597.12
487.299	614.12
487.517	607.12
487.735	604.12
487.953	617.12
488.171	608.12
488.389	617.12
488.607	632.12
488.825	629.12
489.043	605.12
489.261	635.12
489.479	632.12
489.696	631.12
489.914	620.12
490.132	643.12
490.35	658.12
490.568	674.12
490.786	704.12
491.003	694.12
491.221	701.12
491.439	718.12
491.657	741.12
491.874	746.12
492.092	771.12
492.31	743.12
492.527	770.12
492.745	779.12
492.963	773.12
493.18	751.12
493.398	798.12
493.615	747.12
493.833	803.12
494.05	756.12
494.268	774.12
494.485	735.12
494.703	740.12
494.92	748.12
495.138	752.12
495.355	762.12
495.573	730.12
495.79	774.12
496.008	756.12
496.225	731.12
496.442	756.12
496.66	753.12
496.877	724.12
497.094	740.12
497.312	718.12
497.529	735.12
497.746	722.12
497.963	712.12
498.181	758.12
498.398	806.12
498.615	758.12
498.832	758.12
499.049	780.12
499.267	774.12
499.484	780.12
499.701	774.12
499.918	796.12
500.135	839.12
500.352	878.12
500.569	887.12
500.786	898.12
501.003	874.12
501.22	875.12
501.437	875.12
501.654	870.12
501.871	848.12
502.088	819.12
502.305	810.12
502.522	766.12
502.739	745.12
502.956	734.12
503.172	735.12
503.389	712.12
503.606	731.12
503.823	700.12
504.04	701.12
504.256	694.12
504.473	692.12
504.69	711.12
504.907	690.12
505.123	684.12
505.34	670.12
505.557	662.12
505.773	668.12
505.99	667.12
506.207	680.12
506.423	679.12
506.64	649.12
506.856	660.12
507.073	666.12
507.289	614.12
507.506	650.12
507.722	664.12
507.939	712.12
508.155	658.12
508.372	649.12
508.588	654.12
508.805	638.12
509.021	643.12
509.238	644.12
509.454	647.12
509.67	668.12
509.887	648.12
510.103	672.12
510.319	654.12
510.536	757.12
510.752	1243.12
510.968	1028.12
511.184	692.12
511.401	638.12
511.617	650.12
511.833	660.12
512.049	677.12
512.265	664.12
512.481	676.12
512.698	650.12
512.914	626.12
513.13	627.12
513.346	606.12
513.562	620.12
513.778	618.12
513.994	645.12
514.21	648.12
514.426	671.12
514.642	716.12
514.858	745.12
515.074	780.12
515.29	893.12
515.506	1290.12
515.721	1083.12
515.937	737.12
516.153	678.12
516.369	658.12
516.585	628.12
516.801	621.12
517.016	619.12
517.232	608.12
517.448	622.12
517.664	616.12
517.879	609.12
518.095	591.12
518.311	605.12
518.527	580.12
518.742	621.12
518.958	628.12
519.173	599.12
519.389	564.12
519.605	596.12
519.82	609.12
520.036	630.12
520.251	634.12
520.467	652.12
520.682	691.12
520.898	673.12
521.113	681.12
521.329	770.12
521.544	823.12
521.76	1050.12
521.975	1664.12
522.19	1630.12
522.406	946.12
522.621	708.12
522.836	653.12
523.052	613.12
523.267	597.12
523.482	574.12
523.698	564.12
523.913	567.12
524.128	566.12
524.343	572.12
524.559	553.12
524.774	540.12
524.989	552.12
525.204	524.12
525.419	528.12
525.634	524.12
525.849	518.12
526.064	526.12
526.28	495.12
526.495	498.12
526.71	512.12
526.925	502.12
527.14	482.12
527.355	508.12
527.57	477.12
527.785	498.12
527.999	496.12
528.214	491.12
528.429	518.12
528.644	492.12
528.859	486.12
529.074	479.12
529.289	508.12
529.503	607.12
529.718	574.12
529.933	545.12
530.148	522.12
530.363	492.12
530.577	482.12
530.792	475.12
531.007	486.12
531.221	479.12
531.436	482.12
531.651	464.12
531.865	480.12
532.08	472.12
532.295	475.12
532.509	454.12
532.724	461.12
532.938	463.12
533.153	454.12
533.367	461.12
533.582	463.12
533.796	471.12
534.011	471.12
534.225	447.12
534.44	445.12
534.654	460.12
534.868	440.12
535.083	428.12
535.297	456.12
535.511	448.12
535.726	478.12
535.94	475.12
536.154	462.12
536.369	454.12
536.583	435.12
536.797	455.12
537.011	436.12
537.225	454.12
537.44	432.12
537.654	457.12
537.868	457.12
538.082	446.12
538.296	453.12
538.51	458.12
538.724	450.12
538.938	454.12
539.153	438.12
539.367	467.12
539.581	461.12
539.795	450.12
540.009	447.12
540.222	455.12
540.436	450.12
540.65	455.12
540.864	448.12
541.078	447.12
541.292	461.12
541.506	470.12
541.72	447.12
541.934	442.12
542.147	443.12
542.361	426.12
542.575	444.12
542.789	442.12
543.002	433.12
543.216	445.12
543.43	456.12
543.644	459.12
543.857	444.12
544.071	444.12
544.285	441.12
544.498	441.12
544.712	452.12
544.925	428.12
545.139	442.12
545.352	430.12
545.566	435.12
545.779	432.12
545.993	413.12
546.206	423.12
546.42	426.12
546.633	412.12
546.847	419.12
547.06	411.12
547.274	414.12
547.487	406.12
547.7	416.12
547.914	414.12
548.127	419.12
548.34	429.12
548.554	402.12
548.767	429.12
548.98	400.12
549.193	411.12
549.407	425.12
549.62	430.12
549.833	400.12
550.046	418.12
550.259	422.12
550.473	399.12
550.686	387.12
550.899	415.12
551.112	406.12
551.325	399.12
551.538	396.12
551.751	408.12
551.964	400.12
552.177	422.12
552.39	398.12
552.603	395.12
552.816	402.12
553.029	411.12
553.242	404.12
553.455	413.12
553.667	424.12
553.88	423.12
554.093	419.12
554.306	431.12
554.519	418.12
554.732	391.12
554.944	410.12
555.157	403.12
555.37	401.12
555.583	412.12
555.795	389.12
556.008	362.12
556.221	396.12
556.433	371.12
556.646	389.12
556.859	388.12
557.071	389.12
557.284	382.12
557.496	395.12
557.709	372.12
557.921	378.12
558.134	382.12
558.346	379.12
558.559	359.12
558.771	386.12
558.984	369.12
559.196	385.12
559.409	371.12
559.621	366.12
559.833	339.12
560.046	366.12
560.258	366.12
560.47	379.12
560.683	376.12
560.895	374.12
561.107	382.12
561.32	368.12
561.532	371.12
561.744	370.12
561.956	363.12
562.168	359.12
562.381	358.12
562.593	380.12
562.805	376.12
563.017	379.12
563.229	359.12
563.441	375.12
563.653	380.12
563.865	358.12
564.077	375.12
564.289	359.12
564.501	382.12
564.713	376.12
564.925	394.12
565.137	378.12
565.349	384.12
565.561	363.12
565.773	380.12
565.985	380.12
566.197	388.12
566.408	406.12
566.62	386.12
566.832	407.12
567.044	421.12
567.255	409.12
567.467	420.12
567.679	400.12
567.891	424.12
568.102	414.12
568.314	400.12
568.526	395.12
568.737	387.12
568.949	388.12
569.161	376.12
569.372	374.12
569.584	374.12
569.795	368.12
570.007	372.12
570.218	409.12
570.43	409.12
570.641	380.12
570.853	358.12
571.064	338.12
571.276	344.12
571.487	329.12
571.698	331.12
571.91	334.12
572.121	332.12
572.333	340.12
572.544	330.12
572.755	331.12
572.966	348.12
573.178	331.12
573.389	334.12
573.6	320.12
573.811	325.12
574.023	302.12
574.234	311.12
574.445	305.12
574.656	323.12
574.867	327.12
575.078	304.12
575.289	305.12
575.501	313.12
575.712	325.12
575.923	314.12
576.134	329.12
576.345	334.12
576.556	326.12
576.767	313.12
576.978	325.12
577.188	321.12
577.399	324.12
577.61	318.12
577.821	316.12
578.032	330.12
578.243	348.12
578.454	569.12
578.665	418.12
578.875	323.12
579.086	294.12
579.297	294.12
579.508	295.12
579.718	295.12
579.929	304.12
580.14	288.12
580.35	296.12
580.561	314.12
580.772	299.12
580.982	288.12
581.193	271.12
581.403	317.12
581.614	322.12
581.825	298.12
582.035	312.12
582.246	299.12
582.456	289.12
582.667	292.12
582.877	301.12
583.087	286.12
583.298	310.12
583.508	292.12
583.719	284.12
583.929	294.12
584.139	290.12
584.35	284.12
584.56	303.12
584.77	285.12
584.981	280.12
585.191	284.12
585.401	291.12
585.611	287.12
585.821	284.12
586.032	316.12
586.242	263.12
586.452	285.12
586.662	283.12
586.872	294.12
587.082	287.12
587.292	292.12
587.502	291.12
587.713	291.12
587.923	269.12
588.133	284.12
588.343	301.12
588.553	285.12
588.762	278.12
588.972	292.12
589.182	295.12
589.392	290.12
589.602	299.12
589.812	289.12
590.022	288.12
590.232	290.12
590.441	286.12
590.651	284.12
590.861	286.12
591.071	272.12
591.281	274.12
591.49	286.12
591.7	303.12
591.91	287.12
592.119	292.12
592.329	306.12
592.539	289.12
592.748	270.12
592.958	269.12
593.167	269.12
593.377	295.12
593.587	299.12
593.796	278.12
594.006	283.12
594.215	286.12
594.424	282.12
594.634	287.12
594.843	278.12
595.053	294.12
595.262	282.12
595.472	267.12
595.681	262.12
595.89	270.12
596.1	272.12
596.309	261.12
596.518	262.12
596.727	262.12
596.937	263.12
597.146	263.12
597.355	263.12
597.564	277.12
597.774	264.12
597.983	263.12
598.192	273.12
598.401	254.12
598.61	254.12
598.819	253.12
599.028	263.12
599.237	250.12
599.446	267.12
599.655	252.12
599.864	277.12
600.073	265.12
600.282	245.12
600.491	261.12
600.7	269.12
600.909	266.12
601.118	254.12
601.327	232.12
601.536	246.12
601.745	263.12
601.953	256.12
602.162	251.12
602.371	267.12
602.58	251.12
602.789	266.12
602.997	251.12
603.206	242.12
603.415	242.12
603.623	238.12
603.832	238.12
604.041	255.12
604.249	238.12
604.458	239.12
604.666	239.12
604.875	239.12
605.084	247.12
605.292	254.12
605.501	226.12
605.709	235.12
605.918	244.12
606.126	254.12
606.334	239.12
606.543	240.12
606.751	247.12
606.96	256.12
607.168	251.12
607.376	235.12
607.585	254.12
607.793	251.12
608.001	250.12
608.21	256.12
608.418	246.12
608.626	234.12
608.834	239.12
609.043	247.12
609.251	232.12
609.459	245.12
609.667	252.12
609.875	246.12
610.083	248.12
610.291	235.12
610.499	243.12
610.707	246.12
610.916	227.12
611.124	236.12
611.332	234.12
611.54	240.12
611.748	238.12
611.955	235.12
612.163	247.12
612.371	244.12
612.579	234.12
612.787	232.12
612.995	246.12
613.203	227.12
613.411	217.12
613.618	239.12
613.826	216.12
614.034	248.12
614.242	220.12
614.449	224.12
614.657	235.12
614.865	212.12
615.072	239.12
615.28	227.12
615.488	226.12
615.695	227.12
615.903	225.12
616.111	235.12
616.318	240.12
616.526	231.12
616.733	239.12
616.941	233.12
617.148	217.12
617.356	227.12
617.563	232.12
617.771	227.12
617.978	238.12
618.185	230.12
618.393	235.12
618.6	222.12
618.807	223.12
619.015	233.12
619.222	234.12
619.429	212.12
619.637	201.12
619.844	204.12
620.051	234.12
620.258	213.12
620.466	212.12
620.673	221.12
620.88	209.12
621.087	216.12
621.294	227.12
621.501	209.12
621.708	214.12
621.915	220.12
622.122	203.12
622.329	229.12
622.536	223.12
622.743	209.12
622.95	219.12
623.157	206.12
623.364	210.12
623.571	207.12
623.778	215.12
623.985	197.12
624.192	206.12
624.399	205.12
624.606	219.12
624.812	207.12
625.019	216.12
625.226	203.12
625.433	226.12
625.639	214.12
625.846	196.12
626.053	193.12
626.259	205.12
626.466	195.12
626.673	202.12
626.879	220.12
627.086	196.12
627.293	221.12
627.499	200.12
627.706	193.12
627.912	199.12
628.119	194.12
628.325	212.12
628.532	195.12
628.738	187.12
628.945	205.12
629.151	195.12
629.357	190.12
629.564	178.12
629.77	198.12
629.976	181.12
630.183	186.12
630.389	197.12
630.595	172.12
630.802	198.12
631.008	192.12
631.214	191.12
631.42	183.12
631.627	191.12
631.833	180.12
632.039	169.12
632.245	166.12
632.451	164.12
632.657	195.12
632.863	176.12
633.069	190.12
633.275	170.12
633.481	184.12
633.688	178.12
633.893	188.12
634.099	189.12
634.305	187.12
634.511	185.12
634.717	170.12
634.923	195.12
635.129	180.12
635.335	187.12
635.541	184.12
635.747	176.12
635.952	170.12
636.158	197.12
636.364	199.12
636.57	239.12
636.775	212.12
636.981	199.12
637.187	202.12
637.392	175.12
637.598	187.12
637.804	188.12
638.009	199.12
638.215	192.12
638.421	175.12
638.626	175.12
638.832	162.12
639.037	181.12
639.243	188.12
639.448	154.12
639.654	166.12
639.859	176.12
640.065	178.12
640.27	180.12
640.475	166.12
640.681	179.12
640.886	171.12
641.091	167.12
641.297	160.12
641.502	185.12
641.707	176.12
641.913	163.12
642.118	161.12
642.323	153.12
642.528	167.12
642.733	166.12
642.939	179.12
643.144	173.12
643.349	176.12
643.554	174.12
643.759	169.12
643.964	160.12
644.169	155.12
644.374	182.12
644.579	173.12
644.784	151.12
644.989	166.12
645.194	159.12
645.399	157.12
645.604	160.12
645.809	143.12
646.014	173.12
646.219	169.12
646.423	154.12
646.628	162.12
646.833	160.12
647.038	150.12
647.243	168.12
647.447	151.12
647.652	179.12
647.857	152.12
648.062	157.12
648.266	154.12
648.471	161.12
648.676	172.12
648.88	175.12
649.085	158.12
649.289	163.12
649.494	189.12
649.698	192.12
649.903	171.12
650.107	154.12
650.312	169.12
650.516	154.12
650.721	152.12
650.925	155.12
651.13	148.12
651.334	163.12
651.539	145.12
651.743	156.12
651.947	146.12
652.152	137.12
652.356	137.12
652.56	151.12
652.764	146.12
652.969	133.12
653.173	143.12
653.377	132.12
653.581	132.12
653.785	156.12
653.99	126.12
654.194	129.12
654.398	128.12
654.602	122.12
654.806	130.12
655.01	156.12
655.214	151.12
655.418	135.12
655.622	122.12
655.826	130.12
656.03	132.12
656.234	123.12
656.438	132.12
656.642	114.12
656.846	134.12
657.049	129.12
657.253	127.12
657.457	122.12
657.661	114.12
657.865	113.12
658.068	118.12
658.272	99.12
658.476	123.12
658.68	114.12
658.883	112.12
659.087	106.12
659.291	110.12
659.494	104.12
659.698	112.12
659.901	90.12
660.105	93.12
660.309	95.12
660.512	105.12
660.716	95.12
660.919	86.12
661.123	98.12
661.326	105.12
661.53	91.12
661.733	99.12
661.936	95.12
662.14	89.12
662.343	95.12
662.546	88.12
662.75	79.12
662.953	76.12
663.156	79.12
663.36	88.12
663.563	78.12
663.766	91.12
663.969	95.12
664.173	82.12
664.376	81.12
664.579	82.12
664.782	74.12
664.985	79.12
665.188	78.12
665.391	90.12
665.594	91.12
665.797	87.12
666	76.12
666.203	75.12
666.406	101.12
666.609	89.12
666.812	85.12
667.015	94.12
667.218	92.12
667.421	80.12
667.624	89.12
667.827	96.12
668.03	77.12
668.232	72.12
668.435	74.12
668.638	77.12
668.841	85.12
669.043	73.12
669.246	84.12
669.449	95.12
669.651	92.12
669.854	77.12
670.057	77.12
670.259	84.12
670.462	77.12
670.665	76.12
670.867	79.12
671.07	73.12
671.272	85.12
671.475	95.12
671.677	85.12
671.88	79.12
672.082	91.12
672.284	89.12
672.487	81.12
672.689	84.12
672.892	89.12
