Data from 1987.PennyLincolnUp.Lamp.En5.5.200Scan.071819.P2_HRD10591_17-14-41-971.txt Node
Date: Thu Jul 18 17:14:41 EDT 2019
User: cochatt
Spectrometer: HR+D1059
Trigger mode: 1
Integration Time (sec): 1.000000E-1
Scans to average: 1
Electric dark correction enabled: true
Nonlinearity correction enabled: false
Boxcar width: 0
XAxis mode: Wavelengths
Number of Pixels in Spectrum: 2048
>>>>>Begin Spectral Data<<<<<
223.165	-9.25
223.4	-9.25
223.635	-9.25
223.869	-9.25
224.104	2.75
224.338	-18.25
224.573	-8.25
224.808	-12.25
225.042	-7.25
225.277	-9.25
225.511	-10.25
225.746	-2.25
225.98	5.75
226.215	7.75
226.449	5.75
226.683	4.75
226.918	28.75
227.152	30.75
227.387	31.75
227.621	46.75
227.856	44.75
228.09	49.75
228.324	69.75
228.559	44.75
228.793	84.75
229.027	90.75
229.262	113.75
229.496	130.75
229.73	148.75
229.964	164.75
230.199	148.75
230.433	119.75
230.667	102.75
230.901	107.75
231.136	129.75
231.37	113.75
231.604	124.75
231.838	120.75
232.072	110.75
232.306	104.75
232.541	105.75
232.775	108.75
233.009	97.75
233.243	94.75
233.477	105.75
233.711	109.75
233.945	109.75
234.179	110.75
234.413	118.75
234.647	119.75
234.881	114.75
235.115	123.75
235.349	110.75
235.583	120.75
235.817	111.75
236.051	121.75
236.285	121.75
236.519	126.75
236.753	124.75
236.987	139.75
237.221	179.75
237.455	229.75
237.689	181.75
237.922	141.75
238.156	131.75
238.39	121.75
238.624	123.75
238.858	131.75
239.091	115.75
239.325	119.75
239.559	111.75
239.793	119.75
240.027	118.75
240.26	143.75
240.494	154.75
240.728	150.75
240.961	137.75
241.195	131.75
241.429	134.75
241.662	126.75
241.896	129.75
242.13	114.75
242.363	126.75
242.597	137.75
242.83	136.75
243.064	113.75
243.298	133.75
243.531	133.75
243.765	121.75
243.998	137.75
244.232	121.75
244.465	137.75
244.699	143.75
244.932	130.75
245.166	125.75
245.399	140.75
245.633	129.75
245.866	135.75
246.099	132.75
246.333	123.75
246.566	147.75
246.8	140.75
247.033	149.75
247.266	141.75
247.5	151.75
247.733	168.75
247.966	161.75
248.2	170.75
248.433	157.75
248.666	163.75
248.899	175.75
249.133	182.75
249.366	198.75
249.599	181.75
249.832	168.75
250.066	162.75
250.299	173.75
250.532	160.75
250.765	181.75
250.998	206.75
251.231	205.75
251.465	208.75
251.698	199.75
251.931	195.75
252.164	188.75
252.397	179.75
252.63	199.75
252.863	201.75
253.096	187.75
253.329	203.75
253.562	205.75
253.795	207.75
254.028	199.75
254.261	207.75
254.494	228.75
254.727	231.75
254.96	258.75
255.193	268.75
255.426	238.75
255.659	220.75
255.892	213.75
256.124	213.75
256.357	194.75
256.59	201.75
256.823	189.75
257.056	165.75
257.289	190.75
257.521	188.75
257.754	185.75
257.987	183.75
258.22	200.75
258.452	190.75
258.685	185.75
258.918	184.75
259.151	202.75
259.383	186.75
259.616	195.75
259.849	186.75
260.081	200.75
260.314	226.75
260.547	234.75
260.779	222.75
261.012	204.75
261.244	201.75
261.477	200.75
261.71	201.75
261.942	208.75
262.175	226.75
262.407	196.75
262.64	197.75
262.872	203.75
263.105	190.75
263.337	193.75
263.57	191.75
263.802	186.75
264.035	178.75
264.267	184.75
264.499	175.75
264.732	196.75
264.964	182.75
265.197	172.75
265.429	182.75
265.661	161.75
265.894	170.75
266.126	171.75
266.358	172.75
266.591	176.75
266.823	190.75
267.055	197.75
267.287	204.75
267.52	185.75
267.752	199.75
267.984	189.75
268.216	202.75
268.448	192.75
268.681	225.75
268.913	215.75
269.145	223.75
269.377	234.75
269.609	232.75
269.841	242.75
270.073	238.75
270.306	261.75
270.538	271.75
270.77	267.75
271.002	262.75
271.234	274.75
271.466	255.75
271.698	271.75
271.93	278.75
272.162	273.75
272.394	284.75
272.626	280.75
272.858	259.75
273.09	255.75
273.322	223.75
273.553	248.75
273.785	242.75
274.017	244.75
274.249	250.75
274.481	225.75
274.713	206.75
274.945	227.75
275.176	237.75
275.408	227.75
275.64	218.75
275.872	224.75
276.104	223.75
276.335	218.75
276.567	249.75
276.799	247.75
277.031	277.75
277.262	267.75
277.494	286.75
277.726	261.75
277.957	257.75
278.189	253.75
278.421	241.75
278.652	234.75
278.884	229.75
279.115	206.75
279.347	208.75
279.579	226.75
279.81	208.75
280.042	214.75
280.273	214.75
280.505	218.75
280.736	213.75
280.968	206.75
281.199	220.75
281.431	218.75
281.662	200.75
281.894	212.75
282.125	200.75
282.356	244.75
282.588	275.75
282.819	261.75
283.051	235.75
283.282	229.75
283.513	207.75
283.745	216.75
283.976	226.75
284.207	214.75
284.439	211.75
284.67	228.75
284.901	231.75
285.132	210.75
285.364	213.75
285.595	213.75
285.826	214.75
286.057	227.75
286.288	198.75
286.52	206.75
286.751	215.75
286.982	214.75
287.213	217.75
287.444	222.75
287.675	213.75
287.906	232.75
288.138	231.75
288.369	228.75
288.6	237.75
288.831	231.75
289.062	254.75
289.293	244.75
289.524	199.75
289.755	221.75
289.986	232.75
290.217	211.75
290.448	214.75
290.679	228.75
290.91	204.75
291.141	205.75
291.371	229.75
291.602	228.75
291.833	204.75
292.064	225.75
292.295	224.75
292.526	215.75
292.757	225.75
292.987	220.75
293.218	223.75
293.449	228.75
293.68	216.75
293.91	236.75
294.141	218.75
294.372	221.75
294.603	207.75
294.833	227.75
295.064	214.75
295.295	219.75
295.525	239.75
295.756	245.75
295.987	249.75
296.217	266.75
296.448	278.75
296.679	253.75
296.909	218.75
297.14	233.75
297.37	244.75
297.601	230.75
297.831	225.75
298.062	230.75
298.292	226.75
298.523	228.75
298.753	244.75
298.984	213.75
299.214	224.75
299.445	232.75
299.675	231.75
299.905	241.75
300.136	238.75
300.366	225.75
300.597	232.75
300.827	239.75
301.057	247.75
301.288	259.75
301.518	239.75
301.748	241.75
301.979	253.75
302.209	258.75
302.439	252.75
302.669	272.75
302.9	261.75
303.13	247.75
303.36	274.75
303.59	261.75
303.82	262.75
304.051	267.75
304.281	247.75
304.511	245.75
304.741	250.75
304.971	255.75
305.201	247.75
305.431	238.75
305.661	241.75
305.891	222.75
306.121	241.75
306.352	267.75
306.582	244.75
306.812	251.75
307.042	242.75
307.272	244.75
307.502	261.75
307.731	259.75
307.961	261.75
308.191	250.75
308.421	267.75
308.651	253.75
308.881	266.75
309.111	277.75
309.341	297.75
309.571	290.75
309.8	298.75
310.03	324.75
310.26	317.75
310.49	313.75
310.72	327.75
310.949	332.75
311.179	338.75
311.409	321.75
311.639	319.75
311.868	315.75
312.098	333.75
312.328	322.75
312.557	341.75
312.787	373.75
313.017	362.75
313.246	329.75
313.476	299.75
313.706	318.75
313.935	315.75
314.165	331.75
314.394	361.75
314.624	344.75
314.853	322.75
315.083	309.75
315.312	305.75
315.542	291.75
315.771	312.75
316.001	298.75
316.23	295.75
316.46	300.75
316.689	313.75
316.919	301.75
317.148	338.75
317.377	316.75
317.607	332.75
317.836	319.75
318.065	285.75
318.295	287.75
318.524	304.75
318.753	312.75
318.983	294.75
319.212	311.75
319.441	321.75
319.67	317.75
319.9	322.75
320.129	306.75
320.358	310.75
320.587	324.75
320.816	359.75
321.046	327.75
321.275	349.75
321.504	334.75
321.733	327.75
321.962	345.75
322.191	375.75
322.42	403.75
322.649	414.75
322.878	397.75
323.108	427.75
323.337	440.75
323.566	491.75
323.795	561.75
324.024	593.75
324.253	713.75
324.482	1082.75
324.71	1591.75
324.939	2211.75
325.168	1972.75
325.397	1121.75
325.626	737.75
325.855	570.75
326.084	521.75
326.313	485.75
326.542	499.75
326.77	545.75
326.999	693.75
327.228	937.75
327.457	1410.75
327.686	1731.75
327.914	1202.75
328.143	791.75
328.372	654.75
328.6	598.75
328.829	564.75
329.058	569.75
329.287	563.75
329.515	529.75
329.744	468.75
329.972	459.75
330.201	464.75
330.43	479.75
330.658	547.75
330.887	616.75
331.115	585.75
331.344	490.75
331.572	475.75
331.801	446.75
332.03	417.75
332.258	400.75
332.486	381.75
332.715	358.75
332.943	358.75
333.172	364.75
333.4	375.75
333.629	365.75
333.857	360.75
334.085	377.75
334.314	365.75
334.542	344.75
334.771	369.75
334.999	377.75
335.227	356.75
335.455	364.75
335.684	331.75
335.912	335.75
336.14	338.75
336.369	358.75
336.597	363.75
336.825	373.75
337.053	349.75
337.281	338.75
337.51	338.75
337.738	364.75
337.966	373.75
338.194	338.75
338.422	368.75
338.65	346.75
338.878	341.75
339.106	345.75
339.334	323.75
339.562	342.75
339.79	327.75
340.018	333.75
340.246	326.75
340.474	358.75
340.702	342.75
340.93	346.75
341.158	349.75
341.386	358.75
341.614	337.75
341.842	359.75
342.07	346.75
342.298	343.75
342.526	327.75
342.754	318.75
342.981	326.75
343.209	313.75
343.437	339.75
343.665	320.75
343.893	315.75
344.12	327.75
344.348	330.75
344.576	350.75
344.804	342.75
345.031	370.75
345.259	372.75
345.487	384.75
345.714	354.75
345.942	347.75
346.17	343.75
346.397	328.75
346.625	357.75
346.853	347.75
347.08	328.75
347.308	321.75
347.535	346.75
347.763	349.75
347.99	360.75
348.218	349.75
348.445	365.75
348.673	374.75
348.9	340.75
349.128	342.75
349.355	307.75
349.583	340.75
349.81	311.75
350.037	332.75
350.265	313.75
350.492	311.75
350.72	311.75
350.947	345.75
351.174	344.75
351.402	349.75
351.629	347.75
351.856	344.75
352.083	367.75
352.311	377.75
352.538	377.75
352.765	372.75
352.992	378.75
353.22	348.75
353.447	334.75
353.674	358.75
353.901	326.75
354.128	297.75
354.355	306.75
354.583	316.75
354.81	310.75
355.037	304.75
355.264	307.75
355.491	315.75
355.718	297.75
355.945	309.75
356.172	310.75
356.399	314.75
356.626	286.75
356.853	294.75
357.08	303.75
357.307	302.75
357.534	301.75
357.761	300.75
357.988	299.75
358.215	305.75
358.441	308.75
358.668	321.75
358.895	315.75
359.122	315.75
359.349	327.75
359.576	341.75
359.802	379.75
360.029	411.75
360.256	455.75
360.483	409.75
360.709	358.75
360.936	365.75
361.163	344.75
361.39	354.75
361.616	363.75
361.843	352.75
362.07	356.75
362.296	345.75
362.523	353.75
362.749	349.75
362.976	338.75
363.203	331.75
363.429	326.75
363.656	332.75
363.882	335.75
364.109	311.75
364.335	324.75
364.562	314.75
364.788	315.75
365.015	305.75
365.241	320.75
365.468	341.75
365.694	339.75
365.92	323.75
366.147	346.75
366.373	335.75
366.599	309.75
366.826	308.75
367.052	307.75
367.278	316.75
367.505	330.75
367.731	302.75
367.957	313.75
368.184	328.75
368.41	340.75
368.636	325.75
368.862	354.75
369.089	330.75
369.315	326.75
369.541	317.75
369.767	315.75
369.993	316.75
370.219	293.75
370.445	329.75
370.672	295.75
370.898	289.75
371.124	317.75
371.35	302.75
371.576	310.75
371.802	314.75
372.028	308.75
372.254	289.75
372.48	312.75
372.706	293.75
372.932	320.75
373.158	320.75
373.384	307.75
373.61	314.75
373.835	308.75
374.061	319.75
374.287	308.75
374.513	301.75
374.739	311.75
374.965	317.75
375.191	326.75
375.416	300.75
375.642	303.75
375.868	309.75
376.094	307.75
376.319	291.75
376.545	290.75
376.771	295.75
376.997	315.75
377.222	294.75
377.448	291.75
377.674	321.75
377.899	295.75
378.125	311.75
378.35	298.75
378.576	294.75
378.802	296.75
379.027	313.75
379.253	303.75
379.478	308.75
379.704	302.75
379.929	300.75
380.155	304.75
380.38	295.75
380.606	315.75
380.831	323.75
381.057	317.75
381.282	306.75
381.507	317.75
381.733	308.75
381.958	302.75
382.184	296.75
382.409	324.75
382.634	326.75
382.86	324.75
383.085	313.75
383.31	317.75
383.535	314.75
383.761	319.75
383.986	317.75
384.211	306.75
384.436	335.75
384.662	325.75
384.887	334.75
385.112	310.75
385.337	329.75
385.562	313.75
385.787	310.75
386.013	342.75
386.238	340.75
386.463	336.75
386.688	331.75
386.913	333.75
387.138	332.75
387.363	314.75
387.588	331.75
387.813	320.75
388.038	306.75
388.263	332.75
388.488	336.75
388.713	338.75
388.938	315.75
389.163	330.75
389.387	334.75
389.612	310.75
389.837	338.75
390.062	318.75
390.287	329.75
390.512	327.75
390.736	315.75
390.961	318.75
391.186	307.75
391.411	327.75
391.636	330.75
391.86	326.75
392.085	355.75
392.31	335.75
392.534	314.75
392.759	331.75
392.984	329.75
393.208	330.75
393.433	340.75
393.658	329.75
393.882	325.75
394.107	340.75
394.331	332.75
394.556	326.75
394.78	332.75
395.005	331.75
395.229	324.75
395.454	315.75
395.678	347.75
395.903	354.75
396.127	342.75
396.352	371.75
396.576	353.75
396.801	330.75
397.025	335.75
397.249	345.75
397.474	341.75
397.698	364.75
397.922	356.75
398.147	383.75
398.371	373.75
398.595	362.75
398.82	347.75
399.044	358.75
399.268	354.75
399.492	375.75
399.717	395.75
399.941	427.75
400.165	438.75
400.389	467.75
400.613	429.75
400.837	388.75
401.062	372.75
401.286	375.75
401.51	366.75
401.734	373.75
401.958	376.75
402.182	386.75
402.406	381.75
402.63	397.75
402.854	372.75
403.078	404.75
403.302	384.75
403.526	383.75
403.75	398.75
403.974	387.75
404.198	367.75
404.422	383.75
404.645	394.75
404.869	393.75
405.093	409.75
405.317	426.75
405.541	445.75
405.765	437.75
405.988	422.75
406.212	444.75
406.436	461.75
406.66	456.75
406.883	438.75
407.107	460.75
407.331	499.75
407.555	535.75
407.778	529.75
408.002	486.75
408.226	448.75
408.449	443.75
408.673	457.75
408.896	467.75
409.12	492.75
409.344	462.75
409.567	410.75
409.791	391.75
410.014	385.75
410.238	400.75
410.461	382.75
410.685	395.75
410.908	409.75
411.132	452.75
411.355	472.75
411.578	458.75
411.802	411.75
412.025	389.75
412.249	396.75
412.472	403.75
412.695	407.75
412.919	394.75
413.142	411.75
413.365	398.75
413.589	369.75
413.812	355.75
414.035	377.75
414.258	372.75
414.482	367.75
414.705	383.75
414.928	379.75
415.151	356.75
415.374	379.75
415.597	359.75
415.821	372.75
416.044	375.75
416.267	366.75
416.49	379.75
416.713	382.75
416.936	351.75
417.159	395.75
417.382	402.75
417.605	385.75
417.828	399.75
418.051	416.75
418.274	403.75
418.497	375.75
418.72	387.75
418.943	371.75
419.166	387.75
419.389	403.75
419.611	409.75
419.834	397.75
420.057	402.75
420.28	378.75
420.503	399.75
420.726	389.75
420.948	401.75
421.171	445.75
421.394	472.75
421.617	445.75
421.839	413.75
422.062	407.75
422.285	456.75
422.507	476.75
422.73	531.75
422.953	552.75
423.175	454.75
423.398	437.75
423.621	429.75
423.843	439.75
424.066	427.75
424.288	457.75
424.511	469.75
424.733	531.75
424.956	599.75
425.178	549.75
425.401	572.75
425.623	611.75
425.846	513.75
426.068	491.75
426.291	469.75
426.513	477.75
426.735	491.75
426.958	525.75
427.18	567.75
427.402	688.75
427.625	806.75
427.847	734.75
428.069	597.75
428.292	569.75
428.514	517.75
428.736	473.75
428.958	463.75
429.181	450.75
429.403	439.75
429.625	457.75
429.847	470.75
430.069	537.75
430.292	523.75
430.514	472.75
430.736	443.75
430.958	414.75
431.18	405.75
431.402	415.75
431.624	387.75
431.846	394.75
432.068	400.75
432.29	386.75
432.512	404.75
432.734	417.75
432.956	412.75
433.178	414.75
433.4	425.75
433.622	396.75
433.844	401.75
434.066	385.75
434.287	406.75
434.509	435.75
434.731	409.75
434.953	409.75
435.175	447.75
435.397	454.75
435.618	470.75
435.84	513.75
436.062	572.75
436.284	646.75
436.505	554.75
436.727	500.75
436.949	467.75
437.17	424.75
437.392	443.75
437.614	471.75
437.835	517.75
438.057	600.75
438.278	695.75
438.5	674.75
438.721	705.75
438.943	694.75
439.165	561.75
439.386	525.75
439.608	486.75
439.829	486.75
440.05	535.75
440.272	552.75
440.493	533.75
440.715	475.75
440.936	455.75
441.158	438.75
441.379	446.75
441.6	451.75
441.822	476.75
442.043	509.75
442.264	590.75
442.486	610.75
442.707	545.75
442.928	505.75
443.149	514.75
443.371	531.75
443.592	555.75
443.813	637.75
444.034	693.75
444.255	573.75
444.476	489.75
444.698	481.75
444.919	480.75
445.14	570.75
445.361	529.75
445.582	519.75
445.803	584.75
446.024	673.75
446.245	659.75
446.466	601.75
446.687	532.75
446.908	501.75
447.129	450.75
447.35	446.75
447.571	457.75
447.792	435.75
448.013	451.75
448.234	476.75
448.455	542.75
448.675	621.75
448.896	707.75
449.117	606.75
449.338	596.75
449.559	665.75
449.779	723.75
450	596.75
450.221	511.75
450.442	471.75
450.662	458.75
450.883	463.75
451.104	492.75
451.324	505.75
451.545	447.75
451.766	427.75
451.986	421.75
452.207	411.75
452.428	410.75
452.648	393.75
452.869	423.75
453.089	416.75
453.31	424.75
453.53	422.75
453.751	378.75
453.971	427.75
454.192	449.75
454.412	427.75
454.633	409.75
454.853	403.75
455.073	420.75
455.294	425.75
455.514	485.75
455.734	473.75
455.955	399.75
456.175	386.75
456.395	379.75
456.616	383.75
456.836	357.75
457.056	360.75
457.276	347.75
457.497	373.75
457.717	359.75
457.937	380.75
458.157	376.75
458.377	408.75
458.598	409.75
458.818	491.75
459.038	575.75
459.258	569.75
459.478	466.75
459.698	415.75
459.918	415.75
460.138	397.75
460.358	396.75
460.578	380.75
460.798	391.75
461.018	393.75
461.238	401.75
461.458	396.75
461.678	377.75
461.898	378.75
462.118	392.75
462.338	389.75
462.558	373.75
462.777	397.75
462.997	401.75
463.217	389.75
463.437	398.75
463.657	417.75
463.876	385.75
464.096	434.75
464.316	401.75
464.536	420.75
464.755	409.75
464.975	433.75
465.195	490.75
465.414	615.75
465.634	531.75
465.854	470.75
466.073	425.75
466.293	419.75
466.512	387.75
466.732	408.75
466.951	387.75
467.171	386.75
467.391	389.75
467.61	417.75
467.829	427.75
468.049	394.75
468.268	401.75
468.488	381.75
468.707	373.75
468.927	380.75
469.146	381.75
469.365	380.75
469.585	407.75
469.804	392.75
470.023	419.75
470.243	398.75
470.462	422.75
470.681	440.75
470.901	422.75
471.12	401.75
471.339	399.75
471.558	407.75
471.777	387.75
471.997	396.75
472.216	389.75
472.435	418.75
472.654	386.75
472.873	403.75
473.092	387.75
473.311	361.75
473.53	406.75
473.749	425.75
473.968	461.75
474.187	559.75
474.406	573.75
474.625	454.75
474.844	433.75
475.063	436.75
475.282	412.75
475.501	409.75
475.72	389.75
475.939	393.75
476.158	408.75
476.377	402.75
476.596	417.75
476.814	434.75
477.033	454.75
477.252	430.75
477.471	437.75
477.69	436.75
477.908	429.75
478.127	419.75
478.346	416.75
478.564	453.75
478.783	460.75
479.002	450.75
479.22	431.75
479.439	456.75
479.658	481.75
479.876	487.75
480.095	500.75
480.313	517.75
480.532	510.75
480.751	464.75
480.969	502.75
481.188	492.75
481.406	501.75
481.624	488.75
481.843	489.75
482.061	487.75
482.28	469.75
482.498	452.75
482.717	475.75
482.935	462.75
483.153	479.75
483.372	498.75
483.59	467.75
483.808	446.75
484.027	451.75
484.245	475.75
484.463	473.75
484.681	453.75
484.9	469.75
485.118	477.75
485.336	490.75
485.554	480.75
485.772	488.75
485.99	463.75
486.209	506.75
486.427	499.75
486.645	501.75
486.863	542.75
487.081	551.75
487.299	538.75
487.517	521.75
487.735	525.75
487.953	520.75
488.171	520.75
488.389	512.75
488.607	525.75
488.825	529.75
489.043	515.75
489.261	545.75
489.479	529.75
489.696	526.75
489.914	531.75
490.132	521.75
490.35	515.75
490.568	539.75
490.786	545.75
491.003	558.75
491.221	554.75
491.439	575.75
491.657	573.75
491.874	611.75
492.092	601.75
492.31	583.75
492.527	589.75
492.745	586.75
492.963	597.75
493.18	601.75
493.398	619.75
493.615	613.75
493.833	629.75
494.05	633.75
494.268	611.75
494.485	629.75
494.703	622.75
494.92	604.75
495.138	630.75
495.355	623.75
495.573	647.75
495.79	634.75
496.008	610.75
496.225	630.75
496.442	641.75
496.66	613.75
496.877	639.75
497.094	633.75
497.312	621.75
497.529	637.75
497.746	626.75
497.963	628.75
498.181	661.75
498.398	651.75
498.615	647.75
498.832	679.75
499.049	676.75
499.267	684.75
499.484	687.75
499.701	693.75
499.918	725.75
500.135	735.75
500.352	729.75
500.569	719.75
500.786	718.75
501.003	754.75
501.22	728.75
501.437	734.75
501.654	733.75
501.871	761.75
502.088	740.75
502.305	699.75
502.522	698.75
502.739	679.75
502.956	685.75
503.172	663.75
503.389	657.75
503.606	663.75
503.823	658.75
504.04	675.75
504.256	617.75
504.473	627.75
504.69	610.75
504.907	615.75
505.123	622.75
505.34	634.75
505.557	627.75
505.773	606.75
505.99	621.75
506.207	622.75
506.423	625.75
506.64	618.75
506.856	629.75
507.073	607.75
507.289	622.75
507.506	626.75
507.722	621.75
507.939	625.75
508.155	628.75
508.372	601.75
508.588	602.75
508.805	598.75
509.021	607.75
509.238	600.75
509.454	631.75
509.67	610.75
509.887	608.75
510.103	616.75
510.319	644.75
510.536	745.75
510.752	1372.75
510.968	1130.75
511.184	665.75
511.401	619.75
511.617	598.75
511.833	593.75
512.049	586.75
512.265	587.75
512.481	592.75
512.698	587.75
512.914	579.75
513.13	605.75
513.346	569.75
513.562	595.75
513.778	622.75
513.994	614.75
514.21	628.75
514.426	679.75
514.642	762.75
514.858	814.75
515.074	858.75
515.29	1057.75
515.506	1663.75
515.721	1315.75
515.937	801.75
516.153	726.75
516.369	648.75
516.585	668.75
516.801	620.75
517.016	595.75
517.232	600.75
517.448	610.75
517.664	605.75
517.879	596.75
518.095	591.75
518.311	575.75
518.527	602.75
518.742	592.75
518.958	583.75
519.173	572.75
519.389	607.75
519.605	584.75
519.82	603.75
520.036	633.75
520.251	678.75
520.467	700.75
520.682	717.75
520.898	707.75
521.113	773.75
521.329	837.75
521.544	981.75
521.76	1276.75
521.975	2217.75
522.19	2175.75
522.406	1127.75
522.621	806.75
522.836	703.75
523.052	633.75
523.267	611.75
523.482	565.75
523.698	558.75
523.913	576.75
524.128	561.75
524.343	518.75
524.559	518.75
524.774	526.75
524.989	532.75
525.204	545.75
525.419	518.75
525.634	503.75
525.849	513.75
526.064	499.75
526.28	476.75
526.495	509.75
526.71	485.75
526.925	474.75
527.14	453.75
527.355	487.75
527.57	481.75
527.785	467.75
527.999	450.75
528.214	444.75
528.429	454.75
528.644	464.75
528.859	456.75
529.074	464.75
529.289	492.75
529.503	605.75
529.718	601.75
529.933	522.75
530.148	513.75
530.363	465.75
530.577	469.75
530.792	446.75
531.007	449.75
531.221	438.75
531.436	467.75
531.651	441.75
531.865	453.75
532.08	449.75
532.295	451.75
532.509	435.75
532.724	425.75
532.938	400.75
533.153	428.75
533.367	432.75
533.582	435.75
533.796	444.75
534.011	444.75
534.225	425.75
534.44	420.75
534.654	421.75
534.868	424.75
535.083	419.75
535.297	436.75
535.511	419.75
535.726	445.75
535.94	437.75
536.154	440.75
536.369	416.75
536.583	418.75
536.797	406.75
537.011	420.75
537.225	424.75
537.44	398.75
537.654	406.75
537.868	399.75
538.082	411.75
538.296	405.75
538.51	408.75
538.724	421.75
538.938	408.75
539.153	419.75
539.367	403.75
539.581	432.75
539.795	408.75
540.009	397.75
540.222	409.75
540.436	417.75
540.65	429.75
540.864	424.75
541.078	424.75
541.292	407.75
541.506	406.75
541.72	409.75
541.934	405.75
542.147	408.75
542.361	389.75
542.575	412.75
542.789	395.75
543.002	413.75
543.216	407.75
543.43	436.75
543.644	411.75
543.857	410.75
544.071	419.75
544.285	410.75
544.498	395.75
544.712	418.75
544.925	397.75
545.139	379.75
545.352	379.75
545.566	403.75
545.779	411.75
545.993	383.75
546.206	410.75
546.42	382.75
546.633	380.75
546.847	366.75
547.06	369.75
547.274	381.75
547.487	381.75
547.7	365.75
547.914	361.75
548.127	373.75
548.34	375.75
548.554	363.75
548.767	369.75
548.98	383.75
549.193	362.75
549.407	361.75
549.62	377.75
549.833	369.75
550.046	366.75
550.259	375.75
550.473	351.75
550.686	377.75
550.899	375.75
551.112	362.75
551.325	375.75
551.538	355.75
551.751	377.75
551.964	359.75
552.177	366.75
552.39	365.75
552.603	360.75
552.816	369.75
553.029	347.75
553.242	357.75
553.455	374.75
553.667	384.75
553.88	393.75
554.093	381.75
554.306	379.75
554.519	378.75
554.732	372.75
554.944	361.75
555.157	360.75
555.37	374.75
555.583	354.75
555.795	354.75
556.008	354.75
556.221	352.75
556.433	355.75
556.646	353.75
556.859	339.75
557.071	342.75
557.284	330.75
557.496	348.75
557.709	336.75
557.921	347.75
558.134	344.75
558.346	341.75
558.559	325.75
558.771	338.75
558.984	357.75
559.196	321.75
559.409	317.75
559.621	331.75
559.833	334.75
560.046	333.75
560.258	322.75
560.47	333.75
560.683	321.75
560.895	342.75
561.107	339.75
561.32	324.75
561.532	347.75
561.744	334.75
561.956	334.75
562.168	331.75
562.381	337.75
562.593	323.75
562.805	333.75
563.017	325.75
563.229	327.75
563.441	316.75
563.653	346.75
563.865	320.75
564.077	329.75
564.289	324.75
564.501	348.75
564.713	351.75
564.925	335.75
565.137	350.75
565.349	339.75
565.561	346.75
565.773	377.75
565.985	351.75
566.197	355.75
566.408	350.75
566.62	360.75
566.832	352.75
567.044	375.75
567.255	373.75
567.467	375.75
567.679	363.75
567.891	377.75
568.102	377.75
568.314	376.75
568.526	350.75
568.737	362.75
568.949	353.75
569.161	342.75
569.372	341.75
569.584	346.75
569.795	348.75
570.007	329.75
570.218	400.75
570.43	386.75
570.641	342.75
570.853	318.75
571.064	326.75
571.276	310.75
571.487	305.75
571.698	310.75
571.91	311.75
572.121	298.75
572.333	302.75
572.544	332.75
572.755	293.75
572.966	301.75
573.178	311.75
573.389	299.75
573.6	308.75
573.811	297.75
574.023	287.75
574.234	305.75
574.445	279.75
574.656	293.75
574.867	296.75
575.078	289.75
575.289	283.75
575.501	290.75
575.712	291.75
575.923	284.75
576.134	283.75
576.345	287.75
576.556	288.75
576.767	283.75
576.978	284.75
577.188	292.75
577.399	281.75
577.61	284.75
577.821	278.75
578.032	306.75
578.243	341.75
578.454	655.75
578.665	451.75
578.875	316.75
579.086	279.75
579.297	270.75
579.508	265.75
579.718	277.75
579.929	277.75
580.14	276.75
580.35	269.75
580.561	290.75
580.772	278.75
580.982	270.75
581.193	275.75
581.403	250.75
581.614	271.75
581.825	243.75
582.035	255.75
582.246	268.75
582.456	251.75
582.667	280.75
582.877	269.75
583.087	257.75
583.298	254.75
583.508	277.75
583.719	271.75
583.929	259.75
584.139	270.75
584.35	263.75
584.56	275.75
584.77	270.75
584.981	278.75
585.191	261.75
585.401	257.75
585.611	253.75
585.821	249.75
586.032	271.75
586.242	255.75
586.452	252.75
586.662	270.75
586.872	271.75
587.082	271.75
587.292	243.75
587.502	238.75
587.713	246.75
587.923	271.75
588.133	273.75
588.343	266.75
588.553	268.75
588.762	262.75
588.972	259.75
589.182	329.75
589.392	322.75
589.602	277.75
589.812	313.75
590.022	286.75
590.232	266.75
590.441	257.75
590.651	259.75
590.861	252.75
591.071	255.75
591.281	255.75
591.49	249.75
591.7	240.75
591.91	264.75
592.119	257.75
592.329	250.75
592.539	264.75
592.748	270.75
592.958	253.75
593.167	266.75
593.377	270.75
593.587	258.75
593.796	255.75
594.006	236.75
594.215	261.75
594.424	234.75
594.634	238.75
594.843	239.75
595.053	253.75
595.262	257.75
595.472	234.75
595.681	214.75
595.89	248.75
596.1	245.75
596.309	226.75
596.518	225.75
596.727	245.75
596.937	226.75
597.146	232.75
597.355	248.75
597.564	232.75
597.774	250.75
597.983	245.75
598.192	243.75
598.401	232.75
598.61	234.75
598.819	219.75
599.028	235.75
599.237	230.75
599.446	231.75
599.655	234.75
599.864	235.75
600.073	235.75
600.282	244.75
600.491	212.75
600.7	204.75
600.909	218.75
601.118	233.75
601.327	214.75
601.536	230.75
601.745	225.75
601.953	218.75
602.162	225.75
602.371	218.75
602.58	212.75
602.789	221.75
602.997	219.75
603.206	235.75
603.415	216.75
603.623	214.75
603.832	210.75
604.041	195.75
604.249	206.75
604.458	211.75
604.666	213.75
604.875	219.75
605.084	222.75
605.292	211.75
605.501	222.75
605.709	222.75
605.918	211.75
606.126	200.75
606.334	213.75
606.543	221.75
606.751	218.75
606.96	210.75
607.168	223.75
607.376	203.75
607.585	217.75
607.793	223.75
608.001	228.75
608.21	206.75
608.418	225.75
608.626	197.75
608.834	209.75
609.043	200.75
609.251	207.75
609.459	212.75
609.667	214.75
609.875	230.75
610.083	207.75
610.291	216.75
610.499	206.75
610.707	198.75
610.916	223.75
611.124	231.75
611.332	222.75
611.54	226.75
611.748	200.75
611.955	202.75
612.163	209.75
612.371	224.75
612.579	211.75
612.787	217.75
612.995	198.75
613.203	211.75
613.411	216.75
613.618	212.75
613.826	194.75
614.034	189.75
614.242	194.75
614.449	202.75
614.657	212.75
614.865	209.75
615.072	211.75
615.28	191.75
615.488	192.75
615.695	191.75
615.903	198.75
616.111	211.75
616.318	226.75
616.526	203.75
616.733	199.75
616.941	206.75
617.148	200.75
617.356	203.75
617.563	192.75
617.771	206.75
617.978	196.75
618.185	217.75
618.393	183.75
618.6	201.75
618.807	218.75
619.015	194.75
619.222	205.75
619.429	204.75
619.637	215.75
619.844	221.75
620.051	223.75
620.258	203.75
620.466	202.75
620.673	200.75
620.88	201.75
621.087	194.75
621.294	198.75
621.501	191.75
621.708	191.75
621.915	187.75
622.122	199.75
622.329	200.75
622.536	195.75
622.743	193.75
622.95	198.75
623.157	181.75
623.364	196.75
623.571	184.75
623.778	181.75
623.985	186.75
624.192	194.75
624.399	181.75
624.606	198.75
624.812	189.75
625.019	182.75
625.226	190.75
625.433	181.75
625.639	178.75
625.846	213.75
626.053	185.75
626.259	181.75
626.466	194.75
626.673	201.75
626.879	181.75
627.086	185.75
627.293	179.75
627.499	187.75
627.706	184.75
627.912	194.75
628.119	178.75
628.325	206.75
628.532	187.75
628.738	184.75
628.945	166.75
629.151	177.75
629.357	170.75
629.564	181.75
629.77	154.75
629.976	165.75
630.183	166.75
630.389	189.75
630.595	163.75
630.802	174.75
631.008	167.75
631.214	171.75
631.42	176.75
631.627	187.75
631.833	178.75
632.039	174.75
632.245	162.75
632.451	191.75
632.657	171.75
632.863	188.75
633.069	152.75
633.275	173.75
633.481	165.75
633.688	177.75
633.893	172.75
634.099	169.75
634.305	171.75
634.511	162.75
634.717	157.75
634.923	142.75
635.129	155.75
635.335	170.75
635.541	165.75
635.747	159.75
635.952	146.75
636.158	175.75
636.364	157.75
636.57	166.75
636.775	154.75
636.981	145.75
637.187	169.75
637.392	150.75
637.598	169.75
637.804	154.75
638.009	170.75
638.215	161.75
638.421	163.75
638.626	164.75
638.832	157.75
639.037	163.75
639.243	151.75
639.448	165.75
639.654	137.75
639.859	165.75
640.065	152.75
640.27	156.75
640.475	147.75
640.681	161.75
640.886	165.75
641.091	148.75
641.297	147.75
641.502	157.75
641.707	148.75
641.913	165.75
642.118	158.75
642.323	158.75
642.528	143.75
642.733	139.75
642.939	148.75
643.144	143.75
643.349	157.75
643.554	170.75
643.759	136.75
643.964	158.75
644.169	167.75
644.374	159.75
644.579	161.75
644.784	140.75
644.989	148.75
645.194	132.75
645.399	148.75
645.604	153.75
645.809	142.75
646.014	150.75
646.219	156.75
646.423	137.75
646.628	146.75
646.833	153.75
647.038	142.75
647.243	141.75
647.447	162.75
647.652	129.75
647.857	137.75
648.062	154.75
648.266	141.75
648.471	165.75
648.676	142.75
648.88	141.75
649.085	140.75
649.289	151.75
649.494	139.75
649.698	165.75
649.903	161.75
650.107	153.75
650.312	159.75
650.516	147.75
650.721	150.75
650.925	132.75
651.13	134.75
651.334	124.75
651.539	134.75
651.743	131.75
651.947	142.75
652.152	132.75
652.356	140.75
652.56	133.75
652.764	142.75
652.969	130.75
653.173	146.75
653.377	136.75
653.581	122.75
653.785	139.75
653.99	133.75
654.194	117.75
654.398	125.75
654.602	124.75
654.806	125.75
655.01	134.75
655.214	128.75
655.418	118.75
655.622	127.75
655.826	125.75
656.03	123.75
656.234	109.75
656.438	109.75
656.642	116.75
656.846	124.75
657.049	113.75
657.253	111.75
657.457	93.75
657.661	123.75
657.865	112.75
658.068	96.75
658.272	102.75
658.476	123.75
658.68	97.75
658.883	98.75
659.087	105.75
659.291	99.75
659.494	101.75
659.698	96.75
659.901	90.75
660.105	82.75
660.309	92.75
660.512	100.75
660.716	94.75
660.919	82.75
661.123	77.75
661.326	87.75
661.53	88.75
661.733	87.75
661.936	91.75
662.14	97.75
662.343	87.75
662.546	87.75
662.75	91.75
662.953	97.75
663.156	76.75
663.36	88.75
663.563	84.75
663.766	84.75
663.969	96.75
664.173	91.75
664.376	75.75
664.579	85.75
664.782	94.75
664.985	83.75
665.188	87.75
665.391	89.75
665.594	76.75
665.797	99.75
666	99.75
666.203	74.75
666.406	88.75
666.609	93.75
666.812	86.75
667.015	75.75
667.218	86.75
667.421	81.75
667.624	91.75
667.827	74.75
668.03	88.75
668.232	83.75
668.435	84.75
668.638	79.75
668.841	97.75
669.043	91.75
669.246	73.75
669.449	85.75
669.651	88.75
669.854	76.75
670.057	92.75
670.259	79.75
670.462	91.75
670.665	76.75
670.867	90.75
671.07	84.75
671.272	94.75
671.475	84.75
671.677	58.75
671.88	83.75
672.082	81.75
672.284	70.75
672.487	72.75
672.689	86.75
672.892	74.75
