Data from 1987.PennyLincolnUp.Lamp.En5.5.200Scan.071819.P2_HRD10591_17-15-45-972.txt Node
Date: Thu Jul 18 17:15:45 EDT 2019
User: cochatt
Spectrometer: HR+D1059
Trigger mode: 1
Integration Time (sec): 1.000000E-1
Scans to average: 1
Electric dark correction enabled: true
Nonlinearity correction enabled: false
Boxcar width: 0
XAxis mode: Wavelengths
Number of Pixels in Spectrum: 2048
>>>>>Begin Spectral Data<<<<<
223.165	-24
223.4	-24
223.635	-24
223.869	-11
224.104	-1
224.338	-11
224.573	-31
224.808	-14
225.042	-6
225.277	1
225.511	-7
225.746	-1
225.98	4
226.215	11
226.449	10
226.683	16
226.918	33
227.152	31
227.387	32
227.621	35
227.856	31
228.09	35
228.324	51
228.559	60
228.793	69
229.027	115
229.262	124
229.496	112
229.73	152
229.964	160
230.199	136
230.433	122
230.667	119
230.901	114
231.136	113
231.37	119
231.604	131
231.838	116
232.072	114
232.306	92
232.541	125
232.775	115
233.009	118
233.243	117
233.477	112
233.711	117
233.945	97
234.179	123
234.413	121
234.647	108
234.881	111
235.115	109
235.349	121
235.583	106
235.817	129
236.051	140
236.285	123
236.519	134
236.753	131
236.987	155
237.221	200
237.455	247
237.689	209
237.922	148
238.156	133
238.39	126
238.624	117
238.858	125
239.091	110
239.325	116
239.559	129
239.793	124
240.027	143
240.26	149
240.494	141
240.728	166
240.961	141
241.195	155
241.429	141
241.662	136
241.896	138
242.13	138
242.363	126
242.597	129
242.83	118
243.064	132
243.298	122
243.531	144
243.765	121
243.998	145
244.232	139
244.465	143
244.699	156
244.932	130
245.166	136
245.399	129
245.633	131
245.866	153
246.099	126
246.333	147
246.566	127
246.8	150
247.033	141
247.266	145
247.5	170
247.733	153
247.966	163
248.2	157
248.433	155
248.666	151
248.899	190
249.133	202
249.366	204
249.599	202
249.832	189
250.066	164
250.299	163
250.532	171
250.765	183
250.998	214
251.231	208
251.465	213
251.698	201
251.931	204
252.164	187
252.397	190
252.63	191
252.863	192
253.096	208
253.329	228
253.562	230
253.795	231
254.028	216
254.261	234
254.494	229
254.727	253
254.96	280
255.193	276
255.426	239
255.659	232
255.892	233
256.124	217
256.357	194
256.59	189
256.823	203
257.056	204
257.289	195
257.521	200
257.754	183
257.987	200
258.22	204
258.452	196
258.685	200
258.918	192
259.151	199
259.383	187
259.616	217
259.849	218
260.081	226
260.314	254
260.547	265
260.779	248
261.012	216
261.244	213
261.477	234
261.71	206
261.942	234
262.175	240
262.407	245
262.64	221
262.872	199
263.105	203
263.337	199
263.57	189
263.802	203
264.035	186
264.267	199
264.499	188
264.732	180
264.964	181
265.197	199
265.429	202
265.661	185
265.894	191
266.126	201
266.358	197
266.591	202
266.823	196
267.055	213
267.287	207
267.52	188
267.752	197
267.984	216
268.216	225
268.448	220
268.681	205
268.913	215
269.145	229
269.377	261
269.609	245
269.841	247
270.073	262
270.306	262
270.538	331
270.77	316
271.002	280
271.234	279
271.466	281
271.698	292
271.93	301
272.162	305
272.394	323
272.626	308
272.858	292
273.09	285
273.322	251
273.553	259
273.785	257
274.017	267
274.249	236
274.481	234
274.713	228
274.945	237
275.176	243
275.408	246
275.64	243
275.872	234
276.104	243
276.335	241
276.567	256
276.799	277
277.031	312
277.262	287
277.494	295
277.726	288
277.957	266
278.189	260
278.421	243
278.652	254
278.884	235
279.115	243
279.347	236
279.579	220
279.81	216
280.042	218
280.273	217
280.505	218
280.736	225
280.968	218
281.199	218
281.431	225
281.662	230
281.894	226
282.125	233
282.356	259
282.588	273
282.819	306
283.051	259
283.282	225
283.513	206
283.745	231
283.976	223
284.207	228
284.439	239
284.67	241
284.901	257
285.132	235
285.364	243
285.595	244
285.826	225
286.057	228
286.288	230
286.52	234
286.751	234
286.982	218
287.213	242
287.444	226
287.675	214
287.906	257
288.138	255
288.369	262
288.6	253
288.831	236
289.062	254
289.293	246
289.524	242
289.755	232
289.986	239
290.217	243
290.448	251
290.679	234
290.91	224
291.141	228
291.371	247
291.602	261
291.833	243
292.064	232
292.295	245
292.526	241
292.757	234
292.987	224
293.218	246
293.449	233
293.68	241
293.91	234
294.141	229
294.372	229
294.603	245
294.833	234
295.064	231
295.295	227
295.525	249
295.756	265
295.987	245
296.217	276
296.448	289
296.679	265
296.909	231
297.14	251
297.37	225
297.601	244
297.831	231
298.062	253
298.292	243
298.523	254
298.753	232
298.984	230
299.214	253
299.445	245
299.675	259
299.905	245
300.136	248
300.366	259
300.597	263
300.827	263
301.057	270
301.288	285
301.518	304
301.748	275
301.979	260
302.209	249
302.439	263
302.669	261
302.9	255
303.13	258
303.36	269
303.59	275
303.82	279
304.051	292
304.281	259
304.511	267
304.741	277
304.971	247
305.201	268
305.431	275
305.661	261
305.891	272
306.121	278
306.352	294
306.582	308
306.812	283
307.042	275
307.272	270
307.502	275
307.731	281
307.961	274
308.191	279
308.421	259
308.651	288
308.881	289
309.111	303
309.341	307
309.571	305
309.8	316
310.03	336
310.26	343
310.49	344
310.72	365
310.949	381
311.179	382
311.409	351
311.639	340
311.868	353
312.098	353
312.328	355
312.557	385
312.787	409
313.017	395
313.246	354
313.476	334
313.706	347
313.935	370
314.165	367
314.394	373
314.624	370
314.853	348
315.083	342
315.312	318
315.542	331
315.771	323
316.001	324
316.23	332
316.46	317
316.689	329
316.919	328
317.148	353
317.377	343
317.607	329
317.836	347
318.065	328
318.295	332
318.524	324
318.753	330
318.983	347
319.212	337
319.441	335
319.67	347
319.9	337
320.129	319
320.358	341
320.587	341
320.816	362
321.046	366
321.275	350
321.504	360
321.733	377
321.962	380
322.191	427
322.42	416
322.649	456
322.878	460
323.108	461
323.337	522
323.566	546
323.795	612
324.024	682
324.253	854
324.482	1231
324.71	1885
324.939	2696
325.168	2342
325.397	1297
325.626	836
325.855	637
326.084	564
326.313	539
326.542	564
326.77	631
326.999	738
327.228	1091
327.457	1643
327.686	2019
327.914	1402
328.143	888
328.372	738
328.6	657
328.829	658
329.058	665
329.287	703
329.515	600
329.744	527
329.972	518
330.201	507
330.43	547
330.658	610
330.887	684
331.115	665
331.344	532
331.572	509
331.801	492
332.03	485
332.258	446
332.486	418
332.715	397
332.943	408
333.172	407
333.4	393
333.629	398
333.857	408
334.085	421
334.314	377
334.542	394
334.771	422
334.999	398
335.227	402
335.455	378
335.684	371
335.912	385
336.14	351
336.369	369
336.597	379
336.825	396
337.053	391
337.281	372
337.51	369
337.738	379
337.966	382
338.194	386
338.422	382
338.65	381
338.878	360
339.106	365
339.334	364
339.562	359
339.79	362
340.018	382
340.246	371
340.474	373
340.702	384
340.93	371
341.158	387
341.386	365
341.614	387
341.842	373
342.07	367
342.298	350
342.526	366
342.754	359
342.981	343
343.209	325
343.437	378
343.665	347
343.893	342
344.12	348
344.348	354
344.576	362
344.804	383
345.031	388
345.259	394
345.487	397
345.714	387
345.942	375
346.17	349
346.397	347
346.625	372
346.853	354
347.08	356
347.308	381
347.535	385
347.763	401
347.99	407
348.218	398
348.445	418
348.673	414
348.9	403
349.128	383
349.355	358
349.583	354
349.81	362
350.037	348
350.265	363
350.492	341
350.72	364
350.947	374
351.174	371
351.402	405
351.629	385
351.856	387
352.083	388
352.311	390
352.538	420
352.765	411
352.992	398
353.22	378
353.447	379
353.674	357
353.901	370
354.128	341
354.355	331
354.583	345
354.81	346
355.037	339
355.264	322
355.491	319
355.718	322
355.945	330
356.172	315
356.399	325
356.626	330
356.853	329
357.08	333
357.307	343
357.534	317
357.761	321
357.988	344
358.215	335
358.441	338
358.668	339
358.895	354
359.122	346
359.349	355
359.576	390
359.802	415
360.029	460
360.256	486
360.483	454
360.709	407
360.936	402
361.163	388
361.39	394
361.616	388
361.843	373
362.07	389
362.296	411
362.523	380
362.749	375
362.976	385
363.203	374
363.429	364
363.656	356
363.882	338
364.109	358
364.335	355
364.562	357
364.788	358
365.015	345
365.241	352
365.468	371
365.694	356
365.92	364
366.147	337
366.373	333
366.599	348
366.826	358
367.052	351
367.278	354
367.505	351
367.731	350
367.957	372
368.184	330
368.41	347
368.636	362
368.862	361
369.089	339
369.315	355
369.541	349
369.767	347
369.993	344
370.219	352
370.445	343
370.672	342
370.898	348
371.124	326
371.35	348
371.576	331
371.802	339
372.028	325
372.254	346
372.48	337
372.706	333
372.932	327
373.158	315
373.384	319
373.61	322
373.835	330
374.061	322
374.287	343
374.513	324
374.739	319
374.965	341
375.191	331
375.416	326
375.642	321
375.868	354
376.094	340
376.319	345
376.545	327
376.771	320
376.997	322
377.222	314
377.448	312
377.674	333
377.899	331
378.125	330
378.35	321
378.576	313
378.802	317
379.027	319
379.253	309
379.478	325
379.704	316
379.929	332
380.155	342
380.38	337
380.606	327
380.831	324
381.057	330
381.282	350
381.507	341
381.733	344
381.958	343
382.184	356
382.409	324
382.634	325
382.86	354
383.085	332
383.31	347
383.535	333
383.761	332
383.986	333
384.211	338
384.436	342
384.662	320
384.887	361
385.112	343
385.337	347
385.562	341
385.787	339
386.013	352
386.238	354
386.463	359
386.688	332
386.913	350
387.138	346
387.363	355
387.588	340
387.813	367
388.038	339
388.263	346
388.488	339
388.713	373
388.938	361
389.163	373
389.387	354
389.612	344
389.837	331
390.062	351
390.287	366
390.512	337
390.736	325
390.961	334
391.186	347
391.411	355
391.636	360
391.86	343
392.085	342
392.31	368
392.534	364
392.759	346
392.984	355
393.208	351
393.433	360
393.658	343
393.882	348
394.107	335
394.331	330
394.556	348
394.78	352
395.005	367
395.229	357
395.454	377
395.678	360
395.903	367
396.127	381
396.352	391
396.576	379
396.801	370
397.025	349
397.249	371
397.474	360
397.698	385
397.922	402
398.147	405
398.371	404
398.595	388
398.82	387
399.044	392
399.268	418
399.492	395
399.717	422
399.941	441
400.165	487
400.389	482
400.613	459
400.837	409
401.062	426
401.286	420
401.51	398
401.734	387
401.958	416
402.182	402
402.406	421
402.63	421
402.854	416
403.078	411
403.302	396
403.526	403
403.75	443
403.974	415
404.198	423
404.422	418
404.645	424
404.869	434
405.093	437
405.317	459
405.541	483
405.765	472
405.988	445
406.212	461
406.436	508
406.66	533
406.883	487
407.107	476
407.331	520
407.555	572
407.778	582
408.002	524
408.226	495
408.449	458
408.673	454
408.896	520
409.12	543
409.344	539
409.567	491
409.791	444
410.014	443
410.238	437
410.461	451
410.685	441
410.908	463
411.132	475
411.355	535
411.578	495
411.802	467
412.025	428
412.249	432
412.472	453
412.695	439
412.919	426
413.142	417
413.365	401
413.589	407
413.812	394
414.035	408
414.258	417
414.482	390
414.705	377
414.928	385
415.151	387
415.374	384
415.597	410
415.821	377
416.044	396
416.267	426
416.49	418
416.713	416
416.936	408
417.159	405
417.382	438
417.605	408
417.828	433
418.051	444
418.274	414
418.497	449
418.72	414
418.943	400
419.166	420
419.389	444
419.611	425
419.834	434
420.057	417
420.28	422
420.503	428
420.726	399
420.948	461
421.171	486
421.394	511
421.617	474
421.839	445
422.062	453
422.285	464
422.507	524
422.73	594
422.953	569
423.175	505
423.398	477
423.621	480
423.843	477
424.066	503
424.288	481
424.511	529
424.733	550
424.956	665
425.178	631
425.401	634
425.623	640
425.846	552
426.068	531
426.291	522
426.513	519
426.735	535
426.958	572
427.18	641
427.402	755
427.625	863
427.847	789
428.069	643
428.292	580
428.514	541
428.736	517
428.958	495
429.181	476
429.403	489
429.625	490
429.847	513
430.069	595
430.292	587
430.514	510
430.736	476
430.958	484
431.18	454
431.402	433
431.624	444
431.846	428
432.068	419
432.29	453
432.512	435
432.734	446
432.956	448
433.178	435
433.4	465
433.622	443
433.844	421
434.066	425
434.287	420
434.509	418
434.731	450
434.953	450
435.175	458
435.397	492
435.618	519
435.84	557
436.062	645
436.284	704
436.505	611
436.727	552
436.949	507
437.17	465
437.392	477
437.614	502
437.835	569
438.057	662
438.278	760
438.5	748
438.721	748
438.943	731
439.165	636
439.386	544
439.608	538
439.829	541
440.05	594
440.272	617
440.493	597
440.715	544
440.936	511
441.158	500
441.379	485
441.6	474
441.822	507
442.043	567
442.264	630
442.486	691
442.707	581
442.928	537
443.149	533
443.371	580
443.592	609
443.813	699
444.034	753
444.255	626
444.476	551
444.698	532
444.919	508
445.14	599
445.361	560
445.582	579
445.803	665
446.024	748
446.245	751
446.466	697
446.687	601
446.908	552
447.129	518
447.35	495
447.571	511
447.792	479
448.013	494
448.234	513
448.455	563
448.675	683
448.896	755
449.117	691
449.338	640
449.559	717
449.779	819
450	678
450.221	577
450.442	524
450.662	517
450.883	509
451.104	530
451.324	522
451.545	500
451.766	467
451.986	461
452.207	438
452.428	439
452.648	439
452.869	421
453.089	454
453.31	469
453.53	455
453.751	471
453.971	461
454.192	517
454.412	466
454.633	460
454.853	436
455.073	447
455.294	489
455.514	522
455.734	516
455.955	450
456.175	410
456.395	415
456.616	416
456.836	403
457.056	404
457.276	388
457.497	405
457.717	397
457.937	408
458.157	409
458.377	412
458.598	434
458.818	531
459.038	637
459.258	625
459.478	547
459.698	461
459.918	447
460.138	441
460.358	427
460.578	411
460.798	442
461.018	433
461.238	411
461.458	412
461.678	417
461.898	433
462.118	401
462.338	421
462.558	420
462.777	425
462.997	425
463.217	434
463.437	447
463.657	426
463.876	415
464.096	457
464.316	441
464.536	463
464.755	473
464.975	479
465.195	555
465.414	662
465.634	595
465.854	506
466.073	471
466.293	464
466.512	426
466.732	419
466.951	421
467.171	424
467.391	431
467.61	440
467.829	476
468.049	454
468.268	409
468.488	406
468.707	429
468.927	407
469.146	404
469.365	402
469.585	435
469.804	401
470.023	436
470.243	466
470.462	465
470.681	467
470.901	464
471.12	445
471.339	454
471.558	440
471.777	441
471.997	436
472.216	412
472.435	411
472.654	413
472.873	423
473.092	421
473.311	423
473.53	428
473.749	419
473.968	495
474.187	614
474.406	652
474.625	506
474.844	455
475.063	415
475.282	442
475.501	437
475.72	457
475.939	448
476.158	429
476.377	438
476.596	437
476.814	444
477.033	478
477.252	470
477.471	463
477.69	468
477.908	477
478.127	460
478.346	440
478.564	456
478.783	461
479.002	470
479.22	480
479.439	518
479.658	546
479.876	530
480.095	527
480.313	559
480.532	544
480.751	517
480.969	513
481.188	549
481.406	531
481.624	524
481.843	529
482.061	499
482.28	526
482.498	533
482.717	530
482.935	518
483.153	498
483.372	497
483.59	511
483.808	481
484.027	516
484.245	548
484.463	489
484.681	512
484.9	529
485.118	515
485.336	533
485.554	531
485.772	540
485.99	538
486.209	552
486.427	556
486.645	587
486.863	592
487.081	567
487.299	591
487.517	564
487.735	578
487.953	562
488.171	566
488.389	559
488.607	565
488.825	587
489.043	594
489.261	582
489.479	572
489.696	572
489.914	576
490.132	573
490.35	567
490.568	597
490.786	597
491.003	611
491.221	617
491.439	621
491.657	641
491.874	629
492.092	644
492.31	629
492.527	655
492.745	660
492.963	673
493.18	667
493.398	635
493.615	665
493.833	672
494.05	658
494.268	678
494.485	663
494.703	684
494.92	674
495.138	701
495.355	691
495.573	695
495.79	678
496.008	689
496.225	673
496.442	681
496.66	677
496.877	668
497.094	654
497.312	662
497.529	687
497.746	707
497.963	711
498.181	720
498.398	738
498.615	712
498.832	708
499.049	718
499.267	744
499.484	771
499.701	744
499.918	754
500.135	772
500.352	781
500.569	789
500.786	798
501.003	812
501.22	794
501.437	793
501.654	775
501.871	831
502.088	811
502.305	782
502.522	739
502.739	709
502.956	696
503.172	716
503.389	718
503.606	723
503.823	733
504.04	713
504.256	701
504.473	666
504.69	661
504.907	687
505.123	685
505.34	664
505.557	693
505.773	697
505.99	681
506.207	671
506.423	681
506.64	687
506.856	674
507.073	671
507.289	663
507.506	650
507.722	696
507.939	708
508.155	682
508.372	676
508.588	668
508.805	660
509.021	654
509.238	679
509.454	670
509.67	653
509.887	704
510.103	679
510.319	710
510.536	836
510.752	1551
510.968	1264
511.184	753
511.401	687
511.617	708
511.833	662
512.049	652
512.265	641
512.481	648
512.698	635
512.914	631
513.13	653
513.346	656
513.562	677
513.778	637
513.994	658
514.21	693
514.426	728
514.642	812
514.858	863
515.074	952
515.29	1186
515.506	1836
515.721	1479
515.937	899
516.153	778
516.369	736
516.585	711
516.801	671
517.016	642
517.232	660
517.448	655
517.664	652
517.879	637
518.095	639
518.311	647
518.527	641
518.742	643
518.958	636
519.173	627
519.389	657
519.605	640
519.82	687
520.036	688
520.251	735
520.467	801
520.682	801
520.898	796
521.113	857
521.329	934
521.544	1113
521.76	1482
521.975	2547
522.19	2474
522.406	1281
522.621	899
522.836	796
523.052	729
523.267	683
523.482	659
523.698	615
523.913	620
524.128	617
524.343	586
524.559	592
524.774	568
524.989	538
525.204	576
525.419	585
525.634	564
525.849	554
526.064	524
526.28	523
526.495	533
526.71	525
526.925	526
527.14	519
527.355	490
527.57	493
527.785	500
527.999	486
528.214	487
528.429	482
528.644	515
528.859	513
529.074	500
529.289	517
529.503	687
529.718	667
529.933	541
530.148	548
530.363	529
530.577	520
530.792	491
531.007	497
531.221	482
531.436	480
531.651	468
531.865	467
532.08	472
532.295	481
532.509	462
532.724	456
532.938	452
533.153	476
533.367	453
533.582	468
533.796	455
534.011	474
534.225	468
534.44	457
534.654	443
534.868	449
535.083	445
535.297	475
535.511	474
535.726	485
535.94	473
536.154	455
536.369	461
536.583	439
536.797	452
537.011	465
537.225	447
537.44	431
537.654	438
537.868	441
538.082	451
538.296	472
538.51	435
538.724	440
538.938	451
539.153	452
539.367	467
539.581	492
539.795	440
540.009	460
540.222	464
540.436	455
540.65	447
540.864	467
541.078	428
541.292	454
541.506	452
541.72	442
541.934	424
542.147	450
542.361	431
542.575	425
542.789	449
543.002	425
543.216	441
543.43	455
543.644	445
543.857	433
544.071	423
544.285	436
544.498	443
544.712	431
544.925	436
545.139	411
545.352	408
545.566	418
545.779	418
545.993	432
546.206	407
546.42	420
546.633	428
546.847	413
547.06	382
547.274	401
547.487	407
547.7	398
547.914	394
548.127	389
548.34	403
548.554	401
548.767	385
548.98	377
549.193	397
549.407	384
549.62	386
549.833	395
550.046	386
550.259	387
550.473	383
550.686	405
550.899	391
551.112	370
551.325	371
551.538	379
551.751	412
551.964	394
552.177	404
552.39	378
552.603	398
552.816	399
553.029	390
553.242	394
553.455	389
553.667	415
553.88	417
554.093	420
554.306	415
554.519	392
554.732	388
554.944	403
555.157	385
555.37	371
555.583	389
555.795	390
556.008	373
556.221	378
556.433	379
556.646	374
556.859	370
557.071	369
557.284	364
557.496	373
557.709	368
557.921	348
558.134	345
558.346	375
558.559	358
558.771	351
558.984	342
559.196	343
559.409	358
559.621	377
559.833	364
560.046	355
560.258	360
560.47	361
560.683	362
560.895	387
561.107	351
561.32	355
561.532	346
561.744	363
561.956	338
562.168	364
562.381	351
562.593	355
562.805	364
563.017	368
563.229	349
563.441	363
563.653	362
563.865	349
564.077	358
564.289	356
564.501	358
564.713	376
564.925	369
565.137	362
565.349	345
565.561	363
565.773	380
565.985	369
566.197	368
566.408	380
566.62	393
566.832	372
567.044	378
567.255	383
567.467	390
567.679	373
567.891	379
568.102	391
568.314	404
568.526	383
568.737	387
568.949	359
569.161	351
569.372	339
569.584	352
569.795	336
570.007	362
570.218	433
570.43	427
570.641	342
570.853	353
571.064	354
571.276	327
571.487	334
571.698	335
571.91	325
572.121	337
572.333	316
572.544	312
572.755	332
572.966	333
573.178	324
573.389	329
573.6	323
573.811	305
574.023	311
574.234	330
574.445	304
574.656	307
574.867	314
575.078	290
575.289	315
575.501	313
575.712	294
575.923	311
576.134	301
576.345	303
576.556	294
576.767	312
576.978	293
577.188	323
577.399	305
577.61	284
577.821	289
578.032	327
578.243	361
578.454	713
578.665	530
578.875	348
579.086	303
579.297	292
579.508	324
579.718	295
579.929	297
580.14	288
580.35	278
580.561	287
580.772	281
580.982	277
581.193	285
581.403	292
581.614	278
581.825	290
582.035	272
582.246	285
582.456	277
582.667	284
582.877	268
583.087	280
583.298	281
583.508	290
583.719	282
583.929	286
584.139	291
584.35	268
584.56	279
584.77	274
584.981	284
585.191	294
585.401	251
585.611	288
585.821	276
586.032	279
586.242	292
586.452	296
586.662	276
586.872	280
587.082	286
587.292	264
587.502	274
587.713	261
587.923	275
588.133	265
588.343	255
588.553	254
588.762	276
588.972	288
589.182	283
589.392	271
589.602	265
589.812	291
590.022	273
590.232	269
590.441	256
590.651	259
590.861	263
591.071	261
591.281	265
591.49	273
591.7	263
591.91	271
592.119	272
592.329	284
592.539	271
592.748	258
592.958	262
593.167	273
593.377	268
593.587	264
593.796	286
594.006	277
594.215	260
594.424	277
594.634	270
594.843	279
595.053	274
595.262	263
595.472	255
595.681	257
595.89	244
596.1	266
596.309	258
596.518	269
596.727	250
596.937	243
597.146	253
597.355	245
597.564	233
597.774	247
597.983	249
598.192	263
598.401	254
598.61	237
598.819	243
599.028	255
599.237	232
599.446	247
599.655	242
599.864	242
600.073	239
600.282	234
600.491	239
600.7	234
600.909	232
601.118	236
601.327	236
601.536	223
601.745	245
601.953	226
602.162	217
602.371	217
602.58	228
602.789	250
602.997	230
603.206	248
603.415	240
603.623	237
603.832	231
604.041	215
604.249	232
604.458	218
604.666	229
604.875	227
605.084	216
605.292	234
605.501	233
605.709	211
605.918	204
606.126	224
606.334	231
606.543	240
606.751	223
606.96	222
607.168	239
607.376	222
607.585	212
607.793	213
608.001	213
608.21	226
608.418	227
608.626	202
608.834	236
609.043	225
609.251	213
609.459	221
609.667	228
609.875	223
610.083	203
610.291	218
610.499	213
610.707	221
610.916	209
611.124	224
611.332	228
611.54	235
611.748	221
611.955	205
612.163	220
612.371	223
612.579	218
612.787	223
612.995	214
613.203	201
613.411	202
613.618	198
613.826	214
614.034	222
614.242	205
614.449	212
614.657	212
614.865	213
615.072	224
615.28	211
615.488	208
615.695	219
615.903	220
616.111	217
616.318	199
616.526	212
616.733	214
616.941	211
617.148	207
617.356	229
617.563	209
617.771	212
617.978	206
618.185	228
618.393	204
618.6	222
618.807	214
619.015	206
619.222	216
619.429	177
619.637	213
619.844	201
620.051	203
620.258	189
620.466	210
620.673	206
620.88	205
621.087	206
621.294	196
621.501	210
621.708	191
621.915	193
622.122	199
622.329	207
622.536	203
622.743	201
622.95	198
623.157	196
623.364	201
623.571	195
623.778	197
623.985	213
624.192	212
624.399	190
624.606	198
624.812	197
625.019	204
625.226	202
625.433	192
625.639	192
625.846	193
626.053	200
626.259	186
626.466	192
626.673	205
626.879	197
627.086	223
627.293	191
627.499	199
627.706	200
627.912	208
628.119	187
628.325	200
628.532	183
628.738	181
628.945	185
629.151	201
629.357	190
629.564	206
629.77	177
629.976	195
630.183	189
630.389	175
630.595	192
630.802	188
631.008	181
631.214	181
631.42	171
631.627	175
631.833	188
632.039	171
632.245	175
632.451	189
632.657	177
632.863	172
633.069	179
633.275	180
633.481	184
633.688	160
633.893	193
634.099	170
634.305	169
634.511	187
634.717	166
634.923	159
635.129	157
635.335	165
635.541	167
635.747	159
635.952	168
636.158	175
636.364	155
636.57	178
636.775	176
636.981	161
637.187	171
637.392	165
637.598	161
637.804	169
638.009	165
638.215	160
638.421	170
638.626	172
638.832	166
639.037	156
639.243	169
639.448	151
639.654	173
639.859	163
640.065	151
640.27	172
640.475	156
640.681	168
640.886	158
641.091	159
641.297	172
641.502	164
641.707	142
641.913	166
642.118	179
642.323	163
642.528	147
642.733	161
642.939	169
643.144	162
643.349	156
643.554	166
643.759	172
643.964	149
644.169	130
644.374	137
644.579	155
644.784	167
644.989	166
645.194	150
645.399	146
645.604	155
645.809	155
646.014	168
646.219	154
646.423	153
646.628	150
646.833	165
647.038	157
647.243	154
647.447	154
647.652	161
647.857	158
648.062	154
648.266	152
648.471	161
648.676	151
648.88	172
649.085	147
649.289	155
649.494	165
649.698	173
649.903	163
650.107	150
650.312	157
650.516	156
650.721	144
650.925	131
651.13	141
651.334	156
651.539	155
651.743	134
651.947	125
652.152	135
652.356	132
652.56	123
652.764	123
652.969	139
653.173	143
653.377	133
653.581	126
653.785	137
653.99	125
654.194	119
654.398	130
654.602	134
654.806	123
655.01	137
655.214	153
655.418	117
655.622	116
655.826	120
656.03	123
656.234	117
656.438	119
656.642	117
656.846	121
657.049	117
657.253	107
657.457	100
657.661	111
657.865	109
658.068	111
658.272	115
658.476	99
658.68	97
658.883	104
659.087	96
659.291	101
659.494	99
659.698	87
659.901	86
660.105	96
660.309	90
660.512	92
660.716	96
660.919	91
661.123	74
661.326	104
661.53	76
661.733	77
661.936	89
662.14	77
662.343	69
662.546	91
662.75	84
662.953	85
663.156	77
663.36	91
663.563	84
663.766	83
663.969	77
664.173	80
664.376	92
664.579	87
664.782	91
664.985	90
665.188	72
665.391	89
665.594	86
665.797	78
666	72
666.203	87
666.406	82
666.609	79
666.812	80
667.015	88
667.218	86
667.421	87
667.624	93
667.827	88
668.03	76
668.232	74
668.435	79
668.638	85
668.841	87
669.043	81
669.246	76
669.449	95
669.651	65
669.854	80
670.057	83
670.259	70
670.462	77
670.665	91
670.867	79
671.07	76
671.272	93
671.475	79
671.677	75
671.88	89
672.082	91
672.284	67
672.487	87
672.689	78
672.892	78
