Data from 1988.PennyLincolnUp.Lamp.En5.5.200Scan.071819.P2_HRD10591_17-18-19-971.txt Node
Date: Thu Jul 18 17:18:19 EDT 2019
User: cochatt
Spectrometer: HR+D1059
Trigger mode: 1
Integration Time (sec): 1.000000E-1
Scans to average: 1
Electric dark correction enabled: true
Nonlinearity correction enabled: false
Boxcar width: 0
XAxis mode: Wavelengths
Number of Pixels in Spectrum: 2048
>>>>>Begin Spectral Data<<<<<
223.165	-14.19
223.4	-14.19
223.635	-14.19
223.869	-20.19
224.104	-23.19
224.338	1.81
224.573	-8.19
224.808	-19.19
225.042	-20.19
225.277	6.81
225.511	6.81
225.746	-6.19
225.98	12.81
226.215	13.81
226.449	19.81
226.683	17.81
226.918	5.81
227.152	25.81
227.387	38.81
227.621	35.81
227.856	34.81
228.09	46.81
228.324	45.81
228.559	45.81
228.793	61.81
229.027	84.81
229.262	93.81
229.496	84.81
229.73	111.81
229.964	122.81
230.199	104.81
230.433	95.81
230.667	108.81
230.901	107.81
231.136	106.81
231.37	114.81
231.604	91.81
231.838	105.81
232.072	104.81
232.306	115.81
232.541	104.81
232.775	103.81
233.009	97.81
233.243	103.81
233.477	100.81
233.711	97.81
233.945	112.81
234.179	118.81
234.413	110.81
234.647	120.81
234.881	112.81
235.115	116.81
235.349	109.81
235.583	104.81
235.817	104.81
236.051	112.81
236.285	112.81
236.519	108.81
236.753	115.81
236.987	136.81
237.221	154.81
237.455	179.81
237.689	148.81
237.922	109.81
238.156	124.81
238.39	120.81
238.624	119.81
238.858	106.81
239.091	124.81
239.325	116.81
239.559	113.81
239.793	114.81
240.027	130.81
240.26	117.81
240.494	139.81
240.728	129.81
240.961	123.81
241.195	117.81
241.429	121.81
241.662	127.81
241.896	129.81
242.13	113.81
242.363	130.81
242.597	122.81
242.83	120.81
243.064	118.81
243.298	125.81
243.531	117.81
243.765	105.81
243.998	125.81
244.232	132.81
244.465	133.81
244.699	132.81
244.932	137.81
245.166	125.81
245.399	121.81
245.633	128.81
245.866	136.81
246.099	128.81
246.333	132.81
246.566	134.81
246.8	141.81
247.033	152.81
247.266	141.81
247.5	140.81
247.733	145.81
247.966	160.81
248.2	165.81
248.433	158.81
248.666	138.81
248.899	148.81
249.133	152.81
249.366	164.81
249.599	179.81
249.832	134.81
250.066	153.81
250.299	154.81
250.532	148.81
250.765	165.81
250.998	177.81
251.231	194.81
251.465	177.81
251.698	169.81
251.931	186.81
252.164	168.81
252.397	158.81
252.63	164.81
252.863	177.81
253.096	185.81
253.329	195.81
253.562	170.81
253.795	170.81
254.028	177.81
254.261	185.81
254.494	190.81
254.727	201.81
254.96	206.81
255.193	206.81
255.426	205.81
255.659	182.81
255.892	171.81
256.124	168.81
256.357	170.81
256.59	171.81
256.823	173.81
257.056	173.81
257.289	166.81
257.521	170.81
257.754	183.81
257.987	163.81
258.22	152.81
258.452	178.81
258.685	186.81
258.918	188.81
259.151	196.81
259.383	177.81
259.616	169.81
259.849	180.81
260.081	195.81
260.314	192.81
260.547	189.81
260.779	196.81
261.012	187.81
261.244	205.81
261.477	196.81
261.71	189.81
261.942	190.81
262.175	201.81
262.407	186.81
262.64	188.81
262.872	167.81
263.105	194.81
263.337	170.81
263.57	172.81
263.802	196.81
264.035	177.81
264.267	185.81
264.499	195.81
264.732	184.81
264.964	181.81
265.197	182.81
265.429	176.81
265.661	189.81
265.894	179.81
266.126	194.81
266.358	187.81
266.591	195.81
266.823	205.81
267.055	189.81
267.287	196.81
267.52	181.81
267.752	198.81
267.984	200.81
268.216	194.81
268.448	202.81
268.681	206.81
268.913	193.81
269.145	204.81
269.377	218.81
269.609	213.81
269.841	208.81
270.073	213.81
270.306	220.81
270.538	254.81
270.77	229.81
271.002	244.81
271.234	226.81
271.466	229.81
271.698	258.81
271.93	249.81
272.162	238.81
272.394	250.81
272.626	226.81
272.858	230.81
273.09	225.81
273.322	233.81
273.553	220.81
273.785	219.81
274.017	229.81
274.249	229.81
274.481	233.81
274.713	219.81
274.945	238.81
275.176	215.81
275.408	201.81
275.64	221.81
275.872	224.81
276.104	241.81
276.335	236.81
276.567	232.81
276.799	227.81
277.031	248.81
277.262	244.81
277.494	261.81
277.726	241.81
277.957	233.81
278.189	226.81
278.421	231.81
278.652	228.81
278.884	245.81
279.115	227.81
279.347	257.81
279.579	307.81
279.81	334.81
280.042	317.81
280.273	288.81
280.505	280.81
280.736	266.81
280.968	235.81
281.199	223.81
281.431	228.81
281.662	240.81
281.894	238.81
282.125	240.81
282.356	260.81
282.588	260.81
282.819	256.81
283.051	238.81
283.282	221.81
283.513	257.81
283.745	243.81
283.976	240.81
284.207	228.81
284.439	240.81
284.67	250.81
284.901	247.81
285.132	243.81
285.364	263.81
285.595	267.81
285.826	234.81
286.057	244.81
286.288	217.81
286.52	240.81
286.751	264.81
286.982	260.81
287.213	245.81
287.444	244.81
287.675	261.81
287.906	253.81
288.138	280.81
288.369	278.81
288.6	281.81
288.831	278.81
289.062	256.81
289.293	248.81
289.524	245.81
289.755	254.81
289.986	238.81
290.217	242.81
290.448	242.81
290.679	240.81
290.91	253.81
291.141	254.81
291.371	266.81
291.602	273.81
291.833	266.81
292.064	253.81
292.295	262.81
292.526	274.81
292.757	273.81
292.987	254.81
293.218	243.81
293.449	271.81
293.68	262.81
293.91	256.81
294.141	268.81
294.372	270.81
294.603	258.81
294.833	269.81
295.064	250.81
295.295	250.81
295.525	244.81
295.756	238.81
295.987	266.81
296.217	272.81
296.448	300.81
296.679	270.81
296.909	262.81
297.14	267.81
297.37	276.81
297.601	281.81
297.831	279.81
298.062	273.81
298.292	281.81
298.523	282.81
298.753	279.81
298.984	280.81
299.214	293.81
299.445	285.81
299.675	288.81
299.905	275.81
300.136	265.81
300.366	270.81
300.597	292.81
300.827	292.81
301.057	281.81
301.288	293.81
301.518	305.81
301.748	287.81
301.979	292.81
302.209	286.81
302.439	301.81
302.669	276.81
302.9	277.81
303.13	283.81
303.36	284.81
303.59	282.81
303.82	302.81
304.051	300.81
304.281	292.81
304.511	294.81
304.741	279.81
304.971	304.81
305.201	290.81
305.431	285.81
305.661	286.81
305.891	282.81
306.121	299.81
306.352	303.81
306.582	305.81
306.812	291.81
307.042	283.81
307.272	293.81
307.502	286.81
307.731	296.81
307.961	292.81
308.191	304.81
308.421	298.81
308.651	305.81
308.881	309.81
309.111	313.81
309.341	324.81
309.571	326.81
309.8	310.81
310.03	325.81
310.26	313.81
310.49	322.81
310.72	321.81
310.949	317.81
311.179	332.81
311.409	334.81
311.639	308.81
311.868	320.81
312.098	350.81
312.328	323.81
312.557	312.81
312.787	331.81
313.017	345.81
313.246	337.81
313.476	344.81
313.706	329.81
313.935	327.81
314.165	348.81
314.394	352.81
314.624	341.81
314.853	333.81
315.083	333.81
315.312	324.81
315.542	326.81
315.771	332.81
316.001	334.81
316.23	341.81
316.46	344.81
316.689	336.81
316.919	324.81
317.148	343.81
317.377	365.81
317.607	334.81
317.836	343.81
318.065	327.81
318.295	357.81
318.524	343.81
318.753	341.81
318.983	314.81
319.212	330.81
319.441	332.81
319.67	331.81
319.9	332.81
320.129	338.81
320.358	329.81
320.587	361.81
320.816	352.81
321.046	349.81
321.275	353.81
321.504	355.81
321.733	334.81
321.962	362.81
322.191	363.81
322.42	358.81
322.649	369.81
322.878	371.81
323.108	363.81
323.337	384.81
323.566	390.81
323.795	416.81
324.024	461.81
324.253	499.81
324.482	684.81
324.71	1002.81
324.939	1421.81
325.168	1234.81
325.397	646.81
325.626	463.81
325.855	405.81
326.084	424.81
326.313	398.81
326.542	391.81
326.77	448.81
326.999	488.81
327.228	647.81
327.457	933.81
327.686	1091.81
327.914	748.81
328.143	512.81
328.372	468.81
328.6	425.81
328.829	422.81
329.058	437.81
329.287	441.81
329.515	392.81
329.744	398.81
329.972	376.81
330.201	400.81
330.43	414.81
330.658	436.81
330.887	446.81
331.115	450.81
331.344	422.81
331.572	398.81
331.801	397.81
332.03	397.81
332.258	368.81
332.486	380.81
332.715	384.81
332.943	377.81
333.172	396.81
333.4	397.81
333.629	397.81
333.857	411.81
334.085	389.81
334.314	405.81
334.542	397.81
334.771	409.81
334.999	406.81
335.227	417.81
335.455	402.81
335.684	400.81
335.912	391.81
336.14	393.81
336.369	412.81
336.597	402.81
336.825	398.81
337.053	396.81
337.281	402.81
337.51	388.81
337.738	382.81
337.966	387.81
338.194	376.81
338.422	401.81
338.65	387.81
338.878	390.81
339.106	362.81
339.334	368.81
339.562	407.81
339.79	379.81
340.018	388.81
340.246	369.81
340.474	374.81
340.702	388.81
340.93	384.81
341.158	379.81
341.386	366.81
341.614	370.81
341.842	379.81
342.07	378.81
342.298	379.81
342.526	357.81
342.754	355.81
342.981	372.81
343.209	379.81
343.437	384.81
343.665	381.81
343.893	396.81
344.12	402.81
344.348	398.81
344.576	399.81
344.804	381.81
345.031	397.81
345.259	377.81
345.487	381.81
345.714	402.81
345.942	368.81
346.17	374.81
346.397	349.81
346.625	380.81
346.853	372.81
347.08	368.81
347.308	357.81
347.535	379.81
347.763	384.81
347.99	374.81
348.218	374.81
348.445	388.81
348.673	383.81
348.9	373.81
349.128	360.81
349.355	375.81
349.583	361.81
349.81	359.81
350.037	361.81
350.265	343.81
350.492	348.81
350.72	363.81
350.947	361.81
351.174	389.81
351.402	364.81
351.629	374.81
351.856	364.81
352.083	378.81
352.311	383.81
352.538	384.81
352.765	398.81
352.992	368.81
353.22	354.81
353.447	360.81
353.674	344.81
353.901	377.81
354.128	349.81
354.355	348.81
354.583	354.81
354.81	358.81
355.037	354.81
355.264	345.81
355.491	348.81
355.718	351.81
355.945	388.81
356.172	353.81
356.399	357.81
356.626	366.81
356.853	358.81
357.08	334.81
357.307	357.81
357.534	352.81
357.761	363.81
357.988	355.81
358.215	380.81
358.441	358.81
358.668	342.81
358.895	362.81
359.122	359.81
359.349	378.81
359.576	348.81
359.802	370.81
360.029	397.81
360.256	406.81
360.483	394.81
360.709	356.81
360.936	365.81
361.163	389.81
361.39	381.81
361.616	357.81
361.843	368.81
362.07	372.81
362.296	368.81
362.523	367.81
362.749	368.81
362.976	369.81
363.203	369.81
363.429	373.81
363.656	367.81
363.882	353.81
364.109	388.81
364.335	370.81
364.562	381.81
364.788	367.81
365.015	356.81
365.241	351.81
365.468	376.81
365.694	365.81
365.92	361.81
366.147	380.81
366.373	370.81
366.599	353.81
366.826	371.81
367.052	355.81
367.278	354.81
367.505	365.81
367.731	368.81
367.957	371.81
368.184	346.81
368.41	365.81
368.636	358.81
368.862	377.81
369.089	394.81
369.315	366.81
369.541	378.81
369.767	359.81
369.993	350.81
370.219	375.81
370.445	350.81
370.672	356.81
370.898	363.81
371.124	391.81
371.35	374.81
371.576	381.81
371.802	359.81
372.028	367.81
372.254	368.81
372.48	368.81
372.706	361.81
372.932	384.81
373.158	367.81
373.384	361.81
373.61	365.81
373.835	376.81
374.061	365.81
374.287	365.81
374.513	376.81
374.739	386.81
374.965	405.81
375.191	373.81
375.416	380.81
375.642	395.81
375.868	389.81
376.094	384.81
376.319	377.81
376.545	349.81
376.771	375.81
376.997	365.81
377.222	366.81
377.448	361.81
377.674	368.81
377.899	387.81
378.125	377.81
378.35	371.81
378.576	377.81
378.802	362.81
379.027	376.81
379.253	363.81
379.478	374.81
379.704	386.81
379.929	386.81
380.155	375.81
380.38	397.81
380.606	376.81
380.831	380.81
381.057	369.81
381.282	380.81
381.507	377.81
381.733	372.81
381.958	400.81
382.184	391.81
382.409	412.81
382.634	385.81
382.86	370.81
383.085	394.81
383.31	393.81
383.535	396.81
383.761	402.81
383.986	408.81
384.211	382.81
384.436	398.81
384.662	397.81
384.887	419.81
385.112	399.81
385.337	386.81
385.562	388.81
385.787	417.81
386.013	430.81
386.238	432.81
386.463	445.81
386.688	421.81
386.913	413.81
387.138	436.81
387.363	434.81
387.588	422.81
387.813	422.81
388.038	421.81
388.263	438.81
388.488	425.81
388.713	440.81
388.938	416.81
389.163	425.81
389.387	416.81
389.612	424.81
389.837	427.81
390.062	403.81
390.287	411.81
390.512	424.81
390.736	412.81
390.961	418.81
391.186	416.81
391.411	437.81
391.636	407.81
391.86	442.81
392.085	422.81
392.31	408.81
392.534	426.81
392.759	443.81
392.984	456.81
393.208	485.81
393.433	593.81
393.658	636.81
393.882	462.81
394.107	460.81
394.331	437.81
394.556	430.81
394.78	414.81
395.005	424.81
395.229	425.81
395.454	434.81
395.678	434.81
395.903	440.81
396.127	469.81
396.352	473.81
396.576	472.81
396.801	496.81
397.025	538.81
397.249	510.81
397.474	473.81
397.698	443.81
397.922	469.81
398.147	488.81
398.371	462.81
398.595	475.81
398.82	477.81
399.044	477.81
399.268	507.81
399.492	521.81
399.717	537.81
399.941	547.81
400.165	562.81
400.389	575.81
400.613	512.81
400.837	489.81
401.062	504.81
401.286	499.81
401.51	503.81
401.734	458.81
401.958	460.81
402.182	472.81
402.406	472.81
402.63	478.81
402.854	464.81
403.078	473.81
403.302	484.81
403.526	498.81
403.75	500.81
403.974	484.81
404.198	490.81
404.422	510.81
404.645	489.81
404.869	499.81
405.093	514.81
405.317	519.81
405.541	523.81
405.765	497.81
405.988	497.81
406.212	488.81
406.436	530.81
406.66	547.81
406.883	522.81
407.107	550.81
407.331	545.81
407.555	628.81
407.778	616.81
408.002	560.81
408.226	545.81
408.449	552.81
408.673	530.81
408.896	558.81
409.12	565.81
409.344	552.81
409.567	520.81
409.791	487.81
410.014	508.81
410.238	469.81
410.461	478.81
410.685	491.81
410.908	503.81
411.132	537.81
411.355	551.81
411.578	536.81
411.802	502.81
412.025	497.81
412.249	483.81
412.472	473.81
412.695	470.81
412.919	479.81
413.142	477.81
413.365	447.81
413.589	459.81
413.812	459.81
414.035	461.81
414.258	458.81
414.482	477.81
414.705	457.81
414.928	467.81
415.151	462.81
415.374	462.81
415.597	456.81
415.821	444.81
416.044	467.81
416.267	452.81
416.49	485.81
416.713	442.81
416.936	473.81
417.159	468.81
417.382	450.81
417.605	433.81
417.828	451.81
418.051	472.81
418.274	448.81
418.497	450.81
418.72	455.81
418.943	440.81
419.166	467.81
419.389	483.81
419.611	485.81
419.834	475.81
420.057	472.81
420.28	455.81
420.503	475.81
420.726	464.81
420.948	455.81
421.171	514.81
421.394	520.81
421.617	475.81
421.839	457.81
422.062	484.81
422.285	468.81
422.507	528.81
422.73	587.81
422.953	588.81
423.175	521.81
423.398	481.81
423.621	476.81
423.843	497.81
424.066	496.81
424.288	487.81
424.511	491.81
424.733	549.81
424.956	598.81
425.178	603.81
425.401	583.81
425.623	609.81
425.846	514.81
426.068	473.81
426.291	487.81
426.513	478.81
426.735	501.81
426.958	540.81
427.18	587.81
427.402	688.81
427.625	736.81
427.847	596.81
428.069	546.81
428.292	517.81
428.514	487.81
428.736	464.81
428.958	473.81
429.181	452.81
429.403	451.81
429.625	467.81
429.847	486.81
430.069	534.81
430.292	528.81
430.514	468.81
430.736	478.81
430.958	452.81
431.18	452.81
431.402	444.81
431.624	439.81
431.846	451.81
432.068	452.81
432.29	438.81
432.512	425.81
432.734	444.81
432.956	446.81
433.178	442.81
433.4	462.81
433.622	453.81
433.844	463.81
434.066	456.81
434.287	450.81
434.509	472.81
434.731	468.81
434.953	445.81
435.175	462.81
435.397	499.81
435.618	489.81
435.84	540.81
436.062	587.81
436.284	649.81
436.505	540.81
436.727	494.81
436.949	482.81
437.17	465.81
437.392	465.81
437.614	467.81
437.835	500.81
438.057	571.81
438.278	583.81
438.5	640.81
438.721	678.81
438.943	673.81
439.165	523.81
439.386	525.81
439.608	484.81
439.829	476.81
440.05	501.81
440.272	522.81
440.493	497.81
440.715	475.81
440.936	454.81
441.158	463.81
441.379	474.81
441.6	475.81
441.822	481.81
442.043	519.81
442.264	579.81
442.486	630.81
442.707	532.81
442.928	511.81
443.149	506.81
443.371	500.81
443.592	561.81
443.813	627.81
444.034	680.81
444.255	557.81
444.476	523.81
444.698	505.81
444.919	535.81
445.14	611.81
445.361	558.81
445.582	522.81
445.803	576.81
446.024	633.81
446.245	613.81
446.466	589.81
446.687	523.81
446.908	500.81
447.129	463.81
447.35	450.81
447.571	460.81
447.792	461.81
448.013	457.81
448.234	460.81
448.455	499.81
448.675	603.81
448.896	685.81
449.117	584.81
449.338	553.81
449.559	645.81
449.779	732.81
450	576.81
450.221	488.81
450.442	449.81
450.662	460.81
450.883	438.81
451.104	476.81
451.324	450.81
451.545	421.81
451.766	435.81
451.986	413.81
452.207	403.81
452.428	406.81
452.648	417.81
452.869	410.81
453.089	411.81
453.31	438.81
453.53	425.81
453.751	422.81
453.971	420.81
454.192	407.81
454.412	404.81
454.633	407.81
454.853	402.81
455.073	411.81
455.294	454.81
455.514	470.81
455.734	461.81
455.955	412.81
456.175	402.81
456.395	398.81
456.616	386.81
456.836	396.81
457.056	380.81
457.276	391.81
457.497	403.81
457.717	400.81
457.937	420.81
458.157	411.81
458.377	408.81
458.598	437.81
458.818	463.81
459.038	515.81
459.258	522.81
459.478	484.81
459.698	456.81
459.918	470.81
460.138	463.81
460.358	468.81
460.578	450.81
460.798	459.81
461.018	460.81
461.238	470.81
461.458	483.81
461.678	474.81
461.898	484.81
462.118	461.81
462.338	500.81
462.558	477.81
462.777	504.81
462.997	518.81
463.217	529.81
463.437	521.81
463.657	531.81
463.876	483.81
464.096	516.81
464.316	492.81
464.536	508.81
464.755	503.81
464.975	506.81
465.195	501.81
465.414	538.81
465.634	494.81
465.854	487.81
466.073	451.81
466.293	458.81
466.512	452.81
466.732	434.81
466.951	422.81
467.171	446.81
467.391	452.81
467.61	444.81
467.829	423.81
468.049	454.81
468.268	418.81
468.488	429.81
468.707	407.81
468.927	452.81
469.146	435.81
469.365	422.81
469.585	419.81
469.804	433.81
470.023	448.81
470.243	443.81
470.462	454.81
470.681	457.81
470.901	446.81
471.12	454.81
471.339	450.81
471.558	441.81
471.777	454.81
471.997	427.81
472.216	417.81
472.435	443.81
472.654	429.81
472.873	441.81
473.092	445.81
473.311	444.81
473.53	447.81
473.749	449.81
473.968	468.81
474.187	530.81
474.406	553.81
474.625	467.81
474.844	450.81
475.063	446.81
475.282	443.81
475.501	450.81
475.72	445.81
475.939	450.81
476.158	447.81
476.377	476.81
476.596	460.81
476.814	472.81
477.033	474.81
477.252	470.81
477.471	462.81
477.69	489.81
477.908	484.81
478.127	501.81
478.346	508.81
478.564	493.81
478.783	506.81
479.002	511.81
479.22	524.81
479.439	554.81
479.658	530.81
479.876	545.81
480.095	544.81
480.313	545.81
480.532	550.81
480.751	525.81
480.969	524.81
481.188	522.81
481.406	530.81
481.624	536.81
481.843	520.81
482.061	506.81
482.28	517.81
482.498	558.81
482.717	526.81
482.935	505.81
483.153	523.81
483.372	535.81
483.59	534.81
483.808	530.81
484.027	509.81
484.245	537.81
484.463	535.81
484.681	524.81
484.9	542.81
485.118	536.81
485.336	548.81
485.554	534.81
485.772	567.81
485.99	542.81
486.209	539.81
486.427	555.81
486.645	553.81
486.863	564.81
487.081	560.81
487.299	526.81
487.517	544.81
487.735	550.81
487.953	568.81
488.171	547.81
488.389	562.81
488.607	541.81
488.825	562.81
489.043	562.81
489.261	572.81
489.479	551.81
489.696	554.81
489.914	566.81
490.132	553.81
490.35	587.81
490.568	588.81
490.786	569.81
491.003	554.81
491.221	603.81
491.439	572.81
491.657	589.81
491.874	602.81
492.092	606.81
492.31	609.81
492.527	605.81
492.745	603.81
492.963	621.81
493.18	616.81
493.398	620.81
493.615	617.81
493.833	621.81
494.05	633.81
494.268	636.81
494.485	620.81
494.703	626.81
494.92	636.81
495.138	630.81
495.355	632.81
495.573	624.81
495.79	657.81
496.008	649.81
496.225	629.81
496.442	653.81
496.66	631.81
496.877	641.81
497.094	676.81
497.312	669.81
497.529	677.81
497.746	648.81
497.963	692.81
498.181	712.81
498.398	714.81
498.615	747.81
498.832	764.81
499.049	747.81
499.267	788.81
499.484	804.81
499.701	822.81
499.918	864.81
500.135	918.81
500.352	953.81
500.569	940.81
500.786	954.81
501.003	941.81
501.22	890.81
501.437	878.81
501.654	861.81
501.871	846.81
502.088	831.81
502.305	798.81
502.522	752.81
502.739	732.81
502.956	715.81
503.172	731.81
503.389	734.81
503.606	692.81
503.823	708.81
504.04	677.81
504.256	670.81
504.473	665.81
504.69	664.81
504.907	663.81
505.123	661.81
505.34	629.81
505.557	652.81
505.773	629.81
505.99	612.81
506.207	623.81
506.423	604.81
506.64	616.81
506.856	605.81
507.073	614.81
507.289	582.81
507.506	604.81
507.722	605.81
507.939	605.81
508.155	589.81
508.372	586.81
508.588	570.81
508.805	577.81
509.021	566.81
509.238	583.81
509.454	562.81
509.67	567.81
509.887	572.81
510.103	579.81
510.319	585.81
510.536	633.81
510.752	955.81
510.968	789.81
511.184	584.81
511.401	562.81
511.617	549.81
511.833	553.81
512.049	542.81
512.265	536.81
512.481	559.81
512.698	524.81
512.914	524.81
513.13	564.81
513.346	526.81
513.562	531.81
513.778	547.81
513.994	545.81
514.21	542.81
514.426	564.81
514.642	576.81
514.858	600.81
515.074	644.81
515.29	706.81
515.506	950.81
515.721	848.81
515.937	639.81
516.153	595.81
516.369	585.81
516.585	585.81
516.801	582.81
517.016	576.81
517.232	600.81
517.448	579.81
517.664	558.81
517.879	601.81
518.095	602.81
518.311	569.81
518.527	582.81
518.742	570.81
518.958	562.81
519.173	544.81
519.389	549.81
519.605	564.81
519.82	557.81
520.036	571.81
520.251	581.81
520.467	579.81
520.682	591.81
520.898	566.81
521.113	588.81
521.329	611.81
521.544	684.81
521.76	774.81
521.975	1155.81
522.19	1181.81
522.406	717.81
522.621	610.81
522.836	566.81
523.052	545.81
523.267	534.81
523.482	493.81
523.698	529.81
523.913	505.81
524.128	505.81
524.343	504.81
524.559	515.81
524.774	484.81
524.989	476.81
525.204	514.81
525.419	493.81
525.634	487.81
525.849	484.81
526.064	467.81
526.28	487.81
526.495	482.81
526.71	488.81
526.925	456.81
527.14	482.81
527.355	476.81
527.57	471.81
527.785	464.81
527.999	477.81
528.214	469.81
528.429	473.81
528.644	480.81
528.859	484.81
529.074	501.81
529.289	482.81
529.503	506.81
529.718	512.81
529.933	515.81
530.148	482.81
530.363	459.81
530.577	462.81
530.792	460.81
531.007	464.81
531.221	477.81
531.436	478.81
531.651	452.81
531.865	481.81
532.08	443.81
532.295	456.81
532.509	437.81
532.724	459.81
532.938	469.81
533.153	471.81
533.367	452.81
533.582	454.81
533.796	452.81
534.011	481.81
534.225	454.81
534.44	445.81
534.654	451.81
534.868	430.81
535.083	458.81
535.297	451.81
535.511	452.81
535.726	453.81
535.94	434.81
536.154	451.81
536.369	451.81
536.583	454.81
536.797	440.81
537.011	444.81
537.225	437.81
537.44	447.81
537.654	451.81
537.868	441.81
538.082	444.81
538.296	448.81
538.51	439.81
538.724	444.81
538.938	441.81
539.153	425.81
539.367	445.81
539.581	453.81
539.795	453.81
540.009	443.81
540.222	421.81
540.436	455.81
540.65	424.81
540.864	442.81
541.078	455.81
541.292	445.81
541.506	447.81
541.72	412.81
541.934	444.81
542.147	445.81
542.361	440.81
542.575	443.81
542.789	438.81
543.002	425.81
543.216	440.81
543.43	436.81
543.644	443.81
543.857	443.81
544.071	422.81
544.285	451.81
544.498	428.81
544.712	434.81
544.925	423.81
545.139	446.81
545.352	426.81
545.566	444.81
545.779	445.81
545.993	434.81
546.206	429.81
546.42	428.81
546.633	440.81
546.847	429.81
547.06	437.81
547.274	429.81
547.487	429.81
547.7	436.81
547.914	424.81
548.127	424.81
548.34	431.81
548.554	408.81
548.767	416.81
548.98	420.81
549.193	412.81
549.407	444.81
549.62	432.81
549.833	419.81
550.046	417.81
550.259	428.81
550.473	434.81
550.686	434.81
550.899	430.81
551.112	433.81
551.325	421.81
551.538	411.81
551.751	432.81
551.964	436.81
552.177	418.81
552.39	397.81
552.603	434.81
552.816	418.81
553.029	417.81
553.242	468.81
553.455	445.81
553.667	453.81
553.88	448.81
554.093	439.81
554.306	426.81
554.519	440.81
554.732	437.81
554.944	424.81
555.157	403.81
555.37	405.81
555.583	419.81
555.795	410.81
556.008	383.81
556.221	386.81
556.433	396.81
556.646	377.81
556.859	383.81
557.071	397.81
557.284	395.81
557.496	391.81
557.709	399.81
557.921	399.81
558.134	380.81
558.346	406.81
558.559	368.81
558.771	399.81
558.984	381.81
559.196	395.81
559.409	397.81
559.621	406.81
559.833	396.81
560.046	363.81
560.258	384.81
560.47	395.81
560.683	375.81
560.895	395.81
561.107	393.81
561.32	380.81
561.532	381.81
561.744	387.81
561.956	382.81
562.168	380.81
562.381	387.81
562.593	401.81
562.805	400.81
563.017	366.81
563.229	374.81
563.441	391.81
563.653	393.81
563.865	369.81
564.077	393.81
564.289	391.81
564.501	398.81
564.713	400.81
564.925	408.81
565.137	408.81
565.349	413.81
565.561	415.81
565.773	423.81
565.985	426.81
566.197	425.81
566.408	457.81
566.62	449.81
566.832	462.81
567.044	476.81
567.255	490.81
567.467	481.81
567.679	483.81
567.891	476.81
568.102	502.81
568.314	502.81
568.526	449.81
568.737	462.81
568.949	450.81
569.161	422.81
569.372	406.81
569.584	421.81
569.795	401.81
570.007	407.81
570.218	427.81
570.43	420.81
570.641	407.81
570.853	384.81
571.064	386.81
571.276	394.81
571.487	374.81
571.698	356.81
571.91	361.81
572.121	355.81
572.333	331.81
572.544	375.81
572.755	366.81
572.966	354.81
573.178	357.81
573.389	379.81
573.6	346.81
573.811	345.81
574.023	334.81
574.234	325.81
574.445	342.81
574.656	315.81
574.867	329.81
575.078	331.81
575.289	339.81
575.501	325.81
575.712	325.81
575.923	338.81
576.134	332.81
576.345	323.81
576.556	326.81
576.767	329.81
576.978	324.81
577.188	309.81
577.399	324.81
577.61	331.81
577.821	319.81
578.032	314.81
578.243	341.81
578.454	476.81
578.665	391.81
578.875	316.81
579.086	320.81
579.297	312.81
579.508	331.81
579.718	296.81
579.929	299.81
580.14	309.81
580.35	310.81
580.561	321.81
580.772	320.81
580.982	301.81
581.193	294.81
581.403	304.81
581.614	304.81
581.825	306.81
582.035	290.81
582.246	300.81
582.456	300.81
582.667	304.81
582.877	298.81
583.087	301.81
583.298	297.81
583.508	291.81
583.719	295.81
583.929	300.81
584.139	310.81
584.35	294.81
584.56	308.81
584.77	313.81
584.981	295.81
585.191	298.81
585.401	292.81
585.611	306.81
585.821	284.81
586.032	300.81
586.242	300.81
586.452	280.81
586.662	286.81
586.872	274.81
587.082	305.81
587.292	297.81
587.502	290.81
587.713	289.81
587.923	299.81
588.133	299.81
588.343	315.81
588.553	301.81
588.762	278.81
588.972	297.81
589.182	370.81
589.392	377.81
589.602	299.81
589.812	334.81
590.022	328.81
590.232	314.81
590.441	299.81
590.651	282.81
590.861	293.81
591.071	330.81
591.281	320.81
591.49	314.81
591.7	300.81
591.91	305.81
592.119	322.81
592.329	299.81
592.539	320.81
592.748	311.81
592.958	325.81
593.167	318.81
593.377	305.81
593.587	309.81
593.796	324.81
594.006	297.81
594.215	316.81
594.424	322.81
594.634	320.81
594.843	306.81
595.053	315.81
595.262	276.81
595.472	282.81
595.681	294.81
595.89	307.81
596.1	299.81
596.309	274.81
596.518	272.81
596.727	283.81
596.937	264.81
597.146	267.81
597.355	297.81
597.564	272.81
597.774	264.81
597.983	285.81
598.192	269.81
598.401	263.81
598.61	279.81
598.819	265.81
599.028	265.81
599.237	276.81
599.446	272.81
599.655	255.81
599.864	270.81
600.073	244.81
600.282	266.81
600.491	258.81
600.7	268.81
600.909	244.81
601.118	259.81
601.327	241.81
601.536	257.81
601.745	255.81
601.953	267.81
602.162	244.81
602.371	254.81
602.58	243.81
602.789	282.81
602.997	258.81
603.206	258.81
603.415	256.81
603.623	255.81
603.832	257.81
604.041	231.81
604.249	252.81
604.458	229.81
604.666	254.81
604.875	245.81
605.084	249.81
605.292	244.81
605.501	237.81
605.709	258.81
605.918	248.81
606.126	242.81
606.334	256.81
606.543	228.81
606.751	238.81
606.96	240.81
607.168	248.81
607.376	255.81
607.585	267.81
607.793	228.81
608.001	244.81
608.21	254.81
608.418	241.81
608.626	239.81
608.834	250.81
609.043	236.81
609.251	261.81
609.459	252.81
609.667	237.81
609.875	238.81
610.083	242.81
610.291	242.81
610.499	236.81
610.707	221.81
610.916	226.81
611.124	245.81
611.332	247.81
611.54	244.81
611.748	237.81
611.955	244.81
612.163	236.81
612.371	246.81
612.579	233.81
612.787	244.81
612.995	242.81
613.203	232.81
613.411	227.81
613.618	230.81
613.826	241.81
614.034	236.81
614.242	240.81
614.449	231.81
614.657	233.81
614.865	237.81
615.072	233.81
615.28	223.81
615.488	252.81
615.695	220.81
615.903	233.81
616.111	227.81
616.318	257.81
616.526	245.81
616.733	230.81
616.941	234.81
617.148	244.81
617.356	241.81
617.563	240.81
617.771	248.81
617.978	246.81
618.185	224.81
618.393	219.81
618.6	237.81
618.807	245.81
619.015	227.81
619.222	241.81
619.429	234.81
619.637	236.81
619.844	240.81
620.051	218.81
620.258	213.81
620.466	202.81
620.673	244.81
620.88	227.81
621.087	223.81
621.294	232.81
621.501	222.81
621.708	198.81
621.915	229.81
622.122	233.81
622.329	200.81
622.536	229.81
622.743	207.81
622.95	214.81
623.157	217.81
623.364	228.81
623.571	230.81
623.778	211.81
623.985	235.81
624.192	188.81
624.399	206.81
624.606	196.81
624.812	217.81
625.019	219.81
625.226	214.81
625.433	202.81
625.639	210.81
625.846	202.81
626.053	196.81
626.259	200.81
626.466	205.81
626.673	225.81
626.879	195.81
627.086	213.81
627.293	220.81
627.499	192.81
627.706	191.81
627.912	185.81
628.119	204.81
628.325	207.81
628.532	220.81
628.738	204.81
628.945	204.81
629.151	201.81
629.357	193.81
629.564	194.81
629.77	211.81
629.976	203.81
630.183	192.81
630.389	200.81
630.595	195.81
630.802	184.81
631.008	192.81
631.214	197.81
631.42	194.81
631.627	182.81
631.833	212.81
632.039	201.81
632.245	191.81
632.451	200.81
632.657	200.81
632.863	192.81
633.069	176.81
633.275	180.81
633.481	180.81
633.688	201.81
633.893	190.81
634.099	194.81
634.305	186.81
634.511	179.81
634.717	189.81
634.923	197.81
635.129	199.81
635.335	176.81
635.541	181.81
635.747	186.81
635.952	189.81
636.158	182.81
636.364	162.81
636.57	180.81
636.775	184.81
636.981	179.81
637.187	206.81
637.392	174.81
637.598	192.81
637.804	182.81
638.009	198.81
638.215	180.81
638.421	179.81
638.626	170.81
638.832	162.81
639.037	186.81
639.243	181.81
639.448	182.81
639.654	171.81
639.859	164.81
640.065	167.81
640.27	189.81
640.475	167.81
640.681	177.81
640.886	185.81
641.091	185.81
641.297	185.81
641.502	171.81
641.707	176.81
641.913	178.81
642.118	180.81
642.323	154.81
642.528	178.81
642.733	170.81
642.939	168.81
643.144	158.81
643.349	157.81
643.554	166.81
643.759	167.81
643.964	163.81
644.169	181.81
644.374	168.81
644.579	178.81
644.784	164.81
644.989	171.81
645.194	161.81
645.399	158.81
645.604	173.81
645.809	158.81
646.014	169.81
646.219	165.81
646.423	173.81
646.628	173.81
646.833	180.81
647.038	167.81
647.243	188.81
647.447	178.81
647.652	178.81
647.857	174.81
648.062	177.81
648.266	176.81
648.471	182.81
648.676	161.81
648.88	174.81
649.085	176.81
649.289	181.81
649.494	177.81
649.698	195.81
649.903	192.81
650.107	196.81
650.312	170.81
650.516	168.81
650.721	179.81
650.925	166.81
651.13	148.81
651.334	161.81
651.539	156.81
651.743	162.81
651.947	175.81
652.152	146.81
652.356	140.81
652.56	150.81
652.764	142.81
652.969	132.81
653.173	154.81
653.377	164.81
653.581	135.81
653.785	153.81
653.99	128.81
654.194	143.81
654.398	156.81
654.602	130.81
654.806	155.81
655.01	143.81
655.214	167.81
655.418	149.81
655.622	151.81
655.826	146.81
656.03	157.81
656.234	156.81
656.438	151.81
656.642	150.81
656.846	146.81
657.049	135.81
657.253	144.81
657.457	134.81
657.661	147.81
657.865	116.81
658.068	117.81
658.272	117.81
658.476	117.81
658.68	117.81
658.883	107.81
659.087	112.81
659.291	113.81
659.494	101.81
659.698	101.81
659.901	118.81
660.105	114.81
660.309	107.81
660.512	92.81
660.716	95.81
660.919	102.81
661.123	101.81
661.326	104.81
661.53	92.81
661.733	97.81
661.936	91.81
662.14	100.81
662.343	78.81
662.546	85.81
662.75	72.81
662.953	81.81
663.156	84.81
663.36	83.81
663.563	90.81
663.766	83.81
663.969	88.81
664.173	74.81
664.376	77.81
664.579	87.81
664.782	82.81
664.985	84.81
665.188	75.81
665.391	84.81
665.594	91.81
665.797	91.81
666	84.81
666.203	71.81
666.406	81.81
666.609	82.81
666.812	82.81
667.015	72.81
667.218	96.81
667.421	78.81
667.624	86.81
667.827	87.81
668.03	83.81
668.232	84.81
668.435	92.81
668.638	78.81
668.841	102.81
669.043	88.81
669.246	87.81
669.449	83.81
669.651	74.81
669.854	74.81
670.057	78.81
670.259	80.81
670.462	90.81
670.665	75.81
670.867	81.81
671.07	79.81
671.272	77.81
671.475	91.81
671.677	81.81
671.88	67.81
672.082	85.81
672.284	83.81
672.487	78.81
672.689	81.81
672.892	77.81
